Data from 1965.PennyLincolnUp.Lamp.En5.5.200Scan.071719.P1._HRD10591_14-11-01-912.txt Node
Date: Thu Jul 18 14:11:01 EDT 2019
User: cochatt
Spectrometer: HR+D1059
Trigger mode: 1
Integration Time (sec): 1.000000E-1
Scans to average: 1
Electric dark correction enabled: true
Nonlinearity correction enabled: false
Boxcar width: 0
XAxis mode: Wavelengths
Number of Pixels in Spectrum: 2048
>>>>>Begin Spectral Data<<<<<
223.165	-6.94
223.4	-6.94
223.635	-6.94
223.869	-23.94
224.104	-12.94
224.338	-23.94
224.573	-16.94
224.808	-12.94
225.042	-2.94
225.277	-6.94
225.511	-3.94
225.746	5.06
225.98	6.06
226.215	11.06
226.449	9.06
226.683	25.06
226.918	36.06
227.152	19.06
227.387	30.06
227.621	28.06
227.856	52.06
228.09	40.06
228.324	37.06
228.559	42.06
228.793	69.06
229.027	99.06
229.262	106.06
229.496	122.06
229.73	139.06
229.964	153.06
230.199	128.06
230.433	111.06
230.667	106.06
230.901	107.06
231.136	102.06
231.37	117.06
231.604	91.06
231.838	108.06
232.072	104.06
232.306	106.06
232.541	111.06
232.775	116.06
233.009	127.06
233.243	101.06
233.477	104.06
233.711	113.06
233.945	97.06
234.179	119.06
234.413	115.06
234.647	112.06
234.881	102.06
235.115	119.06
235.349	108.06
235.583	112.06
235.817	120.06
236.051	121.06
236.285	125.06
236.519	124.06
236.753	134.06
236.987	149.06
237.221	179.06
237.455	219.06
237.689	188.06
237.922	132.06
238.156	133.06
238.39	128.06
238.624	100.06
238.858	112.06
239.091	115.06
239.325	133.06
239.559	122.06
239.793	123.06
240.027	142.06
240.26	142.06
240.494	155.06
240.728	146.06
240.961	159.06
241.195	140.06
241.429	135.06
241.662	137.06
241.896	129.06
242.13	132.06
242.363	131.06
242.597	124.06
242.83	120.06
243.064	147.06
243.298	127.06
243.531	139.06
243.765	114.06
243.998	132.06
244.232	134.06
244.465	140.06
244.699	124.06
244.932	128.06
245.166	149.06
245.399	129.06
245.633	134.06
245.866	129.06
246.099	128.06
246.333	145.06
246.566	125.06
246.8	134.06
247.033	142.06
247.266	152.06
247.5	157.06
247.733	152.06
247.966	155.06
248.2	170.06
248.433	173.06
248.666	154.06
248.899	182.06
249.133	179.06
249.366	188.06
249.599	184.06
249.832	162.06
250.066	160.06
250.299	172.06
250.532	179.06
250.765	180.06
250.998	180.06
251.231	213.06
251.465	197.06
251.698	179.06
251.931	192.06
252.164	187.06
252.397	187.06
252.63	204.06
252.863	202.06
253.096	206.06
253.329	211.06
253.562	217.06
253.795	199.06
254.028	211.06
254.261	211.06
254.494	214.06
254.727	246.06
254.96	251.06
255.193	281.06
255.426	232.06
255.659	234.06
255.892	215.06
256.124	215.06
256.357	213.06
256.59	228.06
256.823	199.06
257.056	189.06
257.289	214.06
257.521	179.06
257.754	196.06
257.987	193.06
258.22	200.06
258.452	207.06
258.685	193.06
258.918	221.06
259.151	213.06
259.383	220.06
259.616	206.06
259.849	219.06
260.081	218.06
260.314	236.06
260.547	230.06
260.779	210.06
261.012	223.06
261.244	208.06
261.477	211.06
261.71	227.06
261.942	204.06
262.175	234.06
262.407	203.06
262.64	193.06
262.872	189.06
263.105	187.06
263.337	209.06
263.57	213.06
263.802	176.06
264.035	189.06
264.267	189.06
264.499	195.06
264.732	215.06
264.964	197.06
265.197	198.06
265.429	175.06
265.661	200.06
265.894	206.06
266.126	200.06
266.358	205.06
266.591	219.06
266.823	213.06
267.055	206.06
267.287	203.06
267.52	219.06
267.752	219.06
267.984	206.06
268.216	189.06
268.448	213.06
268.681	221.06
268.913	230.06
269.145	228.06
269.377	250.06
269.609	255.06
269.841	264.06
270.073	255.06
270.306	277.06
270.538	308.06
270.77	294.06
271.002	284.06
271.234	269.06
271.466	284.06
271.698	302.06
271.93	290.06
272.162	286.06
272.394	276.06
272.626	291.06
272.858	279.06
273.09	283.06
273.322	263.06
273.553	243.06
273.785	243.06
274.017	232.06
274.249	236.06
274.481	251.06
274.713	265.06
274.945	249.06
275.176	266.06
275.408	231.06
275.64	251.06
275.872	246.06
276.104	257.06
276.335	263.06
276.567	248.06
276.799	272.06
277.031	276.06
277.262	286.06
277.494	322.06
277.726	274.06
277.957	293.06
278.189	271.06
278.421	237.06
278.652	251.06
278.884	236.06
279.115	235.06
279.347	256.06
279.579	245.06
279.81	245.06
280.042	243.06
280.273	253.06
280.505	269.06
280.736	245.06
280.968	233.06
281.199	247.06
281.431	252.06
281.662	239.06
281.894	244.06
282.125	237.06
282.356	272.06
282.588	291.06
282.819	297.06
283.051	265.06
283.282	242.06
283.513	254.06
283.745	248.06
283.976	259.06
284.207	245.06
284.439	262.06
284.67	243.06
284.901	249.06
285.132	261.06
285.364	237.06
285.595	247.06
285.826	256.06
286.057	241.06
286.288	243.06
286.52	257.06
286.751	250.06
286.982	259.06
287.213	273.06
287.444	239.06
287.675	262.06
287.906	296.06
288.138	270.06
288.369	286.06
288.6	261.06
288.831	287.06
289.062	268.06
289.293	254.06
289.524	273.06
289.755	263.06
289.986	255.06
290.217	279.06
290.448	254.06
290.679	264.06
290.91	276.06
291.141	273.06
291.371	258.06
291.602	273.06
291.833	261.06
292.064	261.06
292.295	264.06
292.526	263.06
292.757	254.06
292.987	249.06
293.218	265.06
293.449	254.06
293.68	266.06
293.91	284.06
294.141	246.06
294.372	251.06
294.603	268.06
294.833	271.06
295.064	277.06
295.295	260.06
295.525	265.06
295.756	291.06
295.987	287.06
296.217	285.06
296.448	309.06
296.679	276.06
296.909	264.06
297.14	279.06
297.37	271.06
297.601	286.06
297.831	265.06
298.062	272.06
298.292	264.06
298.523	285.06
298.753	286.06
298.984	289.06
299.214	290.06
299.445	284.06
299.675	291.06
299.905	297.06
300.136	268.06
300.366	273.06
300.597	273.06
300.827	274.06
301.057	295.06
301.288	303.06
301.518	283.06
301.748	291.06
301.979	300.06
302.209	296.06
302.439	308.06
302.669	286.06
302.9	298.06
303.13	308.06
303.36	300.06
303.59	314.06
303.82	303.06
304.051	291.06
304.281	295.06
304.511	308.06
304.741	302.06
304.971	286.06
305.201	293.06
305.431	272.06
305.661	294.06
305.891	302.06
306.121	311.06
306.352	323.06
306.582	299.06
306.812	287.06
307.042	311.06
307.272	291.06
307.502	308.06
307.731	329.06
307.961	296.06
308.191	296.06
308.421	310.06
308.651	318.06
308.881	296.06
309.111	316.06
309.341	313.06
309.571	323.06
309.8	349.06
310.03	343.06
310.26	359.06
310.49	349.06
310.72	347.06
310.949	368.06
311.179	377.06
311.409	352.06
311.639	329.06
311.868	361.06
312.098	348.06
312.328	375.06
312.557	387.06
312.787	383.06
313.017	398.06
313.246	356.06
313.476	325.06
313.706	337.06
313.935	352.06
314.165	379.06
314.394	409.06
314.624	371.06
314.853	367.06
315.083	360.06
315.312	365.06
315.542	341.06
315.771	339.06
316.001	326.06
316.23	353.06
316.46	347.06
316.689	354.06
316.919	371.06
317.148	357.06
317.377	348.06
317.607	371.06
317.836	351.06
318.065	360.06
318.295	339.06
318.524	332.06
318.753	347.06
318.983	355.06
319.212	359.06
319.441	357.06
319.67	354.06
319.9	356.06
320.129	359.06
320.358	365.06
320.587	379.06
320.816	362.06
321.046	380.06
321.275	379.06
321.504	364.06
321.733	381.06
321.962	393.06
322.191	395.06
322.42	391.06
322.649	413.06
322.878	421.06
323.108	461.06
323.337	472.06
323.566	487.06
323.795	533.06
324.024	613.06
324.253	728.06
324.482	1071.06
324.71	1660.06
324.939	2302.06
325.168	1924.06
325.397	1008.06
325.626	641.06
325.855	568.06
326.084	523.06
326.313	492.06
326.542	496.06
326.77	566.06
326.999	683.06
327.228	953.06
327.457	1479.06
327.686	1669.06
327.914	1146.06
328.143	725.06
328.372	633.06
328.6	614.06
328.829	547.06
329.058	555.06
329.287	552.06
329.515	565.06
329.744	515.06
329.972	522.06
330.201	543.06
330.43	587.06
330.658	611.06
330.887	630.06
331.115	598.06
331.344	495.06
331.572	490.06
331.801	487.06
332.03	472.06
332.258	451.06
332.486	432.06
332.715	432.06
332.943	417.06
333.172	401.06
333.4	408.06
333.629	417.06
333.857	449.06
334.085	457.06
334.314	490.06
334.542	500.06
334.771	511.06
334.999	476.06
335.227	426.06
335.455	431.06
335.684	389.06
335.912	403.06
336.14	414.06
336.369	411.06
336.597	410.06
336.825	422.06
337.053	411.06
337.281	402.06
337.51	401.06
337.738	402.06
337.966	407.06
338.194	402.06
338.422	410.06
338.65	388.06
338.878	373.06
339.106	383.06
339.334	397.06
339.562	373.06
339.79	387.06
340.018	402.06
340.246	386.06
340.474	395.06
340.702	405.06
340.93	405.06
341.158	377.06
341.386	396.06
341.614	387.06
341.842	391.06
342.07	380.06
342.298	389.06
342.526	368.06
342.754	382.06
342.981	393.06
343.209	394.06
343.437	381.06
343.665	378.06
343.893	381.06
344.12	396.06
344.348	381.06
344.576	390.06
344.804	397.06
345.031	396.06
345.259	416.06
345.487	411.06
345.714	396.06
345.942	381.06
346.17	372.06
346.397	387.06
346.625	382.06
346.853	386.06
347.08	377.06
347.308	400.06
347.535	415.06
347.763	400.06
347.99	403.06
348.218	407.06
348.445	398.06
348.673	389.06
348.9	383.06
349.128	365.06
349.355	370.06
349.583	363.06
349.81	383.06
350.037	381.06
350.265	377.06
350.492	365.06
350.72	383.06
350.947	371.06
351.174	391.06
351.402	369.06
351.629	412.06
351.856	383.06
352.083	404.06
352.311	409.06
352.538	423.06
352.765	414.06
352.992	407.06
353.22	392.06
353.447	383.06
353.674	362.06
353.901	357.06
354.128	368.06
354.355	360.06
354.583	327.06
354.81	352.06
355.037	361.06
355.264	345.06
355.491	322.06
355.718	361.06
355.945	354.06
356.172	360.06
356.399	355.06
356.626	346.06
356.853	346.06
357.08	353.06
357.307	339.06
357.534	345.06
357.761	350.06
357.988	334.06
358.215	355.06
358.441	352.06
358.668	356.06
358.895	352.06
359.122	378.06
359.349	390.06
359.576	398.06
359.802	441.06
360.029	448.06
360.256	445.06
360.483	412.06
360.709	380.06
360.936	399.06
361.163	391.06
361.39	395.06
361.616	387.06
361.843	383.06
362.07	393.06
362.296	399.06
362.523	393.06
362.749	381.06
362.976	376.06
363.203	376.06
363.429	376.06
363.656	356.06
363.882	365.06
364.109	356.06
364.335	354.06
364.562	381.06
364.788	367.06
365.015	360.06
365.241	353.06
365.468	381.06
365.694	355.06
365.92	365.06
366.147	372.06
366.373	366.06
366.599	329.06
366.826	362.06
367.052	347.06
367.278	361.06
367.505	353.06
367.731	374.06
367.957	355.06
368.184	352.06
368.41	353.06
368.636	349.06
368.862	386.06
369.089	368.06
369.315	360.06
369.541	361.06
369.767	348.06
369.993	337.06
370.219	362.06
370.445	357.06
370.672	337.06
370.898	353.06
371.124	345.06
371.35	347.06
371.576	347.06
371.802	348.06
372.028	347.06
372.254	368.06
372.48	353.06
372.706	358.06
372.932	352.06
373.158	343.06
373.384	367.06
373.61	368.06
373.835	350.06
374.061	345.06
374.287	378.06
374.513	356.06
374.739	362.06
374.965	370.06
375.191	361.06
375.416	355.06
375.642	345.06
375.868	351.06
376.094	351.06
376.319	360.06
376.545	344.06
376.771	347.06
376.997	338.06
377.222	364.06
377.448	348.06
377.674	342.06
377.899	345.06
378.125	348.06
378.35	334.06
378.576	321.06
378.802	329.06
379.027	330.06
379.253	342.06
379.478	318.06
379.704	357.06
379.929	357.06
380.155	371.06
380.38	355.06
380.606	340.06
380.831	364.06
381.057	366.06
381.282	334.06
381.507	357.06
381.733	357.06
381.958	372.06
382.184	354.06
382.409	349.06
382.634	351.06
382.86	359.06
383.085	331.06
383.31	353.06
383.535	339.06
383.761	349.06
383.986	343.06
384.211	367.06
384.436	378.06
384.662	358.06
384.887	359.06
385.112	355.06
385.337	357.06
385.562	350.06
385.787	351.06
386.013	378.06
386.238	377.06
386.463	399.06
386.688	384.06
386.913	376.06
387.138	376.06
387.363	359.06
387.588	372.06
387.813	378.06
388.038	366.06
388.263	353.06
388.488	384.06
388.713	385.06
388.938	366.06
389.163	383.06
389.387	367.06
389.612	379.06
389.837	384.06
390.062	371.06
390.287	379.06
390.512	388.06
390.736	379.06
390.961	367.06
391.186	375.06
391.411	351.06
391.636	383.06
391.86	385.06
392.085	383.06
392.31	383.06
392.534	395.06
392.759	391.06
392.984	360.06
393.208	389.06
393.433	375.06
393.658	354.06
393.882	365.06
394.107	379.06
394.331	387.06
394.556	365.06
394.78	379.06
395.005	386.06
395.229	382.06
395.454	389.06
395.678	365.06
395.903	381.06
396.127	423.06
396.352	421.06
396.576	379.06
396.801	378.06
397.025	387.06
397.249	400.06
397.474	383.06
397.698	414.06
397.922	400.06
398.147	412.06
398.371	406.06
398.595	410.06
398.82	415.06
399.044	424.06
399.268	439.06
399.492	460.06
399.717	465.06
399.941	499.06
400.165	519.06
400.389	532.06
400.613	472.06
400.837	447.06
401.062	430.06
401.286	425.06
401.51	420.06
401.734	433.06
401.958	439.06
402.182	439.06
402.406	454.06
402.63	432.06
402.854	432.06
403.078	437.06
403.302	459.06
403.526	447.06
403.75	425.06
403.974	423.06
404.198	444.06
404.422	448.06
404.645	425.06
404.869	451.06
405.093	473.06
405.317	520.06
405.541	542.06
405.765	491.06
405.988	470.06
406.212	501.06
406.436	496.06
406.66	511.06
406.883	495.06
407.107	483.06
407.331	533.06
407.555	583.06
407.778	589.06
408.002	529.06
408.226	502.06
408.449	495.06
408.673	492.06
408.896	513.06
409.12	558.06
409.344	531.06
409.567	457.06
409.791	452.06
410.014	465.06
410.238	449.06
410.461	432.06
410.685	434.06
410.908	471.06
411.132	491.06
411.355	529.06
411.578	515.06
411.802	455.06
412.025	444.06
412.249	461.06
412.472	461.06
412.695	485.06
412.919	465.06
413.142	439.06
413.365	432.06
413.589	431.06
413.812	430.06
414.035	430.06
414.258	423.06
414.482	433.06
414.705	406.06
414.928	398.06
415.151	417.06
415.374	391.06
415.597	415.06
415.821	425.06
416.044	389.06
416.267	402.06
416.49	416.06
416.713	416.06
416.936	415.06
417.159	421.06
417.382	433.06
417.605	426.06
417.828	448.06
418.051	452.06
418.274	443.06
418.497	419.06
418.72	421.06
418.943	414.06
419.166	432.06
419.389	439.06
419.611	437.06
419.834	435.06
420.057	456.06
420.28	435.06
420.503	462.06
420.726	446.06
420.948	462.06
421.171	492.06
421.394	498.06
421.617	471.06
421.839	444.06
422.062	449.06
422.285	457.06
422.507	509.06
422.73	555.06
422.953	546.06
423.175	470.06
423.398	470.06
423.621	456.06
423.843	475.06
424.066	494.06
424.288	491.06
424.511	491.06
424.733	541.06
424.956	592.06
425.178	582.06
425.401	608.06
425.623	592.06
425.846	510.06
426.068	496.06
426.291	489.06
426.513	497.06
426.735	519.06
426.958	544.06
427.18	599.06
427.402	712.06
427.625	780.06
427.847	710.06
428.069	619.06
428.292	549.06
428.514	522.06
428.736	488.06
428.958	456.06
429.181	447.06
429.403	444.06
429.625	459.06
429.847	477.06
430.069	533.06
430.292	540.06
430.514	471.06
430.736	457.06
430.958	423.06
431.18	424.06
431.402	436.06
431.624	425.06
431.846	424.06
432.068	432.06
432.29	420.06
432.512	439.06
432.734	430.06
432.956	450.06
433.178	433.06
433.4	442.06
433.622	432.06
433.844	401.06
434.066	422.06
434.287	417.06
434.509	438.06
434.731	451.06
434.953	423.06
435.175	451.06
435.397	479.06
435.618	473.06
435.84	534.06
436.062	616.06
436.284	660.06
436.505	551.06
436.727	512.06
436.949	481.06
437.17	444.06
437.392	465.06
437.614	479.06
437.835	523.06
438.057	593.06
438.278	683.06
438.5	669.06
438.721	713.06
438.943	691.06
439.165	567.06
439.386	525.06
439.608	517.06
439.829	515.06
440.05	519.06
440.272	577.06
440.493	543.06
440.715	494.06
440.936	465.06
441.158	460.06
441.379	450.06
441.6	446.06
441.822	489.06
442.043	517.06
442.264	606.06
442.486	637.06
442.707	549.06
442.928	509.06
443.149	524.06
443.371	541.06
443.592	572.06
443.813	639.06
444.034	667.06
444.255	545.06
444.476	507.06
444.698	485.06
444.919	480.06
445.14	566.06
445.361	524.06
445.582	535.06
445.803	594.06
446.024	686.06
446.245	694.06
446.466	635.06
446.687	537.06
446.908	497.06
447.129	484.06
447.35	464.06
447.571	456.06
447.792	445.06
448.013	435.06
448.234	479.06
448.455	513.06
448.675	610.06
448.896	701.06
449.117	589.06
449.338	596.06
449.559	673.06
449.779	740.06
450	603.06
450.221	498.06
450.442	491.06
450.662	461.06
450.883	452.06
451.104	476.06
451.324	463.06
451.545	428.06
451.766	419.06
451.986	430.06
452.207	419.06
452.428	422.06
452.648	407.06
452.869	401.06
453.089	429.06
453.31	433.06
453.53	417.06
453.751	398.06
453.971	397.06
454.192	456.06
454.412	417.06
454.633	407.06
454.853	400.06
455.073	401.06
455.294	422.06
455.514	513.06
455.734	469.06
455.955	419.06
456.175	400.06
456.395	387.06
456.616	391.06
456.836	374.06
457.056	367.06
457.276	368.06
457.497	391.06
457.717	381.06
457.937	398.06
458.157	390.06
458.377	392.06
458.598	432.06
458.818	494.06
459.038	544.06
459.258	551.06
459.478	459.06
459.698	447.06
459.918	430.06
460.138	401.06
460.358	422.06
460.578	419.06
460.798	423.06
461.018	424.06
461.238	431.06
461.458	403.06
461.678	413.06
461.898	401.06
462.118	420.06
462.338	424.06
462.558	429.06
462.777	409.06
462.997	443.06
463.217	453.06
463.437	453.06
463.657	442.06
463.876	437.06
464.096	428.06
464.316	429.06
464.536	444.06
464.755	441.06
464.975	474.06
465.195	506.06
465.414	604.06
465.634	511.06
465.854	475.06
466.073	451.06
466.293	416.06
466.512	439.06
466.732	412.06
466.951	409.06
467.171	419.06
467.391	408.06
467.61	419.06
467.829	439.06
468.049	420.06
468.268	423.06
468.488	406.06
468.707	392.06
468.927	423.06
469.146	405.06
469.365	397.06
469.585	398.06
469.804	403.06
470.023	415.06
470.243	424.06
470.462	438.06
470.681	464.06
470.901	423.06
471.12	430.06
471.339	441.06
471.558	433.06
471.777	417.06
471.997	421.06
472.216	449.06
472.435	477.06
472.654	456.06
472.873	443.06
473.092	416.06
473.311	437.06
473.53	410.06
473.749	447.06
473.968	466.06
474.187	584.06
474.406	583.06
474.625	492.06
474.844	445.06
475.063	445.06
475.282	437.06
475.501	446.06
475.72	415.06
475.939	421.06
476.158	427.06
476.377	449.06
476.596	436.06
476.814	443.06
477.033	459.06
477.252	464.06
477.471	434.06
477.69	446.06
477.908	456.06
478.127	458.06
478.346	443.06
478.564	462.06
478.783	452.06
479.002	462.06
479.22	452.06
479.439	477.06
479.658	488.06
479.876	491.06
480.095	513.06
480.313	555.06
480.532	518.06
480.751	511.06
480.969	535.06
481.188	594.06
481.406	656.06
481.624	537.06
481.843	525.06
482.061	524.06
482.28	499.06
482.498	515.06
482.717	501.06
482.935	499.06
483.153	487.06
483.372	474.06
483.59	520.06
483.808	507.06
484.027	493.06
484.245	496.06
484.463	499.06
484.681	503.06
484.9	499.06
485.118	494.06
485.336	495.06
485.554	504.06
485.772	495.06
485.99	517.06
486.209	511.06
486.427	503.06
486.645	547.06
486.863	555.06
487.081	534.06
487.299	532.06
487.517	530.06
487.735	510.06
487.953	520.06
488.171	521.06
488.389	533.06
488.607	523.06
488.825	544.06
489.043	523.06
489.261	537.06
489.479	531.06
489.696	528.06
489.914	562.06
490.132	554.06
490.35	565.06
490.568	575.06
490.786	575.06
491.003	593.06
491.221	580.06
491.439	607.06
491.657	597.06
491.874	592.06
492.092	600.06
492.31	608.06
492.527	615.06
492.745	600.06
492.963	624.06
493.18	620.06
493.398	638.06
493.615	619.06
493.833	640.06
494.05	643.06
494.268	634.06
494.485	628.06
494.703	619.06
494.92	657.06
495.138	636.06
495.355	640.06
495.573	625.06
495.79	656.06
496.008	649.06
496.225	647.06
496.442	639.06
496.66	644.06
496.877	639.06
497.094	637.06
497.312	623.06
497.529	633.06
497.746	665.06
497.963	656.06
498.181	671.06
498.398	669.06
498.615	703.06
498.832	675.06
499.049	675.06
499.267	699.06
499.484	722.06
499.701	740.06
499.918	740.06
500.135	775.06
500.352	779.06
500.569	786.06
500.786	793.06
501.003	791.06
501.22	767.06
501.437	777.06
501.654	753.06
501.871	751.06
502.088	742.06
502.305	729.06
502.522	683.06
502.739	689.06
502.956	670.06
503.172	670.06
503.389	664.06
503.606	680.06
503.823	664.06
504.04	649.06
504.256	633.06
504.473	625.06
504.69	616.06
504.907	628.06
505.123	624.06
505.34	610.06
505.557	604.06
505.773	620.06
505.99	613.06
506.207	612.06
506.423	630.06
506.64	608.06
506.856	605.06
507.073	612.06
507.289	587.06
507.506	626.06
507.722	617.06
507.939	656.06
508.155	622.06
508.372	594.06
508.588	596.06
508.805	595.06
509.021	588.06
509.238	619.06
509.454	616.06
509.67	589.06
509.887	587.06
510.103	587.06
510.319	606.06
510.536	717.06
510.752	1255.06
510.968	999.06
511.184	641.06
511.401	591.06
511.617	584.06
511.833	560.06
512.049	576.06
512.265	572.06
512.481	557.06
512.698	541.06
512.914	565.06
513.13	543.06
513.346	553.06
513.562	565.06
513.778	558.06
513.994	597.06
514.21	583.06
514.426	609.06
514.642	693.06
514.858	689.06
515.074	747.06
515.29	921.06
515.506	1415.06
515.721	1097.06
515.937	725.06
516.153	653.06
516.369	611.06
516.585	602.06
516.801	575.06
517.016	549.06
517.232	583.06
517.448	564.06
517.664	572.06
517.879	558.06
518.095	551.06
518.311	537.06
518.527	556.06
518.742	548.06
518.958	542.06
519.173	569.06
519.389	565.06
519.605	556.06
519.82	564.06
520.036	580.06
520.251	607.06
520.467	614.06
520.682	647.06
520.898	644.06
521.113	667.06
521.329	735.06
521.544	859.06
521.76	1117.06
521.975	1937.06
522.19	1822.06
522.406	953.06
522.621	711.06
522.836	619.06
523.052	576.06
523.267	563.06
523.482	544.06
523.698	535.06
523.913	513.06
524.128	513.06
524.343	497.06
524.559	479.06
524.774	487.06
524.989	480.06
525.204	502.06
525.419	496.06
525.634	473.06
525.849	460.06
526.064	479.06
526.28	466.06
526.495	464.06
526.71	461.06
526.925	456.06
527.14	458.06
527.355	465.06
527.57	437.06
527.785	455.06
527.999	447.06
528.214	453.06
528.429	443.06
528.644	441.06
528.859	456.06
529.074	458.06
529.289	478.06
529.503	578.06
529.718	544.06
529.933	481.06
530.148	487.06
530.363	469.06
530.577	463.06
530.792	435.06
531.007	449.06
531.221	441.06
531.436	450.06
531.651	443.06
531.865	423.06
532.08	427.06
532.295	415.06
532.509	432.06
532.724	440.06
532.938	429.06
533.153	421.06
533.367	408.06
533.582	425.06
533.796	427.06
534.011	429.06
534.225	413.06
534.44	426.06
534.654	407.06
534.868	419.06
535.083	409.06
535.297	426.06
535.511	411.06
535.726	428.06
535.94	440.06
536.154	435.06
536.369	425.06
536.583	424.06
536.797	414.06
537.011	408.06
537.225	408.06
537.44	407.06
537.654	419.06
537.868	396.06
538.082	429.06
538.296	390.06
538.51	423.06
538.724	419.06
538.938	408.06
539.153	399.06
539.367	417.06
539.581	417.06
539.795	408.06
540.009	392.06
540.222	445.06
540.436	423.06
540.65	410.06
540.864	410.06
541.078	438.06
541.292	431.06
541.506	401.06
541.72	388.06
541.934	405.06
542.147	398.06
542.361	417.06
542.575	406.06
542.789	406.06
543.002	408.06
543.216	401.06
543.43	392.06
543.644	385.06
543.857	390.06
544.071	403.06
544.285	423.06
544.498	386.06
544.712	384.06
544.925	402.06
545.139	385.06
545.352	379.06
545.566	380.06
545.779	398.06
545.993	379.06
546.206	408.06
546.42	405.06
546.633	399.06
546.847	391.06
547.06	388.06
547.274	398.06
547.487	381.06
547.7	364.06
547.914	377.06
548.127	381.06
548.34	384.06
548.554	387.06
548.767	365.06
548.98	367.06
549.193	372.06
549.407	373.06
549.62	375.06
549.833	363.06
550.046	363.06
550.259	396.06
550.473	374.06
550.686	388.06
550.899	372.06
551.112	365.06
551.325	361.06
551.538	374.06
551.751	367.06
551.964	363.06
552.177	359.06
552.39	375.06
552.603	379.06
552.816	377.06
553.029	379.06
553.242	376.06
553.455	382.06
553.667	372.06
553.88	404.06
554.093	375.06
554.306	394.06
554.519	382.06
554.732	363.06
554.944	377.06
555.157	349.06
555.37	368.06
555.583	368.06
555.795	352.06
556.008	355.06
556.221	351.06
556.433	355.06
556.646	371.06
556.859	335.06
557.071	348.06
557.284	320.06
557.496	336.06
557.709	344.06
557.921	337.06
558.134	341.06
558.346	309.06
558.559	337.06
558.771	332.06
558.984	343.06
559.196	344.06
559.409	312.06
559.621	341.06
559.833	326.06
560.046	347.06
560.258	337.06
560.47	341.06
560.683	320.06
560.895	328.06
561.107	337.06
561.32	329.06
561.532	344.06
561.744	349.06
561.956	335.06
562.168	330.06
562.381	338.06
562.593	332.06
562.805	327.06
563.017	335.06
563.229	346.06
563.441	322.06
563.653	332.06
563.865	349.06
564.077	337.06
564.289	335.06
564.501	338.06
564.713	323.06
564.925	340.06
565.137	380.06
565.349	359.06
565.561	348.06
565.773	351.06
565.985	356.06
566.197	353.06
566.408	361.06
566.62	375.06
566.832	392.06
567.044	379.06
567.255	375.06
567.467	380.06
567.679	402.06
567.891	383.06
568.102	389.06
568.314	396.06
568.526	371.06
568.737	373.06
568.949	370.06
569.161	366.06
569.372	345.06
569.584	356.06
569.795	340.06
570.007	369.06
570.218	399.06
570.43	366.06
570.641	315.06
570.853	312.06
571.064	332.06
571.276	331.06
571.487	317.06
571.698	321.06
571.91	315.06
572.121	315.06
572.333	319.06
572.544	302.06
572.755	297.06
572.966	294.06
573.178	298.06
573.389	294.06
573.6	295.06
573.811	287.06
574.023	275.06
574.234	299.06
574.445	288.06
574.656	295.06
574.867	284.06
575.078	301.06
575.289	291.06
575.501	283.06
575.712	279.06
575.923	290.06
576.134	295.06
576.345	301.06
576.556	294.06
576.767	283.06
576.978	273.06
577.188	280.06
577.399	273.06
577.61	279.06
577.821	294.06
578.032	291.06
578.243	333.06
578.454	588.06
578.665	414.06
578.875	304.06
579.086	275.06
579.297	265.06
579.508	266.06
579.718	277.06
579.929	273.06
580.14	276.06
580.35	266.06
580.561	267.06
580.772	271.06
580.982	260.06
581.193	281.06
581.403	278.06
581.614	268.06
581.825	267.06
582.035	245.06
582.246	268.06
582.456	264.06
582.667	264.06
582.877	243.06
583.087	257.06
583.298	273.06
583.508	282.06
583.719	257.06
583.929	267.06
584.139	267.06
584.35	250.06
584.56	259.06
584.77	265.06
584.981	269.06
585.191	253.06
585.401	268.06
585.611	254.06
585.821	239.06
586.032	261.06
586.242	252.06
586.452	241.06
586.662	252.06
586.872	265.06
587.082	261.06
587.292	263.06
587.502	245.06
587.713	256.06
587.923	265.06
588.133	261.06
588.343	262.06
588.553	251.06
588.762	267.06
588.972	266.06
589.182	299.06
589.392	298.06
589.602	269.06
589.812	295.06
590.022	277.06
590.232	251.06
590.441	248.06
590.651	269.06
590.861	251.06
591.071	240.06
591.281	262.06
591.49	248.06
591.7	237.06
591.91	268.06
592.119	239.06
592.329	248.06
592.539	261.06
592.748	258.06
592.958	265.06
593.167	252.06
593.377	238.06
593.587	238.06
593.796	260.06
594.006	259.06
594.215	268.06
594.424	267.06
594.634	250.06
594.843	248.06
595.053	235.06
595.262	270.06
595.472	259.06
595.681	247.06
595.89	249.06
596.1	245.06
596.309	250.06
596.518	259.06
596.727	248.06
596.937	250.06
597.146	239.06
597.355	226.06
597.564	219.06
597.774	231.06
597.983	246.06
598.192	226.06
598.401	250.06
598.61	228.06
598.819	223.06
599.028	235.06
599.237	220.06
599.446	230.06
599.655	236.06
599.864	227.06
600.073	224.06
600.282	223.06
600.491	223.06
600.7	238.06
600.909	227.06
601.118	223.06
601.327	216.06
601.536	232.06
601.745	233.06
601.953	215.06
602.162	204.06
602.371	224.06
602.58	228.06
602.789	217.06
602.997	216.06
603.206	232.06
603.415	243.06
603.623	215.06
603.832	240.06
604.041	218.06
604.249	222.06
604.458	212.06
604.666	221.06
604.875	225.06
605.084	221.06
605.292	213.06
605.501	209.06
605.709	217.06
605.918	214.06
606.126	205.06
606.334	213.06
606.543	223.06
606.751	222.06
606.96	197.06
607.168	201.06
607.376	211.06
607.585	216.06
607.793	220.06
608.001	203.06
608.21	207.06
608.418	211.06
608.626	197.06
608.834	217.06
609.043	216.06
609.251	221.06
609.459	214.06
609.667	204.06
609.875	200.06
610.083	219.06
610.291	192.06
610.499	195.06
610.707	223.06
610.916	217.06
611.124	206.06
611.332	215.06
611.54	231.06
611.748	200.06
611.955	219.06
612.163	206.06
612.371	201.06
612.579	195.06
612.787	201.06
612.995	217.06
613.203	203.06
613.411	219.06
613.618	217.06
613.826	204.06
614.034	215.06
614.242	203.06
614.449	215.06
614.657	205.06
614.865	197.06
615.072	195.06
615.28	214.06
615.488	209.06
615.695	211.06
615.903	195.06
616.111	202.06
616.318	212.06
616.526	207.06
616.733	194.06
616.941	210.06
617.148	202.06
617.356	210.06
617.563	203.06
617.771	193.06
617.978	194.06
618.185	184.06
618.393	204.06
618.6	214.06
618.807	201.06
619.015	195.06
619.222	201.06
619.429	209.06
619.637	210.06
619.844	202.06
620.051	196.06
620.258	187.06
620.466	203.06
620.673	193.06
620.88	182.06
621.087	195.06
621.294	188.06
621.501	203.06
621.708	190.06
621.915	190.06
622.122	191.06
622.329	188.06
622.536	182.06
622.743	192.06
622.95	198.06
623.157	205.06
623.364	200.06
623.571	185.06
623.778	196.06
623.985	203.06
624.192	185.06
624.399	179.06
624.606	199.06
624.812	188.06
625.019	191.06
625.226	181.06
625.433	199.06
625.639	187.06
625.846	195.06
626.053	184.06
626.259	196.06
626.466	181.06
626.673	180.06
626.879	186.06
627.086	169.06
627.293	178.06
627.499	192.06
627.706	184.06
627.912	174.06
628.119	181.06
628.325	181.06
628.532	178.06
628.738	173.06
628.945	185.06
629.151	171.06
629.357	177.06
629.564	164.06
629.77	187.06
629.976	166.06
630.183	190.06
630.389	179.06
630.595	162.06
630.802	175.06
631.008	168.06
631.214	176.06
631.42	181.06
631.627	176.06
631.833	168.06
632.039	167.06
632.245	173.06
632.451	166.06
632.657	162.06
632.863	180.06
633.069	165.06
633.275	156.06
633.481	163.06
633.688	164.06
633.893	162.06
634.099	183.06
634.305	163.06
634.511	173.06
634.717	165.06
634.923	146.06
635.129	153.06
635.335	164.06
635.541	161.06
635.747	176.06
635.952	172.06
636.158	174.06
636.364	159.06
636.57	171.06
636.775	174.06
636.981	179.06
637.187	169.06
637.392	160.06
637.598	157.06
637.804	160.06
638.009	157.06
638.215	159.06
638.421	171.06
638.626	159.06
638.832	156.06
639.037	129.06
639.243	161.06
639.448	164.06
639.654	155.06
639.859	154.06
640.065	150.06
640.27	156.06
640.475	160.06
640.681	166.06
640.886	163.06
641.091	132.06
641.297	160.06
641.502	151.06
641.707	151.06
641.913	161.06
642.118	159.06
642.323	159.06
642.528	158.06
642.733	146.06
642.939	175.06
643.144	168.06
643.349	159.06
643.554	145.06
643.759	160.06
643.964	136.06
644.169	152.06
644.374	152.06
644.579	133.06
644.784	152.06
644.989	151.06
645.194	141.06
645.399	142.06
645.604	157.06
645.809	147.06
646.014	139.06
646.219	160.06
646.423	143.06
646.628	158.06
646.833	154.06
647.038	159.06
647.243	162.06
647.447	136.06
647.652	146.06
647.857	131.06
648.062	150.06
648.266	171.06
648.471	173.06
648.676	155.06
648.88	141.06
649.085	152.06
649.289	148.06
649.494	160.06
649.698	170.06
649.903	173.06
650.107	169.06
650.312	168.06
650.516	155.06
650.721	151.06
650.925	148.06
651.13	153.06
651.334	141.06
651.539	153.06
651.743	123.06
651.947	135.06
652.152	151.06
652.356	136.06
652.56	132.06
652.764	126.06
652.969	127.06
653.173	115.06
653.377	134.06
653.581	152.06
653.785	127.06
653.99	135.06
654.194	125.06
654.398	129.06
654.602	135.06
654.806	135.06
655.01	139.06
655.214	137.06
655.418	104.06
655.622	121.06
655.826	130.06
656.03	133.06
656.234	128.06
656.438	135.06
656.642	123.06
656.846	122.06
657.049	130.06
657.253	133.06
657.457	121.06
657.661	133.06
657.865	120.06
658.068	112.06
658.272	117.06
658.476	104.06
658.68	95.06
658.883	105.06
659.087	98.06
659.291	91.06
659.494	101.06
659.698	104.06
659.901	100.06
660.105	95.06
660.309	88.06
660.512	97.06
660.716	99.06
660.919	103.06
661.123	90.06
661.326	77.06
661.53	86.06
661.733	81.06
661.936	93.06
662.14	86.06
662.343	84.06
662.546	88.06
662.75	82.06
662.953	85.06
663.156	83.06
663.36	90.06
663.563	82.06
663.766	78.06
663.969	89.06
664.173	69.06
664.376	83.06
664.579	80.06
664.782	82.06
664.985	85.06
665.188	101.06
665.391	83.06
665.594	91.06
665.797	84.06
666	87.06
666.203	70.06
666.406	78.06
666.609	84.06
666.812	81.06
667.015	88.06
667.218	80.06
667.421	67.06
667.624	75.06
667.827	83.06
668.03	93.06
668.232	74.06
668.435	86.06
668.638	82.06
668.841	107.06
669.043	85.06
669.246	85.06
669.449	79.06
669.651	81.06
669.854	74.06
670.057	85.06
670.259	70.06
670.462	87.06
670.665	81.06
670.867	84.06
671.07	82.06
671.272	77.06
671.475	81.06
671.677	71.06
671.88	94.06
672.082	87.06
672.284	79.06
672.487	99.06
672.689	78.06
672.892	88.06
