Data from 1965.PennyLincolnUp.Lamp.En5.5.200Scan.071719.P1._HRD10591_14-09-00-911.txt Node
Date: Thu Jul 18 14:09:00 EDT 2019
User: cochatt
Spectrometer: HR+D1059
Trigger mode: 1
Integration Time (sec): 1.000000E-1
Scans to average: 1
Electric dark correction enabled: true
Nonlinearity correction enabled: false
Boxcar width: 0
XAxis mode: Wavelengths
Number of Pixels in Spectrum: 2048
>>>>>Begin Spectral Data<<<<<
223.165	-21.94
223.4	-21.94
223.635	-21.94
223.869	-16.94
224.104	-10.94
224.338	-7.94
224.573	-10.94
224.808	-20.94
225.042	-10.94
225.277	-5.94
225.511	-1.94
225.746	-0.94
225.98	4.06
226.215	-0.94
226.449	21.06
226.683	26.06
226.918	23.06
227.152	36.06
227.387	22.06
227.621	46.06
227.856	40.06
228.09	50.06
228.324	60.06
228.559	62.06
228.793	71.06
229.027	98.06
229.262	108.06
229.496	119.06
229.73	136.06
229.964	149.06
230.199	120.06
230.433	108.06
230.667	110.06
230.901	106.06
231.136	118.06
231.37	112.06
231.604	100.06
231.838	122.06
232.072	120.06
232.306	104.06
232.541	116.06
232.775	99.06
233.009	112.06
233.243	115.06
233.477	116.06
233.711	118.06
233.945	109.06
234.179	107.06
234.413	107.06
234.647	105.06
234.881	122.06
235.115	126.06
235.349	111.06
235.583	117.06
235.817	118.06
236.051	114.06
236.285	132.06
236.519	124.06
236.753	121.06
236.987	149.06
237.221	187.06
237.455	198.06
237.689	180.06
237.922	148.06
238.156	117.06
238.39	133.06
238.624	116.06
238.858	123.06
239.091	127.06
239.325	128.06
239.559	134.06
239.793	120.06
240.027	127.06
240.26	115.06
240.494	165.06
240.728	144.06
240.961	134.06
241.195	141.06
241.429	125.06
241.662	141.06
241.896	123.06
242.13	132.06
242.363	123.06
242.597	111.06
242.83	132.06
243.064	129.06
243.298	144.06
243.531	140.06
243.765	131.06
243.998	122.06
244.232	122.06
244.465	145.06
244.699	134.06
244.932	138.06
245.166	132.06
245.399	133.06
245.633	137.06
245.866	131.06
246.099	132.06
246.333	124.06
246.566	155.06
246.8	133.06
247.033	142.06
247.266	140.06
247.5	151.06
247.733	161.06
247.966	147.06
248.2	160.06
248.433	144.06
248.666	168.06
248.899	172.06
249.133	178.06
249.366	188.06
249.599	183.06
249.832	163.06
250.066	170.06
250.299	160.06
250.532	166.06
250.765	186.06
250.998	193.06
251.231	190.06
251.465	177.06
251.698	180.06
251.931	189.06
252.164	182.06
252.397	187.06
252.63	194.06
252.863	186.06
253.096	198.06
253.329	200.06
253.562	183.06
253.795	212.06
254.028	196.06
254.261	193.06
254.494	206.06
254.727	237.06
254.96	259.06
255.193	253.06
255.426	222.06
255.659	216.06
255.892	212.06
256.124	203.06
256.357	217.06
256.59	203.06
256.823	198.06
257.056	195.06
257.289	200.06
257.521	194.06
257.754	170.06
257.987	189.06
258.22	196.06
258.452	184.06
258.685	196.06
258.918	186.06
259.151	178.06
259.383	193.06
259.616	216.06
259.849	200.06
260.081	205.06
260.314	234.06
260.547	232.06
260.779	213.06
261.012	208.06
261.244	207.06
261.477	210.06
261.71	207.06
261.942	198.06
262.175	224.06
262.407	212.06
262.64	193.06
262.872	204.06
263.105	197.06
263.337	205.06
263.57	191.06
263.802	194.06
264.035	199.06
264.267	205.06
264.499	186.06
264.732	194.06
264.964	179.06
265.197	190.06
265.429	208.06
265.661	205.06
265.894	202.06
266.126	197.06
266.358	200.06
266.591	205.06
266.823	194.06
267.055	211.06
267.287	189.06
267.52	201.06
267.752	205.06
267.984	209.06
268.216	211.06
268.448	211.06
268.681	223.06
268.913	229.06
269.145	209.06
269.377	236.06
269.609	241.06
269.841	216.06
270.073	240.06
270.306	270.06
270.538	278.06
270.77	282.06
271.002	273.06
271.234	266.06
271.466	251.06
271.698	272.06
271.93	282.06
272.162	289.06
272.394	302.06
272.626	253.06
272.858	258.06
273.09	253.06
273.322	250.06
273.553	241.06
273.785	237.06
274.017	234.06
274.249	230.06
274.481	225.06
274.713	237.06
274.945	218.06
275.176	235.06
275.408	231.06
275.64	248.06
275.872	226.06
276.104	226.06
276.335	224.06
276.567	242.06
276.799	243.06
277.031	268.06
277.262	286.06
277.494	298.06
277.726	278.06
277.957	266.06
278.189	242.06
278.421	254.06
278.652	238.06
278.884	235.06
279.115	227.06
279.347	242.06
279.579	261.06
279.81	245.06
280.042	227.06
280.273	243.06
280.505	242.06
280.736	240.06
280.968	242.06
281.199	228.06
281.431	231.06
281.662	248.06
281.894	230.06
282.125	237.06
282.356	255.06
282.588	272.06
282.819	266.06
283.051	254.06
283.282	244.06
283.513	238.06
283.745	249.06
283.976	230.06
284.207	262.06
284.439	238.06
284.67	253.06
284.901	251.06
285.132	242.06
285.364	258.06
285.595	254.06
285.826	256.06
286.057	244.06
286.288	259.06
286.52	221.06
286.751	234.06
286.982	239.06
287.213	241.06
287.444	253.06
287.675	254.06
287.906	259.06
288.138	257.06
288.369	252.06
288.6	251.06
288.831	256.06
289.062	275.06
289.293	267.06
289.524	246.06
289.755	257.06
289.986	240.06
290.217	244.06
290.448	251.06
290.679	248.06
290.91	252.06
291.141	259.06
291.371	249.06
291.602	257.06
291.833	245.06
292.064	239.06
292.295	268.06
292.526	267.06
292.757	239.06
292.987	251.06
293.218	254.06
293.449	270.06
293.68	258.06
293.91	241.06
294.141	238.06
294.372	263.06
294.603	260.06
294.833	255.06
295.064	269.06
295.295	252.06
295.525	254.06
295.756	254.06
295.987	278.06
296.217	296.06
296.448	291.06
296.679	275.06
296.909	237.06
297.14	230.06
297.37	268.06
297.601	260.06
297.831	237.06
298.062	268.06
298.292	253.06
298.523	270.06
298.753	255.06
298.984	267.06
299.214	259.06
299.445	254.06
299.675	244.06
299.905	271.06
300.136	284.06
300.366	288.06
300.597	275.06
300.827	285.06
301.057	294.06
301.288	290.06
301.518	299.06
301.748	288.06
301.979	276.06
302.209	268.06
302.439	284.06
302.669	302.06
302.9	284.06
303.13	286.06
303.36	272.06
303.59	287.06
303.82	293.06
304.051	303.06
304.281	276.06
304.511	280.06
304.741	275.06
304.971	298.06
305.201	270.06
305.431	273.06
305.661	294.06
305.891	299.06
306.121	290.06
306.352	274.06
306.582	294.06
306.812	293.06
307.042	286.06
307.272	302.06
307.502	288.06
307.731	310.06
307.961	303.06
308.191	289.06
308.421	272.06
308.651	278.06
308.881	307.06
309.111	305.06
309.341	320.06
309.571	301.06
309.8	325.06
310.03	322.06
310.26	342.06
310.49	353.06
310.72	348.06
310.949	343.06
311.179	373.06
311.409	349.06
311.639	316.06
311.868	317.06
312.098	329.06
312.328	353.06
312.557	369.06
312.787	363.06
313.017	362.06
313.246	347.06
313.476	322.06
313.706	334.06
313.935	330.06
314.165	342.06
314.394	344.06
314.624	355.06
314.853	349.06
315.083	345.06
315.312	334.06
315.542	338.06
315.771	330.06
316.001	337.06
316.23	322.06
316.46	331.06
316.689	316.06
316.919	342.06
317.148	343.06
317.377	341.06
317.607	340.06
317.836	336.06
318.065	338.06
318.295	346.06
318.524	339.06
318.753	331.06
318.983	333.06
319.212	330.06
319.441	342.06
319.67	356.06
319.9	340.06
320.129	334.06
320.358	347.06
320.587	332.06
320.816	352.06
321.046	356.06
321.275	355.06
321.504	354.06
321.733	354.06
321.962	350.06
322.191	376.06
322.42	390.06
322.649	394.06
322.878	399.06
323.108	406.06
323.337	433.06
323.566	471.06
323.795	489.06
324.024	554.06
324.253	665.06
324.482	938.06
324.71	1496.06
324.939	2037.06
325.168	1670.06
325.397	889.06
325.626	607.06
325.855	484.06
326.084	464.06
326.313	445.06
326.542	453.06
326.77	512.06
326.999	596.06
327.228	851.06
327.457	1251.06
327.686	1468.06
327.914	980.06
328.143	650.06
328.372	580.06
328.6	522.06
328.829	508.06
329.058	533.06
329.287	527.06
329.515	520.06
329.744	468.06
329.972	489.06
330.201	485.06
330.43	526.06
330.658	552.06
330.887	560.06
331.115	533.06
331.344	470.06
331.572	421.06
331.801	433.06
332.03	443.06
332.258	419.06
332.486	395.06
332.715	384.06
332.943	386.06
333.172	397.06
333.4	404.06
333.629	405.06
333.857	414.06
334.085	439.06
334.314	456.06
334.542	475.06
334.771	504.06
334.999	426.06
335.227	425.06
335.455	388.06
335.684	389.06
335.912	391.06
336.14	390.06
336.369	376.06
336.597	397.06
336.825	416.06
337.053	389.06
337.281	380.06
337.51	370.06
337.738	388.06
337.966	396.06
338.194	417.06
338.422	410.06
338.65	394.06
338.878	366.06
339.106	377.06
339.334	365.06
339.562	370.06
339.79	377.06
340.018	376.06
340.246	382.06
340.474	371.06
340.702	392.06
340.93	392.06
341.158	390.06
341.386	379.06
341.614	356.06
341.842	372.06
342.07	383.06
342.298	367.06
342.526	370.06
342.754	377.06
342.981	344.06
343.209	373.06
343.437	369.06
343.665	344.06
343.893	354.06
344.12	391.06
344.348	378.06
344.576	379.06
344.804	364.06
345.031	382.06
345.259	379.06
345.487	380.06
345.714	413.06
345.942	389.06
346.17	369.06
346.397	353.06
346.625	355.06
346.853	364.06
347.08	358.06
347.308	377.06
347.535	372.06
347.763	368.06
347.99	358.06
348.218	374.06
348.445	395.06
348.673	383.06
348.9	388.06
349.128	346.06
349.355	352.06
349.583	337.06
349.81	350.06
350.037	350.06
350.265	358.06
350.492	365.06
350.72	341.06
350.947	366.06
351.174	366.06
351.402	380.06
351.629	390.06
351.856	386.06
352.083	371.06
352.311	390.06
352.538	382.06
352.765	385.06
352.992	376.06
353.22	382.06
353.447	378.06
353.674	347.06
353.901	339.06
354.128	338.06
354.355	347.06
354.583	328.06
354.81	350.06
355.037	337.06
355.264	345.06
355.491	339.06
355.718	330.06
355.945	327.06
356.172	329.06
356.399	334.06
356.626	315.06
356.853	309.06
357.08	347.06
357.307	337.06
357.534	326.06
357.761	348.06
357.988	328.06
358.215	328.06
358.441	341.06
358.668	345.06
358.895	356.06
359.122	356.06
359.349	358.06
359.576	364.06
359.802	388.06
360.029	413.06
360.256	428.06
360.483	401.06
360.709	361.06
360.936	373.06
361.163	356.06
361.39	381.06
361.616	365.06
361.843	377.06
362.07	371.06
362.296	377.06
362.523	366.06
362.749	366.06
362.976	340.06
363.203	365.06
363.429	341.06
363.656	359.06
363.882	356.06
364.109	351.06
364.335	358.06
364.562	345.06
364.788	343.06
365.015	344.06
365.241	349.06
365.468	345.06
365.694	349.06
365.92	364.06
366.147	344.06
366.373	331.06
366.599	358.06
366.826	344.06
367.052	344.06
367.278	351.06
367.505	333.06
367.731	352.06
367.957	340.06
368.184	346.06
368.41	361.06
368.636	360.06
368.862	373.06
369.089	348.06
369.315	384.06
369.541	356.06
369.767	339.06
369.993	357.06
370.219	349.06
370.445	340.06
370.672	337.06
370.898	339.06
371.124	346.06
371.35	322.06
371.576	338.06
371.802	347.06
372.028	335.06
372.254	356.06
372.48	341.06
372.706	336.06
372.932	360.06
373.158	340.06
373.384	340.06
373.61	349.06
373.835	335.06
374.061	337.06
374.287	357.06
374.513	352.06
374.739	351.06
374.965	355.06
375.191	342.06
375.416	336.06
375.642	330.06
375.868	339.06
376.094	343.06
376.319	349.06
376.545	342.06
376.771	329.06
376.997	344.06
377.222	338.06
377.448	327.06
377.674	336.06
377.899	333.06
378.125	341.06
378.35	350.06
378.576	351.06
378.802	341.06
379.027	329.06
379.253	336.06
379.478	338.06
379.704	355.06
379.929	318.06
380.155	322.06
380.38	320.06
380.606	338.06
380.831	353.06
381.057	339.06
381.282	342.06
381.507	332.06
381.733	336.06
381.958	345.06
382.184	343.06
382.409	361.06
382.634	349.06
382.86	345.06
383.085	340.06
383.31	350.06
383.535	345.06
383.761	342.06
383.986	371.06
384.211	347.06
384.436	363.06
384.662	349.06
384.887	358.06
385.112	337.06
385.337	366.06
385.562	348.06
385.787	350.06
386.013	378.06
386.238	376.06
386.463	383.06
386.688	359.06
386.913	349.06
387.138	340.06
387.363	366.06
387.588	363.06
387.813	370.06
388.038	380.06
388.263	360.06
388.488	355.06
388.713	370.06
388.938	357.06
389.163	373.06
389.387	368.06
389.612	369.06
389.837	365.06
390.062	360.06
390.287	363.06
390.512	366.06
390.736	367.06
390.961	358.06
391.186	374.06
391.411	381.06
391.636	366.06
391.86	368.06
392.085	374.06
392.31	371.06
392.534	372.06
392.759	377.06
392.984	369.06
393.208	366.06
393.433	363.06
393.658	371.06
393.882	346.06
394.107	356.06
394.331	387.06
394.556	384.06
394.78	383.06
395.005	382.06
395.229	369.06
395.454	381.06
395.678	362.06
395.903	384.06
396.127	416.06
396.352	412.06
396.576	402.06
396.801	384.06
397.025	378.06
397.249	381.06
397.474	386.06
397.698	392.06
397.922	386.06
398.147	417.06
398.371	414.06
398.595	401.06
398.82	388.06
399.044	401.06
399.268	399.06
399.492	453.06
399.717	442.06
399.941	488.06
400.165	485.06
400.389	484.06
400.613	445.06
400.837	436.06
401.062	410.06
401.286	406.06
401.51	419.06
401.734	395.06
401.958	402.06
402.182	402.06
402.406	436.06
402.63	423.06
402.854	431.06
403.078	422.06
403.302	418.06
403.526	429.06
403.75	425.06
403.974	423.06
404.198	437.06
404.422	413.06
404.645	428.06
404.869	443.06
405.093	444.06
405.317	493.06
405.541	502.06
405.765	479.06
405.988	456.06
406.212	452.06
406.436	482.06
406.66	486.06
406.883	479.06
407.107	474.06
407.331	505.06
407.555	538.06
407.778	560.06
408.002	531.06
408.226	483.06
408.449	454.06
408.673	464.06
408.896	489.06
409.12	508.06
409.344	493.06
409.567	431.06
409.791	434.06
410.014	431.06
410.238	404.06
410.461	434.06
410.685	448.06
410.908	448.06
411.132	481.06
411.355	494.06
411.578	467.06
411.802	440.06
412.025	437.06
412.249	417.06
412.472	457.06
412.695	499.06
412.919	480.06
413.142	433.06
413.365	423.06
413.589	445.06
413.812	422.06
414.035	415.06
414.258	404.06
414.482	385.06
414.705	405.06
414.928	413.06
415.151	392.06
415.374	397.06
415.597	420.06
415.821	413.06
416.044	420.06
416.267	398.06
416.49	389.06
416.713	397.06
416.936	409.06
417.159	396.06
417.382	407.06
417.605	410.06
417.828	405.06
418.051	433.06
418.274	414.06
418.497	428.06
418.72	407.06
418.943	418.06
419.166	437.06
419.389	440.06
419.611	428.06
419.834	410.06
420.057	424.06
420.28	432.06
420.503	407.06
420.726	422.06
420.948	440.06
421.171	470.06
421.394	464.06
421.617	426.06
421.839	432.06
422.062	429.06
422.285	448.06
422.507	503.06
422.73	524.06
422.953	508.06
423.175	435.06
423.398	448.06
423.621	440.06
423.843	457.06
424.066	444.06
424.288	451.06
424.511	468.06
424.733	527.06
424.956	565.06
425.178	563.06
425.401	570.06
425.623	553.06
425.846	476.06
426.068	463.06
426.291	462.06
426.513	453.06
426.735	453.06
426.958	471.06
427.18	571.06
427.402	674.06
427.625	736.06
427.847	666.06
428.069	592.06
428.292	490.06
428.514	466.06
428.736	447.06
428.958	430.06
429.181	424.06
429.403	447.06
429.625	450.06
429.847	464.06
430.069	509.06
430.292	501.06
430.514	454.06
430.736	423.06
430.958	424.06
431.18	409.06
431.402	416.06
431.624	403.06
431.846	400.06
432.068	415.06
432.29	395.06
432.512	418.06
432.734	408.06
432.956	418.06
433.178	418.06
433.4	417.06
433.622	416.06
433.844	430.06
434.066	399.06
434.287	404.06
434.509	410.06
434.731	406.06
434.953	422.06
435.175	453.06
435.397	455.06
435.618	479.06
435.84	499.06
436.062	593.06
436.284	614.06
436.505	532.06
436.727	459.06
436.949	447.06
437.17	435.06
437.392	455.06
437.614	466.06
437.835	499.06
438.057	562.06
438.278	646.06
438.5	616.06
438.721	678.06
438.943	654.06
439.165	499.06
439.386	493.06
439.608	488.06
439.829	477.06
440.05	514.06
440.272	551.06
440.493	520.06
440.715	469.06
440.936	445.06
441.158	437.06
441.379	436.06
441.6	461.06
441.822	469.06
442.043	489.06
442.264	557.06
442.486	602.06
442.707	506.06
442.928	477.06
443.149	477.06
443.371	504.06
443.592	540.06
443.813	614.06
444.034	658.06
444.255	552.06
444.476	483.06
444.698	472.06
444.919	456.06
445.14	564.06
445.361	520.06
445.582	504.06
445.803	554.06
446.024	638.06
446.245	643.06
446.466	608.06
446.687	508.06
446.908	470.06
447.129	443.06
447.35	436.06
447.571	441.06
447.792	428.06
448.013	440.06
448.234	459.06
448.455	517.06
448.675	579.06
448.896	653.06
449.117	562.06
449.338	560.06
449.559	652.06
449.779	714.06
450	570.06
450.221	454.06
450.442	447.06
450.662	422.06
450.883	424.06
451.104	446.06
451.324	465.06
451.545	392.06
451.766	411.06
451.986	414.06
452.207	383.06
452.428	386.06
452.648	376.06
452.869	395.06
453.089	406.06
453.31	416.06
453.53	415.06
453.751	384.06
453.971	403.06
454.192	425.06
454.412	414.06
454.633	402.06
454.853	391.06
455.073	400.06
455.294	437.06
455.514	475.06
455.734	470.06
455.955	396.06
456.175	372.06
456.395	380.06
456.616	368.06
456.836	375.06
457.056	362.06
457.276	350.06
457.497	380.06
457.717	358.06
457.937	365.06
458.157	378.06
458.377	388.06
458.598	403.06
458.818	485.06
459.038	562.06
459.258	542.06
459.478	461.06
459.698	427.06
459.918	392.06
460.138	392.06
460.358	395.06
460.578	412.06
460.798	407.06
461.018	417.06
461.238	399.06
461.458	400.06
461.678	400.06
461.898	418.06
462.118	400.06
462.338	442.06
462.558	454.06
462.777	417.06
462.997	437.06
463.217	455.06
463.437	446.06
463.657	431.06
463.876	418.06
464.096	419.06
464.316	436.06
464.536	439.06
464.755	438.06
464.975	456.06
465.195	479.06
465.414	546.06
465.634	470.06
465.854	446.06
466.073	438.06
466.293	428.06
466.512	418.06
466.732	402.06
466.951	406.06
467.171	386.06
467.391	411.06
467.61	407.06
467.829	425.06
468.049	416.06
468.268	403.06
468.488	402.06
468.707	384.06
468.927	379.06
469.146	387.06
469.365	398.06
469.585	409.06
469.804	401.06
470.023	409.06
470.243	416.06
470.462	420.06
470.681	436.06
470.901	440.06
471.12	400.06
471.339	399.06
471.558	395.06
471.777	388.06
471.997	399.06
472.216	418.06
472.435	465.06
472.654	426.06
472.873	420.06
473.092	409.06
473.311	401.06
473.53	394.06
473.749	419.06
473.968	468.06
474.187	557.06
474.406	548.06
474.625	458.06
474.844	418.06
475.063	418.06
475.282	411.06
475.501	391.06
475.72	419.06
475.939	404.06
476.158	411.06
476.377	412.06
476.596	403.06
476.814	424.06
477.033	431.06
477.252	428.06
477.471	433.06
477.69	445.06
477.908	424.06
478.127	445.06
478.346	426.06
478.564	450.06
478.783	443.06
479.002	449.06
479.22	458.06
479.439	454.06
479.658	474.06
479.876	501.06
480.095	480.06
480.313	507.06
480.532	510.06
480.751	488.06
480.969	512.06
481.188	580.06
481.406	594.06
481.624	540.06
481.843	501.06
482.061	490.06
482.28	480.06
482.498	474.06
482.717	481.06
482.935	491.06
483.153	462.06
483.372	475.06
483.59	470.06
483.808	482.06
484.027	477.06
484.245	470.06
484.463	490.06
484.681	474.06
484.9	463.06
485.118	482.06
485.336	478.06
485.554	506.06
485.772	497.06
485.99	483.06
486.209	476.06
486.427	494.06
486.645	499.06
486.863	511.06
487.081	520.06
487.299	526.06
487.517	524.06
487.735	510.06
487.953	512.06
488.171	509.06
488.389	510.06
488.607	507.06
488.825	496.06
489.043	520.06
489.261	515.06
489.479	505.06
489.696	518.06
489.914	508.06
490.132	521.06
490.35	529.06
490.568	520.06
490.786	545.06
491.003	524.06
491.221	546.06
491.439	558.06
491.657	573.06
491.874	572.06
492.092	568.06
492.31	570.06
492.527	591.06
492.745	575.06
492.963	561.06
493.18	597.06
493.398	578.06
493.615	590.06
493.833	616.06
494.05	592.06
494.268	607.06
494.485	586.06
494.703	572.06
494.92	585.06
495.138	584.06
495.355	591.06
495.573	598.06
495.79	601.06
496.008	592.06
496.225	584.06
496.442	608.06
496.66	610.06
496.877	585.06
497.094	626.06
497.312	623.06
497.529	600.06
497.746	594.06
497.963	613.06
498.181	643.06
498.398	652.06
498.615	655.06
498.832	649.06
499.049	668.06
499.267	701.06
499.484	662.06
499.701	712.06
499.918	723.06
500.135	724.06
500.352	755.06
500.569	755.06
500.786	761.06
501.003	763.06
501.22	745.06
501.437	763.06
501.654	741.06
501.871	723.06
502.088	717.06
502.305	678.06
502.522	660.06
502.739	648.06
502.956	625.06
503.172	617.06
503.389	624.06
503.606	604.06
503.823	630.06
504.04	632.06
504.256	588.06
504.473	586.06
504.69	594.06
504.907	599.06
505.123	596.06
505.34	569.06
505.557	576.06
505.773	578.06
505.99	617.06
506.207	593.06
506.423	588.06
506.64	575.06
506.856	564.06
507.073	564.06
507.289	552.06
507.506	552.06
507.722	590.06
507.939	604.06
508.155	586.06
508.372	582.06
508.588	543.06
508.805	554.06
509.021	553.06
509.238	577.06
509.454	571.06
509.67	564.06
509.887	539.06
510.103	537.06
510.319	587.06
510.536	681.06
510.752	1162.06
510.968	914.06
511.184	591.06
511.401	568.06
511.617	535.06
511.833	549.06
512.049	541.06
512.265	524.06
512.481	544.06
512.698	524.06
512.914	538.06
513.13	521.06
513.346	545.06
513.562	522.06
513.778	540.06
513.994	544.06
514.21	553.06
514.426	563.06
514.642	622.06
514.858	627.06
515.074	699.06
515.29	850.06
515.506	1325.06
515.721	1068.06
515.937	666.06
516.153	587.06
516.369	574.06
516.585	559.06
516.801	547.06
517.016	580.06
517.232	534.06
517.448	521.06
517.664	531.06
517.879	538.06
518.095	552.06
518.311	529.06
518.527	532.06
518.742	516.06
518.958	520.06
519.173	522.06
519.389	535.06
519.605	540.06
519.82	545.06
520.036	538.06
520.251	574.06
520.467	603.06
520.682	594.06
520.898	600.06
521.113	630.06
521.329	664.06
521.544	786.06
521.76	1009.06
521.975	1761.06
522.19	1683.06
522.406	877.06
522.621	659.06
522.836	565.06
523.052	546.06
523.267	517.06
523.482	536.06
523.698	506.06
523.913	499.06
524.128	489.06
524.343	504.06
524.559	463.06
524.774	459.06
524.989	463.06
525.204	467.06
525.419	477.06
525.634	464.06
525.849	456.06
526.064	470.06
526.28	444.06
526.495	457.06
526.71	445.06
526.925	425.06
527.14	442.06
527.355	439.06
527.57	441.06
527.785	452.06
527.999	424.06
528.214	442.06
528.429	444.06
528.644	420.06
528.859	413.06
529.074	423.06
529.289	454.06
529.503	523.06
529.718	531.06
529.933	468.06
530.148	449.06
530.363	450.06
530.577	429.06
530.792	415.06
531.007	426.06
531.221	420.06
531.436	415.06
531.651	420.06
531.865	397.06
532.08	406.06
532.295	421.06
532.509	416.06
532.724	429.06
532.938	416.06
533.153	400.06
533.367	376.06
533.582	388.06
533.796	406.06
534.011	397.06
534.225	406.06
534.44	414.06
534.654	403.06
534.868	402.06
535.083	419.06
535.297	420.06
535.511	405.06
535.726	428.06
535.94	417.06
536.154	432.06
536.369	416.06
536.583	399.06
536.797	397.06
537.011	387.06
537.225	408.06
537.44	383.06
537.654	383.06
537.868	369.06
538.082	396.06
538.296	388.06
538.51	379.06
538.724	394.06
538.938	401.06
539.153	407.06
539.367	414.06
539.581	409.06
539.795	390.06
540.009	388.06
540.222	394.06
540.436	404.06
540.65	382.06
540.864	389.06
541.078	410.06
541.292	413.06
541.506	398.06
541.72	383.06
541.934	383.06
542.147	380.06
542.361	382.06
542.575	387.06
542.789	386.06
543.002	387.06
543.216	383.06
543.43	401.06
543.644	396.06
543.857	388.06
544.071	408.06
544.285	384.06
544.498	397.06
544.712	379.06
544.925	392.06
545.139	388.06
545.352	356.06
545.566	357.06
545.779	377.06
545.993	359.06
546.206	384.06
546.42	375.06
546.633	392.06
546.847	394.06
547.06	367.06
547.274	373.06
547.487	368.06
547.7	368.06
547.914	369.06
548.127	370.06
548.34	380.06
548.554	363.06
548.767	376.06
548.98	380.06
549.193	363.06
549.407	362.06
549.62	388.06
549.833	366.06
550.046	356.06
550.259	360.06
550.473	384.06
550.686	361.06
550.899	354.06
551.112	377.06
551.325	363.06
551.538	362.06
551.751	353.06
551.964	355.06
552.177	362.06
552.39	355.06
552.603	363.06
552.816	364.06
553.029	365.06
553.242	359.06
553.455	363.06
553.667	376.06
553.88	386.06
554.093	379.06
554.306	378.06
554.519	389.06
554.732	382.06
554.944	355.06
555.157	342.06
555.37	362.06
555.583	346.06
555.795	366.06
556.008	363.06
556.221	342.06
556.433	340.06
556.646	339.06
556.859	339.06
557.071	338.06
557.284	344.06
557.496	343.06
557.709	330.06
557.921	347.06
558.134	345.06
558.346	344.06
558.559	334.06
558.771	355.06
558.984	337.06
559.196	337.06
559.409	324.06
559.621	333.06
559.833	325.06
560.046	335.06
560.258	307.06
560.47	318.06
560.683	329.06
560.895	336.06
561.107	338.06
561.32	350.06
561.532	340.06
561.744	336.06
561.956	356.06
562.168	326.06
562.381	319.06
562.593	353.06
562.805	338.06
563.017	331.06
563.229	324.06
563.441	319.06
563.653	338.06
563.865	329.06
564.077	326.06
564.289	327.06
564.501	336.06
564.713	331.06
564.925	341.06
565.137	340.06
565.349	348.06
565.561	350.06
565.773	342.06
565.985	342.06
566.197	374.06
566.408	345.06
566.62	361.06
566.832	367.06
567.044	390.06
567.255	368.06
567.467	362.06
567.679	377.06
567.891	373.06
568.102	398.06
568.314	366.06
568.526	372.06
568.737	358.06
568.949	339.06
569.161	349.06
569.372	323.06
569.584	329.06
569.795	341.06
570.007	340.06
570.218	388.06
570.43	364.06
570.641	326.06
570.853	318.06
571.064	315.06
571.276	317.06
571.487	305.06
571.698	288.06
571.91	305.06
572.121	310.06
572.333	319.06
572.544	298.06
572.755	303.06
572.966	284.06
573.178	293.06
573.389	291.06
573.6	307.06
573.811	300.06
574.023	293.06
574.234	282.06
574.445	307.06
574.656	300.06
574.867	299.06
575.078	288.06
575.289	295.06
575.501	278.06
575.712	288.06
575.923	286.06
576.134	274.06
576.345	282.06
576.556	273.06
576.767	284.06
576.978	282.06
577.188	266.06
577.399	276.06
577.61	294.06
577.821	274.06
578.032	299.06
578.243	339.06
578.454	549.06
578.665	408.06
578.875	308.06
579.086	277.06
579.297	259.06
579.508	261.06
579.718	264.06
579.929	272.06
580.14	270.06
580.35	282.06
580.561	283.06
580.772	270.06
580.982	266.06
581.193	284.06
581.403	260.06
581.614	248.06
581.825	251.06
582.035	276.06
582.246	259.06
582.456	273.06
582.667	278.06
582.877	262.06
583.087	264.06
583.298	277.06
583.508	269.06
583.719	254.06
583.929	264.06
584.139	260.06
584.35	258.06
584.56	266.06
584.77	260.06
584.981	273.06
585.191	257.06
585.401	246.06
585.611	262.06
585.821	252.06
586.032	274.06
586.242	234.06
586.452	236.06
586.662	253.06
586.872	250.06
587.082	252.06
587.292	251.06
587.502	243.06
587.713	255.06
587.923	259.06
588.133	249.06
588.343	258.06
588.553	241.06
588.762	261.06
588.972	264.06
589.182	321.06
589.392	304.06
589.602	272.06
589.812	296.06
590.022	292.06
590.232	252.06
590.441	248.06
590.651	237.06
590.861	240.06
591.071	256.06
591.281	250.06
591.49	258.06
591.7	256.06
591.91	275.06
592.119	237.06
592.329	252.06
592.539	251.06
592.748	268.06
592.958	245.06
593.167	258.06
593.377	249.06
593.587	257.06
593.796	267.06
594.006	286.06
594.215	237.06
594.424	252.06
594.634	251.06
594.843	251.06
595.053	241.06
595.262	243.06
595.472	232.06
595.681	250.06
595.89	225.06
596.1	252.06
596.309	223.06
596.518	236.06
596.727	218.06
596.937	232.06
597.146	232.06
597.355	230.06
597.564	225.06
597.774	224.06
597.983	227.06
598.192	243.06
598.401	238.06
598.61	225.06
598.819	227.06
599.028	234.06
599.237	251.06
599.446	218.06
599.655	218.06
599.864	228.06
600.073	224.06
600.282	240.06
600.491	218.06
600.7	230.06
600.909	216.06
601.118	236.06
601.327	226.06
601.536	231.06
601.745	196.06
601.953	212.06
602.162	213.06
602.371	216.06
602.58	213.06
602.789	213.06
602.997	222.06
603.206	217.06
603.415	220.06
603.623	217.06
603.832	210.06
604.041	198.06
604.249	212.06
604.458	222.06
604.666	222.06
604.875	218.06
605.084	209.06
605.292	217.06
605.501	211.06
605.709	218.06
605.918	205.06
606.126	207.06
606.334	207.06
606.543	218.06
606.751	217.06
606.96	204.06
607.168	213.06
607.376	208.06
607.585	217.06
607.793	218.06
608.001	213.06
608.21	204.06
608.418	212.06
608.626	197.06
608.834	216.06
609.043	194.06
609.251	210.06
609.459	215.06
609.667	223.06
609.875	217.06
610.083	195.06
610.291	211.06
610.499	195.06
610.707	204.06
610.916	213.06
611.124	201.06
611.332	218.06
611.54	207.06
611.748	213.06
611.955	209.06
612.163	201.06
612.371	207.06
612.579	219.06
612.787	197.06
612.995	205.06
613.203	218.06
613.411	212.06
613.618	217.06
613.826	206.06
614.034	213.06
614.242	206.06
614.449	196.06
614.657	209.06
614.865	224.06
615.072	219.06
615.28	215.06
615.488	202.06
615.695	205.06
615.903	221.06
616.111	203.06
616.318	216.06
616.526	207.06
616.733	212.06
616.941	196.06
617.148	212.06
617.356	193.06
617.563	201.06
617.771	202.06
617.978	205.06
618.185	196.06
618.393	203.06
618.6	216.06
618.807	209.06
619.015	208.06
619.222	203.06
619.429	192.06
619.637	199.06
619.844	206.06
620.051	193.06
620.258	194.06
620.466	183.06
620.673	178.06
620.88	198.06
621.087	198.06
621.294	188.06
621.501	196.06
621.708	196.06
621.915	190.06
622.122	201.06
622.329	190.06
622.536	179.06
622.743	203.06
622.95	194.06
623.157	182.06
623.364	191.06
623.571	202.06
623.778	176.06
623.985	203.06
624.192	196.06
624.399	186.06
624.606	186.06
624.812	182.06
625.019	184.06
625.226	184.06
625.433	190.06
625.639	197.06
625.846	197.06
626.053	194.06
626.259	184.06
626.466	182.06
626.673	172.06
626.879	207.06
627.086	176.06
627.293	179.06
627.499	195.06
627.706	185.06
627.912	174.06
628.119	164.06
628.325	181.06
628.532	188.06
628.738	182.06
628.945	185.06
629.151	186.06
629.357	169.06
629.564	177.06
629.77	192.06
629.976	166.06
630.183	172.06
630.389	158.06
630.595	198.06
630.802	173.06
631.008	174.06
631.214	164.06
631.42	198.06
631.627	172.06
631.833	162.06
632.039	180.06
632.245	176.06
632.451	174.06
632.657	169.06
632.863	163.06
633.069	163.06
633.275	172.06
633.481	158.06
633.688	178.06
633.893	192.06
634.099	177.06
634.305	174.06
634.511	157.06
634.717	176.06
634.923	179.06
635.129	176.06
635.335	173.06
635.541	181.06
635.747	167.06
635.952	164.06
636.158	172.06
636.364	174.06
636.57	181.06
636.775	172.06
636.981	160.06
637.187	162.06
637.392	155.06
637.598	153.06
637.804	157.06
638.009	155.06
638.215	158.06
638.421	154.06
638.626	167.06
638.832	151.06
639.037	167.06
639.243	162.06
639.448	156.06
639.654	168.06
639.859	156.06
640.065	154.06
640.27	171.06
640.475	164.06
640.681	144.06
640.886	153.06
641.091	170.06
641.297	157.06
641.502	160.06
641.707	160.06
641.913	161.06
642.118	153.06
642.323	155.06
642.528	154.06
642.733	158.06
642.939	145.06
643.144	152.06
643.349	162.06
643.554	157.06
643.759	164.06
643.964	144.06
644.169	146.06
644.374	151.06
644.579	159.06
644.784	154.06
644.989	164.06
645.194	163.06
645.399	181.06
645.604	150.06
645.809	152.06
646.014	150.06
646.219	162.06
646.423	177.06
646.628	158.06
646.833	154.06
647.038	156.06
647.243	137.06
647.447	160.06
647.652	144.06
647.857	150.06
648.062	166.06
648.266	160.06
648.471	164.06
648.676	159.06
648.88	149.06
649.085	148.06
649.289	158.06
649.494	169.06
649.698	171.06
649.903	163.06
650.107	161.06
650.312	154.06
650.516	166.06
650.721	159.06
650.925	157.06
651.13	134.06
651.334	142.06
651.539	126.06
651.743	147.06
651.947	142.06
652.152	143.06
652.356	136.06
652.56	132.06
652.764	147.06
652.969	135.06
653.173	136.06
653.377	121.06
653.581	138.06
653.785	123.06
653.99	132.06
654.194	151.06
654.398	129.06
654.602	129.06
654.806	123.06
655.01	135.06
655.214	139.06
655.418	141.06
655.622	126.06
655.826	136.06
656.03	134.06
656.234	142.06
656.438	156.06
656.642	136.06
656.846	144.06
657.049	130.06
657.253	123.06
657.457	115.06
657.661	124.06
657.865	108.06
658.068	119.06
658.272	114.06
658.476	120.06
658.68	123.06
658.883	121.06
659.087	113.06
659.291	112.06
659.494	92.06
659.698	97.06
659.901	92.06
660.105	110.06
660.309	110.06
660.512	100.06
660.716	101.06
660.919	94.06
661.123	101.06
661.326	109.06
661.53	95.06
661.733	106.06
661.936	98.06
662.14	88.06
662.343	94.06
662.546	82.06
662.75	92.06
662.953	88.06
663.156	105.06
663.36	99.06
663.563	94.06
663.766	88.06
663.969	97.06
664.173	94.06
664.376	91.06
664.579	85.06
664.782	92.06
664.985	93.06
665.188	83.06
665.391	76.06
665.594	95.06
665.797	92.06
666	91.06
666.203	85.06
666.406	92.06
666.609	93.06
666.812	101.06
667.015	91.06
667.218	93.06
667.421	101.06
667.624	79.06
667.827	86.06
668.03	86.06
668.232	84.06
668.435	92.06
668.638	79.06
668.841	97.06
669.043	88.06
669.246	86.06
669.449	84.06
669.651	88.06
669.854	86.06
670.057	87.06
670.259	98.06
670.462	100.06
670.665	92.06
670.867	93.06
671.07	98.06
671.272	88.06
671.475	94.06
671.677	82.06
671.88	95.06
672.082	75.06
672.284	94.06
672.487	104.06
672.689	81.06
672.892	95.06
