Data from 1965.PennyLincolnUp.Lamp.En5.5.200Scan.071719.P1._HRD10591_14-10-43-912.txt Node
Date: Thu Jul 18 14:10:43 EDT 2019
User: cochatt
Spectrometer: HR+D1059
Trigger mode: 1
Integration Time (sec): 1.000000E-1
Scans to average: 1
Electric dark correction enabled: true
Nonlinearity correction enabled: false
Boxcar width: 0
XAxis mode: Wavelengths
Number of Pixels in Spectrum: 2048
>>>>>Begin Spectral Data<<<<<
223.165	-15.62
223.4	-15.62
223.635	-15.62
223.869	-16.62
224.104	-13.62
224.338	-11.62
224.573	-14.62
224.808	-5.62
225.042	-16.62
225.277	-8.62
225.511	-0.62
225.746	5.38
225.98	0.38
226.215	20.38
226.449	15.38
226.683	12.38
226.918	23.38
227.152	26.38
227.387	34.38
227.621	40.38
227.856	33.38
228.09	45.38
228.324	49.38
228.559	49.38
228.793	64.38
229.027	78.38
229.262	96.38
229.496	106.38
229.73	113.38
229.964	132.38
230.199	117.38
230.433	105.38
230.667	97.38
230.901	110.38
231.136	91.38
231.37	114.38
231.604	105.38
231.838	114.38
232.072	101.38
232.306	103.38
232.541	93.38
232.775	115.38
233.009	108.38
233.243	94.38
233.477	109.38
233.711	102.38
233.945	105.38
234.179	102.38
234.413	98.38
234.647	97.38
234.881	97.38
235.115	108.38
235.349	108.38
235.583	95.38
235.817	108.38
236.051	110.38
236.285	121.38
236.519	120.38
236.753	134.38
236.987	132.38
237.221	192.38
237.455	219.38
237.689	159.38
237.922	124.38
238.156	137.38
238.39	113.38
238.624	129.38
238.858	116.38
239.091	110.38
239.325	108.38
239.559	112.38
239.793	120.38
240.027	119.38
240.26	117.38
240.494	144.38
240.728	139.38
240.961	136.38
241.195	130.38
241.429	124.38
241.662	120.38
241.896	110.38
242.13	122.38
242.363	114.38
242.597	108.38
242.83	121.38
243.064	109.38
243.298	115.38
243.531	111.38
243.765	115.38
243.998	121.38
244.232	114.38
244.465	113.38
244.699	129.38
244.932	127.38
245.166	136.38
245.399	133.38
245.633	105.38
245.866	118.38
246.099	130.38
246.333	128.38
246.566	137.38
246.8	133.38
247.033	115.38
247.266	134.38
247.5	144.38
247.733	147.38
247.966	152.38
248.2	152.38
248.433	136.38
248.666	151.38
248.899	152.38
249.133	180.38
249.366	193.38
249.599	164.38
249.832	160.38
250.066	167.38
250.299	151.38
250.532	170.38
250.765	180.38
250.998	203.38
251.231	189.38
251.465	183.38
251.698	172.38
251.931	176.38
252.164	188.38
252.397	166.38
252.63	176.38
252.863	178.38
253.096	192.38
253.329	205.38
253.562	211.38
253.795	215.38
254.028	192.38
254.261	194.38
254.494	201.38
254.727	227.38
254.96	256.38
255.193	229.38
255.426	219.38
255.659	203.38
255.892	209.38
256.124	199.38
256.357	203.38
256.59	197.38
256.823	191.38
257.056	181.38
257.289	191.38
257.521	173.38
257.754	168.38
257.987	185.38
258.22	197.38
258.452	175.38
258.685	180.38
258.918	165.38
259.151	193.38
259.383	195.38
259.616	180.38
259.849	194.38
260.081	209.38
260.314	223.38
260.547	222.38
260.779	212.38
261.012	200.38
261.244	214.38
261.477	194.38
261.71	184.38
261.942	212.38
262.175	243.38
262.407	222.38
262.64	184.38
262.872	194.38
263.105	190.38
263.337	194.38
263.57	181.38
263.802	191.38
264.035	184.38
264.267	176.38
264.499	185.38
264.732	187.38
264.964	185.38
265.197	183.38
265.429	198.38
265.661	191.38
265.894	190.38
266.126	171.38
266.358	181.38
266.591	201.38
266.823	189.38
267.055	196.38
267.287	208.38
267.52	177.38
267.752	198.38
267.984	180.38
268.216	194.38
268.448	192.38
268.681	201.38
268.913	228.38
269.145	236.38
269.377	230.38
269.609	227.38
269.841	248.38
270.073	237.38
270.306	277.38
270.538	270.38
270.77	290.38
271.002	270.38
271.234	280.38
271.466	266.38
271.698	294.38
271.93	288.38
272.162	278.38
272.394	272.38
272.626	289.38
272.858	254.38
273.09	233.38
273.322	225.38
273.553	244.38
273.785	228.38
274.017	230.38
274.249	236.38
274.481	231.38
274.713	248.38
274.945	239.38
275.176	237.38
275.408	238.38
275.64	229.38
275.872	233.38
276.104	231.38
276.335	237.38
276.567	242.38
276.799	266.38
277.031	267.38
277.262	280.38
277.494	288.38
277.726	267.38
277.957	253.38
278.189	238.38
278.421	240.38
278.652	232.38
278.884	222.38
279.115	221.38
279.347	223.38
279.579	245.38
279.81	237.38
280.042	230.38
280.273	205.38
280.505	215.38
280.736	216.38
280.968	234.38
281.199	236.38
281.431	229.38
281.662	232.38
281.894	213.38
282.125	244.38
282.356	227.38
282.588	271.38
282.819	263.38
283.051	258.38
283.282	231.38
283.513	233.38
283.745	237.38
283.976	236.38
284.207	241.38
284.439	250.38
284.67	253.38
284.901	239.38
285.132	233.38
285.364	232.38
285.595	232.38
285.826	222.38
286.057	248.38
286.288	233.38
286.52	245.38
286.751	256.38
286.982	247.38
287.213	227.38
287.444	241.38
287.675	260.38
287.906	261.38
288.138	249.38
288.369	248.38
288.6	257.38
288.831	265.38
289.062	254.38
289.293	252.38
289.524	272.38
289.755	246.38
289.986	253.38
290.217	247.38
290.448	252.38
290.679	237.38
290.91	258.38
291.141	238.38
291.371	240.38
291.602	248.38
291.833	241.38
292.064	252.38
292.295	261.38
292.526	246.38
292.757	263.38
292.987	247.38
293.218	250.38
293.449	247.38
293.68	260.38
293.91	228.38
294.141	244.38
294.372	254.38
294.603	256.38
294.833	230.38
295.064	263.38
295.295	264.38
295.525	260.38
295.756	249.38
295.987	260.38
296.217	278.38
296.448	303.38
296.679	267.38
296.909	256.38
297.14	263.38
297.37	264.38
297.601	255.38
297.831	270.38
298.062	245.38
298.292	267.38
298.523	266.38
298.753	268.38
298.984	272.38
299.214	260.38
299.445	256.38
299.675	274.38
299.905	270.38
300.136	269.38
300.366	259.38
300.597	271.38
300.827	282.38
301.057	272.38
301.288	281.38
301.518	284.38
301.748	274.38
301.979	277.38
302.209	285.38
302.439	296.38
302.669	273.38
302.9	276.38
303.13	271.38
303.36	306.38
303.59	294.38
303.82	286.38
304.051	276.38
304.281	285.38
304.511	270.38
304.741	254.38
304.971	281.38
305.201	299.38
305.431	284.38
305.661	272.38
305.891	288.38
306.121	284.38
306.352	271.38
306.582	302.38
306.812	286.38
307.042	297.38
307.272	285.38
307.502	285.38
307.731	297.38
307.961	285.38
308.191	287.38
308.421	292.38
308.651	295.38
308.881	300.38
309.111	308.38
309.341	292.38
309.571	317.38
309.8	317.38
310.03	330.38
310.26	321.38
310.49	344.38
310.72	326.38
310.949	348.38
311.179	359.38
311.409	345.38
311.639	339.38
311.868	337.38
312.098	334.38
312.328	361.38
312.557	332.38
312.787	371.38
313.017	384.38
313.246	346.38
313.476	335.38
313.706	332.38
313.935	340.38
314.165	348.38
314.394	349.38
314.624	353.38
314.853	337.38
315.083	331.38
315.312	330.38
315.542	318.38
315.771	326.38
316.001	322.38
316.23	341.38
316.46	331.38
316.689	328.38
316.919	342.38
317.148	354.38
317.377	321.38
317.607	350.38
317.836	344.38
318.065	343.38
318.295	323.38
318.524	322.38
318.753	334.38
318.983	341.38
319.212	334.38
319.441	346.38
319.67	342.38
319.9	327.38
320.129	329.38
320.358	333.38
320.587	341.38
320.816	358.38
321.046	347.38
321.275	356.38
321.504	353.38
321.733	366.38
321.962	396.38
322.191	356.38
322.42	397.38
322.649	416.38
322.878	406.38
323.108	421.38
323.337	459.38
323.566	488.38
323.795	514.38
324.024	569.38
324.253	713.38
324.482	1042.38
324.71	1606.38
324.939	2177.38
325.168	1764.38
325.397	950.38
325.626	625.38
325.855	536.38
326.084	510.38
326.313	468.38
326.542	473.38
326.77	530.38
326.999	651.38
327.228	922.38
327.457	1350.38
327.686	1607.38
327.914	1048.38
328.143	699.38
328.372	610.38
328.6	570.38
328.829	548.38
329.058	559.38
329.287	566.38
329.515	515.38
329.744	492.38
329.972	484.38
330.201	485.38
330.43	548.38
330.658	582.38
330.887	592.38
331.115	566.38
331.344	488.38
331.572	441.38
331.801	442.38
332.03	469.38
332.258	420.38
332.486	416.38
332.715	402.38
332.943	408.38
333.172	400.38
333.4	407.38
333.629	422.38
333.857	422.38
334.085	447.38
334.314	465.38
334.542	499.38
334.771	500.38
334.999	472.38
335.227	417.38
335.455	413.38
335.684	385.38
335.912	365.38
336.14	385.38
336.369	398.38
336.597	418.38
336.825	382.38
337.053	396.38
337.281	378.38
337.51	382.38
337.738	388.38
337.966	384.38
338.194	402.38
338.422	396.38
338.65	391.38
338.878	374.38
339.106	366.38
339.334	376.38
339.562	367.38
339.79	366.38
340.018	386.38
340.246	394.38
340.474	378.38
340.702	361.38
340.93	387.38
341.158	364.38
341.386	374.38
341.614	392.38
341.842	391.38
342.07	359.38
342.298	353.38
342.526	357.38
342.754	362.38
342.981	347.38
343.209	358.38
343.437	358.38
343.665	358.38
343.893	375.38
344.12	366.38
344.348	378.38
344.576	381.38
344.804	378.38
345.031	399.38
345.259	408.38
345.487	408.38
345.714	398.38
345.942	355.38
346.17	348.38
346.397	386.38
346.625	368.38
346.853	354.38
347.08	359.38
347.308	380.38
347.535	386.38
347.763	369.38
347.99	361.38
348.218	380.38
348.445	386.38
348.673	376.38
348.9	360.38
349.128	364.38
349.355	337.38
349.583	358.38
349.81	343.38
350.037	357.38
350.265	348.38
350.492	350.38
350.72	363.38
350.947	354.38
351.174	374.38
351.402	367.38
351.629	361.38
351.856	356.38
352.083	375.38
352.311	378.38
352.538	390.38
352.765	398.38
352.992	368.38
353.22	358.38
353.447	372.38
353.674	376.38
353.901	349.38
354.128	344.38
354.355	338.38
354.583	343.38
354.81	338.38
355.037	325.38
355.264	325.38
355.491	338.38
355.718	327.38
355.945	319.38
356.172	334.38
356.399	317.38
356.626	344.38
356.853	334.38
357.08	330.38
357.307	343.38
357.534	326.38
357.761	324.38
357.988	354.38
358.215	340.38
358.441	334.38
358.668	336.38
358.895	339.38
359.122	367.38
359.349	359.38
359.576	360.38
359.802	394.38
360.029	386.38
360.256	419.38
360.483	398.38
360.709	372.38
360.936	369.38
361.163	377.38
361.39	375.38
361.616	361.38
361.843	364.38
362.07	384.38
362.296	348.38
362.523	366.38
362.749	364.38
362.976	364.38
363.203	350.38
363.429	363.38
363.656	354.38
363.882	342.38
364.109	346.38
364.335	342.38
364.562	326.38
364.788	341.38
365.015	340.38
365.241	339.38
365.468	367.38
365.694	361.38
365.92	349.38
366.147	344.38
366.373	362.38
366.599	333.38
366.826	342.38
367.052	324.38
367.278	343.38
367.505	328.38
367.731	354.38
367.957	346.38
368.184	342.38
368.41	345.38
368.636	361.38
368.862	354.38
369.089	370.38
369.315	363.38
369.541	325.38
369.767	332.38
369.993	338.38
370.219	321.38
370.445	336.38
370.672	337.38
370.898	335.38
371.124	338.38
371.35	345.38
371.576	330.38
371.802	337.38
372.028	328.38
372.254	326.38
372.48	342.38
372.706	330.38
372.932	342.38
373.158	325.38
373.384	326.38
373.61	321.38
373.835	334.38
374.061	337.38
374.287	339.38
374.513	331.38
374.739	342.38
374.965	353.38
375.191	348.38
375.416	333.38
375.642	341.38
375.868	330.38
376.094	355.38
376.319	336.38
376.545	337.38
376.771	333.38
376.997	321.38
377.222	350.38
377.448	333.38
377.674	341.38
377.899	356.38
378.125	348.38
378.35	327.38
378.576	316.38
378.802	322.38
379.027	332.38
379.253	324.38
379.478	314.38
379.704	321.38
379.929	320.38
380.155	336.38
380.38	326.38
380.606	322.38
380.831	316.38
381.057	351.38
381.282	335.38
381.507	355.38
381.733	345.38
381.958	333.38
382.184	354.38
382.409	321.38
382.634	336.38
382.86	345.38
383.085	339.38
383.31	368.38
383.535	346.38
383.761	344.38
383.986	349.38
384.211	364.38
384.436	360.38
384.662	339.38
384.887	346.38
385.112	337.38
385.337	353.38
385.562	327.38
385.787	338.38
386.013	364.38
386.238	368.38
386.463	375.38
386.688	361.38
386.913	359.38
387.138	359.38
387.363	362.38
387.588	352.38
387.813	361.38
388.038	340.38
388.263	358.38
388.488	367.38
388.713	359.38
388.938	361.38
389.163	359.38
389.387	370.38
389.612	350.38
389.837	362.38
390.062	357.38
390.287	368.38
390.512	359.38
390.736	370.38
390.961	348.38
391.186	350.38
391.411	361.38
391.636	370.38
391.86	344.38
392.085	360.38
392.31	369.38
392.534	359.38
392.759	366.38
392.984	376.38
393.208	349.38
393.433	372.38
393.658	338.38
393.882	364.38
394.107	348.38
394.331	372.38
394.556	366.38
394.78	357.38
395.005	352.38
395.229	358.38
395.454	367.38
395.678	372.38
395.903	390.38
396.127	401.38
396.352	394.38
396.576	395.38
396.801	366.38
397.025	388.38
397.249	357.38
397.474	382.38
397.698	384.38
397.922	394.38
398.147	413.38
398.371	418.38
398.595	397.38
398.82	404.38
399.044	410.38
399.268	414.38
399.492	433.38
399.717	437.38
399.941	466.38
400.165	509.38
400.389	491.38
400.613	470.38
400.837	432.38
401.062	404.38
401.286	398.38
401.51	391.38
401.734	414.38
401.958	408.38
402.182	395.38
402.406	422.38
402.63	432.38
402.854	416.38
403.078	428.38
403.302	428.38
403.526	425.38
403.75	411.38
403.974	427.38
404.198	402.38
404.422	420.38
404.645	428.38
404.869	439.38
405.093	470.38
405.317	508.38
405.541	500.38
405.765	473.38
405.988	468.38
406.212	460.38
406.436	462.38
406.66	495.38
406.883	478.38
407.107	485.38
407.331	509.38
407.555	569.38
407.778	575.38
408.002	529.38
408.226	469.38
408.449	444.38
408.673	448.38
408.896	484.38
409.12	536.38
409.344	497.38
409.567	460.38
409.791	440.38
410.014	439.38
410.238	445.38
410.461	435.38
410.685	426.38
410.908	441.38
411.132	465.38
411.355	496.38
411.578	459.38
411.802	445.38
412.025	421.38
412.249	419.38
412.472	452.38
412.695	496.38
412.919	492.38
413.142	447.38
413.365	425.38
413.589	416.38
413.812	409.38
414.035	394.38
414.258	380.38
414.482	406.38
414.705	411.38
414.928	380.38
415.151	420.38
415.374	416.38
415.597	390.38
415.821	393.38
416.044	399.38
416.267	399.38
416.49	395.38
416.713	387.38
416.936	421.38
417.159	411.38
417.382	382.38
417.605	419.38
417.828	428.38
418.051	401.38
418.274	412.38
418.497	384.38
418.72	408.38
418.943	394.38
419.166	398.38
419.389	433.38
419.611	430.38
419.834	436.38
420.057	428.38
420.28	417.38
420.503	409.38
420.726	402.38
420.948	428.38
421.171	479.38
421.394	469.38
421.617	432.38
421.839	428.38
422.062	411.38
422.285	431.38
422.507	473.38
422.73	532.38
422.953	527.38
423.175	475.38
423.398	448.38
423.621	441.38
423.843	458.38
424.066	466.38
424.288	456.38
424.511	470.38
424.733	520.38
424.956	570.38
425.178	540.38
425.401	557.38
425.623	566.38
425.846	478.38
426.068	460.38
426.291	446.38
426.513	466.38
426.735	466.38
426.958	506.38
427.18	589.38
427.402	662.38
427.625	739.38
427.847	673.38
428.069	576.38
428.292	514.38
428.514	470.38
428.736	469.38
428.958	449.38
429.181	418.38
429.403	433.38
429.625	434.38
429.847	463.38
430.069	527.38
430.292	507.38
430.514	439.38
430.736	425.38
430.958	428.38
431.18	410.38
431.402	405.38
431.624	397.38
431.846	384.38
432.068	382.38
432.29	410.38
432.512	390.38
432.734	410.38
432.956	388.38
433.178	409.38
433.4	429.38
433.622	423.38
433.844	398.38
434.066	382.38
434.287	395.38
434.509	415.38
434.731	406.38
434.953	389.38
435.175	409.38
435.397	440.38
435.618	467.38
435.84	508.38
436.062	600.38
436.284	614.38
436.505	524.38
436.727	468.38
436.949	448.38
437.17	441.38
437.392	422.38
437.614	454.38
437.835	492.38
438.057	582.38
438.278	636.38
438.5	638.38
438.721	679.38
438.943	646.38
439.165	538.38
439.386	485.38
439.608	484.38
439.829	451.38
440.05	506.38
440.272	543.38
440.493	532.38
440.715	463.38
440.936	440.38
441.158	411.38
441.379	425.38
441.6	432.38
441.822	461.38
442.043	487.38
442.264	591.38
442.486	594.38
442.707	538.38
442.928	475.38
443.149	495.38
443.371	516.38
443.592	541.38
443.813	631.38
444.034	636.38
444.255	548.38
444.476	481.38
444.698	465.38
444.919	440.38
445.14	543.38
445.361	513.38
445.582	502.38
445.803	585.38
446.024	673.38
446.245	656.38
446.466	602.38
446.687	496.38
446.908	472.38
447.129	456.38
447.35	453.38
447.571	425.38
447.792	429.38
448.013	449.38
448.234	457.38
448.455	511.38
448.675	599.38
448.896	670.38
449.117	588.38
449.338	553.38
449.559	632.38
449.779	697.38
450	578.38
450.221	483.38
450.442	444.38
450.662	458.38
450.883	446.38
451.104	455.38
451.324	457.38
451.545	425.38
451.766	422.38
451.986	393.38
452.207	394.38
452.428	394.38
452.648	401.38
452.869	377.38
453.089	394.38
453.31	397.38
453.53	392.38
453.751	392.38
453.971	393.38
454.192	425.38
454.412	407.38
454.633	392.38
454.853	390.38
455.073	382.38
455.294	423.38
455.514	471.38
455.734	450.38
455.955	398.38
456.175	370.38
456.395	370.38
456.616	368.38
456.836	382.38
457.056	368.38
457.276	358.38
457.497	348.38
457.717	374.38
457.937	378.38
458.157	376.38
458.377	384.38
458.598	407.38
458.818	473.38
459.038	569.38
459.258	561.38
459.478	467.38
459.698	404.38
459.918	391.38
460.138	393.38
460.358	398.38
460.578	406.38
460.798	401.38
461.018	394.38
461.238	408.38
461.458	408.38
461.678	400.38
461.898	401.38
462.118	392.38
462.338	415.38
462.558	425.38
462.777	406.38
462.997	426.38
463.217	421.38
463.437	431.38
463.657	404.38
463.876	432.38
464.096	408.38
464.316	425.38
464.536	453.38
464.755	428.38
464.975	435.38
465.195	485.38
465.414	553.38
465.634	479.38
465.854	464.38
466.073	418.38
466.293	419.38
466.512	416.38
466.732	379.38
466.951	420.38
467.171	402.38
467.391	412.38
467.61	405.38
467.829	404.38
468.049	405.38
468.268	432.38
468.488	394.38
468.707	378.38
468.927	375.38
469.146	381.38
469.365	387.38
469.585	390.38
469.804	391.38
470.023	413.38
470.243	414.38
470.462	396.38
470.681	427.38
470.901	424.38
471.12	409.38
471.339	402.38
471.558	411.38
471.777	403.38
471.997	400.38
472.216	416.38
472.435	441.38
472.654	452.38
472.873	395.38
473.092	398.38
473.311	406.38
473.53	380.38
473.749	422.38
473.968	447.38
474.187	544.38
474.406	563.38
474.625	440.38
474.844	425.38
475.063	410.38
475.282	414.38
475.501	392.38
475.72	429.38
475.939	414.38
476.158	426.38
476.377	430.38
476.596	396.38
476.814	429.38
477.033	437.38
477.252	426.38
477.471	422.38
477.69	426.38
477.908	405.38
478.127	429.38
478.346	430.38
478.564	453.38
478.783	454.38
479.002	440.38
479.22	449.38
479.439	454.38
479.658	479.38
479.876	490.38
480.095	488.38
480.313	520.38
480.532	500.38
480.751	497.38
480.969	498.38
481.188	554.38
481.406	607.38
481.624	533.38
481.843	489.38
482.061	474.38
482.28	497.38
482.498	465.38
482.717	467.38
482.935	468.38
483.153	478.38
483.372	468.38
483.59	463.38
483.808	458.38
484.027	457.38
484.245	464.38
484.463	472.38
484.681	476.38
484.9	475.38
485.118	479.38
485.336	479.38
485.554	491.38
485.772	482.38
485.99	487.38
486.209	503.38
486.427	514.38
486.645	514.38
486.863	516.38
487.081	535.38
487.299	527.38
487.517	503.38
487.735	511.38
487.953	508.38
488.171	499.38
488.389	516.38
488.607	494.38
488.825	487.38
489.043	516.38
489.261	518.38
489.479	521.38
489.696	531.38
489.914	523.38
490.132	532.38
490.35	528.38
490.568	530.38
490.786	527.38
491.003	551.38
491.221	560.38
491.439	577.38
491.657	575.38
491.874	577.38
492.092	590.38
492.31	609.38
492.527	579.38
492.745	593.38
492.963	604.38
493.18	603.38
493.398	605.38
493.615	601.38
493.833	584.38
494.05	612.38
494.268	587.38
494.485	598.38
494.703	605.38
494.92	592.38
495.138	614.38
495.355	602.38
495.573	611.38
495.79	611.38
496.008	610.38
496.225	596.38
496.442	606.38
496.66	593.38
496.877	601.38
497.094	588.38
497.312	597.38
497.529	630.38
497.746	633.38
497.963	625.38
498.181	658.38
498.398	657.38
498.615	666.38
498.832	643.38
499.049	649.38
499.267	653.38
499.484	686.38
499.701	683.38
499.918	710.38
500.135	734.38
500.352	760.38
500.569	744.38
500.786	762.38
501.003	754.38
501.22	761.38
501.437	749.38
501.654	720.38
501.871	740.38
502.088	718.38
502.305	697.38
502.522	651.38
502.739	663.38
502.956	660.38
503.172	636.38
503.389	635.38
503.606	629.38
503.823	640.38
504.04	614.38
504.256	617.38
504.473	604.38
504.69	599.38
504.907	590.38
505.123	573.38
505.34	592.38
505.557	588.38
505.773	573.38
505.99	606.38
506.207	569.38
506.423	570.38
506.64	572.38
506.856	576.38
507.073	575.38
507.289	570.38
507.506	575.38
507.722	592.38
507.939	627.38
508.155	571.38
508.372	553.38
508.588	579.38
508.805	569.38
509.021	566.38
509.238	590.38
509.454	582.38
509.67	564.38
509.887	561.38
510.103	542.38
510.319	584.38
510.536	694.38
510.752	1244.38
510.968	966.38
511.184	607.38
511.401	571.38
511.617	569.38
511.833	553.38
512.049	537.38
512.265	551.38
512.481	550.38
512.698	539.38
512.914	523.38
513.13	544.38
513.346	549.38
513.562	548.38
513.778	546.38
513.994	554.38
514.21	543.38
514.426	602.38
514.642	636.38
514.858	663.38
515.074	713.38
515.29	863.38
515.506	1345.38
515.721	1096.38
515.937	680.38
516.153	616.38
516.369	604.38
516.585	571.38
516.801	544.38
517.016	533.38
517.232	535.38
517.448	553.38
517.664	535.38
517.879	540.38
518.095	542.38
518.311	547.38
518.527	536.38
518.742	532.38
518.958	527.38
519.173	521.38
519.389	536.38
519.605	535.38
519.82	540.38
520.036	587.38
520.251	583.38
520.467	595.38
520.682	600.38
520.898	618.38
521.113	635.38
521.329	700.38
521.544	810.38
521.76	1053.38
521.975	1825.38
522.19	1765.38
522.406	928.38
522.621	662.38
522.836	591.38
523.052	537.38
523.267	531.38
523.482	497.38
523.698	509.38
523.913	517.38
524.128	508.38
524.343	480.38
524.559	470.38
524.774	476.38
524.989	477.38
525.204	471.38
525.419	474.38
525.634	470.38
525.849	467.38
526.064	429.38
526.28	452.38
526.495	433.38
526.71	436.38
526.925	436.38
527.14	420.38
527.355	437.38
527.57	436.38
527.785	438.38
527.999	453.38
528.214	431.38
528.429	452.38
528.644	426.38
528.859	423.38
529.074	421.38
529.289	446.38
529.503	555.38
529.718	548.38
529.933	480.38
530.148	429.38
530.363	435.38
530.577	455.38
530.792	439.38
531.007	429.38
531.221	438.38
531.436	402.38
531.651	418.38
531.865	431.38
532.08	392.38
532.295	413.38
532.509	422.38
532.724	413.38
532.938	425.38
533.153	424.38
533.367	420.38
533.582	394.38
533.796	390.38
534.011	398.38
534.225	415.38
534.44	408.38
534.654	401.38
534.868	404.38
535.083	371.38
535.297	390.38
535.511	400.38
535.726	413.38
535.94	416.38
536.154	406.38
536.369	408.38
536.583	382.38
536.797	400.38
537.011	406.38
537.225	402.38
537.44	389.38
537.654	370.38
537.868	388.38
538.082	390.38
538.296	403.38
538.51	382.38
538.724	394.38
538.938	376.38
539.153	398.38
539.367	412.38
539.581	434.38
539.795	410.38
540.009	402.38
540.222	380.38
540.436	374.38
540.65	400.38
540.864	398.38
541.078	421.38
541.292	406.38
541.506	397.38
541.72	393.38
541.934	378.38
542.147	374.38
542.361	368.38
542.575	371.38
542.789	380.38
543.002	379.38
543.216	389.38
543.43	393.38
543.644	382.38
543.857	397.38
544.071	397.38
544.285	392.38
544.498	380.38
544.712	370.38
544.925	374.38
545.139	384.38
545.352	380.38
545.566	378.38
545.779	371.38
545.993	361.38
546.206	366.38
546.42	390.38
546.633	368.38
546.847	378.38
547.06	349.38
547.274	370.38
547.487	367.38
547.7	373.38
547.914	358.38
548.127	356.38
548.34	349.38
548.554	362.38
548.767	349.38
548.98	355.38
549.193	361.38
549.407	349.38
549.62	349.38
549.833	379.38
550.046	371.38
550.259	361.38
550.473	351.38
550.686	354.38
550.899	362.38
551.112	343.38
551.325	340.38
551.538	349.38
551.751	372.38
551.964	348.38
552.177	354.38
552.39	355.38
552.603	338.38
552.816	348.38
553.029	350.38
553.242	378.38
553.455	372.38
553.667	380.38
553.88	372.38
554.093	391.38
554.306	359.38
554.519	353.38
554.732	350.38
554.944	358.38
555.157	351.38
555.37	336.38
555.583	344.38
555.795	354.38
556.008	355.38
556.221	336.38
556.433	341.38
556.646	341.38
556.859	331.38
557.071	323.38
557.284	336.38
557.496	331.38
557.709	336.38
557.921	324.38
558.134	313.38
558.346	325.38
558.559	326.38
558.771	329.38
558.984	330.38
559.196	330.38
559.409	314.38
559.621	342.38
559.833	317.38
560.046	325.38
560.258	323.38
560.47	339.38
560.683	308.38
560.895	325.38
561.107	326.38
561.32	322.38
561.532	308.38
561.744	339.38
561.956	303.38
562.168	334.38
562.381	340.38
562.593	345.38
562.805	324.38
563.017	338.38
563.229	311.38
563.441	318.38
563.653	325.38
563.865	334.38
564.077	331.38
564.289	337.38
564.501	327.38
564.713	342.38
564.925	324.38
565.137	378.38
565.349	332.38
565.561	332.38
565.773	330.38
565.985	340.38
566.197	335.38
566.408	347.38
566.62	353.38
566.832	348.38
567.044	372.38
567.255	351.38
567.467	374.38
567.679	370.38
567.891	377.38
568.102	374.38
568.314	373.38
568.526	361.38
568.737	340.38
568.949	354.38
569.161	326.38
569.372	323.38
569.584	319.38
569.795	343.38
570.007	333.38
570.218	380.38
570.43	360.38
570.641	328.38
570.853	324.38
571.064	329.38
571.276	307.38
571.487	313.38
571.698	319.38
571.91	306.38
572.121	292.38
572.333	306.38
572.544	289.38
572.755	311.38
572.966	301.38
573.178	286.38
573.389	290.38
573.6	291.38
573.811	286.38
574.023	291.38
574.234	279.38
574.445	270.38
574.656	279.38
574.867	280.38
575.078	275.38
575.289	262.38
575.501	276.38
575.712	305.38
575.923	301.38
576.134	278.38
576.345	274.38
576.556	280.38
576.767	273.38
576.978	276.38
577.188	271.38
577.399	271.38
577.61	269.38
577.821	270.38
578.032	282.38
578.243	297.38
578.454	560.38
578.665	406.38
578.875	280.38
579.086	269.38
579.297	270.38
579.508	277.38
579.718	258.38
579.929	271.38
580.14	246.38
580.35	250.38
580.561	276.38
580.772	257.38
580.982	274.38
581.193	253.38
581.403	262.38
581.614	274.38
581.825	255.38
582.035	244.38
582.246	253.38
582.456	260.38
582.667	256.38
582.877	252.38
583.087	262.38
583.298	244.38
583.508	241.38
583.719	244.38
583.929	253.38
584.139	250.38
584.35	233.38
584.56	229.38
584.77	252.38
584.981	270.38
585.191	258.38
585.401	259.38
585.611	246.38
585.821	239.38
586.032	239.38
586.242	240.38
586.452	248.38
586.662	246.38
586.872	249.38
587.082	259.38
587.292	260.38
587.502	258.38
587.713	227.38
587.923	248.38
588.133	239.38
588.343	261.38
588.553	265.38
588.762	248.38
588.972	221.38
589.182	248.38
589.392	266.38
589.602	257.38
589.812	271.38
590.022	262.38
590.232	232.38
590.441	251.38
590.651	233.38
590.861	243.38
591.071	222.38
591.281	243.38
591.49	247.38
591.7	235.38
591.91	236.38
592.119	231.38
592.329	252.38
592.539	240.38
592.748	237.38
592.958	247.38
593.167	230.38
593.377	244.38
593.587	231.38
593.796	246.38
594.006	236.38
594.215	250.38
594.424	247.38
594.634	247.38
594.843	236.38
595.053	238.38
595.262	222.38
595.472	238.38
595.681	235.38
595.89	236.38
596.1	223.38
596.309	233.38
596.518	229.38
596.727	231.38
596.937	242.38
597.146	225.38
597.355	216.38
597.564	232.38
597.774	225.38
597.983	212.38
598.192	221.38
598.401	218.38
598.61	196.38
598.819	206.38
599.028	229.38
599.237	216.38
599.446	223.38
599.655	222.38
599.864	216.38
600.073	213.38
600.282	227.38
600.491	219.38
600.7	207.38
600.909	217.38
601.118	218.38
601.327	212.38
601.536	208.38
601.745	216.38
601.953	216.38
602.162	230.38
602.371	208.38
602.58	214.38
602.789	224.38
602.997	216.38
603.206	208.38
603.415	198.38
603.623	217.38
603.832	191.38
604.041	208.38
604.249	200.38
604.458	196.38
604.666	206.38
604.875	212.38
605.084	208.38
605.292	215.38
605.501	214.38
605.709	208.38
605.918	196.38
606.126	204.38
606.334	217.38
606.543	200.38
606.751	197.38
606.96	201.38
607.168	199.38
607.376	205.38
607.585	192.38
607.793	202.38
608.001	199.38
608.21	205.38
608.418	198.38
608.626	187.38
608.834	210.38
609.043	207.38
609.251	207.38
609.459	205.38
609.667	190.38
609.875	199.38
610.083	184.38
610.291	197.38
610.499	201.38
610.707	191.38
610.916	205.38
611.124	206.38
611.332	195.38
611.54	210.38
611.748	190.38
611.955	209.38
612.163	213.38
612.371	195.38
612.579	188.38
612.787	192.38
612.995	197.38
613.203	192.38
613.411	194.38
613.618	200.38
613.826	201.38
614.034	197.38
614.242	212.38
614.449	199.38
614.657	187.38
614.865	205.38
615.072	181.38
615.28	169.38
615.488	194.38
615.695	182.38
615.903	196.38
616.111	199.38
616.318	175.38
616.526	206.38
616.733	206.38
616.941	186.38
617.148	198.38
617.356	200.38
617.563	207.38
617.771	211.38
617.978	186.38
618.185	193.38
618.393	201.38
618.6	194.38
618.807	187.38
619.015	193.38
619.222	175.38
619.429	188.38
619.637	188.38
619.844	182.38
620.051	201.38
620.258	196.38
620.466	184.38
620.673	192.38
620.88	173.38
621.087	177.38
621.294	188.38
621.501	188.38
621.708	186.38
621.915	198.38
622.122	199.38
622.329	193.38
622.536	187.38
622.743	184.38
622.95	186.38
623.157	178.38
623.364	156.38
623.571	170.38
623.778	179.38
623.985	168.38
624.192	169.38
624.399	187.38
624.606	172.38
624.812	185.38
625.019	177.38
625.226	172.38
625.433	180.38
625.639	169.38
625.846	185.38
626.053	175.38
626.259	177.38
626.466	175.38
626.673	183.38
626.879	175.38
627.086	178.38
627.293	160.38
627.499	174.38
627.706	166.38
627.912	163.38
628.119	167.38
628.325	174.38
628.532	161.38
628.738	167.38
628.945	169.38
629.151	174.38
629.357	153.38
629.564	148.38
629.77	167.38
629.976	152.38
630.183	161.38
630.389	183.38
630.595	168.38
630.802	165.38
631.008	173.38
631.214	164.38
631.42	158.38
631.627	168.38
631.833	167.38
632.039	162.38
632.245	160.38
632.451	154.38
632.657	169.38
632.863	165.38
633.069	153.38
633.275	167.38
633.481	155.38
633.688	162.38
633.893	148.38
634.099	150.38
634.305	173.38
634.511	164.38
634.717	138.38
634.923	151.38
635.129	144.38
635.335	144.38
635.541	150.38
635.747	152.38
635.952	144.38
636.158	153.38
636.364	150.38
636.57	158.38
636.775	150.38
636.981	146.38
637.187	153.38
637.392	153.38
637.598	157.38
637.804	145.38
638.009	148.38
638.215	153.38
638.421	137.38
638.626	150.38
638.832	150.38
639.037	155.38
639.243	146.38
639.448	145.38
639.654	158.38
639.859	158.38
640.065	134.38
640.27	144.38
640.475	153.38
640.681	148.38
640.886	145.38
641.091	153.38
641.297	159.38
641.502	137.38
641.707	155.38
641.913	156.38
642.118	156.38
642.323	138.38
642.528	155.38
642.733	153.38
642.939	145.38
643.144	130.38
643.349	138.38
643.554	143.38
643.759	148.38
643.964	136.38
644.169	148.38
644.374	143.38
644.579	136.38
644.784	144.38
644.989	150.38
645.194	149.38
645.399	138.38
645.604	152.38
645.809	139.38
646.014	132.38
646.219	141.38
646.423	136.38
646.628	134.38
646.833	163.38
647.038	135.38
647.243	145.38
647.447	142.38
647.652	143.38
647.857	138.38
648.062	151.38
648.266	149.38
648.471	144.38
648.676	143.38
648.88	145.38
649.085	155.38
649.289	141.38
649.494	153.38
649.698	170.38
649.903	161.38
650.107	144.38
650.312	146.38
650.516	137.38
650.721	139.38
650.925	142.38
651.13	136.38
651.334	131.38
651.539	143.38
651.743	122.38
651.947	121.38
652.152	118.38
652.356	149.38
652.56	113.38
652.764	124.38
652.969	114.38
653.173	132.38
653.377	124.38
653.581	136.38
653.785	127.38
653.99	114.38
654.194	113.38
654.398	125.38
654.602	115.38
654.806	122.38
655.01	125.38
655.214	135.38
655.418	127.38
655.622	119.38
655.826	116.38
656.03	113.38
656.234	115.38
656.438	119.38
656.642	133.38
656.846	109.38
657.049	102.38
657.253	120.38
657.457	120.38
657.661	120.38
657.865	114.38
658.068	100.38
658.272	98.38
658.476	92.38
658.68	103.38
658.883	99.38
659.087	98.38
659.291	93.38
659.494	92.38
659.698	101.38
659.901	76.38
660.105	80.38
660.309	94.38
660.512	81.38
660.716	101.38
660.919	78.38
661.123	102.38
661.326	87.38
661.53	84.38
661.733	94.38
661.936	85.38
662.14	74.38
662.343	67.38
662.546	81.38
662.75	82.38
662.953	89.38
663.156	88.38
663.36	86.38
663.563	81.38
663.766	93.38
663.969	88.38
664.173	76.38
664.376	81.38
664.579	83.38
664.782	68.38
664.985	64.38
665.188	61.38
665.391	83.38
665.594	89.38
665.797	76.38
666	75.38
666.203	63.38
666.406	75.38
666.609	81.38
666.812	77.38
667.015	80.38
667.218	77.38
667.421	94.38
667.624	81.38
667.827	74.38
668.03	66.38
668.232	72.38
668.435	82.38
668.638	78.38
668.841	87.38
669.043	77.38
669.246	71.38
669.449	68.38
669.651	79.38
669.854	71.38
670.057	89.38
670.259	79.38
670.462	72.38
670.665	86.38
670.867	75.38
671.07	78.38
671.272	86.38
671.475	78.38
671.677	80.38
671.88	81.38
672.082	75.38
672.284	71.38
672.487	77.38
672.689	81.38
672.892	69.38
