Data from 1965.PennyLincolnUp.Lamp.En5.5.200Scan.071719.P1._HRD10591_14-09-50-911.txt Node
Date: Thu Jul 18 14:09:50 EDT 2019
User: cochatt
Spectrometer: HR+D1059
Trigger mode: 1
Integration Time (sec): 1.000000E-1
Scans to average: 1
Electric dark correction enabled: true
Nonlinearity correction enabled: false
Boxcar width: 0
XAxis mode: Wavelengths
Number of Pixels in Spectrum: 2048
>>>>>Begin Spectral Data<<<<<
223.165	-10.12
223.4	-10.12
223.635	-10.12
223.869	-25.12
224.104	-25.12
224.338	-30.12
224.573	-21.12
224.808	-17.12
225.042	2.88
225.277	0.88
225.511	-3.12
225.746	10.88
225.98	14.88
226.215	23.88
226.449	22.88
226.683	20.88
226.918	8.88
227.152	25.88
227.387	38.88
227.621	34.88
227.856	32.88
228.09	50.88
228.324	29.88
228.559	43.88
228.793	67.88
229.027	99.88
229.262	99.88
229.496	105.88
229.73	129.88
229.964	134.88
230.199	132.88
230.433	114.88
230.667	104.88
230.901	109.88
231.136	108.88
231.37	109.88
231.604	114.88
231.838	119.88
232.072	102.88
232.306	104.88
232.541	119.88
232.775	99.88
233.009	111.88
233.243	98.88
233.477	99.88
233.711	102.88
233.945	114.88
234.179	109.88
234.413	115.88
234.647	112.88
234.881	106.88
235.115	109.88
235.349	104.88
235.583	119.88
235.817	116.88
236.051	125.88
236.285	124.88
236.519	126.88
236.753	107.88
236.987	142.88
237.221	184.88
237.455	212.88
237.689	184.88
237.922	130.88
238.156	127.88
238.39	127.88
238.624	111.88
238.858	114.88
239.091	126.88
239.325	122.88
239.559	122.88
239.793	120.88
240.027	130.88
240.26	143.88
240.494	151.88
240.728	144.88
240.961	137.88
241.195	145.88
241.429	138.88
241.662	121.88
241.896	123.88
242.13	115.88
242.363	120.88
242.597	128.88
242.83	118.88
243.064	111.88
243.298	130.88
243.531	123.88
243.765	131.88
243.998	145.88
244.232	123.88
244.465	139.88
244.699	135.88
244.932	130.88
245.166	134.88
245.399	145.88
245.633	134.88
245.866	128.88
246.099	126.88
246.333	128.88
246.566	133.88
246.8	140.88
247.033	149.88
247.266	139.88
247.5	145.88
247.733	156.88
247.966	166.88
248.2	152.88
248.433	162.88
248.666	156.88
248.899	156.88
249.133	168.88
249.366	204.88
249.599	182.88
249.832	151.88
250.066	182.88
250.299	173.88
250.532	178.88
250.765	178.88
250.998	205.88
251.231	217.88
251.465	184.88
251.698	190.88
251.931	189.88
252.164	187.88
252.397	174.88
252.63	178.88
252.863	195.88
253.096	201.88
253.329	217.88
253.562	222.88
253.795	184.88
254.028	210.88
254.261	203.88
254.494	197.88
254.727	230.88
254.96	251.88
255.193	245.88
255.426	230.88
255.659	227.88
255.892	215.88
256.124	212.88
256.357	209.88
256.59	196.88
256.823	204.88
257.056	198.88
257.289	184.88
257.521	192.88
257.754	199.88
257.987	188.88
258.22	182.88
258.452	180.88
258.685	200.88
258.918	189.88
259.151	203.88
259.383	204.88
259.616	209.88
259.849	196.88
260.081	215.88
260.314	238.88
260.547	233.88
260.779	220.88
261.012	223.88
261.244	210.88
261.477	207.88
261.71	203.88
261.942	210.88
262.175	225.88
262.407	202.88
262.64	195.88
262.872	204.88
263.105	171.88
263.337	221.88
263.57	198.88
263.802	190.88
264.035	199.88
264.267	192.88
264.499	187.88
264.732	201.88
264.964	196.88
265.197	187.88
265.429	183.88
265.661	191.88
265.894	200.88
266.126	198.88
266.358	196.88
266.591	192.88
266.823	210.88
267.055	184.88
267.287	212.88
267.52	214.88
267.752	182.88
267.984	200.88
268.216	208.88
268.448	201.88
268.681	215.88
268.913	217.88
269.145	229.88
269.377	239.88
269.609	245.88
269.841	237.88
270.073	236.88
270.306	266.88
270.538	278.88
270.77	280.88
271.002	269.88
271.234	267.88
271.466	265.88
271.698	268.88
271.93	280.88
272.162	280.88
272.394	281.88
272.626	276.88
272.858	274.88
273.09	245.88
273.322	239.88
273.553	233.88
273.785	230.88
274.017	223.88
274.249	221.88
274.481	233.88
274.713	255.88
274.945	261.88
275.176	246.88
275.408	253.88
275.64	237.88
275.872	225.88
276.104	247.88
276.335	255.88
276.567	244.88
276.799	250.88
277.031	281.88
277.262	278.88
277.494	288.88
277.726	276.88
277.957	252.88
278.189	242.88
278.421	236.88
278.652	246.88
278.884	246.88
279.115	237.88
279.347	242.88
279.579	227.88
279.81	242.88
280.042	230.88
280.273	232.88
280.505	224.88
280.736	229.88
280.968	234.88
281.199	224.88
281.431	233.88
281.662	237.88
281.894	237.88
282.125	237.88
282.356	285.88
282.588	274.88
282.819	273.88
283.051	256.88
283.282	239.88
283.513	240.88
283.745	223.88
283.976	249.88
284.207	267.88
284.439	266.88
284.67	262.88
284.901	242.88
285.132	242.88
285.364	251.88
285.595	243.88
285.826	252.88
286.057	244.88
286.288	242.88
286.52	262.88
286.751	252.88
286.982	227.88
287.213	260.88
287.444	254.88
287.675	254.88
287.906	259.88
288.138	266.88
288.369	264.88
288.6	272.88
288.831	279.88
289.062	246.88
289.293	256.88
289.524	258.88
289.755	242.88
289.986	255.88
290.217	241.88
290.448	243.88
290.679	258.88
290.91	255.88
291.141	236.88
291.371	235.88
291.602	252.88
291.833	249.88
292.064	247.88
292.295	261.88
292.526	263.88
292.757	263.88
292.987	257.88
293.218	264.88
293.449	279.88
293.68	249.88
293.91	265.88
294.141	260.88
294.372	246.88
294.603	252.88
294.833	255.88
295.064	279.88
295.295	263.88
295.525	252.88
295.756	268.88
295.987	272.88
296.217	279.88
296.448	290.88
296.679	262.88
296.909	262.88
297.14	260.88
297.37	252.88
297.601	248.88
297.831	263.88
298.062	295.88
298.292	271.88
298.523	271.88
298.753	271.88
298.984	263.88
299.214	263.88
299.445	252.88
299.675	264.88
299.905	285.88
300.136	266.88
300.366	268.88
300.597	287.88
300.827	287.88
301.057	283.88
301.288	299.88
301.518	287.88
301.748	282.88
301.979	268.88
302.209	295.88
302.439	278.88
302.669	294.88
302.9	296.88
303.13	309.88
303.36	302.88
303.59	292.88
303.82	310.88
304.051	304.88
304.281	287.88
304.511	285.88
304.741	282.88
304.971	300.88
305.201	282.88
305.431	285.88
305.661	286.88
305.891	290.88
306.121	295.88
306.352	291.88
306.582	300.88
306.812	310.88
307.042	297.88
307.272	291.88
307.502	286.88
307.731	289.88
307.961	272.88
308.191	278.88
308.421	292.88
308.651	284.88
308.881	301.88
309.111	311.88
309.341	295.88
309.571	310.88
309.8	314.88
310.03	333.88
310.26	327.88
310.49	317.88
310.72	339.88
310.949	361.88
311.179	356.88
311.409	342.88
311.639	326.88
311.868	360.88
312.098	328.88
312.328	342.88
312.557	371.88
312.787	382.88
313.017	374.88
313.246	346.88
313.476	334.88
313.706	350.88
313.935	350.88
314.165	373.88
314.394	359.88
314.624	363.88
314.853	358.88
315.083	355.88
315.312	336.88
315.542	326.88
315.771	334.88
316.001	324.88
316.23	329.88
316.46	350.88
316.689	340.88
316.919	346.88
317.148	341.88
317.377	356.88
317.607	332.88
317.836	327.88
318.065	339.88
318.295	339.88
318.524	333.88
318.753	338.88
318.983	338.88
319.212	334.88
319.441	341.88
319.67	336.88
319.9	334.88
320.129	331.88
320.358	343.88
320.587	346.88
320.816	360.88
321.046	361.88
321.275	372.88
321.504	362.88
321.733	353.88
321.962	371.88
322.191	381.88
322.42	396.88
322.649	410.88
322.878	415.88
323.108	416.88
323.337	445.88
323.566	471.88
323.795	514.88
324.024	540.88
324.253	704.88
324.482	1004.88
324.71	1527.88
324.939	2082.88
325.168	1716.88
325.397	940.88
325.626	634.88
325.855	504.88
326.084	471.88
326.313	466.88
326.542	471.88
326.77	504.88
326.999	635.88
327.228	876.88
327.457	1291.88
327.686	1547.88
327.914	1020.88
328.143	704.88
328.372	618.88
328.6	564.88
328.829	518.88
329.058	532.88
329.287	546.88
329.515	537.88
329.744	466.88
329.972	465.88
330.201	503.88
330.43	540.88
330.658	573.88
330.887	575.88
331.115	567.88
331.344	481.88
331.572	463.88
331.801	454.88
332.03	473.88
332.258	450.88
332.486	412.88
332.715	393.88
332.943	406.88
333.172	407.88
333.4	388.88
333.629	424.88
333.857	412.88
334.085	435.88
334.314	447.88
334.542	493.88
334.771	506.88
334.999	454.88
335.227	422.88
335.455	397.88
335.684	390.88
335.912	374.88
336.14	390.88
336.369	410.88
336.597	386.88
336.825	381.88
337.053	376.88
337.281	385.88
337.51	383.88
337.738	364.88
337.966	382.88
338.194	420.88
338.422	397.88
338.65	377.88
338.878	372.88
339.106	385.88
339.334	378.88
339.562	385.88
339.79	383.88
340.018	383.88
340.246	364.88
340.474	378.88
340.702	394.88
340.93	372.88
341.158	377.88
341.386	382.88
341.614	385.88
341.842	396.88
342.07	371.88
342.298	380.88
342.526	366.88
342.754	351.88
342.981	370.88
343.209	366.88
343.437	370.88
343.665	378.88
343.893	376.88
344.12	379.88
344.348	382.88
344.576	370.88
344.804	362.88
345.031	404.88
345.259	392.88
345.487	406.88
345.714	400.88
345.942	377.88
346.17	361.88
346.397	370.88
346.625	386.88
346.853	372.88
347.08	376.88
347.308	379.88
347.535	370.88
347.763	361.88
347.99	386.88
348.218	382.88
348.445	388.88
348.673	388.88
348.9	375.88
349.128	375.88
349.355	362.88
349.583	351.88
349.81	353.88
350.037	356.88
350.265	340.88
350.492	346.88
350.72	356.88
350.947	377.88
351.174	380.88
351.402	374.88
351.629	380.88
351.856	357.88
352.083	386.88
352.311	406.88
352.538	400.88
352.765	398.88
352.992	390.88
353.22	367.88
353.447	373.88
353.674	364.88
353.901	353.88
354.128	355.88
354.355	357.88
354.583	336.88
354.81	370.88
355.037	371.88
355.264	346.88
355.491	357.88
355.718	329.88
355.945	319.88
356.172	338.88
356.399	336.88
356.626	335.88
356.853	345.88
357.08	340.88
357.307	328.88
357.534	335.88
357.761	340.88
357.988	328.88
358.215	346.88
358.441	344.88
358.668	345.88
358.895	343.88
359.122	344.88
359.349	351.88
359.576	378.88
359.802	402.88
360.029	422.88
360.256	434.88
360.483	415.88
360.709	367.88
360.936	358.88
361.163	365.88
361.39	381.88
361.616	384.88
361.843	363.88
362.07	365.88
362.296	358.88
362.523	363.88
362.749	357.88
362.976	370.88
363.203	364.88
363.429	372.88
363.656	356.88
363.882	362.88
364.109	366.88
364.335	351.88
364.562	343.88
364.788	368.88
365.015	360.88
365.241	347.88
365.468	362.88
365.694	348.88
365.92	358.88
366.147	338.88
366.373	362.88
366.599	348.88
366.826	343.88
367.052	346.88
367.278	362.88
367.505	363.88
367.731	334.88
367.957	340.88
368.184	353.88
368.41	366.88
368.636	358.88
368.862	370.88
369.089	349.88
369.315	357.88
369.541	342.88
369.767	352.88
369.993	335.88
370.219	343.88
370.445	333.88
370.672	349.88
370.898	347.88
371.124	335.88
371.35	336.88
371.576	343.88
371.802	347.88
372.028	334.88
372.254	344.88
372.48	330.88
372.706	357.88
372.932	357.88
373.158	331.88
373.384	336.88
373.61	350.88
373.835	361.88
374.061	351.88
374.287	344.88
374.513	355.88
374.739	357.88
374.965	338.88
375.191	347.88
375.416	373.88
375.642	336.88
375.868	344.88
376.094	347.88
376.319	343.88
376.545	356.88
376.771	332.88
376.997	330.88
377.222	319.88
377.448	349.88
377.674	345.88
377.899	333.88
378.125	342.88
378.35	335.88
378.576	340.88
378.802	341.88
379.027	331.88
379.253	336.88
379.478	329.88
379.704	337.88
379.929	335.88
380.155	335.88
380.38	336.88
380.606	351.88
380.831	344.88
381.057	337.88
381.282	350.88
381.507	335.88
381.733	336.88
381.958	348.88
382.184	334.88
382.409	339.88
382.634	347.88
382.86	341.88
383.085	348.88
383.31	347.88
383.535	367.88
383.761	370.88
383.986	366.88
384.211	352.88
384.436	352.88
384.662	363.88
384.887	364.88
385.112	349.88
385.337	364.88
385.562	348.88
385.787	360.88
386.013	363.88
386.238	390.88
386.463	395.88
386.688	363.88
386.913	362.88
387.138	363.88
387.363	371.88
387.588	358.88
387.813	356.88
388.038	357.88
388.263	360.88
388.488	359.88
388.713	370.88
388.938	362.88
389.163	348.88
389.387	374.88
389.612	372.88
389.837	342.88
390.062	366.88
390.287	370.88
390.512	351.88
390.736	356.88
390.961	370.88
391.186	376.88
391.411	379.88
391.636	370.88
391.86	378.88
392.085	363.88
392.31	382.88
392.534	371.88
392.759	386.88
392.984	382.88
393.208	357.88
393.433	363.88
393.658	376.88
393.882	360.88
394.107	384.88
394.331	387.88
394.556	359.88
394.78	372.88
395.005	374.88
395.229	371.88
395.454	378.88
395.678	370.88
395.903	384.88
396.127	398.88
396.352	408.88
396.576	395.88
396.801	386.88
397.025	372.88
397.249	382.88
397.474	362.88
397.698	379.88
397.922	410.88
398.147	400.88
398.371	419.88
398.595	389.88
398.82	411.88
399.044	421.88
399.268	411.88
399.492	414.88
399.717	466.88
399.941	464.88
400.165	500.88
400.389	520.88
400.613	464.88
400.837	439.88
401.062	420.88
401.286	427.88
401.51	440.88
401.734	414.88
401.958	418.88
402.182	402.88
402.406	447.88
402.63	437.88
402.854	417.88
403.078	444.88
403.302	408.88
403.526	428.88
403.75	412.88
403.974	424.88
404.198	425.88
404.422	439.88
404.645	419.88
404.869	453.88
405.093	440.88
405.317	482.88
405.541	512.88
405.765	471.88
405.988	452.88
406.212	478.88
406.436	516.88
406.66	508.88
406.883	455.88
407.107	475.88
407.331	535.88
407.555	578.88
407.778	582.88
408.002	528.88
408.226	475.88
408.449	473.88
408.673	479.88
408.896	484.88
409.12	521.88
409.344	503.88
409.567	470.88
409.791	442.88
410.014	458.88
410.238	439.88
410.461	436.88
410.685	424.88
410.908	462.88
411.132	482.88
411.355	502.88
411.578	480.88
411.802	434.88
412.025	415.88
412.249	450.88
412.472	454.88
412.695	480.88
412.919	468.88
413.142	445.88
413.365	431.88
413.589	429.88
413.812	421.88
414.035	399.88
414.258	413.88
414.482	396.88
414.705	412.88
414.928	410.88
415.151	403.88
415.374	421.88
415.597	415.88
415.821	406.88
416.044	423.88
416.267	422.88
416.49	409.88
416.713	401.88
416.936	398.88
417.159	425.88
417.382	402.88
417.605	402.88
417.828	412.88
418.051	411.88
418.274	440.88
418.497	410.88
418.72	392.88
418.943	389.88
419.166	392.88
419.389	436.88
419.611	410.88
419.834	446.88
420.057	423.88
420.28	423.88
420.503	442.88
420.726	425.88
420.948	445.88
421.171	473.88
421.394	498.88
421.617	434.88
421.839	431.88
422.062	428.88
422.285	451.88
422.507	479.88
422.73	550.88
422.953	538.88
423.175	482.88
423.398	453.88
423.621	445.88
423.843	472.88
424.066	469.88
424.288	472.88
424.511	499.88
424.733	520.88
424.956	568.88
425.178	554.88
425.401	574.88
425.623	574.88
425.846	501.88
426.068	457.88
426.291	457.88
426.513	461.88
426.735	479.88
426.958	522.88
427.18	606.88
427.402	666.88
427.625	742.88
427.847	660.88
428.069	554.88
428.292	503.88
428.514	478.88
428.736	467.88
428.958	464.88
429.181	430.88
429.403	437.88
429.625	427.88
429.847	440.88
430.069	540.88
430.292	518.88
430.514	464.88
430.736	440.88
430.958	422.88
431.18	415.88
431.402	402.88
431.624	395.88
431.846	390.88
432.068	413.88
432.29	401.88
432.512	410.88
432.734	428.88
432.956	416.88
433.178	400.88
433.4	412.88
433.622	426.88
433.844	389.88
434.066	410.88
434.287	420.88
434.509	424.88
434.731	407.88
434.953	404.88
435.175	450.88
435.397	460.88
435.618	461.88
435.84	487.88
436.062	596.88
436.284	634.88
436.505	526.88
436.727	479.88
436.949	434.88
437.17	445.88
437.392	430.88
437.614	458.88
437.835	481.88
438.057	566.88
438.278	662.88
438.5	650.88
438.721	692.88
438.943	662.88
439.165	534.88
439.386	521.88
439.608	498.88
439.829	481.88
440.05	522.88
440.272	537.88
440.493	522.88
440.715	470.88
440.936	472.88
441.158	450.88
441.379	446.88
441.6	444.88
441.822	460.88
442.043	510.88
442.264	570.88
442.486	596.88
442.707	505.88
442.928	477.88
443.149	482.88
443.371	520.88
443.592	559.88
443.813	622.88
444.034	672.88
444.255	557.88
444.476	490.88
444.698	486.88
444.919	489.88
445.14	591.88
445.361	529.88
445.582	531.88
445.803	575.88
446.024	660.88
446.245	649.88
446.466	588.88
446.687	497.88
446.908	472.88
447.129	445.88
447.35	440.88
447.571	441.88
447.792	462.88
448.013	438.88
448.234	475.88
448.455	502.88
448.675	602.88
448.896	704.88
449.117	595.88
449.338	562.88
449.559	667.88
449.779	706.88
450	607.88
450.221	520.88
450.442	440.88
450.662	447.88
450.883	469.88
451.104	468.88
451.324	448.88
451.545	417.88
451.766	404.88
451.986	408.88
452.207	388.88
452.428	392.88
452.648	382.88
452.869	382.88
453.089	405.88
453.31	410.88
453.53	397.88
453.751	396.88
453.971	419.88
454.192	426.88
454.412	403.88
454.633	399.88
454.853	392.88
455.073	376.88
455.294	409.88
455.514	475.88
455.734	488.88
455.955	398.88
456.175	373.88
456.395	352.88
456.616	368.88
456.836	365.88
457.056	362.88
457.276	351.88
457.497	378.88
457.717	370.88
457.937	376.88
458.157	359.88
458.377	388.88
458.598	410.88
458.818	456.88
459.038	554.88
459.258	539.88
459.478	448.88
459.698	410.88
459.918	414.88
460.138	411.88
460.358	403.88
460.578	416.88
460.798	402.88
461.018	409.88
461.238	400.88
461.458	417.88
461.678	408.88
461.898	393.88
462.118	408.88
462.338	394.88
462.558	406.88
462.777	432.88
462.997	436.88
463.217	436.88
463.437	452.88
463.657	407.88
463.876	418.88
464.096	433.88
464.316	425.88
464.536	440.88
464.755	442.88
464.975	433.88
465.195	508.88
465.414	581.88
465.634	478.88
465.854	463.88
466.073	421.88
466.293	404.88
466.512	408.88
466.732	390.88
466.951	409.88
467.171	392.88
467.391	388.88
467.61	413.88
467.829	430.88
468.049	418.88
468.268	412.88
468.488	384.88
468.707	390.88
468.927	397.88
469.146	387.88
469.365	386.88
469.585	392.88
469.804	407.88
470.023	424.88
470.243	410.88
470.462	421.88
470.681	430.88
470.901	432.88
471.12	422.88
471.339	425.88
471.558	408.88
471.777	423.88
471.997	397.88
472.216	413.88
472.435	450.88
472.654	444.88
472.873	422.88
473.092	408.88
473.311	402.88
473.53	415.88
473.749	426.88
473.968	464.88
474.187	543.88
474.406	565.88
474.625	476.88
474.844	415.88
475.063	418.88
475.282	403.88
475.501	421.88
475.72	434.88
475.939	413.88
476.158	427.88
476.377	430.88
476.596	417.88
476.814	429.88
477.033	431.88
477.252	445.88
477.471	439.88
477.69	454.88
477.908	426.88
478.127	440.88
478.346	437.88
478.564	454.88
478.783	455.88
479.002	460.88
479.22	479.88
479.439	474.88
479.658	492.88
479.876	494.88
480.095	489.88
480.313	511.88
480.532	504.88
480.751	500.88
480.969	474.88
481.188	558.88
481.406	625.88
481.624	536.88
481.843	516.88
482.061	494.88
482.28	493.88
482.498	485.88
482.717	472.88
482.935	474.88
483.153	459.88
483.372	492.88
483.59	482.88
483.808	474.88
484.027	462.88
484.245	455.88
484.463	472.88
484.681	511.88
484.9	498.88
485.118	489.88
485.336	460.88
485.554	477.88
485.772	495.88
485.99	509.88
486.209	491.88
486.427	492.88
486.645	535.88
486.863	526.88
487.081	514.88
487.299	526.88
487.517	513.88
487.735	520.88
487.953	520.88
488.171	504.88
488.389	516.88
488.607	504.88
488.825	520.88
489.043	504.88
489.261	513.88
489.479	516.88
489.696	522.88
489.914	538.88
490.132	522.88
490.35	542.88
490.568	533.88
490.786	546.88
491.003	542.88
491.221	576.88
491.439	586.88
491.657	595.88
491.874	592.88
492.092	585.88
492.31	568.88
492.527	594.88
492.745	581.88
492.963	603.88
493.18	598.88
493.398	605.88
493.615	620.88
493.833	592.88
494.05	621.88
494.268	611.88
494.485	629.88
494.703	603.88
494.92	619.88
495.138	598.88
495.355	611.88
495.573	618.88
495.79	619.88
496.008	587.88
496.225	599.88
496.442	615.88
496.66	621.88
496.877	618.88
497.094	618.88
497.312	636.88
497.529	620.88
497.746	644.88
497.963	638.88
498.181	653.88
498.398	652.88
498.615	650.88
498.832	664.88
499.049	664.88
499.267	677.88
499.484	691.88
499.701	704.88
499.918	731.88
500.135	750.88
500.352	777.88
500.569	772.88
500.786	778.88
501.003	775.88
501.22	781.88
501.437	725.88
501.654	719.88
501.871	748.88
502.088	702.88
502.305	720.88
502.522	674.88
502.739	665.88
502.956	638.88
503.172	641.88
503.389	622.88
503.606	638.88
503.823	624.88
504.04	616.88
504.256	611.88
504.473	605.88
504.69	603.88
504.907	593.88
505.123	597.88
505.34	595.88
505.557	611.88
505.773	571.88
505.99	592.88
506.207	601.88
506.423	580.88
506.64	595.88
506.856	570.88
507.073	568.88
507.289	576.88
507.506	581.88
507.722	592.88
507.939	623.88
508.155	590.88
508.372	599.88
508.588	569.88
508.805	560.88
509.021	578.88
509.238	604.88
509.454	597.88
509.67	570.88
509.887	556.88
510.103	568.88
510.319	591.88
510.536	715.88
510.752	1212.88
510.968	923.88
511.184	606.88
511.401	573.88
511.617	558.88
511.833	542.88
512.049	531.88
512.265	553.88
512.481	529.88
512.698	527.88
512.914	538.88
513.13	534.88
513.346	551.88
513.562	558.88
513.778	540.88
513.994	574.88
514.21	593.88
514.426	611.88
514.642	647.88
514.858	660.88
515.074	704.88
515.29	858.88
515.506	1325.88
515.721	1046.88
515.937	723.88
516.153	601.88
516.369	573.88
516.585	559.88
516.801	544.88
517.016	547.88
517.232	554.88
517.448	561.88
517.664	573.88
517.879	551.88
518.095	551.88
518.311	540.88
518.527	553.88
518.742	525.88
518.958	535.88
519.173	547.88
519.389	542.88
519.605	538.88
519.82	550.88
520.036	566.88
520.251	574.88
520.467	600.88
520.682	596.88
520.898	626.88
521.113	645.88
521.329	708.88
521.544	799.88
521.76	1046.88
521.975	1780.88
522.19	1717.88
522.406	887.88
522.621	653.88
522.836	595.88
523.052	557.88
523.267	518.88
523.482	506.88
523.698	494.88
523.913	540.88
524.128	512.88
524.343	495.88
524.559	480.88
524.774	462.88
524.989	484.88
525.204	486.88
525.419	466.88
525.634	478.88
525.849	478.88
526.064	476.88
526.28	468.88
526.495	458.88
526.71	458.88
526.925	440.88
527.14	452.88
527.355	437.88
527.57	426.88
527.785	440.88
527.999	431.88
528.214	424.88
528.429	451.88
528.644	426.88
528.859	442.88
529.074	444.88
529.289	470.88
529.503	565.88
529.718	526.88
529.933	476.88
530.148	456.88
530.363	459.88
530.577	454.88
530.792	421.88
531.007	418.88
531.221	452.88
531.436	415.88
531.651	434.88
531.865	404.88
532.08	421.88
532.295	422.88
532.509	410.88
532.724	434.88
532.938	424.88
533.153	415.88
533.367	407.88
533.582	420.88
533.796	412.88
534.011	404.88
534.225	401.88
534.44	404.88
534.654	417.88
534.868	397.88
535.083	399.88
535.297	396.88
535.511	414.88
535.726	416.88
535.94	410.88
536.154	429.88
536.369	427.88
536.583	394.88
536.797	394.88
537.011	399.88
537.225	392.88
537.44	410.88
537.654	398.88
537.868	400.88
538.082	399.88
538.296	404.88
538.51	402.88
538.724	422.88
538.938	409.88
539.153	390.88
539.367	418.88
539.581	396.88
539.795	394.88
540.009	405.88
540.222	395.88
540.436	412.88
540.65	418.88
540.864	412.88
541.078	405.88
541.292	393.88
541.506	403.88
541.72	400.88
541.934	377.88
542.147	390.88
542.361	404.88
542.575	399.88
542.789	385.88
543.002	358.88
543.216	390.88
543.43	386.88
543.644	406.88
543.857	390.88
544.071	388.88
544.285	400.88
544.498	387.88
544.712	384.88
544.925	388.88
545.139	397.88
545.352	387.88
545.566	364.88
545.779	372.88
545.993	357.88
546.206	377.88
546.42	374.88
546.633	373.88
546.847	390.88
547.06	367.88
547.274	380.88
547.487	376.88
547.7	386.88
547.914	364.88
548.127	384.88
548.34	361.88
548.554	362.88
548.767	357.88
548.98	382.88
549.193	382.88
549.407	365.88
549.62	374.88
549.833	363.88
550.046	384.88
550.259	382.88
550.473	365.88
550.686	379.88
550.899	351.88
551.112	358.88
551.325	361.88
551.538	363.88
551.751	362.88
551.964	372.88
552.177	359.88
552.39	374.88
552.603	346.88
552.816	377.88
553.029	380.88
553.242	352.88
553.455	374.88
553.667	386.88
553.88	382.88
554.093	390.88
554.306	367.88
554.519	376.88
554.732	363.88
554.944	374.88
555.157	348.88
555.37	344.88
555.583	353.88
555.795	358.88
556.008	358.88
556.221	338.88
556.433	343.88
556.646	344.88
556.859	346.88
557.071	350.88
557.284	352.88
557.496	335.88
557.709	336.88
557.921	317.88
558.134	316.88
558.346	340.88
558.559	339.88
558.771	339.88
558.984	326.88
559.196	323.88
559.409	326.88
559.621	325.88
559.833	330.88
560.046	332.88
560.258	310.88
560.47	315.88
560.683	335.88
560.895	343.88
561.107	340.88
561.32	327.88
561.532	339.88
561.744	343.88
561.956	333.88
562.168	332.88
562.381	320.88
562.593	326.88
562.805	343.88
563.017	336.88
563.229	332.88
563.441	331.88
563.653	335.88
563.865	325.88
564.077	358.88
564.289	335.88
564.501	333.88
564.713	345.88
564.925	332.88
565.137	340.88
565.349	351.88
565.561	339.88
565.773	357.88
565.985	353.88
566.197	353.88
566.408	348.88
566.62	356.88
566.832	366.88
567.044	374.88
567.255	370.88
567.467	360.88
567.679	381.88
567.891	392.88
568.102	370.88
568.314	367.88
568.526	363.88
568.737	361.88
568.949	355.88
569.161	344.88
569.372	347.88
569.584	345.88
569.795	352.88
570.007	335.88
570.218	360.88
570.43	367.88
570.641	330.88
570.853	339.88
571.064	299.88
571.276	314.88
571.487	301.88
571.698	306.88
571.91	313.88
572.121	319.88
572.333	306.88
572.544	288.88
572.755	283.88
572.966	295.88
573.178	290.88
573.389	300.88
573.6	300.88
573.811	299.88
574.023	285.88
574.234	280.88
574.445	294.88
574.656	272.88
574.867	288.88
575.078	299.88
575.289	303.88
575.501	287.88
575.712	280.88
575.923	285.88
576.134	273.88
576.345	288.88
576.556	285.88
576.767	271.88
576.978	289.88
577.188	291.88
577.399	288.88
577.61	295.88
577.821	268.88
578.032	264.88
578.243	317.88
578.454	587.88
578.665	398.88
578.875	308.88
579.086	266.88
579.297	268.88
579.508	280.88
579.718	272.88
579.929	259.88
580.14	268.88
580.35	275.88
580.561	249.88
580.772	266.88
580.982	258.88
581.193	253.88
581.403	261.88
581.614	253.88
581.825	260.88
582.035	260.88
582.246	264.88
582.456	254.88
582.667	272.88
582.877	248.88
583.087	259.88
583.298	265.88
583.508	269.88
583.719	262.88
583.929	272.88
584.139	258.88
584.35	254.88
584.56	264.88
584.77	246.88
584.981	257.88
585.191	266.88
585.401	242.88
585.611	268.88
585.821	254.88
586.032	259.88
586.242	266.88
586.452	258.88
586.662	256.88
586.872	237.88
587.082	235.88
587.292	256.88
587.502	244.88
587.713	266.88
587.923	251.88
588.133	237.88
588.343	244.88
588.553	248.88
588.762	260.88
588.972	276.88
589.182	293.88
589.392	295.88
589.602	232.88
589.812	279.88
590.022	271.88
590.232	248.88
590.441	250.88
590.651	255.88
590.861	231.88
591.071	275.88
591.281	229.88
591.49	244.88
591.7	245.88
591.91	248.88
592.119	254.88
592.329	257.88
592.539	251.88
592.748	246.88
592.958	235.88
593.167	266.88
593.377	251.88
593.587	266.88
593.796	239.88
594.006	249.88
594.215	261.88
594.424	246.88
594.634	267.88
594.843	250.88
595.053	246.88
595.262	254.88
595.472	238.88
595.681	237.88
595.89	260.88
596.1	246.88
596.309	244.88
596.518	246.88
596.727	232.88
596.937	237.88
597.146	233.88
597.355	223.88
597.564	230.88
597.774	232.88
597.983	231.88
598.192	237.88
598.401	217.88
598.61	216.88
598.819	223.88
599.028	209.88
599.237	218.88
599.446	235.88
599.655	245.88
599.864	212.88
600.073	225.88
600.282	229.88
600.491	220.88
600.7	228.88
600.909	221.88
601.118	229.88
601.327	221.88
601.536	237.88
601.745	213.88
601.953	200.88
602.162	206.88
602.371	220.88
602.58	215.88
602.789	209.88
602.997	230.88
603.206	231.88
603.415	230.88
603.623	234.88
603.832	219.88
604.041	226.88
604.249	238.88
604.458	221.88
604.666	207.88
604.875	204.88
605.084	213.88
605.292	214.88
605.501	205.88
605.709	208.88
605.918	205.88
606.126	221.88
606.334	204.88
606.543	214.88
606.751	208.88
606.96	199.88
607.168	204.88
607.376	205.88
607.585	210.88
607.793	208.88
608.001	218.88
608.21	201.88
608.418	194.88
608.626	205.88
608.834	207.88
609.043	207.88
609.251	215.88
609.459	206.88
609.667	213.88
609.875	199.88
610.083	204.88
610.291	226.88
610.499	212.88
610.707	196.88
610.916	204.88
611.124	214.88
611.332	218.88
611.54	208.88
611.748	201.88
611.955	214.88
612.163	195.88
612.371	202.88
612.579	190.88
612.787	200.88
612.995	192.88
613.203	207.88
613.411	211.88
613.618	199.88
613.826	218.88
614.034	197.88
614.242	197.88
614.449	209.88
614.657	195.88
614.865	195.88
615.072	217.88
615.28	196.88
615.488	182.88
615.695	182.88
615.903	194.88
616.111	196.88
616.318	197.88
616.526	187.88
616.733	201.88
616.941	216.88
617.148	198.88
617.356	201.88
617.563	208.88
617.771	205.88
617.978	197.88
618.185	201.88
618.393	199.88
618.6	221.88
618.807	204.88
619.015	182.88
619.222	190.88
619.429	174.88
619.637	214.88
619.844	188.88
620.051	191.88
620.258	211.88
620.466	190.88
620.673	186.88
620.88	180.88
621.087	193.88
621.294	185.88
621.501	181.88
621.708	199.88
621.915	199.88
622.122	189.88
622.329	204.88
622.536	205.88
622.743	191.88
622.95	175.88
623.157	191.88
623.364	191.88
623.571	185.88
623.778	182.88
623.985	196.88
624.192	191.88
624.399	192.88
624.606	185.88
624.812	164.88
625.019	179.88
625.226	168.88
625.433	179.88
625.639	193.88
625.846	182.88
626.053	186.88
626.259	182.88
626.466	201.88
626.673	182.88
626.879	179.88
627.086	176.88
627.293	179.88
627.499	192.88
627.706	175.88
627.912	170.88
628.119	175.88
628.325	188.88
628.532	181.88
628.738	180.88
628.945	180.88
629.151	189.88
629.357	166.88
629.564	183.88
629.77	173.88
629.976	190.88
630.183	167.88
630.389	166.88
630.595	175.88
630.802	154.88
631.008	180.88
631.214	157.88
631.42	182.88
631.627	174.88
631.833	158.88
632.039	149.88
632.245	163.88
632.451	164.88
632.657	170.88
632.863	158.88
633.069	163.88
633.275	151.88
633.481	163.88
633.688	155.88
633.893	153.88
634.099	158.88
634.305	162.88
634.511	163.88
634.717	155.88
634.923	161.88
635.129	147.88
635.335	149.88
635.541	163.88
635.747	171.88
635.952	157.88
636.158	170.88
636.364	166.88
636.57	163.88
636.775	160.88
636.981	158.88
637.187	148.88
637.392	167.88
637.598	152.88
637.804	167.88
638.009	164.88
638.215	168.88
638.421	150.88
638.626	155.88
638.832	164.88
639.037	163.88
639.243	148.88
639.448	163.88
639.654	151.88
639.859	151.88
640.065	166.88
640.27	157.88
640.475	149.88
640.681	163.88
640.886	160.88
641.091	156.88
641.297	155.88
641.502	156.88
641.707	166.88
641.913	152.88
642.118	166.88
642.323	154.88
642.528	169.88
642.733	165.88
642.939	135.88
643.144	158.88
643.349	164.88
643.554	150.88
643.759	151.88
643.964	147.88
644.169	152.88
644.374	164.88
644.579	140.88
644.784	151.88
644.989	149.88
645.194	149.88
645.399	152.88
645.604	154.88
645.809	154.88
646.014	142.88
646.219	152.88
646.423	139.88
646.628	154.88
646.833	147.88
647.038	144.88
647.243	140.88
647.447	147.88
647.652	146.88
647.857	143.88
648.062	143.88
648.266	144.88
648.471	162.88
648.676	160.88
648.88	162.88
649.085	158.88
649.289	141.88
649.494	149.88
649.698	154.88
649.903	167.88
650.107	152.88
650.312	166.88
650.516	131.88
650.721	144.88
650.925	159.88
651.13	148.88
651.334	151.88
651.539	144.88
651.743	127.88
651.947	139.88
652.152	140.88
652.356	130.88
652.56	128.88
652.764	146.88
652.969	129.88
653.173	142.88
653.377	137.88
653.581	130.88
653.785	121.88
653.99	128.88
654.194	120.88
654.398	127.88
654.602	130.88
654.806	107.88
655.01	140.88
655.214	126.88
655.418	132.88
655.622	127.88
655.826	124.88
656.03	134.88
656.234	133.88
656.438	124.88
656.642	130.88
656.846	131.88
657.049	126.88
657.253	132.88
657.457	123.88
657.661	121.88
657.865	109.88
658.068	112.88
658.272	91.88
658.476	101.88
658.68	96.88
658.883	104.88
659.087	100.88
659.291	102.88
659.494	99.88
659.698	103.88
659.901	96.88
660.105	93.88
660.309	104.88
660.512	93.88
660.716	88.88
660.919	89.88
661.123	93.88
661.326	103.88
661.53	98.88
661.733	94.88
661.936	95.88
662.14	82.88
662.343	98.88
662.546	90.88
662.75	100.88
662.953	99.88
663.156	92.88
663.36	80.88
663.563	93.88
663.766	59.88
663.969	81.88
664.173	90.88
664.376	81.88
664.579	101.88
664.782	80.88
664.985	80.88
665.188	75.88
665.391	85.88
665.594	79.88
665.797	97.88
666	70.88
666.203	82.88
666.406	90.88
666.609	89.88
666.812	89.88
667.015	83.88
667.218	102.88
667.421	88.88
667.624	77.88
667.827	78.88
668.03	86.88
668.232	79.88
668.435	80.88
668.638	87.88
668.841	92.88
669.043	79.88
669.246	94.88
669.449	84.88
669.651	84.88
669.854	76.88
670.057	86.88
670.259	76.88
670.462	86.88
670.665	72.88
670.867	93.88
671.07	91.88
671.272	85.88
671.475	92.88
671.677	80.88
671.88	97.88
672.082	88.88
672.284	77.88
672.487	87.88
672.689	82.88
672.892	98.88
