Data from 1965.PennyLincolnUp.Lamp.En5.5.200Scan.071719.P1._HRD10591_14-10-21-912.txt Node
Date: Thu Jul 18 14:10:21 EDT 2019
User: cochatt
Spectrometer: HR+D1059
Trigger mode: 1
Integration Time (sec): 1.000000E-1
Scans to average: 1
Electric dark correction enabled: true
Nonlinearity correction enabled: false
Boxcar width: 0
XAxis mode: Wavelengths
Number of Pixels in Spectrum: 2048
>>>>>Begin Spectral Data<<<<<
223.165	-24.94
223.4	-24.94
223.635	-24.94
223.869	-17.94
224.104	-19.94
224.338	-11.94
224.573	-7.94
224.808	-3.94
225.042	-10.94
225.277	-8.94
225.511	-3.94
225.746	4.06
225.98	10.06
226.215	25.06
226.449	11.06
226.683	16.06
226.918	15.06
227.152	29.06
227.387	37.06
227.621	43.06
227.856	42.06
228.09	43.06
228.324	54.06
228.559	56.06
228.793	66.06
229.027	100.06
229.262	90.06
229.496	118.06
229.73	136.06
229.964	153.06
230.199	115.06
230.433	111.06
230.667	120.06
230.901	107.06
231.136	111.06
231.37	110.06
231.604	107.06
231.838	111.06
232.072	130.06
232.306	112.06
232.541	108.06
232.775	107.06
233.009	102.06
233.243	106.06
233.477	102.06
233.711	106.06
233.945	128.06
234.179	112.06
234.413	108.06
234.647	110.06
234.881	103.06
235.115	102.06
235.349	116.06
235.583	112.06
235.817	109.06
236.051	140.06
236.285	129.06
236.519	133.06
236.753	136.06
236.987	145.06
237.221	166.06
237.455	232.06
237.689	177.06
237.922	144.06
238.156	127.06
238.39	141.06
238.624	129.06
238.858	112.06
239.091	132.06
239.325	112.06
239.559	128.06
239.793	128.06
240.027	129.06
240.26	141.06
240.494	169.06
240.728	161.06
240.961	138.06
241.195	144.06
241.429	140.06
241.662	124.06
241.896	125.06
242.13	134.06
242.363	125.06
242.597	129.06
242.83	128.06
243.064	122.06
243.298	130.06
243.531	124.06
243.765	117.06
243.998	134.06
244.232	138.06
244.465	156.06
244.699	141.06
244.932	135.06
245.166	144.06
245.399	142.06
245.633	150.06
245.866	150.06
246.099	133.06
246.333	157.06
246.566	125.06
246.8	128.06
247.033	147.06
247.266	139.06
247.5	148.06
247.733	150.06
247.966	159.06
248.2	176.06
248.433	176.06
248.666	158.06
248.899	176.06
249.133	188.06
249.366	191.06
249.599	199.06
249.832	196.06
250.066	167.06
250.299	181.06
250.532	181.06
250.765	206.06
250.998	219.06
251.231	214.06
251.465	188.06
251.698	198.06
251.931	176.06
252.164	183.06
252.397	172.06
252.63	197.06
252.863	211.06
253.096	194.06
253.329	212.06
253.562	202.06
253.795	205.06
254.028	217.06
254.261	188.06
254.494	215.06
254.727	234.06
254.96	265.06
255.193	258.06
255.426	249.06
255.659	211.06
255.892	228.06
256.124	207.06
256.357	227.06
256.59	213.06
256.823	219.06
257.056	201.06
257.289	192.06
257.521	200.06
257.754	210.06
257.987	185.06
258.22	205.06
258.452	188.06
258.685	195.06
258.918	192.06
259.151	184.06
259.383	215.06
259.616	199.06
259.849	199.06
260.081	224.06
260.314	214.06
260.547	227.06
260.779	239.06
261.012	211.06
261.244	219.06
261.477	219.06
261.71	206.06
261.942	216.06
262.175	222.06
262.407	222.06
262.64	209.06
262.872	189.06
263.105	205.06
263.337	194.06
263.57	188.06
263.802	184.06
264.035	182.06
264.267	182.06
264.499	200.06
264.732	194.06
264.964	215.06
265.197	194.06
265.429	189.06
265.661	204.06
265.894	199.06
266.126	201.06
266.358	204.06
266.591	207.06
266.823	202.06
267.055	204.06
267.287	216.06
267.52	200.06
267.752	221.06
267.984	209.06
268.216	196.06
268.448	229.06
268.681	221.06
268.913	222.06
269.145	234.06
269.377	252.06
269.609	264.06
269.841	253.06
270.073	271.06
270.306	260.06
270.538	301.06
270.77	266.06
271.002	273.06
271.234	259.06
271.466	294.06
271.698	289.06
271.93	302.06
272.162	289.06
272.394	285.06
272.626	299.06
272.858	253.06
273.09	251.06
273.322	240.06
273.553	232.06
273.785	253.06
274.017	244.06
274.249	246.06
274.481	239.06
274.713	236.06
274.945	224.06
275.176	234.06
275.408	259.06
275.64	252.06
275.872	236.06
276.104	238.06
276.335	255.06
276.567	257.06
276.799	273.06
277.031	297.06
277.262	285.06
277.494	297.06
277.726	276.06
277.957	261.06
278.189	266.06
278.421	266.06
278.652	231.06
278.884	256.06
279.115	239.06
279.347	240.06
279.579	225.06
279.81	237.06
280.042	246.06
280.273	248.06
280.505	262.06
280.736	244.06
280.968	239.06
281.199	232.06
281.431	240.06
281.662	271.06
281.894	238.06
282.125	254.06
282.356	282.06
282.588	295.06
282.819	278.06
283.051	245.06
283.282	237.06
283.513	238.06
283.745	237.06
283.976	253.06
284.207	246.06
284.439	254.06
284.67	252.06
284.901	239.06
285.132	253.06
285.364	251.06
285.595	255.06
285.826	246.06
286.057	256.06
286.288	260.06
286.52	260.06
286.751	248.06
286.982	266.06
287.213	270.06
287.444	258.06
287.675	256.06
287.906	267.06
288.138	275.06
288.369	280.06
288.6	280.06
288.831	268.06
289.062	273.06
289.293	255.06
289.524	261.06
289.755	248.06
289.986	241.06
290.217	264.06
290.448	243.06
290.679	275.06
290.91	268.06
291.141	242.06
291.371	248.06
291.602	252.06
291.833	250.06
292.064	260.06
292.295	256.06
292.526	270.06
292.757	259.06
292.987	262.06
293.218	247.06
293.449	261.06
293.68	246.06
293.91	267.06
294.141	244.06
294.372	238.06
294.603	270.06
294.833	252.06
295.064	240.06
295.295	280.06
295.525	268.06
295.756	275.06
295.987	285.06
296.217	312.06
296.448	302.06
296.679	274.06
296.909	274.06
297.14	282.06
297.37	274.06
297.601	257.06
297.831	266.06
298.062	262.06
298.292	278.06
298.523	280.06
298.753	256.06
298.984	271.06
299.214	277.06
299.445	289.06
299.675	275.06
299.905	284.06
300.136	283.06
300.366	267.06
300.597	284.06
300.827	289.06
301.057	293.06
301.288	292.06
301.518	282.06
301.748	301.06
301.979	286.06
302.209	296.06
302.439	279.06
302.669	290.06
302.9	285.06
303.13	292.06
303.36	294.06
303.59	314.06
303.82	320.06
304.051	310.06
304.281	294.06
304.511	299.06
304.741	296.06
304.971	289.06
305.201	281.06
305.431	278.06
305.661	300.06
305.891	310.06
306.121	298.06
306.352	304.06
306.582	300.06
306.812	300.06
307.042	301.06
307.272	290.06
307.502	298.06
307.731	301.06
307.961	319.06
308.191	310.06
308.421	303.06
308.651	306.06
308.881	285.06
309.111	327.06
309.341	313.06
309.571	343.06
309.8	338.06
310.03	324.06
310.26	349.06
310.49	332.06
310.72	349.06
310.949	374.06
311.179	365.06
311.409	356.06
311.639	368.06
311.868	362.06
312.098	360.06
312.328	387.06
312.557	368.06
312.787	388.06
313.017	371.06
313.246	368.06
313.476	348.06
313.706	336.06
313.935	345.06
314.165	351.06
314.394	372.06
314.624	365.06
314.853	352.06
315.083	345.06
315.312	337.06
315.542	337.06
315.771	334.06
316.001	349.06
316.23	349.06
316.46	347.06
316.689	329.06
316.919	328.06
317.148	370.06
317.377	369.06
317.607	356.06
317.836	346.06
318.065	340.06
318.295	342.06
318.524	348.06
318.753	329.06
318.983	332.06
319.212	343.06
319.441	342.06
319.67	346.06
319.9	336.06
320.129	337.06
320.358	347.06
320.587	354.06
320.816	350.06
321.046	365.06
321.275	357.06
321.504	376.06
321.733	385.06
321.962	389.06
322.191	398.06
322.42	389.06
322.649	423.06
322.878	436.06
323.108	439.06
323.337	465.06
323.566	489.06
323.795	509.06
324.024	562.06
324.253	708.06
324.482	1053.06
324.71	1612.06
324.939	2211.06
325.168	1830.06
325.397	938.06
325.626	637.06
325.855	550.06
326.084	516.06
326.313	490.06
326.542	495.06
326.77	566.06
326.999	654.06
327.228	925.06
327.457	1381.06
327.686	1630.06
327.914	1100.06
328.143	728.06
328.372	638.06
328.6	586.06
328.829	568.06
329.058	574.06
329.287	577.06
329.515	544.06
329.744	500.06
329.972	506.06
330.201	527.06
330.43	567.06
330.658	592.06
330.887	600.06
331.115	582.06
331.344	466.06
331.572	482.06
331.801	463.06
332.03	479.06
332.258	440.06
332.486	407.06
332.715	423.06
332.943	422.06
333.172	410.06
333.4	413.06
333.629	403.06
333.857	439.06
334.085	463.06
334.314	466.06
334.542	527.06
334.771	534.06
334.999	480.06
335.227	430.06
335.455	429.06
335.684	426.06
335.912	403.06
336.14	409.06
336.369	408.06
336.597	393.06
336.825	412.06
337.053	403.06
337.281	398.06
337.51	392.06
337.738	405.06
337.966	398.06
338.194	412.06
338.422	408.06
338.65	389.06
338.878	367.06
339.106	376.06
339.334	386.06
339.562	401.06
339.79	389.06
340.018	390.06
340.246	400.06
340.474	393.06
340.702	381.06
340.93	396.06
341.158	386.06
341.386	390.06
341.614	378.06
341.842	406.06
342.07	386.06
342.298	376.06
342.526	386.06
342.754	359.06
342.981	360.06
343.209	354.06
343.437	374.06
343.665	366.06
343.893	379.06
344.12	378.06
344.348	354.06
344.576	377.06
344.804	396.06
345.031	398.06
345.259	404.06
345.487	402.06
345.714	405.06
345.942	389.06
346.17	364.06
346.397	392.06
346.625	372.06
346.853	383.06
347.08	370.06
347.308	372.06
347.535	400.06
347.763	410.06
347.99	386.06
348.218	388.06
348.445	389.06
348.673	386.06
348.9	380.06
349.128	386.06
349.355	370.06
349.583	361.06
349.81	376.06
350.037	367.06
350.265	351.06
350.492	344.06
350.72	365.06
350.947	374.06
351.174	392.06
351.402	396.06
351.629	391.06
351.856	395.06
352.083	372.06
352.311	401.06
352.538	416.06
352.765	390.06
352.992	395.06
353.22	365.06
353.447	373.06
353.674	363.06
353.901	370.06
354.128	353.06
354.355	353.06
354.583	357.06
354.81	367.06
355.037	350.06
355.264	351.06
355.491	355.06
355.718	337.06
355.945	338.06
356.172	341.06
356.399	337.06
356.626	348.06
356.853	352.06
357.08	345.06
357.307	351.06
357.534	334.06
357.761	350.06
357.988	353.06
358.215	342.06
358.441	361.06
358.668	360.06
358.895	355.06
359.122	360.06
359.349	387.06
359.576	354.06
359.802	382.06
360.029	441.06
360.256	441.06
360.483	423.06
360.709	393.06
360.936	369.06
361.163	346.06
361.39	363.06
361.616	396.06
361.843	373.06
362.07	376.06
362.296	377.06
362.523	366.06
362.749	365.06
362.976	361.06
363.203	365.06
363.429	374.06
363.656	371.06
363.882	360.06
364.109	340.06
364.335	362.06
364.562	349.06
364.788	347.06
365.015	364.06
365.241	356.06
365.468	372.06
365.694	356.06
365.92	350.06
366.147	356.06
366.373	352.06
366.599	351.06
366.826	360.06
367.052	355.06
367.278	357.06
367.505	354.06
367.731	366.06
367.957	350.06
368.184	357.06
368.41	360.06
368.636	366.06
368.862	384.06
369.089	366.06
369.315	352.06
369.541	362.06
369.767	341.06
369.993	355.06
370.219	345.06
370.445	345.06
370.672	369.06
370.898	357.06
371.124	345.06
371.35	351.06
371.576	332.06
371.802	328.06
372.028	357.06
372.254	338.06
372.48	353.06
372.706	353.06
372.932	347.06
373.158	337.06
373.384	369.06
373.61	351.06
373.835	319.06
374.061	336.06
374.287	355.06
374.513	357.06
374.739	350.06
374.965	346.06
375.191	348.06
375.416	346.06
375.642	349.06
375.868	353.06
376.094	369.06
376.319	340.06
376.545	348.06
376.771	331.06
376.997	353.06
377.222	351.06
377.448	345.06
377.674	340.06
377.899	339.06
378.125	333.06
378.35	353.06
378.576	344.06
378.802	340.06
379.027	340.06
379.253	345.06
379.478	335.06
379.704	324.06
379.929	352.06
380.155	364.06
380.38	338.06
380.606	350.06
380.831	338.06
381.057	334.06
381.282	325.06
381.507	342.06
381.733	336.06
381.958	347.06
382.184	345.06
382.409	356.06
382.634	354.06
382.86	359.06
383.085	350.06
383.31	357.06
383.535	362.06
383.761	363.06
383.986	348.06
384.211	360.06
384.436	359.06
384.662	374.06
384.887	380.06
385.112	361.06
385.337	362.06
385.562	363.06
385.787	370.06
386.013	380.06
386.238	387.06
386.463	364.06
386.688	374.06
386.913	352.06
387.138	352.06
387.363	369.06
387.588	360.06
387.813	366.06
388.038	373.06
388.263	384.06
388.488	372.06
388.713	359.06
388.938	370.06
389.163	378.06
389.387	369.06
389.612	344.06
389.837	348.06
390.062	352.06
390.287	379.06
390.512	365.06
390.736	384.06
390.961	386.06
391.186	385.06
391.411	369.06
391.636	373.06
391.86	380.06
392.085	366.06
392.31	372.06
392.534	374.06
392.759	360.06
392.984	384.06
393.208	370.06
393.433	386.06
393.658	362.06
393.882	363.06
394.107	377.06
394.331	368.06
394.556	396.06
394.78	382.06
395.005	380.06
395.229	386.06
395.454	396.06
395.678	384.06
395.903	385.06
396.127	403.06
396.352	406.06
396.576	375.06
396.801	399.06
397.025	367.06
397.249	376.06
397.474	394.06
397.698	399.06
397.922	401.06
398.147	420.06
398.371	400.06
398.595	423.06
398.82	403.06
399.044	419.06
399.268	445.06
399.492	438.06
399.717	470.06
399.941	477.06
400.165	511.06
400.389	520.06
400.613	493.06
400.837	437.06
401.062	429.06
401.286	431.06
401.51	425.06
401.734	421.06
401.958	448.06
402.182	444.06
402.406	420.06
402.63	433.06
402.854	424.06
403.078	453.06
403.302	456.06
403.526	453.06
403.75	434.06
403.974	428.06
404.198	412.06
404.422	448.06
404.645	440.06
404.869	436.06
405.093	485.06
405.317	481.06
405.541	507.06
405.765	484.06
405.988	453.06
406.212	494.06
406.436	498.06
406.66	491.06
406.883	460.06
407.107	506.06
407.331	531.06
407.555	595.06
407.778	583.06
408.002	515.06
408.226	495.06
408.449	500.06
408.673	458.06
408.896	493.06
409.12	529.06
409.344	522.06
409.567	471.06
409.791	432.06
410.014	449.06
410.238	450.06
410.461	428.06
410.685	442.06
410.908	456.06
411.132	485.06
411.355	503.06
411.578	490.06
411.802	457.06
412.025	437.06
412.249	448.06
412.472	464.06
412.695	500.06
412.919	506.06
413.142	432.06
413.365	431.06
413.589	429.06
413.812	411.06
414.035	405.06
414.258	425.06
414.482	414.06
414.705	412.06
414.928	407.06
415.151	388.06
415.374	417.06
415.597	414.06
415.821	417.06
416.044	416.06
416.267	410.06
416.49	400.06
416.713	400.06
416.936	408.06
417.159	401.06
417.382	407.06
417.605	436.06
417.828	431.06
418.051	441.06
418.274	420.06
418.497	429.06
418.72	410.06
418.943	403.06
419.166	425.06
419.389	426.06
419.611	433.06
419.834	438.06
420.057	440.06
420.28	430.06
420.503	412.06
420.726	397.06
420.948	466.06
421.171	470.06
421.394	487.06
421.617	452.06
421.839	429.06
422.062	428.06
422.285	439.06
422.507	529.06
422.73	562.06
422.953	540.06
423.175	481.06
423.398	468.06
423.621	477.06
423.843	466.06
424.066	482.06
424.288	483.06
424.511	480.06
424.733	534.06
424.956	577.06
425.178	582.06
425.401	579.06
425.623	603.06
425.846	520.06
426.068	487.06
426.291	490.06
426.513	449.06
426.735	476.06
426.958	522.06
427.18	599.06
427.402	698.06
427.625	776.06
427.847	679.06
428.069	617.06
428.292	538.06
428.514	481.06
428.736	466.06
428.958	465.06
429.181	446.06
429.403	420.06
429.625	433.06
429.847	486.06
430.069	542.06
430.292	533.06
430.514	447.06
430.736	457.06
430.958	436.06
431.18	406.06
431.402	445.06
431.624	411.06
431.846	403.06
432.068	413.06
432.29	422.06
432.512	404.06
432.734	437.06
432.956	433.06
433.178	425.06
433.4	441.06
433.622	436.06
433.844	412.06
434.066	411.06
434.287	401.06
434.509	426.06
434.731	431.06
434.953	400.06
435.175	443.06
435.397	450.06
435.618	493.06
435.84	526.06
436.062	604.06
436.284	629.06
436.505	552.06
436.727	504.06
436.949	466.06
437.17	459.06
437.392	456.06
437.614	462.06
437.835	500.06
438.057	580.06
438.278	653.06
438.5	669.06
438.721	722.06
438.943	680.06
439.165	555.06
439.386	485.06
439.608	479.06
439.829	487.06
440.05	536.06
440.272	547.06
440.493	535.06
440.715	465.06
440.936	464.06
441.158	453.06
441.379	463.06
441.6	486.06
441.822	500.06
442.043	518.06
442.264	590.06
442.486	604.06
442.707	533.06
442.928	479.06
443.149	485.06
443.371	503.06
443.592	566.06
443.813	637.06
444.034	670.06
444.255	582.06
444.476	524.06
444.698	486.06
444.919	461.06
445.14	565.06
445.361	527.06
445.582	521.06
445.803	606.06
446.024	678.06
446.245	684.06
446.466	618.06
446.687	527.06
446.908	487.06
447.129	472.06
447.35	454.06
447.571	452.06
447.792	453.06
448.013	427.06
448.234	487.06
448.455	526.06
448.675	600.06
448.896	686.06
449.117	592.06
449.338	561.06
449.559	662.06
449.779	748.06
450	580.06
450.221	504.06
450.442	460.06
450.662	458.06
450.883	444.06
451.104	467.06
451.324	468.06
451.545	448.06
451.766	418.06
451.986	397.06
452.207	386.06
452.428	381.06
452.648	418.06
452.869	390.06
453.089	414.06
453.31	429.06
453.53	436.06
453.751	403.06
453.971	415.06
454.192	448.06
454.412	406.06
454.633	423.06
454.853	399.06
455.073	410.06
455.294	440.06
455.514	509.06
455.734	472.06
455.955	396.06
456.175	374.06
456.395	381.06
456.616	382.06
456.836	373.06
457.056	377.06
457.276	362.06
457.497	367.06
457.717	385.06
457.937	402.06
458.157	381.06
458.377	401.06
458.598	429.06
458.818	498.06
459.038	581.06
459.258	565.06
459.478	459.06
459.698	424.06
459.918	399.06
460.138	406.06
460.358	420.06
460.578	438.06
460.798	420.06
461.018	424.06
461.238	421.06
461.458	412.06
461.678	416.06
461.898	418.06
462.118	410.06
462.338	412.06
462.558	410.06
462.777	438.06
462.997	440.06
463.217	446.06
463.437	455.06
463.657	426.06
463.876	427.06
464.096	426.06
464.316	428.06
464.536	469.06
464.755	460.06
464.975	452.06
465.195	521.06
465.414	599.06
465.634	530.06
465.854	473.06
466.073	437.06
466.293	448.06
466.512	407.06
466.732	400.06
466.951	397.06
467.171	418.06
467.391	424.06
467.61	440.06
467.829	434.06
468.049	428.06
468.268	413.06
468.488	412.06
468.707	407.06
468.927	398.06
469.146	382.06
469.365	405.06
469.585	406.06
469.804	385.06
470.023	422.06
470.243	400.06
470.462	421.06
470.681	465.06
470.901	444.06
471.12	430.06
471.339	409.06
471.558	418.06
471.777	413.06
471.997	415.06
472.216	436.06
472.435	476.06
472.654	450.06
472.873	428.06
473.092	426.06
473.311	411.06
473.53	403.06
473.749	426.06
473.968	478.06
474.187	557.06
474.406	570.06
474.625	468.06
474.844	432.06
475.063	425.06
475.282	412.06
475.501	426.06
475.72	449.06
475.939	455.06
476.158	430.06
476.377	433.06
476.596	412.06
476.814	428.06
477.033	437.06
477.252	464.06
477.471	452.06
477.69	424.06
477.908	447.06
478.127	430.06
478.346	449.06
478.564	442.06
478.783	465.06
479.002	453.06
479.22	444.06
479.439	476.06
479.658	491.06
479.876	502.06
480.095	489.06
480.313	541.06
480.532	534.06
480.751	511.06
480.969	527.06
481.188	595.06
481.406	641.06
481.624	539.06
481.843	516.06
482.061	493.06
482.28	511.06
482.498	486.06
482.717	487.06
482.935	480.06
483.153	497.06
483.372	489.06
483.59	483.06
483.808	486.06
484.027	461.06
484.245	490.06
484.463	466.06
484.681	498.06
484.9	500.06
485.118	516.06
485.336	494.06
485.554	521.06
485.772	503.06
485.99	516.06
486.209	500.06
486.427	513.06
486.645	509.06
486.863	542.06
487.081	539.06
487.299	506.06
487.517	514.06
487.735	519.06
487.953	531.06
488.171	519.06
488.389	534.06
488.607	548.06
488.825	504.06
489.043	521.06
489.261	531.06
489.479	526.06
489.696	534.06
489.914	543.06
490.132	549.06
490.35	550.06
490.568	552.06
490.786	568.06
491.003	572.06
491.221	569.06
491.439	576.06
491.657	578.06
491.874	609.06
492.092	600.06
492.31	617.06
492.527	590.06
492.745	606.06
492.963	601.06
493.18	616.06
493.398	605.06
493.615	603.06
493.833	621.06
494.05	608.06
494.268	620.06
494.485	590.06
494.703	602.06
494.92	613.06
495.138	634.06
495.355	610.06
495.573	620.06
495.79	619.06
496.008	620.06
496.225	624.06
496.442	620.06
496.66	614.06
496.877	609.06
497.094	616.06
497.312	653.06
497.529	610.06
497.746	659.06
497.963	648.06
498.181	646.06
498.398	662.06
498.615	654.06
498.832	664.06
499.049	670.06
499.267	680.06
499.484	708.06
499.701	715.06
499.918	725.06
500.135	749.06
500.352	784.06
500.569	768.06
500.786	804.06
501.003	756.06
501.22	783.06
501.437	746.06
501.654	732.06
501.871	746.06
502.088	736.06
502.305	700.06
502.522	668.06
502.739	663.06
502.956	650.06
503.172	642.06
503.389	661.06
503.606	651.06
503.823	645.06
504.04	632.06
504.256	636.06
504.473	620.06
504.69	622.06
504.907	612.06
505.123	608.06
505.34	594.06
505.557	604.06
505.773	603.06
505.99	614.06
506.207	612.06
506.423	606.06
506.64	598.06
506.856	607.06
507.073	590.06
507.289	610.06
507.506	562.06
507.722	589.06
507.939	614.06
508.155	599.06
508.372	576.06
508.588	570.06
508.805	572.06
509.021	545.06
509.238	621.06
509.454	603.06
509.67	587.06
509.887	571.06
510.103	583.06
510.319	599.06
510.536	701.06
510.752	1226.06
510.968	958.06
511.184	631.06
511.401	583.06
511.617	574.06
511.833	560.06
512.049	561.06
512.265	575.06
512.481	540.06
512.698	558.06
512.914	552.06
513.13	557.06
513.346	545.06
513.562	567.06
513.778	590.06
513.994	569.06
514.21	572.06
514.426	596.06
514.642	636.06
514.858	693.06
515.074	712.06
515.29	893.06
515.506	1351.06
515.721	1095.06
515.937	718.06
516.153	633.06
516.369	575.06
516.585	590.06
516.801	548.06
517.016	546.06
517.232	570.06
517.448	553.06
517.664	542.06
517.879	589.06
518.095	560.06
518.311	576.06
518.527	564.06
518.742	535.06
518.958	560.06
519.173	550.06
519.389	552.06
519.605	545.06
519.82	553.06
520.036	573.06
520.251	600.06
520.467	640.06
520.682	664.06
520.898	647.06
521.113	642.06
521.329	682.06
521.544	805.06
521.76	1080.06
521.975	1844.06
522.19	1778.06
522.406	959.06
522.621	698.06
522.836	622.06
523.052	568.06
523.267	558.06
523.482	534.06
523.698	521.06
523.913	505.06
524.128	541.06
524.343	516.06
524.559	487.06
524.774	507.06
524.989	485.06
525.204	467.06
525.419	490.06
525.634	467.06
525.849	470.06
526.064	456.06
526.28	452.06
526.495	453.06
526.71	426.06
526.925	466.06
527.14	439.06
527.355	464.06
527.57	462.06
527.785	449.06
527.999	440.06
528.214	454.06
528.429	462.06
528.644	444.06
528.859	433.06
529.074	466.06
529.289	479.06
529.503	564.06
529.718	548.06
529.933	483.06
530.148	484.06
530.363	454.06
530.577	441.06
530.792	432.06
531.007	447.06
531.221	455.06
531.436	408.06
531.651	409.06
531.865	419.06
532.08	425.06
532.295	416.06
532.509	443.06
532.724	409.06
532.938	431.06
533.153	424.06
533.367	414.06
533.582	417.06
533.796	414.06
534.011	408.06
534.225	420.06
534.44	387.06
534.654	399.06
534.868	410.06
535.083	407.06
535.297	389.06
535.511	421.06
535.726	447.06
535.94	436.06
536.154	420.06
536.369	420.06
536.583	423.06
536.797	405.06
537.011	405.06
537.225	414.06
537.44	401.06
537.654	404.06
537.868	394.06
538.082	411.06
538.296	407.06
538.51	401.06
538.724	403.06
538.938	416.06
539.153	398.06
539.367	427.06
539.581	417.06
539.795	424.06
540.009	401.06
540.222	400.06
540.436	401.06
540.65	384.06
540.864	410.06
541.078	414.06
541.292	428.06
541.506	408.06
541.72	405.06
541.934	406.06
542.147	408.06
542.361	398.06
542.575	397.06
542.789	411.06
543.002	393.06
543.216	405.06
543.43	429.06
543.644	395.06
543.857	373.06
544.071	397.06
544.285	402.06
544.498	388.06
544.712	385.06
544.925	408.06
545.139	400.06
545.352	396.06
545.566	371.06
545.779	374.06
545.993	384.06
546.206	391.06
546.42	391.06
546.633	374.06
546.847	388.06
547.06	385.06
547.274	388.06
547.487	361.06
547.7	394.06
547.914	381.06
548.127	358.06
548.34	364.06
548.554	390.06
548.767	382.06
548.98	384.06
549.193	373.06
549.407	394.06
549.62	368.06
549.833	382.06
550.046	364.06
550.259	358.06
550.473	371.06
550.686	358.06
550.899	364.06
551.112	390.06
551.325	380.06
551.538	376.06
551.751	378.06
551.964	356.06
552.177	363.06
552.39	368.06
552.603	364.06
552.816	362.06
553.029	373.06
553.242	382.06
553.455	375.06
553.667	366.06
553.88	394.06
554.093	396.06
554.306	372.06
554.519	368.06
554.732	384.06
554.944	357.06
555.157	358.06
555.37	355.06
555.583	366.06
555.795	375.06
556.008	341.06
556.221	340.06
556.433	365.06
556.646	347.06
556.859	342.06
557.071	350.06
557.284	327.06
557.496	352.06
557.709	342.06
557.921	351.06
558.134	328.06
558.346	331.06
558.559	348.06
558.771	333.06
558.984	334.06
559.196	339.06
559.409	330.06
559.621	338.06
559.833	321.06
560.046	335.06
560.258	335.06
560.47	332.06
560.683	303.06
560.895	327.06
561.107	318.06
561.32	355.06
561.532	320.06
561.744	326.06
561.956	330.06
562.168	339.06
562.381	314.06
562.593	329.06
562.805	327.06
563.017	331.06
563.229	333.06
563.441	319.06
563.653	362.06
563.865	355.06
564.077	345.06
564.289	339.06
564.501	345.06
564.713	337.06
564.925	366.06
565.137	359.06
565.349	351.06
565.561	346.06
565.773	354.06
565.985	372.06
566.197	348.06
566.408	354.06
566.62	365.06
566.832	369.06
567.044	364.06
567.255	376.06
567.467	404.06
567.679	385.06
567.891	381.06
568.102	399.06
568.314	378.06
568.526	374.06
568.737	374.06
568.949	344.06
569.161	333.06
569.372	325.06
569.584	337.06
569.795	341.06
570.007	330.06
570.218	393.06
570.43	382.06
570.641	335.06
570.853	331.06
571.064	311.06
571.276	316.06
571.487	332.06
571.698	326.06
571.91	319.06
572.121	317.06
572.333	317.06
572.544	314.06
572.755	294.06
572.966	299.06
573.178	298.06
573.389	295.06
573.6	309.06
573.811	300.06
574.023	289.06
574.234	294.06
574.445	292.06
574.656	293.06
574.867	300.06
575.078	296.06
575.289	281.06
575.501	293.06
575.712	273.06
575.923	296.06
576.134	285.06
576.345	302.06
576.556	285.06
576.767	293.06
576.978	282.06
577.188	282.06
577.399	289.06
577.61	294.06
577.821	286.06
578.032	288.06
578.243	327.06
578.454	572.06
578.665	413.06
578.875	300.06
579.086	289.06
579.297	268.06
579.508	276.06
579.718	289.06
579.929	262.06
580.14	256.06
580.35	250.06
580.561	267.06
580.772	267.06
580.982	267.06
581.193	263.06
581.403	262.06
581.614	268.06
581.825	268.06
582.035	272.06
582.246	270.06
582.456	266.06
582.667	272.06
582.877	263.06
583.087	264.06
583.298	264.06
583.508	278.06
583.719	249.06
583.929	244.06
584.139	269.06
584.35	257.06
584.56	257.06
584.77	256.06
584.981	256.06
585.191	262.06
585.401	266.06
585.611	253.06
585.821	241.06
586.032	271.06
586.242	257.06
586.452	252.06
586.662	247.06
586.872	256.06
587.082	258.06
587.292	251.06
587.502	235.06
587.713	245.06
587.923	248.06
588.133	259.06
588.343	242.06
588.553	260.06
588.762	266.06
588.972	268.06
589.182	296.06
589.392	289.06
589.602	279.06
589.812	292.06
590.022	260.06
590.232	253.06
590.441	268.06
590.651	269.06
590.861	252.06
591.071	246.06
591.281	257.06
591.49	260.06
591.7	273.06
591.91	263.06
592.119	271.06
592.329	242.06
592.539	262.06
592.748	254.06
592.958	265.06
593.167	248.06
593.377	264.06
593.587	271.06
593.796	277.06
594.006	263.06
594.215	248.06
594.424	257.06
594.634	267.06
594.843	261.06
595.053	245.06
595.262	235.06
595.472	247.06
595.681	221.06
595.89	240.06
596.1	242.06
596.309	241.06
596.518	248.06
596.727	230.06
596.937	241.06
597.146	247.06
597.355	249.06
597.564	227.06
597.774	223.06
597.983	234.06
598.192	229.06
598.401	222.06
598.61	227.06
598.819	220.06
599.028	216.06
599.237	222.06
599.446	218.06
599.655	214.06
599.864	229.06
600.073	221.06
600.282	224.06
600.491	224.06
600.7	224.06
600.909	219.06
601.118	227.06
601.327	227.06
601.536	214.06
601.745	221.06
601.953	220.06
602.162	212.06
602.371	205.06
602.58	221.06
602.789	214.06
602.997	218.06
603.206	228.06
603.415	223.06
603.623	229.06
603.832	241.06
604.041	222.06
604.249	216.06
604.458	222.06
604.666	207.06
604.875	214.06
605.084	223.06
605.292	211.06
605.501	237.06
605.709	206.06
605.918	215.06
606.126	194.06
606.334	203.06
606.543	213.06
606.751	203.06
606.96	214.06
607.168	198.06
607.376	209.06
607.585	219.06
607.793	216.06
608.001	206.06
608.21	214.06
608.418	210.06
608.626	205.06
608.834	221.06
609.043	217.06
609.251	222.06
609.459	234.06
609.667	233.06
609.875	200.06
610.083	218.06
610.291	197.06
610.499	227.06
610.707	206.06
610.916	201.06
611.124	194.06
611.332	205.06
611.54	232.06
611.748	205.06
611.955	200.06
612.163	205.06
612.371	212.06
612.579	197.06
612.787	201.06
612.995	199.06
613.203	202.06
613.411	193.06
613.618	201.06
613.826	205.06
614.034	200.06
614.242	214.06
614.449	215.06
614.657	220.06
614.865	194.06
615.072	204.06
615.28	188.06
615.488	206.06
615.695	214.06
615.903	209.06
616.111	196.06
616.318	203.06
616.526	221.06
616.733	208.06
616.941	223.06
617.148	221.06
617.356	202.06
617.563	208.06
617.771	212.06
617.978	190.06
618.185	200.06
618.393	208.06
618.6	183.06
618.807	194.06
619.015	198.06
619.222	217.06
619.429	198.06
619.637	193.06
619.844	198.06
620.051	197.06
620.258	201.06
620.466	196.06
620.673	196.06
620.88	184.06
621.087	201.06
621.294	197.06
621.501	199.06
621.708	189.06
621.915	186.06
622.122	193.06
622.329	206.06
622.536	205.06
622.743	198.06
622.95	202.06
623.157	175.06
623.364	182.06
623.571	188.06
623.778	192.06
623.985	177.06
624.192	180.06
624.399	173.06
624.606	189.06
624.812	192.06
625.019	197.06
625.226	184.06
625.433	188.06
625.639	189.06
625.846	173.06
626.053	190.06
626.259	201.06
626.466	186.06
626.673	177.06
626.879	182.06
627.086	178.06
627.293	173.06
627.499	185.06
627.706	173.06
627.912	186.06
628.119	186.06
628.325	191.06
628.532	180.06
628.738	169.06
628.945	187.06
629.151	181.06
629.357	192.06
629.564	185.06
629.77	181.06
629.976	187.06
630.183	170.06
630.389	180.06
630.595	182.06
630.802	179.06
631.008	169.06
631.214	157.06
631.42	182.06
631.627	177.06
631.833	182.06
632.039	169.06
632.245	181.06
632.451	162.06
632.657	161.06
632.863	166.06
633.069	175.06
633.275	169.06
633.481	161.06
633.688	169.06
633.893	165.06
634.099	175.06
634.305	163.06
634.511	169.06
634.717	162.06
634.923	183.06
635.129	156.06
635.335	170.06
635.541	167.06
635.747	164.06
635.952	157.06
636.158	153.06
636.364	160.06
636.57	159.06
636.775	169.06
636.981	174.06
637.187	168.06
637.392	169.06
637.598	168.06
637.804	165.06
638.009	170.06
638.215	168.06
638.421	149.06
638.626	156.06
638.832	142.06
639.037	154.06
639.243	161.06
639.448	155.06
639.654	165.06
639.859	161.06
640.065	141.06
640.27	175.06
640.475	160.06
640.681	164.06
640.886	154.06
641.091	154.06
641.297	164.06
641.502	159.06
641.707	150.06
641.913	145.06
642.118	146.06
642.323	154.06
642.528	154.06
642.733	167.06
642.939	156.06
643.144	144.06
643.349	161.06
643.554	162.06
643.759	157.06
643.964	148.06
644.169	171.06
644.374	152.06
644.579	150.06
644.784	141.06
644.989	150.06
645.194	142.06
645.399	141.06
645.604	145.06
645.809	150.06
646.014	158.06
646.219	168.06
646.423	162.06
646.628	162.06
646.833	159.06
647.038	163.06
647.243	146.06
647.447	158.06
647.652	155.06
647.857	154.06
648.062	160.06
648.266	157.06
648.471	147.06
648.676	143.06
648.88	156.06
649.085	161.06
649.289	147.06
649.494	161.06
649.698	198.06
649.903	162.06
650.107	163.06
650.312	152.06
650.516	145.06
650.721	142.06
650.925	150.06
651.13	146.06
651.334	160.06
651.539	144.06
651.743	121.06
651.947	144.06
652.152	141.06
652.356	149.06
652.56	134.06
652.764	109.06
652.969	138.06
653.173	140.06
653.377	135.06
653.581	134.06
653.785	132.06
653.99	130.06
654.194	134.06
654.398	139.06
654.602	122.06
654.806	132.06
655.01	144.06
655.214	135.06
655.418	145.06
655.622	129.06
655.826	133.06
656.03	130.06
656.234	133.06
656.438	123.06
656.642	127.06
656.846	107.06
657.049	125.06
657.253	128.06
657.457	112.06
657.661	111.06
657.865	102.06
658.068	111.06
658.272	111.06
658.476	98.06
658.68	109.06
658.883	120.06
659.087	95.06
659.291	96.06
659.494	98.06
659.698	103.06
659.901	97.06
660.105	90.06
660.309	102.06
660.512	95.06
660.716	97.06
660.919	81.06
661.123	97.06
661.326	88.06
661.53	91.06
661.733	88.06
661.936	93.06
662.14	102.06
662.343	95.06
662.546	81.06
662.75	85.06
662.953	96.06
663.156	80.06
663.36	75.06
663.563	91.06
663.766	81.06
663.969	103.06
664.173	84.06
664.376	83.06
664.579	81.06
664.782	75.06
664.985	86.06
665.188	89.06
665.391	82.06
665.594	82.06
665.797	78.06
666	79.06
666.203	87.06
666.406	82.06
666.609	90.06
666.812	87.06
667.015	90.06
667.218	86.06
667.421	91.06
667.624	76.06
667.827	95.06
668.03	89.06
668.232	89.06
668.435	93.06
668.638	90.06
668.841	86.06
669.043	87.06
669.246	89.06
669.449	89.06
669.651	77.06
669.854	98.06
670.057	96.06
670.259	81.06
670.462	74.06
670.665	89.06
670.867	96.06
671.07	96.06
671.272	83.06
671.475	86.06
671.677	87.06
671.88	84.06
672.082	81.06
672.284	78.06
672.487	90.06
672.689	77.06
672.892	73.06
