Data from 1965.PennyLincolnUp.Lamp.En5.5.200Scan.071719.P1._HRD10591_14-07-48-911.txt Node
Date: Thu Jul 18 14:07:48 EDT 2019
User: cochatt
Spectrometer: HR+D1059
Trigger mode: 1
Integration Time (sec): 1.000000E-1
Scans to average: 1
Electric dark correction enabled: true
Nonlinearity correction enabled: false
Boxcar width: 0
XAxis mode: Wavelengths
Number of Pixels in Spectrum: 2048
>>>>>Begin Spectral Data<<<<<
223.165	-16.94
223.4	-16.94
223.635	-16.94
223.869	-26.94
224.104	-16.94
224.338	-18.94
224.573	-6.94
224.808	-18.94
225.042	5.06
225.277	-0.94
225.511	-5.94
225.746	6.06
225.98	2.06
226.215	7.06
226.449	30.06
226.683	15.06
226.918	24.06
227.152	23.06
227.387	57.06
227.621	48.06
227.856	49.06
228.09	51.06
228.324	50.06
228.559	72.06
228.793	56.06
229.027	80.06
229.262	91.06
229.496	96.06
229.73	104.06
229.964	121.06
230.199	114.06
230.433	97.06
230.667	111.06
230.901	100.06
231.136	102.06
231.37	103.06
231.604	101.06
231.838	104.06
232.072	105.06
232.306	115.06
232.541	100.06
232.775	96.06
233.009	105.06
233.243	116.06
233.477	90.06
233.711	95.06
233.945	119.06
234.179	95.06
234.413	99.06
234.647	108.06
234.881	108.06
235.115	122.06
235.349	101.06
235.583	104.06
235.817	110.06
236.051	115.06
236.285	108.06
236.519	114.06
236.753	120.06
236.987	131.06
237.221	166.06
237.455	186.06
237.689	152.06
237.922	125.06
238.156	129.06
238.39	117.06
238.624	107.06
238.858	117.06
239.091	117.06
239.325	113.06
239.559	115.06
239.793	118.06
240.027	118.06
240.26	120.06
240.494	134.06
240.728	124.06
240.961	115.06
241.195	125.06
241.429	128.06
241.662	119.06
241.896	114.06
242.13	113.06
242.363	112.06
242.597	113.06
242.83	131.06
243.064	123.06
243.298	124.06
243.531	124.06
243.765	115.06
243.998	121.06
244.232	123.06
244.465	123.06
244.699	113.06
244.932	116.06
245.166	133.06
245.399	126.06
245.633	129.06
245.866	127.06
246.099	124.06
246.333	125.06
246.566	118.06
246.8	127.06
247.033	110.06
247.266	144.06
247.5	127.06
247.733	147.06
247.966	141.06
248.2	129.06
248.433	152.06
248.666	139.06
248.899	151.06
249.133	146.06
249.366	160.06
249.599	166.06
249.832	151.06
250.066	166.06
250.299	133.06
250.532	161.06
250.765	172.06
250.998	165.06
251.231	176.06
251.465	163.06
251.698	159.06
251.931	166.06
252.164	158.06
252.397	154.06
252.63	154.06
252.863	172.06
253.096	167.06
253.329	164.06
253.562	159.06
253.795	166.06
254.028	175.06
254.261	166.06
254.494	161.06
254.727	197.06
254.96	211.06
255.193	202.06
255.426	196.06
255.659	190.06
255.892	183.06
256.124	169.06
256.357	179.06
256.59	175.06
256.823	165.06
257.056	158.06
257.289	152.06
257.521	163.06
257.754	170.06
257.987	151.06
258.22	175.06
258.452	156.06
258.685	163.06
258.918	176.06
259.151	161.06
259.383	177.06
259.616	184.06
259.849	176.06
260.081	187.06
260.314	207.06
260.547	182.06
260.779	182.06
261.012	176.06
261.244	187.06
261.477	192.06
261.71	170.06
261.942	182.06
262.175	190.06
262.407	186.06
262.64	167.06
262.872	169.06
263.105	167.06
263.337	168.06
263.57	168.06
263.802	185.06
264.035	162.06
264.267	165.06
264.499	161.06
264.732	165.06
264.964	179.06
265.197	160.06
265.429	165.06
265.661	163.06
265.894	170.06
266.126	177.06
266.358	171.06
266.591	169.06
266.823	168.06
267.055	170.06
267.287	181.06
267.52	165.06
267.752	185.06
267.984	184.06
268.216	189.06
268.448	174.06
268.681	179.06
268.913	194.06
269.145	217.06
269.377	204.06
269.609	200.06
269.841	195.06
270.073	198.06
270.306	208.06
270.538	222.06
270.77	220.06
271.002	214.06
271.234	219.06
271.466	223.06
271.698	224.06
271.93	221.06
272.162	220.06
272.394	227.06
272.626	207.06
272.858	201.06
273.09	198.06
273.322	211.06
273.553	201.06
273.785	199.06
274.017	192.06
274.249	196.06
274.481	202.06
274.713	209.06
274.945	195.06
275.176	188.06
275.408	211.06
275.64	185.06
275.872	202.06
276.104	201.06
276.335	206.06
276.567	210.06
276.799	196.06
277.031	216.06
277.262	235.06
277.494	225.06
277.726	223.06
277.957	214.06
278.189	229.06
278.421	202.06
278.652	217.06
278.884	208.06
279.115	200.06
279.347	198.06
279.579	222.06
279.81	212.06
280.042	210.06
280.273	207.06
280.505	202.06
280.736	195.06
280.968	213.06
281.199	207.06
281.431	199.06
281.662	203.06
281.894	188.06
282.125	202.06
282.356	217.06
282.588	243.06
282.819	235.06
283.051	197.06
283.282	216.06
283.513	211.06
283.745	206.06
283.976	208.06
284.207	209.06
284.439	208.06
284.67	223.06
284.901	221.06
285.132	208.06
285.364	193.06
285.595	221.06
285.826	209.06
286.057	210.06
286.288	193.06
286.52	211.06
286.751	202.06
286.982	202.06
287.213	214.06
287.444	208.06
287.675	222.06
287.906	227.06
288.138	219.06
288.369	223.06
288.6	237.06
288.831	228.06
289.062	231.06
289.293	215.06
289.524	219.06
289.755	208.06
289.986	208.06
290.217	217.06
290.448	220.06
290.679	226.06
290.91	225.06
291.141	226.06
291.371	217.06
291.602	218.06
291.833	204.06
292.064	218.06
292.295	200.06
292.526	204.06
292.757	220.06
292.987	215.06
293.218	194.06
293.449	219.06
293.68	230.06
293.91	229.06
294.141	220.06
294.372	219.06
294.603	216.06
294.833	221.06
295.064	228.06
295.295	221.06
295.525	212.06
295.756	231.06
295.987	230.06
296.217	239.06
296.448	228.06
296.679	240.06
296.909	217.06
297.14	208.06
297.37	225.06
297.601	229.06
297.831	224.06
298.062	212.06
298.292	231.06
298.523	224.06
298.753	234.06
298.984	224.06
299.214	231.06
299.445	224.06
299.675	220.06
299.905	245.06
300.136	243.06
300.366	240.06
300.597	233.06
300.827	256.06
301.057	248.06
301.288	245.06
301.518	247.06
301.748	216.06
301.979	253.06
302.209	248.06
302.439	240.06
302.669	239.06
302.9	238.06
303.13	243.06
303.36	227.06
303.59	226.06
303.82	237.06
304.051	251.06
304.281	245.06
304.511	235.06
304.741	228.06
304.971	250.06
305.201	254.06
305.431	245.06
305.661	239.06
305.891	243.06
306.121	235.06
306.352	255.06
306.582	263.06
306.812	264.06
307.042	259.06
307.272	248.06
307.502	235.06
307.731	253.06
307.961	257.06
308.191	251.06
308.421	255.06
308.651	241.06
308.881	246.06
309.111	247.06
309.341	246.06
309.571	249.06
309.8	268.06
310.03	278.06
310.26	272.06
310.49	280.06
310.72	268.06
310.949	287.06
311.179	284.06
311.409	280.06
311.639	270.06
311.868	276.06
312.098	277.06
312.328	286.06
312.557	314.06
312.787	302.06
313.017	296.06
313.246	277.06
313.476	264.06
313.706	273.06
313.935	294.06
314.165	281.06
314.394	298.06
314.624	304.06
314.853	269.06
315.083	272.06
315.312	270.06
315.542	276.06
315.771	278.06
316.001	293.06
316.23	283.06
316.46	277.06
316.689	286.06
316.919	289.06
317.148	284.06
317.377	289.06
317.607	287.06
317.836	265.06
318.065	284.06
318.295	295.06
318.524	277.06
318.753	262.06
318.983	274.06
319.212	268.06
319.441	282.06
319.67	301.06
319.9	283.06
320.129	256.06
320.358	278.06
320.587	279.06
320.816	281.06
321.046	300.06
321.275	309.06
321.504	300.06
321.733	293.06
321.962	340.06
322.191	304.06
322.42	308.06
322.649	344.06
322.878	339.06
323.108	344.06
323.337	338.06
323.566	386.06
323.795	377.06
324.024	392.06
324.253	473.06
324.482	667.06
324.71	1027.06
324.939	1402.06
325.168	1173.06
325.397	661.06
325.626	454.06
325.855	383.06
326.084	341.06
326.313	348.06
326.542	366.06
326.77	405.06
326.999	455.06
327.228	630.06
327.457	893.06
327.686	1038.06
327.914	691.06
328.143	460.06
328.372	427.06
328.6	416.06
328.829	384.06
329.058	394.06
329.287	399.06
329.515	393.06
329.744	366.06
329.972	346.06
330.201	364.06
330.43	389.06
330.658	394.06
330.887	426.06
331.115	406.06
331.344	343.06
331.572	368.06
331.801	336.06
332.03	348.06
332.258	335.06
332.486	331.06
332.715	332.06
332.943	335.06
333.172	332.06
333.4	327.06
333.629	328.06
333.857	341.06
334.085	336.06
334.314	362.06
334.542	363.06
334.771	369.06
334.999	371.06
335.227	336.06
335.455	323.06
335.684	327.06
335.912	310.06
336.14	319.06
336.369	323.06
336.597	315.06
336.825	340.06
337.053	339.06
337.281	310.06
337.51	316.06
337.738	316.06
337.966	328.06
338.194	337.06
338.422	317.06
338.65	318.06
338.878	315.06
339.106	313.06
339.334	313.06
339.562	333.06
339.79	318.06
340.018	303.06
340.246	313.06
340.474	322.06
340.702	317.06
340.93	319.06
341.158	310.06
341.386	322.06
341.614	318.06
341.842	317.06
342.07	323.06
342.298	314.06
342.526	317.06
342.754	287.06
342.981	311.06
343.209	308.06
343.437	309.06
343.665	318.06
343.893	323.06
344.12	328.06
344.348	340.06
344.576	320.06
344.804	339.06
345.031	324.06
345.259	331.06
345.487	341.06
345.714	330.06
345.942	325.06
346.17	313.06
346.397	312.06
346.625	327.06
346.853	332.06
347.08	320.06
347.308	320.06
347.535	313.06
347.763	308.06
347.99	321.06
348.218	323.06
348.445	328.06
348.673	324.06
348.9	316.06
349.128	309.06
349.355	306.06
349.583	318.06
349.81	288.06
350.037	314.06
350.265	293.06
350.492	305.06
350.72	305.06
350.947	313.06
351.174	300.06
351.402	316.06
351.629	313.06
351.856	315.06
352.083	307.06
352.311	329.06
352.538	339.06
352.765	317.06
352.992	337.06
353.22	307.06
353.447	314.06
353.674	304.06
353.901	303.06
354.128	283.06
354.355	319.06
354.583	297.06
354.81	308.06
355.037	295.06
355.264	299.06
355.491	291.06
355.718	282.06
355.945	285.06
356.172	284.06
356.399	321.06
356.626	286.06
356.853	289.06
357.08	280.06
357.307	301.06
357.534	297.06
357.761	291.06
357.988	271.06
358.215	283.06
358.441	276.06
358.668	299.06
358.895	294.06
359.122	288.06
359.349	297.06
359.576	326.06
359.802	350.06
360.029	334.06
360.256	330.06
360.483	345.06
360.709	311.06
360.936	320.06
361.163	318.06
361.39	304.06
361.616	315.06
361.843	293.06
362.07	313.06
362.296	327.06
362.523	294.06
362.749	307.06
362.976	310.06
363.203	296.06
363.429	315.06
363.656	301.06
363.882	301.06
364.109	309.06
364.335	311.06
364.562	302.06
364.788	291.06
365.015	284.06
365.241	296.06
365.468	286.06
365.694	300.06
365.92	314.06
366.147	320.06
366.373	309.06
366.599	292.06
366.826	297.06
367.052	302.06
367.278	307.06
367.505	281.06
367.731	297.06
367.957	303.06
368.184	308.06
368.41	293.06
368.636	303.06
368.862	317.06
369.089	313.06
369.315	314.06
369.541	293.06
369.767	296.06
369.993	300.06
370.219	313.06
370.445	291.06
370.672	292.06
370.898	291.06
371.124	300.06
371.35	312.06
371.576	318.06
371.802	298.06
372.028	315.06
372.254	295.06
372.48	288.06
372.706	288.06
372.932	296.06
373.158	297.06
373.384	311.06
373.61	318.06
373.835	315.06
374.061	315.06
374.287	308.06
374.513	317.06
374.739	298.06
374.965	307.06
375.191	310.06
375.416	339.06
375.642	313.06
375.868	337.06
376.094	309.06
376.319	300.06
376.545	298.06
376.771	295.06
376.997	320.06
377.222	303.06
377.448	319.06
377.674	302.06
377.899	313.06
378.125	303.06
378.35	309.06
378.576	309.06
378.802	310.06
379.027	285.06
379.253	295.06
379.478	301.06
379.704	313.06
379.929	287.06
380.155	295.06
380.38	318.06
380.606	315.06
380.831	310.06
381.057	308.06
381.282	311.06
381.507	303.06
381.733	295.06
381.958	300.06
382.184	310.06
382.409	307.06
382.634	301.06
382.86	301.06
383.085	300.06
383.31	318.06
383.535	317.06
383.761	319.06
383.986	303.06
384.211	323.06
384.436	328.06
384.662	324.06
384.887	314.06
385.112	334.06
385.337	335.06
385.562	322.06
385.787	321.06
386.013	329.06
386.238	342.06
386.463	325.06
386.688	315.06
386.913	321.06
387.138	330.06
387.363	323.06
387.588	330.06
387.813	321.06
388.038	322.06
388.263	310.06
388.488	339.06
388.713	316.06
388.938	334.06
389.163	324.06
389.387	333.06
389.612	303.06
389.837	309.06
390.062	311.06
390.287	326.06
390.512	315.06
390.736	317.06
390.961	332.06
391.186	322.06
391.411	333.06
391.636	322.06
391.86	321.06
392.085	320.06
392.31	328.06
392.534	318.06
392.759	331.06
392.984	332.06
393.208	333.06
393.433	346.06
393.658	342.06
393.882	326.06
394.107	327.06
394.331	308.06
394.556	331.06
394.78	318.06
395.005	333.06
395.229	335.06
395.454	340.06
395.678	325.06
395.903	331.06
396.127	356.06
396.352	367.06
396.576	340.06
396.801	328.06
397.025	335.06
397.249	353.06
397.474	356.06
397.698	345.06
397.922	359.06
398.147	352.06
398.371	340.06
398.595	352.06
398.82	359.06
399.044	352.06
399.268	376.06
399.492	389.06
399.717	405.06
399.941	429.06
400.165	427.06
400.389	441.06
400.613	410.06
400.837	380.06
401.062	387.06
401.286	372.06
401.51	372.06
401.734	356.06
401.958	373.06
402.182	373.06
402.406	374.06
402.63	384.06
402.854	390.06
403.078	376.06
403.302	358.06
403.526	375.06
403.75	376.06
403.974	376.06
404.198	370.06
404.422	364.06
404.645	367.06
404.869	377.06
405.093	411.06
405.317	424.06
405.541	435.06
405.765	399.06
405.988	406.06
406.212	414.06
406.436	424.06
406.66	426.06
406.883	409.06
407.107	413.06
407.331	443.06
407.555	479.06
407.778	464.06
408.002	443.06
408.226	414.06
408.449	395.06
408.673	443.06
408.896	423.06
409.12	456.06
409.344	424.06
409.567	386.06
409.791	386.06
410.014	399.06
410.238	392.06
410.461	383.06
410.685	372.06
410.908	401.06
411.132	429.06
411.355	436.06
411.578	435.06
411.802	375.06
412.025	379.06
412.249	400.06
412.472	391.06
412.695	403.06
412.919	409.06
413.142	378.06
413.365	380.06
413.589	343.06
413.812	368.06
414.035	360.06
414.258	369.06
414.482	366.06
414.705	360.06
414.928	362.06
415.151	358.06
415.374	346.06
415.597	348.06
415.821	347.06
416.044	368.06
416.267	358.06
416.49	359.06
416.713	344.06
416.936	365.06
417.159	347.06
417.382	375.06
417.605	353.06
417.828	364.06
418.051	383.06
418.274	360.06
418.497	351.06
418.72	371.06
418.943	349.06
419.166	388.06
419.389	378.06
419.611	376.06
419.834	368.06
420.057	371.06
420.28	367.06
420.503	376.06
420.726	389.06
420.948	381.06
421.171	400.06
421.394	424.06
421.617	389.06
421.839	369.06
422.062	378.06
422.285	379.06
422.507	421.06
422.73	449.06
422.953	432.06
423.175	387.06
423.398	385.06
423.621	389.06
423.843	385.06
424.066	384.06
424.288	408.06
424.511	406.06
424.733	421.06
424.956	488.06
425.178	443.06
425.401	486.06
425.623	482.06
425.846	426.06
426.068	401.06
426.291	399.06
426.513	384.06
426.735	412.06
426.958	420.06
427.18	473.06
427.402	559.06
427.625	615.06
427.847	524.06
428.069	462.06
428.292	428.06
428.514	398.06
428.736	379.06
428.958	381.06
429.181	370.06
429.403	384.06
429.625	396.06
429.847	401.06
430.069	413.06
430.292	449.06
430.514	393.06
430.736	387.06
430.958	364.06
431.18	365.06
431.402	353.06
431.624	356.06
431.846	349.06
432.068	361.06
432.29	364.06
432.512	351.06
432.734	352.06
432.956	364.06
433.178	351.06
433.4	367.06
433.622	368.06
433.844	362.06
434.066	340.06
434.287	353.06
434.509	373.06
434.731	359.06
434.953	364.06
435.175	394.06
435.397	385.06
435.618	395.06
435.84	452.06
436.062	509.06
436.284	541.06
436.505	437.06
436.727	415.06
436.949	376.06
437.17	391.06
437.392	382.06
437.614	391.06
437.835	421.06
438.057	485.06
438.278	539.06
438.5	543.06
438.721	556.06
438.943	532.06
439.165	440.06
439.386	421.06
439.608	408.06
439.829	412.06
440.05	417.06
440.272	460.06
440.493	428.06
440.715	382.06
440.936	409.06
441.158	366.06
441.379	388.06
441.6	353.06
441.822	405.06
442.043	441.06
442.264	480.06
442.486	518.06
442.707	447.06
442.928	415.06
443.149	425.06
443.371	429.06
443.592	458.06
443.813	518.06
444.034	539.06
444.255	451.06
444.476	432.06
444.698	397.06
444.919	395.06
445.14	476.06
445.361	447.06
445.582	428.06
445.803	491.06
446.024	547.06
446.245	541.06
446.466	469.06
446.687	436.06
446.908	383.06
447.129	377.06
447.35	377.06
447.571	383.06
447.792	374.06
448.013	355.06
448.234	379.06
448.455	399.06
448.675	480.06
448.896	542.06
449.117	471.06
449.338	452.06
449.559	526.06
449.779	576.06
450	481.06
450.221	427.06
450.442	396.06
450.662	371.06
450.883	375.06
451.104	390.06
451.324	375.06
451.545	347.06
451.766	359.06
451.986	336.06
452.207	341.06
452.428	347.06
452.648	340.06
452.869	350.06
453.089	322.06
453.31	337.06
453.53	345.06
453.751	330.06
453.971	321.06
454.192	346.06
454.412	356.06
454.633	341.06
454.853	343.06
455.073	333.06
455.294	371.06
455.514	382.06
455.734	393.06
455.955	354.06
456.175	331.06
456.395	317.06
456.616	319.06
456.836	339.06
457.056	337.06
457.276	328.06
457.497	327.06
457.717	327.06
457.937	344.06
458.157	338.06
458.377	333.06
458.598	331.06
458.818	383.06
459.038	445.06
459.258	450.06
459.478	391.06
459.698	366.06
459.918	350.06
460.138	346.06
460.358	362.06
460.578	356.06
460.798	368.06
461.018	362.06
461.238	366.06
461.458	364.06
461.678	366.06
461.898	352.06
462.118	371.06
462.338	365.06
462.558	407.06
462.777	384.06
462.997	373.06
463.217	393.06
463.437	388.06
463.657	390.06
463.876	375.06
464.096	380.06
464.316	390.06
464.536	377.06
464.755	380.06
464.975	392.06
465.195	428.06
465.414	474.06
465.634	413.06
465.854	401.06
466.073	366.06
466.293	369.06
466.512	344.06
466.732	357.06
466.951	352.06
467.171	353.06
467.391	344.06
467.61	341.06
467.829	382.06
468.049	335.06
468.268	360.06
468.488	353.06
468.707	349.06
468.927	343.06
469.146	345.06
469.365	345.06
469.585	324.06
469.804	349.06
470.023	335.06
470.243	356.06
470.462	363.06
470.681	368.06
470.901	350.06
471.12	352.06
471.339	356.06
471.558	351.06
471.777	346.06
471.997	348.06
472.216	355.06
472.435	376.06
472.654	361.06
472.873	367.06
473.092	352.06
473.311	340.06
473.53	352.06
473.749	379.06
473.968	391.06
474.187	448.06
474.406	455.06
474.625	376.06
474.844	360.06
475.063	351.06
475.282	359.06
475.501	347.06
475.72	357.06
475.939	371.06
476.158	374.06
476.377	375.06
476.596	380.06
476.814	377.06
477.033	385.06
477.252	350.06
477.471	366.06
477.69	360.06
477.908	395.06
478.127	379.06
478.346	390.06
478.564	379.06
478.783	403.06
479.002	416.06
479.22	397.06
479.439	423.06
479.658	439.06
479.876	422.06
480.095	425.06
480.313	425.06
480.532	429.06
480.751	425.06
480.969	425.06
481.188	454.06
481.406	490.06
481.624	452.06
481.843	422.06
482.061	413.06
482.28	403.06
482.498	418.06
482.717	426.06
482.935	436.06
483.153	422.06
483.372	429.06
483.59	423.06
483.808	417.06
484.027	398.06
484.245	415.06
484.463	411.06
484.681	444.06
484.9	444.06
485.118	441.06
485.336	447.06
485.554	437.06
485.772	423.06
485.99	416.06
486.209	442.06
486.427	427.06
486.645	447.06
486.863	473.06
487.081	452.06
487.299	454.06
487.517	437.06
487.735	438.06
487.953	447.06
488.171	450.06
488.389	450.06
488.607	454.06
488.825	446.06
489.043	452.06
489.261	462.06
489.479	436.06
489.696	451.06
489.914	456.06
490.132	461.06
490.35	469.06
490.568	457.06
490.786	487.06
491.003	486.06
491.221	475.06
491.439	467.06
491.657	487.06
491.874	501.06
492.092	479.06
492.31	510.06
492.527	486.06
492.745	501.06
492.963	503.06
493.18	529.06
493.398	510.06
493.615	505.06
493.833	525.06
494.05	505.06
494.268	501.06
494.485	520.06
494.703	494.06
494.92	488.06
495.138	499.06
495.355	535.06
495.573	533.06
495.79	532.06
496.008	522.06
496.225	532.06
496.442	511.06
496.66	512.06
496.877	545.06
497.094	528.06
497.312	512.06
497.529	536.06
497.746	528.06
497.963	536.06
498.181	560.06
498.398	556.06
498.615	564.06
498.832	581.06
499.049	581.06
499.267	612.06
499.484	623.06
499.701	614.06
499.918	650.06
500.135	641.06
500.352	681.06
500.569	684.06
500.786	689.06
501.003	677.06
501.22	658.06
501.437	654.06
501.654	643.06
501.871	641.06
502.088	619.06
502.305	594.06
502.522	576.06
502.739	571.06
502.956	559.06
503.172	547.06
503.389	555.06
503.606	552.06
503.823	539.06
504.04	527.06
504.256	518.06
504.473	508.06
504.69	521.06
504.907	493.06
505.123	518.06
505.34	504.06
505.557	481.06
505.773	487.06
505.99	511.06
506.207	506.06
506.423	492.06
506.64	479.06
506.856	496.06
507.073	495.06
507.289	471.06
507.506	477.06
507.722	507.06
507.939	516.06
508.155	504.06
508.372	459.06
508.588	487.06
508.805	464.06
509.021	483.06
509.238	477.06
509.454	475.06
509.67	469.06
509.887	478.06
510.103	466.06
510.319	478.06
510.536	575.06
510.752	883.06
510.968	701.06
511.184	484.06
511.401	461.06
511.617	444.06
511.833	442.06
512.049	455.06
512.265	441.06
512.481	453.06
512.698	458.06
512.914	465.06
513.13	450.06
513.346	435.06
513.562	447.06
513.778	459.06
513.994	454.06
514.21	481.06
514.426	468.06
514.642	505.06
514.858	533.06
515.074	536.06
515.29	643.06
515.506	890.06
515.721	760.06
515.937	544.06
516.153	496.06
516.369	486.06
516.585	486.06
516.801	470.06
517.016	471.06
517.232	491.06
517.448	470.06
517.664	490.06
517.879	469.06
518.095	461.06
518.311	470.06
518.527	451.06
518.742	475.06
518.958	458.06
519.173	441.06
519.389	458.06
519.605	430.06
519.82	449.06
520.036	459.06
520.251	476.06
520.467	468.06
520.682	492.06
520.898	503.06
521.113	505.06
521.329	540.06
521.544	584.06
521.76	749.06
521.975	1139.06
522.19	1122.06
522.406	641.06
522.621	507.06
522.836	465.06
523.052	437.06
523.267	435.06
523.482	412.06
523.698	429.06
523.913	426.06
524.128	408.06
524.343	400.06
524.559	404.06
524.774	412.06
524.989	406.06
525.204	409.06
525.419	416.06
525.634	393.06
525.849	394.06
526.064	381.06
526.28	405.06
526.495	385.06
526.71	379.06
526.925	366.06
527.14	362.06
527.355	381.06
527.57	379.06
527.785	385.06
527.999	387.06
528.214	388.06
528.429	402.06
528.644	365.06
528.859	391.06
529.074	382.06
529.289	403.06
529.503	452.06
529.718	435.06
529.933	421.06
530.148	409.06
530.363	387.06
530.577	370.06
530.792	376.06
531.007	356.06
531.221	369.06
531.436	381.06
531.651	374.06
531.865	350.06
532.08	352.06
532.295	357.06
532.509	361.06
532.724	369.06
532.938	372.06
533.153	364.06
533.367	367.06
533.582	381.06
533.796	336.06
534.011	363.06
534.225	343.06
534.44	359.06
534.654	356.06
534.868	368.06
535.083	359.06
535.297	357.06
535.511	353.06
535.726	355.06
535.94	381.06
536.154	357.06
536.369	353.06
536.583	340.06
536.797	350.06
537.011	354.06
537.225	357.06
537.44	350.06
537.654	351.06
537.868	370.06
538.082	364.06
538.296	345.06
538.51	366.06
538.724	351.06
538.938	359.06
539.153	336.06
539.367	361.06
539.581	363.06
539.795	360.06
540.009	351.06
540.222	341.06
540.436	359.06
540.65	345.06
540.864	357.06
541.078	372.06
541.292	371.06
541.506	359.06
541.72	339.06
541.934	359.06
542.147	342.06
542.361	338.06
542.575	347.06
542.789	347.06
543.002	308.06
543.216	339.06
543.43	348.06
543.644	381.06
543.857	352.06
544.071	315.06
544.285	346.06
544.498	341.06
544.712	348.06
544.925	335.06
545.139	356.06
545.352	341.06
545.566	339.06
545.779	344.06
545.993	348.06
546.206	341.06
546.42	334.06
546.633	348.06
546.847	347.06
547.06	316.06
547.274	334.06
547.487	337.06
547.7	321.06
547.914	329.06
548.127	341.06
548.34	320.06
548.554	345.06
548.767	328.06
548.98	321.06
549.193	327.06
549.407	332.06
549.62	337.06
549.833	343.06
550.046	332.06
550.259	337.06
550.473	328.06
550.686	332.06
550.899	329.06
551.112	329.06
551.325	320.06
551.538	327.06
551.751	324.06
551.964	322.06
552.177	346.06
552.39	327.06
552.603	320.06
552.816	313.06
553.029	339.06
553.242	342.06
553.455	350.06
553.667	355.06
553.88	354.06
554.093	343.06
554.306	325.06
554.519	320.06
554.732	323.06
554.944	340.06
555.157	305.06
555.37	335.06
555.583	330.06
555.795	346.06
556.008	325.06
556.221	299.06
556.433	307.06
556.646	297.06
556.859	328.06
557.071	309.06
557.284	305.06
557.496	293.06
557.709	294.06
557.921	294.06
558.134	302.06
558.346	302.06
558.559	312.06
558.771	307.06
558.984	308.06
559.196	298.06
559.409	314.06
559.621	315.06
559.833	298.06
560.046	313.06
560.258	304.06
560.47	304.06
560.683	312.06
560.895	311.06
561.107	297.06
561.32	301.06
561.532	307.06
561.744	302.06
561.956	316.06
562.168	295.06
562.381	284.06
562.593	283.06
562.805	309.06
563.017	300.06
563.229	303.06
563.441	304.06
563.653	317.06
563.865	302.06
564.077	319.06
564.289	317.06
564.501	296.06
564.713	307.06
564.925	307.06
565.137	318.06
565.349	309.06
565.561	332.06
565.773	300.06
565.985	327.06
566.197	353.06
566.408	328.06
566.62	359.06
566.832	340.06
567.044	339.06
567.255	328.06
567.467	355.06
567.679	360.06
567.891	361.06
568.102	349.06
568.314	359.06
568.526	339.06
568.737	330.06
568.949	313.06
569.161	320.06
569.372	322.06
569.584	327.06
569.795	301.06
570.007	312.06
570.218	333.06
570.43	332.06
570.641	305.06
570.853	299.06
571.064	299.06
571.276	292.06
571.487	278.06
571.698	271.06
571.91	279.06
572.121	277.06
572.333	288.06
572.544	289.06
572.755	287.06
572.966	281.06
573.178	265.06
573.389	288.06
573.6	261.06
573.811	268.06
574.023	276.06
574.234	268.06
574.445	262.06
574.656	272.06
574.867	256.06
575.078	273.06
575.289	269.06
575.501	250.06
575.712	258.06
575.923	253.06
576.134	263.06
576.345	259.06
576.556	277.06
576.767	267.06
576.978	249.06
577.188	268.06
577.399	254.06
577.61	258.06
577.821	255.06
578.032	252.06
578.243	265.06
578.454	431.06
578.665	344.06
578.875	257.06
579.086	259.06
579.297	252.06
579.508	246.06
579.718	238.06
579.929	253.06
580.14	239.06
580.35	233.06
580.561	242.06
580.772	247.06
580.982	248.06
581.193	238.06
581.403	236.06
581.614	240.06
581.825	244.06
582.035	249.06
582.246	254.06
582.456	238.06
582.667	256.06
582.877	227.06
583.087	228.06
583.298	236.06
583.508	231.06
583.719	243.06
583.929	234.06
584.139	244.06
584.35	236.06
584.56	241.06
584.77	255.06
584.981	237.06
585.191	234.06
585.401	227.06
585.611	246.06
585.821	245.06
586.032	222.06
586.242	241.06
586.452	244.06
586.662	217.06
586.872	237.06
587.082	233.06
587.292	216.06
587.502	245.06
587.713	223.06
587.923	233.06
588.133	224.06
588.343	226.06
588.553	239.06
588.762	232.06
588.972	259.06
589.182	390.06
589.392	381.06
589.602	272.06
589.812	363.06
590.022	308.06
590.232	264.06
590.441	253.06
590.651	219.06
590.861	226.06
591.071	218.06
591.281	237.06
591.49	229.06
591.7	239.06
591.91	235.06
592.119	214.06
592.329	242.06
592.539	237.06
592.748	250.06
592.958	221.06
593.167	241.06
593.377	215.06
593.587	252.06
593.796	237.06
594.006	238.06
594.215	238.06
594.424	231.06
594.634	240.06
594.843	239.06
595.053	234.06
595.262	229.06
595.472	243.06
595.681	225.06
595.89	228.06
596.1	218.06
596.309	210.06
596.518	222.06
596.727	223.06
596.937	243.06
597.146	205.06
597.355	195.06
597.564	217.06
597.774	217.06
597.983	213.06
598.192	211.06
598.401	208.06
598.61	207.06
598.819	198.06
599.028	227.06
599.237	206.06
599.446	211.06
599.655	213.06
599.864	213.06
600.073	210.06
600.282	224.06
600.491	206.06
600.7	215.06
600.909	207.06
601.118	226.06
601.327	212.06
601.536	221.06
601.745	213.06
601.953	214.06
602.162	218.06
602.371	221.06
602.58	201.06
602.789	200.06
602.997	199.06
603.206	200.06
603.415	196.06
603.623	189.06
603.832	199.06
604.041	203.06
604.249	197.06
604.458	203.06
604.666	204.06
604.875	192.06
605.084	197.06
605.292	195.06
605.501	189.06
605.709	201.06
605.918	201.06
606.126	213.06
606.334	209.06
606.543	183.06
606.751	198.06
606.96	195.06
607.168	201.06
607.376	195.06
607.585	213.06
607.793	196.06
608.001	191.06
608.21	202.06
608.418	197.06
608.626	195.06
608.834	198.06
609.043	188.06
609.251	177.06
609.459	174.06
609.667	202.06
609.875	175.06
610.083	216.06
610.291	207.06
610.499	189.06
610.707	201.06
610.916	204.06
611.124	190.06
611.332	208.06
611.54	203.06
611.748	200.06
611.955	200.06
612.163	195.06
612.371	210.06
612.579	195.06
612.787	221.06
612.995	201.06
613.203	205.06
613.411	208.06
613.618	193.06
613.826	206.06
614.034	186.06
614.242	203.06
614.449	182.06
614.657	190.06
614.865	196.06
615.072	202.06
615.28	191.06
615.488	201.06
615.695	195.06
615.903	184.06
616.111	187.06
616.318	175.06
616.526	196.06
616.733	195.06
616.941	190.06
617.148	191.06
617.356	180.06
617.563	191.06
617.771	188.06
617.978	183.06
618.185	183.06
618.393	189.06
618.6	208.06
618.807	179.06
619.015	188.06
619.222	198.06
619.429	212.06
619.637	193.06
619.844	183.06
620.051	188.06
620.258	189.06
620.466	187.06
620.673	179.06
620.88	183.06
621.087	186.06
621.294	191.06
621.501	181.06
621.708	169.06
621.915	193.06
622.122	187.06
622.329	176.06
622.536	204.06
622.743	203.06
622.95	176.06
623.157	189.06
623.364	170.06
623.571	179.06
623.778	186.06
623.985	184.06
624.192	179.06
624.399	176.06
624.606	167.06
624.812	180.06
625.019	181.06
625.226	181.06
625.433	199.06
625.639	172.06
625.846	170.06
626.053	184.06
626.259	165.06
626.466	173.06
626.673	159.06
626.879	173.06
627.086	169.06
627.293	169.06
627.499	172.06
627.706	169.06
627.912	161.06
628.119	159.06
628.325	184.06
628.532	164.06
628.738	179.06
628.945	166.06
629.151	171.06
629.357	168.06
629.564	175.06
629.77	167.06
629.976	166.06
630.183	168.06
630.389	164.06
630.595	163.06
630.802	164.06
631.008	161.06
631.214	155.06
631.42	152.06
631.627	180.06
631.833	155.06
632.039	151.06
632.245	168.06
632.451	156.06
632.657	157.06
632.863	164.06
633.069	141.06
633.275	161.06
633.481	153.06
633.688	159.06
633.893	156.06
634.099	145.06
634.305	160.06
634.511	150.06
634.717	172.06
634.923	150.06
635.129	139.06
635.335	147.06
635.541	155.06
635.747	150.06
635.952	164.06
636.158	157.06
636.364	165.06
636.57	165.06
636.775	156.06
636.981	169.06
637.187	168.06
637.392	150.06
637.598	167.06
637.804	160.06
638.009	147.06
638.215	157.06
638.421	151.06
638.626	147.06
638.832	156.06
639.037	155.06
639.243	148.06
639.448	145.06
639.654	169.06
639.859	160.06
640.065	144.06
640.27	164.06
640.475	175.06
640.681	155.06
640.886	155.06
641.091	174.06
641.297	160.06
641.502	143.06
641.707	148.06
641.913	157.06
642.118	160.06
642.323	153.06
642.528	152.06
642.733	150.06
642.939	150.06
643.144	159.06
643.349	139.06
643.554	150.06
643.759	168.06
643.964	143.06
644.169	145.06
644.374	148.06
644.579	143.06
644.784	169.06
644.989	157.06
645.194	147.06
645.399	145.06
645.604	144.06
645.809	149.06
646.014	163.06
646.219	153.06
646.423	158.06
646.628	151.06
646.833	154.06
647.038	159.06
647.243	150.06
647.447	150.06
647.652	140.06
647.857	152.06
648.062	158.06
648.266	151.06
648.471	150.06
648.676	144.06
648.88	156.06
649.085	153.06
649.289	140.06
649.494	138.06
649.698	158.06
649.903	160.06
650.107	155.06
650.312	151.06
650.516	146.06
650.721	140.06
650.925	125.06
651.13	139.06
651.334	141.06
651.539	133.06
651.743	137.06
651.947	146.06
652.152	135.06
652.356	141.06
652.56	131.06
652.764	144.06
652.969	125.06
653.173	146.06
653.377	149.06
653.581	142.06
653.785	129.06
653.99	136.06
654.194	133.06
654.398	120.06
654.602	135.06
654.806	129.06
655.01	132.06
655.214	134.06
655.418	137.06
655.622	142.06
655.826	133.06
656.03	134.06
656.234	141.06
656.438	154.06
656.642	153.06
656.846	123.06
657.049	127.06
657.253	135.06
657.457	123.06
657.661	127.06
657.865	120.06
658.068	119.06
658.272	112.06
658.476	118.06
658.68	116.06
658.883	103.06
659.087	96.06
659.291	108.06
659.494	99.06
659.698	100.06
659.901	105.06
660.105	91.06
660.309	85.06
660.512	89.06
660.716	94.06
660.919	100.06
661.123	100.06
661.326	86.06
661.53	89.06
661.733	93.06
661.936	97.06
662.14	93.06
662.343	97.06
662.546	84.06
662.75	91.06
662.953	98.06
663.156	90.06
663.36	83.06
663.563	96.06
663.766	87.06
663.969	91.06
664.173	82.06
664.376	93.06
664.579	74.06
664.782	91.06
664.985	81.06
665.188	67.06
665.391	86.06
665.594	93.06
665.797	81.06
666	87.06
666.203	81.06
666.406	89.06
666.609	87.06
666.812	77.06
667.015	92.06
667.218	85.06
667.421	85.06
667.624	94.06
667.827	88.06
668.03	80.06
668.232	90.06
668.435	77.06
668.638	91.06
668.841	83.06
669.043	92.06
669.246	87.06
669.449	78.06
669.651	92.06
669.854	87.06
670.057	95.06
670.259	93.06
670.462	73.06
670.665	95.06
670.867	91.06
671.07	87.06
671.272	87.06
671.475	96.06
671.677	75.06
671.88	77.06
672.082	72.06
672.284	94.06
672.487	75.06
672.689	85.06
672.892	74.06
