Data from 1965.PennyLincolnUp.Lamp.En5.5.200Scan.071719.P1._HRD10591_14-08-27-911.txt Node
Date: Thu Jul 18 14:08:27 EDT 2019
User: cochatt
Spectrometer: HR+D1059
Trigger mode: 1
Integration Time (sec): 1.000000E-1
Scans to average: 1
Electric dark correction enabled: true
Nonlinearity correction enabled: false
Boxcar width: 0
XAxis mode: Wavelengths
Number of Pixels in Spectrum: 2048
>>>>>Begin Spectral Data<<<<<
223.165	-10.94
223.4	-10.94
223.635	-10.94
223.869	-5.94
224.104	-17.94
224.338	-14.94
224.573	-14.94
224.808	-4.94
225.042	-11.94
225.277	0.06
225.511	-8.94
225.746	0.06
225.98	2.06
226.215	16.06
226.449	-4.94
226.683	20.06
226.918	32.06
227.152	25.06
227.387	44.06
227.621	35.06
227.856	57.06
228.09	49.06
228.324	53.06
228.559	52.06
228.793	64.06
229.027	100.06
229.262	109.06
229.496	96.06
229.73	112.06
229.964	150.06
230.199	108.06
230.433	99.06
230.667	112.06
230.901	106.06
231.136	101.06
231.37	102.06
231.604	104.06
231.838	106.06
232.072	117.06
232.306	113.06
232.541	125.06
232.775	102.06
233.009	100.06
233.243	121.06
233.477	104.06
233.711	97.06
233.945	101.06
234.179	110.06
234.413	121.06
234.647	103.06
234.881	112.06
235.115	119.06
235.349	124.06
235.583	108.06
235.817	107.06
236.051	103.06
236.285	115.06
236.519	112.06
236.753	124.06
236.987	129.06
237.221	133.06
237.455	210.06
237.689	167.06
237.922	125.06
238.156	124.06
238.39	125.06
238.624	109.06
238.858	128.06
239.091	122.06
239.325	105.06
239.559	116.06
239.793	120.06
240.027	124.06
240.26	134.06
240.494	161.06
240.728	143.06
240.961	127.06
241.195	135.06
241.429	132.06
241.662	121.06
241.896	122.06
242.13	118.06
242.363	132.06
242.597	136.06
242.83	142.06
243.064	132.06
243.298	123.06
243.531	137.06
243.765	136.06
243.998	125.06
244.232	127.06
244.465	126.06
244.699	136.06
244.932	132.06
245.166	136.06
245.399	138.06
245.633	133.06
245.866	138.06
246.099	137.06
246.333	151.06
246.566	136.06
246.8	138.06
247.033	133.06
247.266	140.06
247.5	136.06
247.733	139.06
247.966	158.06
248.2	146.06
248.433	148.06
248.666	148.06
248.899	153.06
249.133	183.06
249.366	177.06
249.599	172.06
249.832	173.06
250.066	174.06
250.299	170.06
250.532	185.06
250.765	172.06
250.998	188.06
251.231	177.06
251.465	185.06
251.698	176.06
251.931	172.06
252.164	185.06
252.397	172.06
252.63	184.06
252.863	164.06
253.096	199.06
253.329	210.06
253.562	200.06
253.795	188.06
254.028	204.06
254.261	192.06
254.494	189.06
254.727	218.06
254.96	222.06
255.193	246.06
255.426	214.06
255.659	203.06
255.892	207.06
256.124	208.06
256.357	188.06
256.59	172.06
256.823	196.06
257.056	177.06
257.289	177.06
257.521	202.06
257.754	189.06
257.987	176.06
258.22	159.06
258.452	193.06
258.685	176.06
258.918	184.06
259.151	184.06
259.383	207.06
259.616	192.06
259.849	191.06
260.081	213.06
260.314	217.06
260.547	224.06
260.779	186.06
261.012	199.06
261.244	197.06
261.477	200.06
261.71	192.06
261.942	200.06
262.175	200.06
262.407	219.06
262.64	175.06
262.872	195.06
263.105	192.06
263.337	201.06
263.57	173.06
263.802	184.06
264.035	168.06
264.267	170.06
264.499	173.06
264.732	188.06
264.964	177.06
265.197	195.06
265.429	181.06
265.661	194.06
265.894	185.06
266.126	182.06
266.358	194.06
266.591	189.06
266.823	191.06
267.055	198.06
267.287	207.06
267.52	192.06
267.752	213.06
267.984	192.06
268.216	188.06
268.448	205.06
268.681	204.06
268.913	197.06
269.145	221.06
269.377	233.06
269.609	240.06
269.841	236.06
270.073	238.06
270.306	241.06
270.538	278.06
270.77	281.06
271.002	260.06
271.234	266.06
271.466	264.06
271.698	267.06
271.93	256.06
272.162	255.06
272.394	262.06
272.626	278.06
272.858	237.06
273.09	237.06
273.322	244.06
273.553	229.06
273.785	234.06
274.017	227.06
274.249	226.06
274.481	223.06
274.713	234.06
274.945	246.06
275.176	229.06
275.408	228.06
275.64	236.06
275.872	202.06
276.104	241.06
276.335	240.06
276.567	235.06
276.799	252.06
277.031	235.06
277.262	267.06
277.494	278.06
277.726	267.06
277.957	247.06
278.189	253.06
278.421	222.06
278.652	220.06
278.884	229.06
279.115	229.06
279.347	223.06
279.579	224.06
279.81	216.06
280.042	221.06
280.273	232.06
280.505	232.06
280.736	225.06
280.968	218.06
281.199	222.06
281.431	224.06
281.662	237.06
281.894	233.06
282.125	244.06
282.356	254.06
282.588	266.06
282.819	283.06
283.051	245.06
283.282	238.06
283.513	231.06
283.745	229.06
283.976	231.06
284.207	225.06
284.439	233.06
284.67	241.06
284.901	229.06
285.132	215.06
285.364	253.06
285.595	228.06
285.826	250.06
286.057	244.06
286.288	238.06
286.52	236.06
286.751	232.06
286.982	240.06
287.213	235.06
287.444	229.06
287.675	251.06
287.906	246.06
288.138	255.06
288.369	247.06
288.6	251.06
288.831	246.06
289.062	245.06
289.293	241.06
289.524	260.06
289.755	244.06
289.986	259.06
290.217	245.06
290.448	236.06
290.679	246.06
290.91	237.06
291.141	244.06
291.371	235.06
291.602	261.06
291.833	236.06
292.064	228.06
292.295	251.06
292.526	244.06
292.757	268.06
292.987	242.06
293.218	244.06
293.449	244.06
293.68	237.06
293.91	262.06
294.141	249.06
294.372	263.06
294.603	242.06
294.833	241.06
295.064	256.06
295.295	246.06
295.525	254.06
295.756	261.06
295.987	268.06
296.217	282.06
296.448	281.06
296.679	250.06
296.909	244.06
297.14	233.06
297.37	256.06
297.601	258.06
297.831	245.06
298.062	270.06
298.292	245.06
298.523	251.06
298.753	249.06
298.984	259.06
299.214	263.06
299.445	261.06
299.675	279.06
299.905	254.06
300.136	282.06
300.366	279.06
300.597	261.06
300.827	270.06
301.057	268.06
301.288	273.06
301.518	275.06
301.748	266.06
301.979	263.06
302.209	271.06
302.439	274.06
302.669	260.06
302.9	279.06
303.13	265.06
303.36	269.06
303.59	282.06
303.82	296.06
304.051	288.06
304.281	266.06
304.511	264.06
304.741	283.06
304.971	268.06
305.201	281.06
305.431	276.06
305.661	273.06
305.891	272.06
306.121	282.06
306.352	288.06
306.582	277.06
306.812	299.06
307.042	284.06
307.272	276.06
307.502	272.06
307.731	280.06
307.961	282.06
308.191	278.06
308.421	270.06
308.651	291.06
308.881	298.06
309.111	300.06
309.341	297.06
309.571	309.06
309.8	289.06
310.03	322.06
310.26	298.06
310.49	326.06
310.72	321.06
310.949	337.06
311.179	343.06
311.409	312.06
311.639	312.06
311.868	332.06
312.098	319.06
312.328	330.06
312.557	337.06
312.787	337.06
313.017	357.06
313.246	332.06
313.476	309.06
313.706	300.06
313.935	320.06
314.165	336.06
314.394	327.06
314.624	341.06
314.853	338.06
315.083	329.06
315.312	331.06
315.542	324.06
315.771	321.06
316.001	321.06
316.23	299.06
316.46	327.06
316.689	326.06
316.919	313.06
317.148	335.06
317.377	342.06
317.607	330.06
317.836	329.06
318.065	327.06
318.295	323.06
318.524	319.06
318.753	326.06
318.983	313.06
319.212	320.06
319.441	321.06
319.67	310.06
319.9	330.06
320.129	321.06
320.358	316.06
320.587	335.06
320.816	340.06
321.046	348.06
321.275	348.06
321.504	351.06
321.733	339.06
321.962	348.06
322.191	358.06
322.42	362.06
322.649	394.06
322.878	394.06
323.108	399.06
323.337	416.06
323.566	448.06
323.795	455.06
324.024	495.06
324.253	623.06
324.482	916.06
324.71	1400.06
324.939	1877.06
325.168	1575.06
325.397	836.06
325.626	571.06
325.855	492.06
326.084	422.06
326.313	426.06
326.542	453.06
326.77	493.06
326.999	561.06
327.228	815.06
327.457	1218.06
327.686	1370.06
327.914	935.06
328.143	625.06
328.372	556.06
328.6	505.06
328.829	522.06
329.058	526.06
329.287	501.06
329.515	472.06
329.744	444.06
329.972	447.06
330.201	468.06
330.43	492.06
330.658	512.06
330.887	536.06
331.115	529.06
331.344	440.06
331.572	425.06
331.801	422.06
332.03	404.06
332.258	403.06
332.486	402.06
332.715	369.06
332.943	376.06
333.172	378.06
333.4	401.06
333.629	386.06
333.857	400.06
334.085	395.06
334.314	416.06
334.542	444.06
334.771	477.06
334.999	417.06
335.227	402.06
335.455	394.06
335.684	374.06
335.912	356.06
336.14	355.06
336.369	380.06
336.597	387.06
336.825	372.06
337.053	388.06
337.281	362.06
337.51	361.06
337.738	361.06
337.966	362.06
338.194	362.06
338.422	345.06
338.65	342.06
338.878	374.06
339.106	365.06
339.334	368.06
339.562	357.06
339.79	370.06
340.018	360.06
340.246	374.06
340.474	344.06
340.702	357.06
340.93	350.06
341.158	382.06
341.386	360.06
341.614	372.06
341.842	349.06
342.07	350.06
342.298	358.06
342.526	364.06
342.754	347.06
342.981	337.06
343.209	348.06
343.437	361.06
343.665	356.06
343.893	372.06
344.12	356.06
344.348	370.06
344.576	367.06
344.804	363.06
345.031	368.06
345.259	380.06
345.487	352.06
345.714	359.06
345.942	353.06
346.17	345.06
346.397	335.06
346.625	347.06
346.853	354.06
347.08	367.06
347.308	358.06
347.535	364.06
347.763	356.06
347.99	365.06
348.218	365.06
348.445	376.06
348.673	364.06
348.9	347.06
349.128	349.06
349.355	348.06
349.583	346.06
349.81	353.06
350.037	350.06
350.265	343.06
350.492	351.06
350.72	346.06
350.947	346.06
351.174	347.06
351.402	350.06
351.629	367.06
351.856	343.06
352.083	369.06
352.311	357.06
352.538	373.06
352.765	367.06
352.992	353.06
353.22	348.06
353.447	353.06
353.674	343.06
353.901	347.06
354.128	342.06
354.355	348.06
354.583	347.06
354.81	317.06
355.037	317.06
355.264	321.06
355.491	320.06
355.718	305.06
355.945	327.06
356.172	322.06
356.399	323.06
356.626	313.06
356.853	315.06
357.08	322.06
357.307	316.06
357.534	312.06
357.761	309.06
357.988	320.06
358.215	325.06
358.441	340.06
358.668	339.06
358.895	327.06
359.122	339.06
359.349	329.06
359.576	354.06
359.802	374.06
360.029	398.06
360.256	399.06
360.483	387.06
360.709	338.06
360.936	349.06
361.163	352.06
361.39	343.06
361.616	353.06
361.843	362.06
362.07	367.06
362.296	356.06
362.523	328.06
362.749	349.06
362.976	342.06
363.203	338.06
363.429	336.06
363.656	339.06
363.882	335.06
364.109	326.06
364.335	335.06
364.562	319.06
364.788	338.06
365.015	345.06
365.241	350.06
365.468	340.06
365.694	332.06
365.92	344.06
366.147	350.06
366.373	329.06
366.599	315.06
366.826	339.06
367.052	304.06
367.278	332.06
367.505	334.06
367.731	346.06
367.957	329.06
368.184	342.06
368.41	363.06
368.636	366.06
368.862	369.06
369.089	339.06
369.315	336.06
369.541	351.06
369.767	315.06
369.993	340.06
370.219	334.06
370.445	341.06
370.672	334.06
370.898	334.06
371.124	337.06
371.35	343.06
371.576	325.06
371.802	321.06
372.028	325.06
372.254	323.06
372.48	320.06
372.706	340.06
372.932	329.06
373.158	342.06
373.384	325.06
373.61	329.06
373.835	345.06
374.061	331.06
374.287	332.06
374.513	342.06
374.739	349.06
374.965	335.06
375.191	341.06
375.416	328.06
375.642	332.06
375.868	334.06
376.094	317.06
376.319	308.06
376.545	321.06
376.771	337.06
376.997	325.06
377.222	314.06
377.448	336.06
377.674	323.06
377.899	316.06
378.125	331.06
378.35	331.06
378.576	325.06
378.802	319.06
379.027	320.06
379.253	335.06
379.478	330.06
379.704	303.06
379.929	348.06
380.155	324.06
380.38	351.06
380.606	337.06
380.831	328.06
381.057	333.06
381.282	335.06
381.507	337.06
381.733	324.06
381.958	330.06
382.184	310.06
382.409	335.06
382.634	340.06
382.86	333.06
383.085	336.06
383.31	337.06
383.535	336.06
383.761	335.06
383.986	345.06
384.211	334.06
384.436	338.06
384.662	349.06
384.887	334.06
385.112	318.06
385.337	345.06
385.562	360.06
385.787	354.06
386.013	357.06
386.238	367.06
386.463	364.06
386.688	354.06
386.913	347.06
387.138	351.06
387.363	361.06
387.588	358.06
387.813	353.06
388.038	359.06
388.263	346.06
388.488	353.06
388.713	342.06
388.938	361.06
389.163	344.06
389.387	338.06
389.612	367.06
389.837	341.06
390.062	358.06
390.287	370.06
390.512	362.06
390.736	366.06
390.961	353.06
391.186	363.06
391.411	342.06
391.636	349.06
391.86	353.06
392.085	376.06
392.31	350.06
392.534	338.06
392.759	379.06
392.984	356.06
393.208	366.06
393.433	349.06
393.658	379.06
393.882	372.06
394.107	381.06
394.331	351.06
394.556	372.06
394.78	372.06
395.005	369.06
395.229	352.06
395.454	347.06
395.678	373.06
395.903	371.06
396.127	398.06
396.352	380.06
396.576	376.06
396.801	364.06
397.025	373.06
397.249	370.06
397.474	380.06
397.698	396.06
397.922	384.06
398.147	397.06
398.371	389.06
398.595	398.06
398.82	376.06
399.044	412.06
399.268	422.06
399.492	426.06
399.717	425.06
399.941	457.06
400.165	480.06
400.389	484.06
400.613	456.06
400.837	423.06
401.062	408.06
401.286	407.06
401.51	396.06
401.734	391.06
401.958	410.06
402.182	412.06
402.406	399.06
402.63	427.06
402.854	405.06
403.078	395.06
403.302	420.06
403.526	437.06
403.75	413.06
403.974	409.06
404.198	399.06
404.422	422.06
404.645	418.06
404.869	425.06
405.093	449.06
405.317	462.06
405.541	499.06
405.765	443.06
405.988	445.06
406.212	451.06
406.436	477.06
406.66	484.06
406.883	458.06
407.107	466.06
407.331	512.06
407.555	538.06
407.778	527.06
408.002	504.06
408.226	465.06
408.449	452.06
408.673	452.06
408.896	475.06
409.12	501.06
409.344	470.06
409.567	445.06
409.791	429.06
410.014	405.06
410.238	415.06
410.461	430.06
410.685	407.06
410.908	452.06
411.132	474.06
411.355	474.06
411.578	456.06
411.802	427.06
412.025	436.06
412.249	430.06
412.472	432.06
412.695	452.06
412.919	449.06
413.142	420.06
413.365	398.06
413.589	409.06
413.812	400.06
414.035	408.06
414.258	418.06
414.482	410.06
414.705	389.06
414.928	377.06
415.151	400.06
415.374	392.06
415.597	395.06
415.821	384.06
416.044	383.06
416.267	410.06
416.49	392.06
416.713	382.06
416.936	377.06
417.159	382.06
417.382	400.06
417.605	393.06
417.828	405.06
418.051	395.06
418.274	405.06
418.497	394.06
418.72	384.06
418.943	408.06
419.166	402.06
419.389	414.06
419.611	410.06
419.834	413.06
420.057	403.06
420.28	416.06
420.503	398.06
420.726	414.06
420.948	416.06
421.171	460.06
421.394	462.06
421.617	425.06
421.839	410.06
422.062	417.06
422.285	428.06
422.507	471.06
422.73	515.06
422.953	490.06
423.175	433.06
423.398	409.06
423.621	443.06
423.843	430.06
424.066	438.06
424.288	429.06
424.511	461.06
424.733	511.06
424.956	558.06
425.178	540.06
425.401	544.06
425.623	553.06
425.846	471.06
426.068	451.06
426.291	441.06
426.513	438.06
426.735	470.06
426.958	485.06
427.18	560.06
427.402	637.06
427.625	722.06
427.847	634.06
428.069	546.06
428.292	489.06
428.514	429.06
428.736	436.06
428.958	418.06
429.181	424.06
429.403	416.06
429.625	415.06
429.847	491.06
430.069	492.06
430.292	500.06
430.514	420.06
430.736	430.06
430.958	406.06
431.18	413.06
431.402	411.06
431.624	390.06
431.846	398.06
432.068	395.06
432.29	394.06
432.512	377.06
432.734	400.06
432.956	404.06
433.178	392.06
433.4	414.06
433.622	404.06
433.844	405.06
434.066	396.06
434.287	408.06
434.509	406.06
434.731	394.06
434.953	399.06
435.175	410.06
435.397	422.06
435.618	448.06
435.84	487.06
436.062	543.06
436.284	585.06
436.505	487.06
436.727	456.06
436.949	456.06
437.17	430.06
437.392	419.06
437.614	429.06
437.835	477.06
438.057	547.06
438.278	598.06
438.5	613.06
438.721	686.06
438.943	628.06
439.165	504.06
439.386	463.06
439.608	456.06
439.829	465.06
440.05	491.06
440.272	521.06
440.493	473.06
440.715	455.06
440.936	428.06
441.158	425.06
441.379	434.06
441.6	451.06
441.822	458.06
442.043	493.06
442.264	540.06
442.486	582.06
442.707	509.06
442.928	472.06
443.149	477.06
443.371	484.06
443.592	516.06
443.813	602.06
444.034	641.06
444.255	524.06
444.476	475.06
444.698	456.06
444.919	440.06
445.14	544.06
445.361	492.06
445.582	473.06
445.803	552.06
446.024	620.06
446.245	634.06
446.466	574.06
446.687	504.06
446.908	458.06
447.129	438.06
447.35	425.06
447.571	418.06
447.792	418.06
448.013	446.06
448.234	441.06
448.455	496.06
448.675	582.06
448.896	662.06
449.117	543.06
449.338	548.06
449.559	623.06
449.779	710.06
450	544.06
450.221	486.06
450.442	436.06
450.662	411.06
450.883	430.06
451.104	441.06
451.324	430.06
451.545	422.06
451.766	387.06
451.986	409.06
452.207	374.06
452.428	383.06
452.648	375.06
452.869	369.06
453.089	396.06
453.31	392.06
453.53	386.06
453.751	386.06
453.971	382.06
454.192	389.06
454.412	382.06
454.633	376.06
454.853	372.06
455.073	386.06
455.294	400.06
455.514	478.06
455.734	465.06
455.955	382.06
456.175	378.06
456.395	352.06
456.616	361.06
456.836	366.06
457.056	369.06
457.276	349.06
457.497	369.06
457.717	383.06
457.937	373.06
458.157	383.06
458.377	362.06
458.598	402.06
458.818	442.06
459.038	500.06
459.258	526.06
459.478	434.06
459.698	421.06
459.918	404.06
460.138	396.06
460.358	396.06
460.578	406.06
460.798	396.06
461.018	405.06
461.238	386.06
461.458	376.06
461.678	389.06
461.898	405.06
462.118	392.06
462.338	420.06
462.558	413.06
462.777	420.06
462.997	425.06
463.217	421.06
463.437	431.06
463.657	410.06
463.876	384.06
464.096	429.06
464.316	421.06
464.536	418.06
464.755	421.06
464.975	426.06
465.195	481.06
465.414	548.06
465.634	466.06
465.854	425.06
466.073	409.06
466.293	408.06
466.512	378.06
466.732	380.06
466.951	393.06
467.171	390.06
467.391	400.06
467.61	399.06
467.829	399.06
468.049	397.06
468.268	416.06
468.488	382.06
468.707	381.06
468.927	389.06
469.146	382.06
469.365	386.06
469.585	392.06
469.804	390.06
470.023	381.06
470.243	384.06
470.462	416.06
470.681	444.06
470.901	424.06
471.12	389.06
471.339	387.06
471.558	395.06
471.777	394.06
471.997	396.06
472.216	390.06
472.435	440.06
472.654	440.06
472.873	414.06
473.092	412.06
473.311	387.06
473.53	418.06
473.749	418.06
473.968	430.06
474.187	514.06
474.406	557.06
474.625	450.06
474.844	412.06
475.063	391.06
475.282	380.06
475.501	406.06
475.72	407.06
475.939	401.06
476.158	388.06
476.377	414.06
476.596	401.06
476.814	411.06
477.033	416.06
477.252	405.06
477.471	435.06
477.69	408.06
477.908	438.06
478.127	432.06
478.346	420.06
478.564	424.06
478.783	431.06
479.002	431.06
479.22	448.06
479.439	470.06
479.658	469.06
479.876	487.06
480.095	453.06
480.313	495.06
480.532	494.06
480.751	480.06
480.969	498.06
481.188	548.06
481.406	568.06
481.624	519.06
481.843	499.06
482.061	471.06
482.28	450.06
482.498	483.06
482.717	465.06
482.935	456.06
483.153	466.06
483.372	450.06
483.59	461.06
483.808	464.06
484.027	440.06
484.245	470.06
484.463	486.06
484.681	464.06
484.9	488.06
485.118	467.06
485.336	463.06
485.554	478.06
485.772	479.06
485.99	485.06
486.209	474.06
486.427	477.06
486.645	489.06
486.863	506.06
487.081	502.06
487.299	517.06
487.517	489.06
487.735	528.06
487.953	503.06
488.171	491.06
488.389	486.06
488.607	497.06
488.825	529.06
489.043	502.06
489.261	488.06
489.479	483.06
489.696	492.06
489.914	506.06
490.132	506.06
490.35	513.06
490.568	525.06
490.786	530.06
491.003	551.06
491.221	545.06
491.439	558.06
491.657	544.06
491.874	558.06
492.092	560.06
492.31	548.06
492.527	574.06
492.745	577.06
492.963	595.06
493.18	587.06
493.398	580.06
493.615	585.06
493.833	572.06
494.05	554.06
494.268	555.06
494.485	556.06
494.703	586.06
494.92	544.06
495.138	588.06
495.355	589.06
495.573	584.06
495.79	590.06
496.008	581.06
496.225	565.06
496.442	574.06
496.66	580.06
496.877	576.06
497.094	569.06
497.312	574.06
497.529	594.06
497.746	610.06
497.963	613.06
498.181	618.06
498.398	632.06
498.615	650.06
498.832	646.06
499.049	671.06
499.267	636.06
499.484	682.06
499.701	696.06
499.918	702.06
500.135	706.06
500.352	726.06
500.569	715.06
500.786	758.06
501.003	740.06
501.22	702.06
501.437	740.06
501.654	740.06
501.871	701.06
502.088	706.06
502.305	698.06
502.522	671.06
502.739	646.06
502.956	622.06
503.172	620.06
503.389	608.06
503.606	612.06
503.823	617.06
504.04	597.06
504.256	587.06
504.473	578.06
504.69	579.06
504.907	584.06
505.123	568.06
505.34	568.06
505.557	564.06
505.773	568.06
505.99	553.06
506.207	576.06
506.423	568.06
506.64	548.06
506.856	552.06
507.073	561.06
507.289	588.06
507.506	549.06
507.722	582.06
507.939	573.06
508.155	571.06
508.372	533.06
508.588	538.06
508.805	559.06
509.021	531.06
509.238	546.06
509.454	562.06
509.67	527.06
509.887	555.06
510.103	556.06
510.319	567.06
510.536	660.06
510.752	1120.06
510.968	878.06
511.184	586.06
511.401	544.06
511.617	525.06
511.833	505.06
512.049	503.06
512.265	522.06
512.481	519.06
512.698	498.06
512.914	519.06
513.13	520.06
513.346	526.06
513.562	518.06
513.778	520.06
513.994	536.06
514.21	529.06
514.426	563.06
514.642	621.06
514.858	624.06
515.074	655.06
515.29	809.06
515.506	1216.06
515.721	979.06
515.937	666.06
516.153	600.06
516.369	578.06
516.585	555.06
516.801	536.06
517.016	540.06
517.232	538.06
517.448	541.06
517.664	524.06
517.879	518.06
518.095	517.06
518.311	516.06
518.527	518.06
518.742	518.06
518.958	497.06
519.173	508.06
519.389	520.06
519.605	519.06
519.82	534.06
520.036	544.06
520.251	564.06
520.467	580.06
520.682	586.06
520.898	587.06
521.113	583.06
521.329	656.06
521.544	727.06
521.76	962.06
521.975	1596.06
522.19	1626.06
522.406	846.06
522.621	624.06
522.836	568.06
523.052	540.06
523.267	504.06
523.482	473.06
523.698	476.06
523.913	486.06
524.128	479.06
524.343	480.06
524.559	456.06
524.774	473.06
524.989	459.06
525.204	472.06
525.419	452.06
525.634	437.06
525.849	454.06
526.064	459.06
526.28	433.06
526.495	431.06
526.71	455.06
526.925	432.06
527.14	424.06
527.355	434.06
527.57	432.06
527.785	414.06
527.999	426.06
528.214	431.06
528.429	412.06
528.644	412.06
528.859	440.06
529.074	432.06
529.289	449.06
529.503	518.06
529.718	516.06
529.933	434.06
530.148	428.06
530.363	431.06
530.577	408.06
530.792	419.06
531.007	404.06
531.221	418.06
531.436	401.06
531.651	413.06
531.865	420.06
532.08	407.06
532.295	400.06
532.509	389.06
532.724	397.06
532.938	392.06
533.153	403.06
533.367	392.06
533.582	408.06
533.796	404.06
534.011	398.06
534.225	396.06
534.44	378.06
534.654	402.06
534.868	410.06
535.083	396.06
535.297	425.06
535.511	407.06
535.726	400.06
535.94	419.06
536.154	398.06
536.369	388.06
536.583	381.06
536.797	392.06
537.011	388.06
537.225	374.06
537.44	381.06
537.654	399.06
537.868	407.06
538.082	400.06
538.296	410.06
538.51	385.06
538.724	386.06
538.938	380.06
539.153	391.06
539.367	419.06
539.581	397.06
539.795	408.06
540.009	373.06
540.222	375.06
540.436	388.06
540.65	388.06
540.864	397.06
541.078	399.06
541.292	385.06
541.506	394.06
541.72	390.06
541.934	366.06
542.147	378.06
542.361	390.06
542.575	371.06
542.789	389.06
543.002	382.06
543.216	383.06
543.43	403.06
543.644	388.06
543.857	384.06
544.071	371.06
544.285	382.06
544.498	381.06
544.712	398.06
544.925	367.06
545.139	361.06
545.352	356.06
545.566	388.06
545.779	372.06
545.993	395.06
546.206	376.06
546.42	382.06
546.633	368.06
546.847	364.06
547.06	364.06
547.274	358.06
547.487	355.06
547.7	351.06
547.914	384.06
548.127	363.06
548.34	378.06
548.554	346.06
548.767	373.06
548.98	356.06
549.193	346.06
549.407	379.06
549.62	372.06
549.833	341.06
550.046	332.06
550.259	361.06
550.473	373.06
550.686	366.06
550.899	342.06
551.112	347.06
551.325	341.06
551.538	356.06
551.751	354.06
551.964	349.06
552.177	356.06
552.39	341.06
552.603	364.06
552.816	355.06
553.029	342.06
553.242	346.06
553.455	358.06
553.667	376.06
553.88	365.06
554.093	379.06
554.306	372.06
554.519	360.06
554.732	376.06
554.944	356.06
555.157	350.06
555.37	334.06
555.583	348.06
555.795	332.06
556.008	335.06
556.221	349.06
556.433	342.06
556.646	317.06
556.859	328.06
557.071	340.06
557.284	319.06
557.496	340.06
557.709	334.06
557.921	332.06
558.134	336.06
558.346	334.06
558.559	340.06
558.771	307.06
558.984	345.06
559.196	315.06
559.409	334.06
559.621	326.06
559.833	310.06
560.046	317.06
560.258	303.06
560.47	320.06
560.683	310.06
560.895	337.06
561.107	345.06
561.32	322.06
561.532	309.06
561.744	326.06
561.956	326.06
562.168	304.06
562.381	331.06
562.593	338.06
562.805	333.06
563.017	321.06
563.229	320.06
563.441	324.06
563.653	353.06
563.865	309.06
564.077	320.06
564.289	324.06
564.501	299.06
564.713	333.06
564.925	325.06
565.137	340.06
565.349	324.06
565.561	332.06
565.773	359.06
565.985	352.06
566.197	344.06
566.408	353.06
566.62	367.06
566.832	362.06
567.044	361.06
567.255	371.06
567.467	378.06
567.679	377.06
567.891	376.06
568.102	379.06
568.314	386.06
568.526	370.06
568.737	367.06
568.949	354.06
569.161	340.06
569.372	326.06
569.584	336.06
569.795	342.06
570.007	338.06
570.218	368.06
570.43	368.06
570.641	333.06
570.853	319.06
571.064	316.06
571.276	301.06
571.487	321.06
571.698	296.06
571.91	280.06
572.121	296.06
572.333	279.06
572.544	308.06
572.755	306.06
572.966	300.06
573.178	284.06
573.389	294.06
573.6	290.06
573.811	285.06
574.023	281.06
574.234	279.06
574.445	298.06
574.656	262.06
574.867	285.06
575.078	284.06
575.289	281.06
575.501	271.06
575.712	290.06
575.923	286.06
576.134	274.06
576.345	281.06
576.556	268.06
576.767	276.06
576.978	240.06
577.188	273.06
577.399	266.06
577.61	262.06
577.821	257.06
578.032	287.06
578.243	309.06
578.454	538.06
578.665	390.06
578.875	265.06
579.086	262.06
579.297	258.06
579.508	251.06
579.718	269.06
579.929	264.06
580.14	267.06
580.35	260.06
580.561	260.06
580.772	284.06
580.982	256.06
581.193	253.06
581.403	276.06
581.614	260.06
581.825	247.06
582.035	267.06
582.246	257.06
582.456	246.06
582.667	268.06
582.877	248.06
583.087	246.06
583.298	275.06
583.508	249.06
583.719	248.06
583.929	255.06
584.139	246.06
584.35	268.06
584.56	263.06
584.77	240.06
584.981	255.06
585.191	252.06
585.401	252.06
585.611	253.06
585.821	261.06
586.032	263.06
586.242	258.06
586.452	257.06
586.662	244.06
586.872	236.06
587.082	249.06
587.292	261.06
587.502	242.06
587.713	249.06
587.923	266.06
588.133	228.06
588.343	249.06
588.553	236.06
588.762	267.06
588.972	243.06
589.182	339.06
589.392	337.06
589.602	277.06
589.812	324.06
590.022	278.06
590.232	246.06
590.441	264.06
590.651	253.06
590.861	248.06
591.071	239.06
591.281	238.06
591.49	250.06
591.7	242.06
591.91	230.06
592.119	241.06
592.329	254.06
592.539	257.06
592.748	245.06
592.958	245.06
593.167	266.06
593.377	252.06
593.587	246.06
593.796	229.06
594.006	267.06
594.215	238.06
594.424	262.06
594.634	236.06
594.843	248.06
595.053	247.06
595.262	246.06
595.472	246.06
595.681	237.06
595.89	241.06
596.1	245.06
596.309	228.06
596.518	222.06
596.727	236.06
596.937	230.06
597.146	232.06
597.355	221.06
597.564	238.06
597.774	240.06
597.983	222.06
598.192	218.06
598.401	241.06
598.61	238.06
598.819	234.06
599.028	233.06
599.237	218.06
599.446	220.06
599.655	220.06
599.864	235.06
600.073	214.06
600.282	217.06
600.491	204.06
600.7	216.06
600.909	217.06
601.118	216.06
601.327	214.06
601.536	228.06
601.745	223.06
601.953	235.06
602.162	228.06
602.371	208.06
602.58	214.06
602.789	219.06
602.997	203.06
603.206	218.06
603.415	212.06
603.623	215.06
603.832	216.06
604.041	218.06
604.249	214.06
604.458	224.06
604.666	200.06
604.875	196.06
605.084	206.06
605.292	198.06
605.501	210.06
605.709	214.06
605.918	220.06
606.126	218.06
606.334	221.06
606.543	204.06
606.751	210.06
606.96	196.06
607.168	217.06
607.376	191.06
607.585	216.06
607.793	185.06
608.001	201.06
608.21	210.06
608.418	204.06
608.626	209.06
608.834	205.06
609.043	200.06
609.251	206.06
609.459	211.06
609.667	216.06
609.875	190.06
610.083	199.06
610.291	206.06
610.499	218.06
610.707	206.06
610.916	215.06
611.124	209.06
611.332	208.06
611.54	220.06
611.748	214.06
611.955	191.06
612.163	191.06
612.371	200.06
612.579	215.06
612.787	205.06
612.995	213.06
613.203	209.06
613.411	209.06
613.618	205.06
613.826	199.06
614.034	214.06
614.242	196.06
614.449	202.06
614.657	185.06
614.865	199.06
615.072	193.06
615.28	202.06
615.488	207.06
615.695	200.06
615.903	201.06
616.111	182.06
616.318	204.06
616.526	207.06
616.733	201.06
616.941	206.06
617.148	204.06
617.356	205.06
617.563	203.06
617.771	209.06
617.978	196.06
618.185	202.06
618.393	203.06
618.6	202.06
618.807	194.06
619.015	203.06
619.222	185.06
619.429	199.06
619.637	181.06
619.844	185.06
620.051	206.06
620.258	194.06
620.466	189.06
620.673	187.06
620.88	189.06
621.087	196.06
621.294	209.06
621.501	178.06
621.708	178.06
621.915	184.06
622.122	187.06
622.329	198.06
622.536	187.06
622.743	189.06
622.95	199.06
623.157	167.06
623.364	186.06
623.571	197.06
623.778	188.06
623.985	176.06
624.192	188.06
624.399	173.06
624.606	193.06
624.812	171.06
625.019	192.06
625.226	182.06
625.433	196.06
625.639	170.06
625.846	175.06
626.053	170.06
626.259	176.06
626.466	189.06
626.673	177.06
626.879	171.06
627.086	178.06
627.293	178.06
627.499	171.06
627.706	179.06
627.912	173.06
628.119	166.06
628.325	161.06
628.532	173.06
628.738	189.06
628.945	180.06
629.151	168.06
629.357	174.06
629.564	165.06
629.77	169.06
629.976	168.06
630.183	169.06
630.389	166.06
630.595	178.06
630.802	160.06
631.008	161.06
631.214	162.06
631.42	165.06
631.627	172.06
631.833	173.06
632.039	164.06
632.245	170.06
632.451	164.06
632.657	182.06
632.863	184.06
633.069	172.06
633.275	152.06
633.481	167.06
633.688	166.06
633.893	154.06
634.099	153.06
634.305	153.06
634.511	168.06
634.717	163.06
634.923	169.06
635.129	169.06
635.335	139.06
635.541	169.06
635.747	154.06
635.952	161.06
636.158	160.06
636.364	156.06
636.57	169.06
636.775	162.06
636.981	160.06
637.187	154.06
637.392	167.06
637.598	145.06
637.804	145.06
638.009	172.06
638.215	165.06
638.421	156.06
638.626	152.06
638.832	163.06
639.037	153.06
639.243	151.06
639.448	152.06
639.654	161.06
639.859	144.06
640.065	143.06
640.27	171.06
640.475	156.06
640.681	150.06
640.886	170.06
641.091	152.06
641.297	175.06
641.502	156.06
641.707	154.06
641.913	155.06
642.118	145.06
642.323	161.06
642.528	156.06
642.733	137.06
642.939	154.06
643.144	140.06
643.349	150.06
643.554	159.06
643.759	146.06
643.964	143.06
644.169	148.06
644.374	151.06
644.579	163.06
644.784	136.06
644.989	144.06
645.194	149.06
645.399	146.06
645.604	144.06
645.809	144.06
646.014	136.06
646.219	152.06
646.423	148.06
646.628	158.06
646.833	135.06
647.038	161.06
647.243	160.06
647.447	147.06
647.652	149.06
647.857	137.06
648.062	154.06
648.266	134.06
648.471	147.06
648.676	156.06
648.88	169.06
649.085	141.06
649.289	162.06
649.494	173.06
649.698	167.06
649.903	178.06
650.107	150.06
650.312	153.06
650.516	143.06
650.721	142.06
650.925	128.06
651.13	141.06
651.334	131.06
651.539	138.06
651.743	128.06
651.947	128.06
652.152	133.06
652.356	140.06
652.56	128.06
652.764	120.06
652.969	132.06
653.173	138.06
653.377	148.06
653.581	142.06
653.785	130.06
653.99	132.06
654.194	126.06
654.398	137.06
654.602	118.06
654.806	136.06
655.01	127.06
655.214	138.06
655.418	133.06
655.622	135.06
655.826	136.06
656.03	136.06
656.234	129.06
656.438	128.06
656.642	131.06
656.846	128.06
657.049	133.06
657.253	118.06
657.457	103.06
657.661	113.06
657.865	119.06
658.068	121.06
658.272	110.06
658.476	114.06
658.68	97.06
658.883	100.06
659.087	106.06
659.291	113.06
659.494	93.06
659.698	96.06
659.901	95.06
660.105	111.06
660.309	97.06
660.512	96.06
660.716	93.06
660.919	83.06
661.123	84.06
661.326	86.06
661.53	94.06
661.733	94.06
661.936	89.06
662.14	96.06
662.343	89.06
662.546	92.06
662.75	93.06
662.953	94.06
663.156	88.06
663.36	84.06
663.563	96.06
663.766	92.06
663.969	94.06
664.173	93.06
664.376	87.06
664.579	87.06
664.782	83.06
664.985	87.06
665.188	93.06
665.391	92.06
665.594	84.06
665.797	94.06
666	91.06
666.203	92.06
666.406	86.06
666.609	87.06
666.812	60.06
667.015	91.06
667.218	81.06
667.421	80.06
667.624	94.06
667.827	97.06
668.03	84.06
668.232	77.06
668.435	86.06
668.638	81.06
668.841	87.06
669.043	90.06
669.246	90.06
669.449	85.06
669.651	92.06
669.854	90.06
670.057	88.06
670.259	87.06
670.462	89.06
670.665	84.06
670.867	74.06
671.07	83.06
671.272	82.06
671.475	77.06
671.677	79.06
671.88	90.06
672.082	79.06
672.284	96.06
672.487	83.06
672.689	76.06
672.892	85.06
