Data from 1965.PennyLincolnUp.Lamp.En5.5.200Scan.071719.P1._HRD10591_14-09-43-913.txt Node
Date: Thu Jul 18 14:09:43 EDT 2019
User: cochatt
Spectrometer: HR+D1059
Trigger mode: 1
Integration Time (sec): 1.000000E-1
Scans to average: 1
Electric dark correction enabled: true
Nonlinearity correction enabled: false
Boxcar width: 0
XAxis mode: Wavelengths
Number of Pixels in Spectrum: 2048
>>>>>Begin Spectral Data<<<<<
223.165	-29.12
223.4	-29.12
223.635	-29.12
223.869	-11.12
224.104	-9.12
224.338	-5.12
224.573	-8.12
224.808	-20.12
225.042	-5.12
225.277	-13.12
225.511	-13.12
225.746	2.88
225.98	15.88
226.215	18.88
226.449	10.88
226.683	10.88
226.918	31.88
227.152	22.88
227.387	27.88
227.621	36.88
227.856	50.88
228.09	49.88
228.324	53.88
228.559	56.88
228.793	54.88
229.027	89.88
229.262	100.88
229.496	112.88
229.73	119.88
229.964	143.88
230.199	122.88
230.433	110.88
230.667	93.88
230.901	96.88
231.136	102.88
231.37	107.88
231.604	114.88
231.838	105.88
232.072	102.88
232.306	100.88
232.541	107.88
232.775	112.88
233.009	117.88
233.243	108.88
233.477	124.88
233.711	102.88
233.945	105.88
234.179	118.88
234.413	121.88
234.647	100.88
234.881	102.88
235.115	112.88
235.349	107.88
235.583	132.88
235.817	112.88
236.051	124.88
236.285	129.88
236.519	110.88
236.753	130.88
236.987	146.88
237.221	188.88
237.455	207.88
237.689	172.88
237.922	141.88
238.156	121.88
238.39	128.88
238.624	133.88
238.858	130.88
239.091	123.88
239.325	112.88
239.559	118.88
239.793	122.88
240.027	126.88
240.26	119.88
240.494	126.88
240.728	150.88
240.961	143.88
241.195	141.88
241.429	113.88
241.662	136.88
241.896	128.88
242.13	143.88
242.363	117.88
242.597	121.88
242.83	124.88
243.064	130.88
243.298	124.88
243.531	117.88
243.765	122.88
243.998	130.88
244.232	127.88
244.465	124.88
244.699	124.88
244.932	138.88
245.166	139.88
245.399	122.88
245.633	126.88
245.866	135.88
246.099	127.88
246.333	127.88
246.566	117.88
246.8	132.88
247.033	147.88
247.266	132.88
247.5	126.88
247.733	145.88
247.966	164.88
248.2	152.88
248.433	157.88
248.666	153.88
248.899	178.88
249.133	185.88
249.366	195.88
249.599	188.88
249.832	165.88
250.066	154.88
250.299	180.88
250.532	157.88
250.765	206.88
250.998	197.88
251.231	211.88
251.465	189.88
251.698	178.88
251.931	181.88
252.164	177.88
252.397	187.88
252.63	172.88
252.863	196.88
253.096	184.88
253.329	194.88
253.562	199.88
253.795	184.88
254.028	198.88
254.261	189.88
254.494	194.88
254.727	250.88
254.96	272.88
255.193	250.88
255.426	235.88
255.659	196.88
255.892	218.88
256.124	236.88
256.357	198.88
256.59	213.88
256.823	196.88
257.056	192.88
257.289	196.88
257.521	184.88
257.754	194.88
257.987	187.88
258.22	198.88
258.452	190.88
258.685	179.88
258.918	180.88
259.151	188.88
259.383	195.88
259.616	207.88
259.849	204.88
260.081	200.88
260.314	232.88
260.547	224.88
260.779	219.88
261.012	205.88
261.244	184.88
261.477	198.88
261.71	207.88
261.942	203.88
262.175	206.88
262.407	210.88
262.64	211.88
262.872	182.88
263.105	184.88
263.337	189.88
263.57	176.88
263.802	192.88
264.035	205.88
264.267	199.88
264.499	192.88
264.732	188.88
264.964	182.88
265.197	182.88
265.429	201.88
265.661	192.88
265.894	194.88
266.126	194.88
266.358	197.88
266.591	197.88
266.823	196.88
267.055	196.88
267.287	201.88
267.52	185.88
267.752	198.88
267.984	198.88
268.216	204.88
268.448	208.88
268.681	213.88
268.913	216.88
269.145	234.88
269.377	255.88
269.609	265.88
269.841	233.88
270.073	244.88
270.306	260.88
270.538	291.88
270.77	275.88
271.002	273.88
271.234	267.88
271.466	280.88
271.698	276.88
271.93	280.88
272.162	285.88
272.394	282.88
272.626	274.88
272.858	267.88
273.09	260.88
273.322	258.88
273.553	232.88
273.785	245.88
274.017	246.88
274.249	251.88
274.481	234.88
274.713	234.88
274.945	235.88
275.176	235.88
275.408	244.88
275.64	225.88
275.872	245.88
276.104	244.88
276.335	228.88
276.567	246.88
276.799	249.88
277.031	268.88
277.262	294.88
277.494	284.88
277.726	272.88
277.957	246.88
278.189	261.88
278.421	243.88
278.652	252.88
278.884	248.88
279.115	234.88
279.347	247.88
279.579	218.88
279.81	247.88
280.042	247.88
280.273	218.88
280.505	237.88
280.736	225.88
280.968	249.88
281.199	237.88
281.431	238.88
281.662	249.88
281.894	234.88
282.125	235.88
282.356	257.88
282.588	280.88
282.819	279.88
283.051	260.88
283.282	236.88
283.513	249.88
283.745	245.88
283.976	233.88
284.207	244.88
284.439	264.88
284.67	258.88
284.901	238.88
285.132	234.88
285.364	239.88
285.595	260.88
285.826	241.88
286.057	255.88
286.288	259.88
286.52	265.88
286.751	236.88
286.982	264.88
287.213	237.88
287.444	262.88
287.675	267.88
287.906	265.88
288.138	267.88
288.369	266.88
288.6	259.88
288.831	256.88
289.062	261.88
289.293	259.88
289.524	248.88
289.755	242.88
289.986	256.88
290.217	248.88
290.448	247.88
290.679	250.88
290.91	261.88
291.141	255.88
291.371	243.88
291.602	247.88
291.833	253.88
292.064	264.88
292.295	249.88
292.526	245.88
292.757	241.88
292.987	248.88
293.218	248.88
293.449	262.88
293.68	251.88
293.91	251.88
294.141	241.88
294.372	234.88
294.603	237.88
294.833	245.88
295.064	256.88
295.295	262.88
295.525	246.88
295.756	253.88
295.987	241.88
296.217	293.88
296.448	289.88
296.679	249.88
296.909	262.88
297.14	240.88
297.37	254.88
297.601	263.88
297.831	255.88
298.062	274.88
298.292	260.88
298.523	241.88
298.753	264.88
298.984	278.88
299.214	260.88
299.445	285.88
299.675	273.88
299.905	285.88
300.136	283.88
300.366	269.88
300.597	269.88
300.827	275.88
301.057	283.88
301.288	289.88
301.518	289.88
301.748	277.88
301.979	282.88
302.209	284.88
302.439	299.88
302.669	276.88
302.9	290.88
303.13	287.88
303.36	277.88
303.59	307.88
303.82	292.88
304.051	287.88
304.281	288.88
304.511	286.88
304.741	288.88
304.971	292.88
305.201	281.88
305.431	260.88
305.661	280.88
305.891	293.88
306.121	298.88
306.352	299.88
306.582	318.88
306.812	281.88
307.042	294.88
307.272	295.88
307.502	310.88
307.731	301.88
307.961	291.88
308.191	318.88
308.421	296.88
308.651	309.88
308.881	308.88
309.111	308.88
309.341	310.88
309.571	315.88
309.8	333.88
310.03	332.88
310.26	336.88
310.49	335.88
310.72	347.88
310.949	360.88
311.179	356.88
311.409	327.88
311.639	356.88
311.868	352.88
312.098	347.88
312.328	349.88
312.557	370.88
312.787	362.88
313.017	372.88
313.246	364.88
313.476	339.88
313.706	342.88
313.935	345.88
314.165	351.88
314.394	360.88
314.624	357.88
314.853	339.88
315.083	329.88
315.312	357.88
315.542	333.88
315.771	349.88
316.001	349.88
316.23	357.88
316.46	327.88
316.689	328.88
316.919	337.88
317.148	356.88
317.377	360.88
317.607	344.88
317.836	343.88
318.065	326.88
318.295	340.88
318.524	334.88
318.753	336.88
318.983	340.88
319.212	334.88
319.441	342.88
319.67	363.88
319.9	330.88
320.129	333.88
320.358	363.88
320.587	344.88
320.816	356.88
321.046	386.88
321.275	363.88
321.504	372.88
321.733	349.88
321.962	362.88
322.191	376.88
322.42	398.88
322.649	415.88
322.878	429.88
323.108	427.88
323.337	453.88
323.566	477.88
323.795	516.88
324.024	540.88
324.253	667.88
324.482	1019.88
324.71	1539.88
324.939	2130.88
325.168	1762.88
325.397	928.88
325.626	628.88
325.855	554.88
326.084	493.88
326.313	480.88
326.542	492.88
326.77	548.88
326.999	644.88
327.228	888.88
327.457	1380.88
327.686	1568.88
327.914	1054.88
328.143	725.88
328.372	618.88
328.6	587.88
328.829	534.88
329.058	572.88
329.287	569.88
329.515	539.88
329.744	476.88
329.972	486.88
330.201	493.88
330.43	545.88
330.658	539.88
330.887	596.88
331.115	576.88
331.344	504.88
331.572	456.88
331.801	430.88
332.03	461.88
332.258	432.88
332.486	428.88
332.715	413.88
332.943	412.88
333.172	413.88
333.4	416.88
333.629	422.88
333.857	426.88
334.085	460.88
334.314	457.88
334.542	495.88
334.771	501.88
334.999	462.88
335.227	419.88
335.455	417.88
335.684	379.88
335.912	391.88
336.14	390.88
336.369	379.88
336.597	398.88
336.825	393.88
337.053	388.88
337.281	376.88
337.51	381.88
337.738	413.88
337.966	367.88
338.194	376.88
338.422	414.88
338.65	378.88
338.878	382.88
339.106	382.88
339.334	377.88
339.562	378.88
339.79	380.88
340.018	370.88
340.246	372.88
340.474	384.88
340.702	374.88
340.93	356.88
341.158	372.88
341.386	390.88
341.614	400.88
341.842	385.88
342.07	349.88
342.298	376.88
342.526	380.88
342.754	368.88
342.981	373.88
343.209	364.88
343.437	362.88
343.665	363.88
343.893	382.88
344.12	356.88
344.348	370.88
344.576	373.88
344.804	372.88
345.031	408.88
345.259	406.88
345.487	398.88
345.714	380.88
345.942	370.88
346.17	357.88
346.397	374.88
346.625	370.88
346.853	355.88
347.08	362.88
347.308	370.88
347.535	392.88
347.763	383.88
347.99	380.88
348.218	382.88
348.445	394.88
348.673	372.88
348.9	378.88
349.128	386.88
349.355	366.88
349.583	354.88
349.81	360.88
350.037	339.88
350.265	352.88
350.492	360.88
350.72	361.88
350.947	368.88
351.174	376.88
351.402	388.88
351.629	396.88
351.856	366.88
352.083	391.88
352.311	395.88
352.538	389.88
352.765	390.88
352.992	405.88
353.22	370.88
353.447	369.88
353.674	370.88
353.901	358.88
354.128	340.88
354.355	338.88
354.583	340.88
354.81	348.88
355.037	333.88
355.264	325.88
355.491	323.88
355.718	317.88
355.945	344.88
356.172	331.88
356.399	327.88
356.626	336.88
356.853	350.88
357.08	323.88
357.307	338.88
357.534	341.88
357.761	350.88
357.988	345.88
358.215	344.88
358.441	327.88
358.668	355.88
358.895	360.88
359.122	346.88
359.349	356.88
359.576	372.88
359.802	386.88
360.029	426.88
360.256	429.88
360.483	414.88
360.709	380.88
360.936	385.88
361.163	368.88
361.39	378.88
361.616	384.88
361.843	374.88
362.07	372.88
362.296	373.88
362.523	380.88
362.749	372.88
362.976	371.88
363.203	365.88
363.429	344.88
363.656	346.88
363.882	351.88
364.109	363.88
364.335	356.88
364.562	349.88
364.788	335.88
365.015	363.88
365.241	340.88
365.468	357.88
365.694	362.88
365.92	350.88
366.147	338.88
366.373	350.88
366.599	350.88
366.826	350.88
367.052	346.88
367.278	354.88
367.505	353.88
367.731	357.88
367.957	354.88
368.184	349.88
368.41	359.88
368.636	355.88
368.862	360.88
369.089	353.88
369.315	328.88
369.541	340.88
369.767	347.88
369.993	346.88
370.219	365.88
370.445	365.88
370.672	332.88
370.898	343.88
371.124	323.88
371.35	354.88
371.576	347.88
371.802	340.88
372.028	328.88
372.254	339.88
372.48	338.88
372.706	343.88
372.932	347.88
373.158	332.88
373.384	344.88
373.61	360.88
373.835	352.88
374.061	346.88
374.287	328.88
374.513	350.88
374.739	360.88
374.965	346.88
375.191	359.88
375.416	349.88
375.642	353.88
375.868	350.88
376.094	351.88
376.319	338.88
376.545	346.88
376.771	336.88
376.997	331.88
377.222	359.88
377.448	347.88
377.674	332.88
377.899	334.88
378.125	342.88
378.35	356.88
378.576	341.88
378.802	344.88
379.027	340.88
379.253	332.88
379.478	335.88
379.704	330.88
379.929	346.88
380.155	348.88
380.38	339.88
380.606	320.88
380.831	361.88
381.057	343.88
381.282	328.88
381.507	352.88
381.733	336.88
381.958	346.88
382.184	343.88
382.409	339.88
382.634	347.88
382.86	359.88
383.085	355.88
383.31	345.88
383.535	364.88
383.761	364.88
383.986	346.88
384.211	345.88
384.436	345.88
384.662	360.88
384.887	359.88
385.112	362.88
385.337	348.88
385.562	354.88
385.787	380.88
386.013	380.88
386.238	386.88
386.463	409.88
386.688	353.88
386.913	354.88
387.138	363.88
387.363	348.88
387.588	355.88
387.813	361.88
388.038	361.88
388.263	365.88
388.488	385.88
388.713	368.88
388.938	372.88
389.163	376.88
389.387	383.88
389.612	352.88
389.837	363.88
390.062	376.88
390.287	388.88
390.512	383.88
390.736	376.88
390.961	373.88
391.186	355.88
391.411	346.88
391.636	360.88
391.86	369.88
392.085	377.88
392.31	368.88
392.534	369.88
392.759	377.88
392.984	371.88
393.208	380.88
393.433	362.88
393.658	361.88
393.882	362.88
394.107	357.88
394.331	364.88
394.556	376.88
394.78	368.88
395.005	387.88
395.229	366.88
395.454	388.88
395.678	375.88
395.903	374.88
396.127	416.88
396.352	427.88
396.576	384.88
396.801	377.88
397.025	366.88
397.249	363.88
397.474	389.88
397.698	390.88
397.922	395.88
398.147	400.88
398.371	422.88
398.595	422.88
398.82	441.88
399.044	423.88
399.268	413.88
399.492	441.88
399.717	460.88
399.941	478.88
400.165	494.88
400.389	501.88
400.613	470.88
400.837	437.88
401.062	428.88
401.286	433.88
401.51	409.88
401.734	421.88
401.958	406.88
402.182	418.88
402.406	412.88
402.63	422.88
402.854	430.88
403.078	418.88
403.302	403.88
403.526	426.88
403.75	437.88
403.974	451.88
404.198	421.88
404.422	435.88
404.645	461.88
404.869	444.88
405.093	478.88
405.317	489.88
405.541	510.88
405.765	476.88
405.988	444.88
406.212	450.88
406.436	473.88
406.66	513.88
406.883	484.88
407.107	492.88
407.331	526.88
407.555	557.88
407.778	573.88
408.002	541.88
408.226	459.88
408.449	469.88
408.673	474.88
408.896	524.88
409.12	520.88
409.344	506.88
409.567	464.88
409.791	456.88
410.014	419.88
410.238	450.88
410.461	441.88
410.685	421.88
410.908	432.88
411.132	456.88
411.355	514.88
411.578	470.88
411.802	461.88
412.025	445.88
412.249	426.88
412.472	454.88
412.695	469.88
412.919	492.88
413.142	448.88
413.365	424.88
413.589	450.88
413.812	435.88
414.035	426.88
414.258	408.88
414.482	420.88
414.705	416.88
414.928	422.88
415.151	402.88
415.374	413.88
415.597	413.88
415.821	414.88
416.044	422.88
416.267	415.88
416.49	391.88
416.713	399.88
416.936	394.88
417.159	416.88
417.382	417.88
417.605	404.88
417.828	425.88
418.051	437.88
418.274	422.88
418.497	394.88
418.72	417.88
418.943	393.88
419.166	403.88
419.389	436.88
419.611	422.88
419.834	441.88
420.057	432.88
420.28	439.88
420.503	426.88
420.726	448.88
420.948	425.88
421.171	473.88
421.394	477.88
421.617	461.88
421.839	413.88
422.062	444.88
422.285	460.88
422.507	499.88
422.73	548.88
422.953	524.88
423.175	471.88
423.398	450.88
423.621	438.88
423.843	459.88
424.066	449.88
424.288	466.88
424.511	485.88
424.733	523.88
424.956	589.88
425.178	587.88
425.401	546.88
425.623	556.88
425.846	502.88
426.068	454.88
426.291	472.88
426.513	483.88
426.735	473.88
426.958	508.88
427.18	598.88
427.402	696.88
427.625	778.88
427.847	697.88
428.069	557.88
428.292	520.88
428.514	479.88
428.736	448.88
428.958	449.88
429.181	414.88
429.403	430.88
429.625	458.88
429.847	477.88
430.069	542.88
430.292	514.88
430.514	446.88
430.736	425.88
430.958	414.88
431.18	412.88
431.402	398.88
431.624	414.88
431.846	398.88
432.068	403.88
432.29	400.88
432.512	406.88
432.734	412.88
432.956	404.88
433.178	430.88
433.4	412.88
433.622	413.88
433.844	418.88
434.066	420.88
434.287	402.88
434.509	410.88
434.731	405.88
434.953	438.88
435.175	433.88
435.397	460.88
435.618	459.88
435.84	511.88
436.062	600.88
436.284	621.88
436.505	548.88
436.727	469.88
436.949	457.88
437.17	441.88
437.392	439.88
437.614	451.88
437.835	505.88
438.057	589.88
438.278	653.88
438.5	653.88
438.721	723.88
438.943	660.88
439.165	553.88
439.386	490.88
439.608	498.88
439.829	477.88
440.05	515.88
440.272	553.88
440.493	513.88
440.715	483.88
440.936	462.88
441.158	446.88
441.379	445.88
441.6	469.88
441.822	471.88
442.043	480.88
442.264	592.88
442.486	631.88
442.707	516.88
442.928	498.88
443.149	502.88
443.371	510.88
443.592	570.88
443.813	630.88
444.034	668.88
444.255	541.88
444.476	497.88
444.698	493.88
444.919	471.88
445.14	590.88
445.361	552.88
445.582	518.88
445.803	564.88
446.024	664.88
446.245	664.88
446.466	590.88
446.687	530.88
446.908	504.88
447.129	449.88
447.35	452.88
447.571	458.88
447.792	425.88
448.013	439.88
448.234	440.88
448.455	490.88
448.675	620.88
448.896	667.88
449.117	576.88
449.338	572.88
449.559	649.88
449.779	710.88
450	582.88
450.221	501.88
450.442	447.88
450.662	438.88
450.883	444.88
451.104	458.88
451.324	451.88
451.545	442.88
451.766	424.88
451.986	397.88
452.207	407.88
452.428	409.88
452.648	421.88
452.869	434.88
453.089	410.88
453.31	420.88
453.53	407.88
453.751	397.88
453.971	414.88
454.192	418.88
454.412	414.88
454.633	402.88
454.853	421.88
455.073	398.88
455.294	434.88
455.514	473.88
455.734	474.88
455.955	392.88
456.175	368.88
456.395	386.88
456.616	384.88
456.836	383.88
457.056	372.88
457.276	349.88
457.497	376.88
457.717	378.88
457.937	370.88
458.157	381.88
458.377	394.88
458.598	434.88
458.818	496.88
459.038	569.88
459.258	555.88
459.478	480.88
459.698	438.88
459.918	410.88
460.138	399.88
460.358	400.88
460.578	420.88
460.798	413.88
461.018	408.88
461.238	396.88
461.458	420.88
461.678	400.88
461.898	410.88
462.118	418.88
462.338	429.88
462.558	412.88
462.777	417.88
462.997	415.88
463.217	427.88
463.437	438.88
463.657	446.88
463.876	437.88
464.096	424.88
464.316	447.88
464.536	470.88
464.755	474.88
464.975	467.88
465.195	497.88
465.414	595.88
465.634	498.88
465.854	426.88
466.073	416.88
466.293	414.88
466.512	402.88
466.732	418.88
466.951	413.88
467.171	398.88
467.391	410.88
467.61	410.88
467.829	428.88
468.049	419.88
468.268	416.88
468.488	406.88
468.707	392.88
468.927	395.88
469.146	392.88
469.365	381.88
469.585	371.88
469.804	408.88
470.023	393.88
470.243	410.88
470.462	391.88
470.681	428.88
470.901	432.88
471.12	428.88
471.339	414.88
471.558	438.88
471.777	392.88
471.997	398.88
472.216	401.88
472.435	456.88
472.654	447.88
472.873	426.88
473.092	391.88
473.311	419.88
473.53	414.88
473.749	427.88
473.968	471.88
474.187	546.88
474.406	554.88
474.625	490.88
474.844	419.88
475.063	395.88
475.282	425.88
475.501	419.88
475.72	427.88
475.939	416.88
476.158	402.88
476.377	429.88
476.596	432.88
476.814	440.88
477.033	436.88
477.252	454.88
477.471	413.88
477.69	436.88
477.908	431.88
478.127	442.88
478.346	449.88
478.564	459.88
478.783	444.88
479.002	440.88
479.22	452.88
479.439	470.88
479.658	518.88
479.876	511.88
480.095	501.88
480.313	520.88
480.532	517.88
480.751	507.88
480.969	525.88
481.188	584.88
481.406	634.88
481.624	530.88
481.843	516.88
482.061	490.88
482.28	506.88
482.498	458.88
482.717	469.88
482.935	488.88
483.153	478.88
483.372	490.88
483.59	480.88
483.808	486.88
484.027	468.88
484.245	492.88
484.463	490.88
484.681	492.88
484.9	492.88
485.118	502.88
485.336	496.88
485.554	496.88
485.772	498.88
485.99	505.88
486.209	527.88
486.427	529.88
486.645	502.88
486.863	530.88
487.081	533.88
487.299	528.88
487.517	507.88
487.735	513.88
487.953	518.88
488.171	507.88
488.389	531.88
488.607	523.88
488.825	550.88
489.043	518.88
489.261	539.88
489.479	523.88
489.696	510.88
489.914	506.88
490.132	525.88
490.35	536.88
490.568	552.88
490.786	565.88
491.003	547.88
491.221	589.88
491.439	607.88
491.657	579.88
491.874	581.88
492.092	616.88
492.31	589.88
492.527	599.88
492.745	602.88
492.963	589.88
493.18	582.88
493.398	607.88
493.615	606.88
493.833	624.88
494.05	634.88
494.268	615.88
494.485	592.88
494.703	599.88
494.92	613.88
495.138	608.88
495.355	603.88
495.573	593.88
495.79	606.88
496.008	601.88
496.225	634.88
496.442	605.88
496.66	625.88
496.877	610.88
497.094	629.88
497.312	640.88
497.529	603.88
497.746	632.88
497.963	633.88
498.181	664.88
498.398	658.88
498.615	658.88
498.832	683.88
499.049	675.88
499.267	698.88
499.484	714.88
499.701	724.88
499.918	718.88
500.135	762.88
500.352	742.88
500.569	761.88
500.786	796.88
501.003	765.88
501.22	753.88
501.437	754.88
501.654	754.88
501.871	758.88
502.088	771.88
502.305	690.88
502.522	668.88
502.739	662.88
502.956	649.88
503.172	642.88
503.389	648.88
503.606	668.88
503.823	658.88
504.04	637.88
504.256	624.88
504.473	608.88
504.69	628.88
504.907	612.88
505.123	613.88
505.34	586.88
505.557	617.88
505.773	598.88
505.99	604.88
506.207	606.88
506.423	579.88
506.64	589.88
506.856	562.88
507.073	548.88
507.289	570.88
507.506	577.88
507.722	607.88
507.939	627.88
508.155	608.88
508.372	562.88
508.588	541.88
508.805	566.88
509.021	560.88
509.238	545.88
509.454	599.88
509.67	576.88
509.887	566.88
510.103	571.88
510.319	580.88
510.536	700.88
510.752	1210.88
510.968	956.88
511.184	611.88
511.401	579.88
511.617	561.88
511.833	539.88
512.049	551.88
512.265	555.88
512.481	534.88
512.698	530.88
512.914	546.88
513.13	533.88
513.346	534.88
513.562	517.88
513.778	537.88
513.994	550.88
514.21	556.88
514.426	610.88
514.642	638.88
514.858	669.88
515.074	728.88
515.29	896.88
515.506	1334.88
515.721	1052.88
515.937	673.88
516.153	641.88
516.369	582.88
516.585	597.88
516.801	566.88
517.016	566.88
517.232	540.88
517.448	556.88
517.664	561.88
517.879	562.88
518.095	560.88
518.311	572.88
518.527	560.88
518.742	526.88
518.958	538.88
519.173	533.88
519.389	534.88
519.605	533.88
519.82	550.88
520.036	593.88
520.251	596.88
520.467	609.88
520.682	621.88
520.898	640.88
521.113	638.88
521.329	696.88
521.544	834.88
521.76	1058.88
521.975	1766.88
522.19	1742.88
522.406	929.88
522.621	674.88
522.836	597.88
523.052	535.88
523.267	550.88
523.482	518.88
523.698	526.88
523.913	514.88
524.128	500.88
524.343	498.88
524.559	480.88
524.774	472.88
524.989	461.88
525.204	488.88
525.419	476.88
525.634	463.88
525.849	446.88
526.064	452.88
526.28	457.88
526.495	467.88
526.71	450.88
526.925	447.88
527.14	440.88
527.355	440.88
527.57	459.88
527.785	440.88
527.999	439.88
528.214	432.88
528.429	442.88
528.644	449.88
528.859	457.88
529.074	444.88
529.289	465.88
529.503	585.88
529.718	543.88
529.933	474.88
530.148	459.88
530.363	439.88
530.577	449.88
530.792	434.88
531.007	428.88
531.221	417.88
531.436	437.88
531.651	438.88
531.865	401.88
532.08	409.88
532.295	415.88
532.509	407.88
532.724	414.88
532.938	409.88
533.153	415.88
533.367	422.88
533.582	411.88
533.796	426.88
534.011	406.88
534.225	406.88
534.44	389.88
534.654	419.88
534.868	402.88
535.083	414.88
535.297	415.88
535.511	426.88
535.726	417.88
535.94	426.88
536.154	416.88
536.369	421.88
536.583	403.88
536.797	421.88
537.011	397.88
537.225	388.88
537.44	400.88
537.654	397.88
537.868	402.88
538.082	418.88
538.296	388.88
538.51	396.88
538.724	402.88
538.938	410.88
539.153	397.88
539.367	422.88
539.581	402.88
539.795	425.88
540.009	392.88
540.222	398.88
540.436	394.88
540.65	391.88
540.864	380.88
541.078	407.88
541.292	406.88
541.506	412.88
541.72	411.88
541.934	393.88
542.147	411.88
542.361	390.88
542.575	398.88
542.789	388.88
543.002	389.88
543.216	402.88
543.43	403.88
543.644	402.88
543.857	394.88
544.071	385.88
544.285	398.88
544.498	390.88
544.712	387.88
544.925	361.88
545.139	384.88
545.352	388.88
545.566	388.88
545.779	389.88
545.993	376.88
546.206	378.88
546.42	398.88
546.633	377.88
546.847	380.88
547.06	370.88
547.274	375.88
547.487	368.88
547.7	365.88
547.914	386.88
548.127	362.88
548.34	388.88
548.554	362.88
548.767	374.88
548.98	386.88
549.193	366.88
549.407	364.88
549.62	363.88
549.833	355.88
550.046	352.88
550.259	380.88
550.473	371.88
550.686	352.88
550.899	353.88
551.112	378.88
551.325	386.88
551.538	361.88
551.751	362.88
551.964	370.88
552.177	352.88
552.39	364.88
552.603	381.88
552.816	374.88
553.029	360.88
553.242	380.88
553.455	370.88
553.667	384.88
553.88	399.88
554.093	368.88
554.306	356.88
554.519	378.88
554.732	361.88
554.944	351.88
555.157	363.88
555.37	345.88
555.583	347.88
555.795	355.88
556.008	346.88
556.221	346.88
556.433	361.88
556.646	352.88
556.859	357.88
557.071	313.88
557.284	328.88
557.496	348.88
557.709	330.88
557.921	334.88
558.134	329.88
558.346	331.88
558.559	324.88
558.771	344.88
558.984	337.88
559.196	341.88
559.409	345.88
559.621	332.88
559.833	341.88
560.046	310.88
560.258	329.88
560.47	318.88
560.683	326.88
560.895	331.88
561.107	338.88
561.32	314.88
561.532	314.88
561.744	323.88
561.956	335.88
562.168	343.88
562.381	334.88
562.593	352.88
562.805	337.88
563.017	332.88
563.229	336.88
563.441	323.88
563.653	328.88
563.865	334.88
564.077	328.88
564.289	345.88
564.501	340.88
564.713	344.88
564.925	351.88
565.137	358.88
565.349	349.88
565.561	369.88
565.773	372.88
565.985	350.88
566.197	344.88
566.408	359.88
566.62	355.88
566.832	390.88
567.044	386.88
567.255	365.88
567.467	392.88
567.679	360.88
567.891	380.88
568.102	378.88
568.314	383.88
568.526	363.88
568.737	354.88
568.949	350.88
569.161	351.88
569.372	327.88
569.584	331.88
569.795	335.88
570.007	332.88
570.218	387.88
570.43	354.88
570.641	301.88
570.853	320.88
571.064	325.88
571.276	308.88
571.487	305.88
571.698	302.88
571.91	305.88
572.121	288.88
572.333	296.88
572.544	304.88
572.755	299.88
572.966	293.88
573.178	306.88
573.389	290.88
573.6	293.88
573.811	297.88
574.023	288.88
574.234	291.88
574.445	283.88
574.656	294.88
574.867	294.88
575.078	280.88
575.289	293.88
575.501	294.88
575.712	284.88
575.923	286.88
576.134	273.88
576.345	283.88
576.556	289.88
576.767	275.88
576.978	280.88
577.188	291.88
577.399	297.88
577.61	273.88
577.821	284.88
578.032	302.88
578.243	315.88
578.454	572.88
578.665	406.88
578.875	299.88
579.086	287.88
579.297	277.88
579.508	277.88
579.718	282.88
579.929	280.88
580.14	276.88
580.35	301.88
580.561	283.88
580.772	269.88
580.982	261.88
581.193	251.88
581.403	262.88
581.614	256.88
581.825	239.88
582.035	265.88
582.246	248.88
582.456	276.88
582.667	262.88
582.877	267.88
583.087	261.88
583.298	261.88
583.508	260.88
583.719	248.88
583.929	268.88
584.139	240.88
584.35	248.88
584.56	266.88
584.77	264.88
584.981	237.88
585.191	254.88
585.401	266.88
585.611	256.88
585.821	249.88
586.032	256.88
586.242	260.88
586.452	264.88
586.662	247.88
586.872	247.88
587.082	248.88
587.292	235.88
587.502	251.88
587.713	255.88
587.923	247.88
588.133	232.88
588.343	258.88
588.553	240.88
588.762	244.88
588.972	273.88
589.182	313.88
589.392	296.88
589.602	255.88
589.812	274.88
590.022	269.88
590.232	248.88
590.441	256.88
590.651	249.88
590.861	240.88
591.071	256.88
591.281	253.88
591.49	241.88
591.7	254.88
591.91	253.88
592.119	257.88
592.329	251.88
592.539	274.88
592.748	252.88
592.958	251.88
593.167	244.88
593.377	246.88
593.587	259.88
593.796	271.88
594.006	276.88
594.215	251.88
594.424	256.88
594.634	266.88
594.843	254.88
595.053	237.88
595.262	237.88
595.472	219.88
595.681	224.88
595.89	242.88
596.1	244.88
596.309	248.88
596.518	234.88
596.727	217.88
596.937	238.88
597.146	245.88
597.355	243.88
597.564	226.88
597.774	228.88
597.983	221.88
598.192	255.88
598.401	230.88
598.61	219.88
598.819	233.88
599.028	220.88
599.237	234.88
599.446	214.88
599.655	221.88
599.864	222.88
600.073	213.88
600.282	212.88
600.491	200.88
600.7	207.88
600.909	223.88
601.118	237.88
601.327	222.88
601.536	212.88
601.745	232.88
601.953	217.88
602.162	219.88
602.371	203.88
602.58	218.88
602.789	222.88
602.997	210.88
603.206	222.88
603.415	217.88
603.623	208.88
603.832	210.88
604.041	217.88
604.249	205.88
604.458	208.88
604.666	219.88
604.875	216.88
605.084	204.88
605.292	216.88
605.501	207.88
605.709	227.88
605.918	208.88
606.126	206.88
606.334	204.88
606.543	207.88
606.751	213.88
606.96	215.88
607.168	217.88
607.376	201.88
607.585	223.88
607.793	219.88
608.001	212.88
608.21	217.88
608.418	206.88
608.626	222.88
608.834	202.88
609.043	209.88
609.251	223.88
609.459	198.88
609.667	202.88
609.875	203.88
610.083	206.88
610.291	197.88
610.499	218.88
610.707	203.88
610.916	210.88
611.124	212.88
611.332	210.88
611.54	213.88
611.748	224.88
611.955	210.88
612.163	221.88
612.371	203.88
612.579	197.88
612.787	214.88
612.995	209.88
613.203	218.88
613.411	215.88
613.618	206.88
613.826	213.88
614.034	210.88
614.242	211.88
614.449	218.88
614.657	203.88
614.865	203.88
615.072	206.88
615.28	214.88
615.488	204.88
615.695	208.88
615.903	209.88
616.111	222.88
616.318	208.88
616.526	222.88
616.733	209.88
616.941	189.88
617.148	205.88
617.356	208.88
617.563	195.88
617.771	209.88
617.978	206.88
618.185	196.88
618.393	187.88
618.6	221.88
618.807	195.88
619.015	182.88
619.222	196.88
619.429	194.88
619.637	198.88
619.844	193.88
620.051	191.88
620.258	191.88
620.466	182.88
620.673	187.88
620.88	179.88
621.087	188.88
621.294	194.88
621.501	203.88
621.708	196.88
621.915	183.88
622.122	186.88
622.329	176.88
622.536	193.88
622.743	189.88
622.95	186.88
623.157	183.88
623.364	194.88
623.571	194.88
623.778	200.88
623.985	167.88
624.192	178.88
624.399	180.88
624.606	194.88
624.812	202.88
625.019	190.88
625.226	181.88
625.433	189.88
625.639	189.88
625.846	173.88
626.053	167.88
626.259	182.88
626.466	162.88
626.673	196.88
626.879	170.88
627.086	188.88
627.293	187.88
627.499	178.88
627.706	186.88
627.912	171.88
628.119	190.88
628.325	181.88
628.532	189.88
628.738	177.88
628.945	176.88
629.151	181.88
629.357	183.88
629.564	190.88
629.77	185.88
629.976	176.88
630.183	158.88
630.389	174.88
630.595	184.88
630.802	171.88
631.008	162.88
631.214	173.88
631.42	173.88
631.627	172.88
631.833	166.88
632.039	177.88
632.245	169.88
632.451	155.88
632.657	167.88
632.863	164.88
633.069	166.88
633.275	164.88
633.481	177.88
633.688	148.88
633.893	166.88
634.099	164.88
634.305	160.88
634.511	147.88
634.717	165.88
634.923	176.88
635.129	163.88
635.335	168.88
635.541	178.88
635.747	154.88
635.952	161.88
636.158	139.88
636.364	164.88
636.57	167.88
636.775	162.88
636.981	152.88
637.187	160.88
637.392	161.88
637.598	177.88
637.804	165.88
638.009	178.88
638.215	157.88
638.421	152.88
638.626	162.88
638.832	157.88
639.037	153.88
639.243	150.88
639.448	156.88
639.654	162.88
639.859	150.88
640.065	159.88
640.27	148.88
640.475	154.88
640.681	168.88
640.886	148.88
641.091	148.88
641.297	155.88
641.502	156.88
641.707	161.88
641.913	160.88
642.118	145.88
642.323	140.88
642.528	148.88
642.733	165.88
642.939	143.88
643.144	150.88
643.349	145.88
643.554	156.88
643.759	144.88
643.964	153.88
644.169	166.88
644.374	154.88
644.579	152.88
644.784	157.88
644.989	165.88
645.194	138.88
645.399	153.88
645.604	140.88
645.809	136.88
646.014	139.88
646.219	137.88
646.423	138.88
646.628	150.88
646.833	149.88
647.038	143.88
647.243	166.88
647.447	140.88
647.652	145.88
647.857	146.88
648.062	151.88
648.266	154.88
648.471	138.88
648.676	142.88
648.88	142.88
649.085	157.88
649.289	145.88
649.494	152.88
649.698	157.88
649.903	156.88
650.107	149.88
650.312	150.88
650.516	149.88
650.721	156.88
650.925	144.88
651.13	142.88
651.334	132.88
651.539	125.88
651.743	141.88
651.947	139.88
652.152	139.88
652.356	137.88
652.56	130.88
652.764	131.88
652.969	133.88
653.173	121.88
653.377	148.88
653.581	126.88
653.785	126.88
653.99	132.88
654.194	118.88
654.398	132.88
654.602	124.88
654.806	109.88
655.01	132.88
655.214	132.88
655.418	133.88
655.622	145.88
655.826	119.88
656.03	116.88
656.234	120.88
656.438	105.88
656.642	119.88
656.846	127.88
657.049	128.88
657.253	128.88
657.457	119.88
657.661	97.88
657.865	112.88
658.068	101.88
658.272	114.88
658.476	100.88
658.68	100.88
658.883	102.88
659.087	103.88
659.291	103.88
659.494	101.88
659.698	80.88
659.901	101.88
660.105	104.88
660.309	89.88
660.512	91.88
660.716	100.88
660.919	92.88
661.123	95.88
661.326	81.88
661.53	91.88
661.733	86.88
661.936	73.88
662.14	94.88
662.343	83.88
662.546	81.88
662.75	90.88
662.953	81.88
663.156	79.88
663.36	84.88
663.563	79.88
663.766	78.88
663.969	93.88
664.173	84.88
664.376	78.88
664.579	82.88
664.782	86.88
664.985	83.88
665.188	81.88
665.391	84.88
665.594	90.88
665.797	92.88
666	84.88
666.203	76.88
666.406	78.88
666.609	78.88
666.812	80.88
667.015	74.88
667.218	89.88
667.421	88.88
667.624	77.88
667.827	82.88
668.03	96.88
668.232	81.88
668.435	76.88
668.638	84.88
668.841	63.88
669.043	74.88
669.246	80.88
669.449	89.88
669.651	86.88
669.854	85.88
670.057	72.88
670.259	85.88
670.462	81.88
670.665	84.88
670.867	80.88
671.07	74.88
671.272	76.88
671.475	85.88
671.677	91.88
671.88	94.88
672.082	74.88
672.284	69.88
672.487	75.88
672.689	76.88
672.892	80.88
