Data from 1965.PennyLincolnUp.Lamp.En5.5.200Scan.071719.P1._HRD10591_14-09-17-911.txt Node
Date: Thu Jul 18 14:09:17 EDT 2019
User: cochatt
Spectrometer: HR+D1059
Trigger mode: 1
Integration Time (sec): 1.000000E-1
Scans to average: 1
Electric dark correction enabled: true
Nonlinearity correction enabled: false
Boxcar width: 0
XAxis mode: Wavelengths
Number of Pixels in Spectrum: 2048
>>>>>Begin Spectral Data<<<<<
223.165	-19.62
223.4	-19.62
223.635	-19.62
223.869	-15.62
224.104	-15.62
224.338	-14.62
224.573	-8.62
224.808	-6.62
225.042	-11.62
225.277	-9.62
225.511	0.38
225.746	13.38
225.98	7.38
226.215	8.38
226.449	17.38
226.683	4.38
226.918	32.38
227.152	18.38
227.387	46.38
227.621	38.38
227.856	44.38
228.09	35.38
228.324	46.38
228.559	54.38
228.793	75.38
229.027	94.38
229.262	93.38
229.496	114.38
229.73	119.38
229.964	138.38
230.199	127.38
230.433	92.38
230.667	110.38
230.901	112.38
231.136	102.38
231.37	100.38
231.604	103.38
231.838	107.38
232.072	109.38
232.306	111.38
232.541	104.38
232.775	108.38
233.009	107.38
233.243	109.38
233.477	107.38
233.711	108.38
233.945	109.38
234.179	93.38
234.413	105.38
234.647	106.38
234.881	109.38
235.115	109.38
235.349	104.38
235.583	109.38
235.817	115.38
236.051	115.38
236.285	113.38
236.519	124.38
236.753	119.38
236.987	139.38
237.221	168.38
237.455	217.38
237.689	170.38
237.922	116.38
238.156	115.38
238.39	135.38
238.624	103.38
238.858	119.38
239.091	120.38
239.325	101.38
239.559	124.38
239.793	129.38
240.027	120.38
240.26	120.38
240.494	170.38
240.728	152.38
240.961	136.38
241.195	134.38
241.429	120.38
241.662	116.38
241.896	110.38
242.13	126.38
242.363	115.38
242.597	130.38
242.83	140.38
243.064	126.38
243.298	119.38
243.531	127.38
243.765	126.38
243.998	132.38
244.232	122.38
244.465	117.38
244.699	110.38
244.932	133.38
245.166	102.38
245.399	138.38
245.633	146.38
245.866	129.38
246.099	127.38
246.333	124.38
246.566	125.38
246.8	141.38
247.033	155.38
247.266	159.38
247.5	140.38
247.733	146.38
247.966	142.38
248.2	139.38
248.433	166.38
248.666	151.38
248.899	143.38
249.133	171.38
249.366	172.38
249.599	177.38
249.832	169.38
250.066	171.38
250.299	180.38
250.532	180.38
250.765	177.38
250.998	205.38
251.231	202.38
251.465	186.38
251.698	189.38
251.931	163.38
252.164	183.38
252.397	179.38
252.63	191.38
252.863	174.38
253.096	174.38
253.329	193.38
253.562	203.38
253.795	196.38
254.028	181.38
254.261	184.38
254.494	216.38
254.727	229.38
254.96	255.38
255.193	228.38
255.426	215.38
255.659	206.38
255.892	201.38
256.124	198.38
256.357	214.38
256.59	206.38
256.823	192.38
257.056	192.38
257.289	200.38
257.521	182.38
257.754	193.38
257.987	172.38
258.22	174.38
258.452	197.38
258.685	184.38
258.918	180.38
259.151	195.38
259.383	192.38
259.616	184.38
259.849	204.38
260.081	218.38
260.314	224.38
260.547	243.38
260.779	214.38
261.012	211.38
261.244	206.38
261.477	196.38
261.71	205.38
261.942	216.38
262.175	197.38
262.407	192.38
262.64	188.38
262.872	198.38
263.105	192.38
263.337	202.38
263.57	167.38
263.802	166.38
264.035	189.38
264.267	196.38
264.499	187.38
264.732	178.38
264.964	184.38
265.197	182.38
265.429	200.38
265.661	174.38
265.894	188.38
266.126	178.38
266.358	201.38
266.591	192.38
266.823	195.38
267.055	215.38
267.287	197.38
267.52	205.38
267.752	197.38
267.984	206.38
268.216	222.38
268.448	213.38
268.681	213.38
268.913	232.38
269.145	240.38
269.377	254.38
269.609	243.38
269.841	236.38
270.073	238.38
270.306	262.38
270.538	276.38
270.77	270.38
271.002	252.38
271.234	267.38
271.466	279.38
271.698	276.38
271.93	257.38
272.162	246.38
272.394	274.38
272.626	264.38
272.858	269.38
273.09	252.38
273.322	268.38
273.553	240.38
273.785	228.38
274.017	216.38
274.249	246.38
274.481	232.38
274.713	238.38
274.945	244.38
275.176	228.38
275.408	255.38
275.64	232.38
275.872	229.38
276.104	228.38
276.335	250.38
276.567	219.38
276.799	236.38
277.031	263.38
277.262	274.38
277.494	294.38
277.726	275.38
277.957	257.38
278.189	248.38
278.421	236.38
278.652	243.38
278.884	253.38
279.115	244.38
279.347	225.38
279.579	232.38
279.81	218.38
280.042	224.38
280.273	227.38
280.505	237.38
280.736	234.38
280.968	220.38
281.199	238.38
281.431	250.38
281.662	243.38
281.894	241.38
282.125	220.38
282.356	264.38
282.588	272.38
282.819	264.38
283.051	228.38
283.282	235.38
283.513	234.38
283.745	245.38
283.976	240.38
284.207	233.38
284.439	244.38
284.67	240.38
284.901	245.38
285.132	228.38
285.364	236.38
285.595	232.38
285.826	239.38
286.057	248.38
286.288	243.38
286.52	236.38
286.751	263.38
286.982	243.38
287.213	226.38
287.444	257.38
287.675	250.38
287.906	267.38
288.138	249.38
288.369	269.38
288.6	261.38
288.831	260.38
289.062	250.38
289.293	249.38
289.524	244.38
289.755	242.38
289.986	236.38
290.217	242.38
290.448	242.38
290.679	244.38
290.91	251.38
291.141	231.38
291.371	243.38
291.602	256.38
291.833	251.38
292.064	246.38
292.295	253.38
292.526	240.38
292.757	236.38
292.987	264.38
293.218	244.38
293.449	243.38
293.68	259.38
293.91	240.38
294.141	244.38
294.372	245.38
294.603	260.38
294.833	250.38
295.064	256.38
295.295	256.38
295.525	257.38
295.756	264.38
295.987	258.38
296.217	298.38
296.448	298.38
296.679	260.38
296.909	269.38
297.14	265.38
297.37	264.38
297.601	258.38
297.831	258.38
298.062	260.38
298.292	252.38
298.523	252.38
298.753	266.38
298.984	284.38
299.214	265.38
299.445	269.38
299.675	269.38
299.905	267.38
300.136	270.38
300.366	261.38
300.597	253.38
300.827	294.38
301.057	280.38
301.288	292.38
301.518	284.38
301.748	264.38
301.979	267.38
302.209	280.38
302.439	274.38
302.669	295.38
302.9	282.38
303.13	281.38
303.36	294.38
303.59	283.38
303.82	308.38
304.051	293.38
304.281	282.38
304.511	264.38
304.741	297.38
304.971	282.38
305.201	277.38
305.431	293.38
305.661	262.38
305.891	271.38
306.121	275.38
306.352	289.38
306.582	286.38
306.812	295.38
307.042	280.38
307.272	286.38
307.502	297.38
307.731	275.38
307.961	274.38
308.191	281.38
308.421	289.38
308.651	282.38
308.881	296.38
309.111	300.38
309.341	310.38
309.571	300.38
309.8	328.38
310.03	321.38
310.26	339.38
310.49	344.38
310.72	350.38
310.949	348.38
311.179	369.38
311.409	333.38
311.639	342.38
311.868	342.38
312.098	335.38
312.328	362.38
312.557	337.38
312.787	380.38
313.017	360.38
313.246	345.38
313.476	331.38
313.706	348.38
313.935	340.38
314.165	350.38
314.394	352.38
314.624	349.38
314.853	327.38
315.083	336.38
315.312	333.38
315.542	330.38
315.771	332.38
316.001	340.38
316.23	310.38
316.46	324.38
316.689	342.38
316.919	352.38
317.148	359.38
317.377	347.38
317.607	354.38
317.836	335.38
318.065	351.38
318.295	333.38
318.524	332.38
318.753	325.38
318.983	323.38
319.212	332.38
319.441	343.38
319.67	368.38
319.9	320.38
320.129	316.38
320.358	354.38
320.587	334.38
320.816	356.38
321.046	357.38
321.275	359.38
321.504	359.38
321.733	349.38
321.962	392.38
322.191	390.38
322.42	409.38
322.649	411.38
322.878	420.38
323.108	421.38
323.337	430.38
323.566	461.38
323.795	488.38
324.024	550.38
324.253	686.38
324.482	974.38
324.71	1521.38
324.939	2061.38
325.168	1716.38
325.397	906.38
325.626	620.38
325.855	543.38
326.084	495.38
326.313	469.38
326.542	483.38
326.77	535.38
326.999	622.38
327.228	889.38
327.457	1308.38
327.686	1527.38
327.914	1024.38
328.143	701.38
328.372	612.38
328.6	567.38
328.829	530.38
329.058	544.38
329.287	576.38
329.515	486.38
329.744	480.38
329.972	484.38
330.201	489.38
330.43	529.38
330.658	577.38
330.887	570.38
331.115	570.38
331.344	485.38
331.572	473.38
331.801	457.38
332.03	420.38
332.258	396.38
332.486	434.38
332.715	394.38
332.943	402.38
333.172	398.38
333.4	407.38
333.629	402.38
333.857	405.38
334.085	432.38
334.314	427.38
334.542	472.38
334.771	502.38
334.999	450.38
335.227	412.38
335.455	410.38
335.684	395.38
335.912	400.38
336.14	392.38
336.369	381.38
336.597	388.38
336.825	398.38
337.053	381.38
337.281	364.38
337.51	382.38
337.738	398.38
337.966	387.38
338.194	380.38
338.422	397.38
338.65	375.38
338.878	388.38
339.106	370.38
339.334	382.38
339.562	370.38
339.79	361.38
340.018	351.38
340.246	397.38
340.474	384.38
340.702	369.38
340.93	389.38
341.158	375.38
341.386	385.38
341.614	376.38
341.842	378.38
342.07	366.38
342.298	366.38
342.526	369.38
342.754	368.38
342.981	363.38
343.209	371.38
343.437	374.38
343.665	358.38
343.893	360.38
344.12	357.38
344.348	350.38
344.576	386.38
344.804	408.38
345.031	390.38
345.259	414.38
345.487	393.38
345.714	380.38
345.942	378.38
346.17	370.38
346.397	365.38
346.625	366.38
346.853	360.38
347.08	379.38
347.308	370.38
347.535	365.38
347.763	384.38
347.99	383.38
348.218	379.38
348.445	386.38
348.673	379.38
348.9	373.38
349.128	376.38
349.355	362.38
349.583	353.38
349.81	360.38
350.037	357.38
350.265	362.38
350.492	359.38
350.72	359.38
350.947	348.38
351.174	366.38
351.402	398.38
351.629	360.38
351.856	380.38
352.083	360.38
352.311	389.38
352.538	394.38
352.765	388.38
352.992	375.38
353.22	360.38
353.447	343.38
353.674	344.38
353.901	336.38
354.128	351.38
354.355	351.38
354.583	324.38
354.81	336.38
355.037	348.38
355.264	325.38
355.491	334.38
355.718	342.38
355.945	313.38
356.172	326.38
356.399	325.38
356.626	341.38
356.853	331.38
357.08	330.38
357.307	333.38
357.534	345.38
357.761	331.38
357.988	330.38
358.215	342.38
358.441	345.38
358.668	348.38
358.895	354.38
359.122	344.38
359.349	369.38
359.576	364.38
359.802	395.38
360.029	421.38
360.256	416.38
360.483	413.38
360.709	378.38
360.936	370.38
361.163	375.38
361.39	376.38
361.616	359.38
361.843	370.38
362.07	380.38
362.296	360.38
362.523	355.38
362.749	360.38
362.976	364.38
363.203	350.38
363.429	350.38
363.656	381.38
363.882	358.38
364.109	350.38
364.335	354.38
364.562	341.38
364.788	334.38
365.015	341.38
365.241	344.38
365.468	358.38
365.694	357.38
365.92	350.38
366.147	362.38
366.373	363.38
366.599	352.38
366.826	343.38
367.052	344.38
367.278	337.38
367.505	344.38
367.731	340.38
367.957	339.38
368.184	342.38
368.41	361.38
368.636	348.38
368.862	374.38
369.089	359.38
369.315	343.38
369.541	345.38
369.767	361.38
369.993	343.38
370.219	350.38
370.445	355.38
370.672	347.38
370.898	334.38
371.124	335.38
371.35	324.38
371.576	321.38
371.802	340.38
372.028	331.38
372.254	331.38
372.48	354.38
372.706	352.38
372.932	344.38
373.158	356.38
373.384	333.38
373.61	358.38
373.835	328.38
374.061	348.38
374.287	351.38
374.513	347.38
374.739	378.38
374.965	349.38
375.191	329.38
375.416	358.38
375.642	330.38
375.868	337.38
376.094	345.38
376.319	316.38
376.545	329.38
376.771	343.38
376.997	343.38
377.222	333.38
377.448	349.38
377.674	347.38
377.899	356.38
378.125	332.38
378.35	344.38
378.576	327.38
378.802	325.38
379.027	328.38
379.253	339.38
379.478	335.38
379.704	341.38
379.929	334.38
380.155	355.38
380.38	328.38
380.606	328.38
380.831	347.38
381.057	346.38
381.282	346.38
381.507	336.38
381.733	355.38
381.958	354.38
382.184	347.38
382.409	357.38
382.634	353.38
382.86	340.38
383.085	345.38
383.31	347.38
383.535	341.38
383.761	355.38
383.986	361.38
384.211	369.38
384.436	341.38
384.662	378.38
384.887	371.38
385.112	351.38
385.337	361.38
385.562	357.38
385.787	369.38
386.013	370.38
386.238	354.38
386.463	364.38
386.688	371.38
386.913	348.38
387.138	348.38
387.363	370.38
387.588	373.38
387.813	359.38
388.038	356.38
388.263	352.38
388.488	372.38
388.713	371.38
388.938	354.38
389.163	357.38
389.387	345.38
389.612	356.38
389.837	373.38
390.062	366.38
390.287	359.38
390.512	363.38
390.736	338.38
390.961	365.38
391.186	376.38
391.411	350.38
391.636	366.38
391.86	358.38
392.085	377.38
392.31	362.38
392.534	360.38
392.759	382.38
392.984	378.38
393.208	378.38
393.433	362.38
393.658	374.38
393.882	372.38
394.107	372.38
394.331	370.38
394.556	361.38
394.78	357.38
395.005	369.38
395.229	370.38
395.454	392.38
395.678	372.38
395.903	379.38
396.127	394.38
396.352	400.38
396.576	377.38
396.801	391.38
397.025	387.38
397.249	378.38
397.474	399.38
397.698	384.38
397.922	391.38
398.147	408.38
398.371	410.38
398.595	388.38
398.82	395.38
399.044	404.38
399.268	433.38
399.492	432.38
399.717	435.38
399.941	468.38
400.165	493.38
400.389	513.38
400.613	470.38
400.837	462.38
401.062	429.38
401.286	420.38
401.51	419.38
401.734	406.38
401.958	420.38
402.182	420.38
402.406	439.38
402.63	434.38
402.854	439.38
403.078	443.38
403.302	441.38
403.526	457.38
403.75	449.38
403.974	412.38
404.198	423.38
404.422	451.38
404.645	442.38
404.869	440.38
405.093	457.38
405.317	469.38
405.541	514.38
405.765	474.38
405.988	459.38
406.212	464.38
406.436	477.38
406.66	510.38
406.883	473.38
407.107	489.38
407.331	502.38
407.555	552.38
407.778	548.38
408.002	521.38
408.226	462.38
408.449	461.38
408.673	481.38
408.896	497.38
409.12	523.38
409.344	514.38
409.567	448.38
409.791	444.38
410.014	448.38
410.238	449.38
410.461	435.38
410.685	439.38
410.908	433.38
411.132	477.38
411.355	503.38
411.578	483.38
411.802	437.38
412.025	426.38
412.249	436.38
412.472	438.38
412.695	465.38
412.919	474.38
413.142	438.38
413.365	438.38
413.589	402.38
413.812	385.38
414.035	439.38
414.258	432.38
414.482	419.38
414.705	386.38
414.928	402.38
415.151	404.38
415.374	388.38
415.597	394.38
415.821	403.38
416.044	384.38
416.267	412.38
416.49	395.38
416.713	397.38
416.936	397.38
417.159	401.38
417.382	416.38
417.605	417.38
417.828	440.38
418.051	428.38
418.274	430.38
418.497	382.38
418.72	404.38
418.943	406.38
419.166	429.38
419.389	434.38
419.611	434.38
419.834	418.38
420.057	426.38
420.28	410.38
420.503	429.38
420.726	436.38
420.948	418.38
421.171	459.38
421.394	483.38
421.617	435.38
421.839	427.38
422.062	448.38
422.285	448.38
422.507	499.38
422.73	541.38
422.953	513.38
423.175	449.38
423.398	438.38
423.621	458.38
423.843	469.38
424.066	467.38
424.288	467.38
424.511	475.38
424.733	514.38
424.956	574.38
425.178	562.38
425.401	577.38
425.623	579.38
425.846	520.38
426.068	480.38
426.291	457.38
426.513	456.38
426.735	480.38
426.958	501.38
427.18	576.38
427.402	664.38
427.625	706.38
427.847	660.38
428.069	585.38
428.292	526.38
428.514	470.38
428.736	445.38
428.958	430.38
429.181	435.38
429.403	437.38
429.625	465.38
429.847	487.38
430.069	524.38
430.292	528.38
430.514	444.38
430.736	441.38
430.958	413.38
431.18	443.38
431.402	409.38
431.624	420.38
431.846	401.38
432.068	396.38
432.29	408.38
432.512	414.38
432.734	420.38
432.956	424.38
433.178	428.38
433.4	422.38
433.622	409.38
433.844	419.38
434.066	411.38
434.287	404.38
434.509	414.38
434.731	410.38
434.953	432.38
435.175	438.38
435.397	417.38
435.618	440.38
435.84	487.38
436.062	601.38
436.284	650.38
436.505	552.38
436.727	521.38
436.949	455.38
437.17	432.38
437.392	432.38
437.614	461.38
437.835	520.38
438.057	594.38
438.278	647.38
438.5	632.38
438.721	684.38
438.943	664.38
439.165	516.38
439.386	497.38
439.608	498.38
439.829	483.38
440.05	506.38
440.272	546.38
440.493	521.38
440.715	481.38
440.936	455.38
441.158	459.38
441.379	426.38
441.6	458.38
441.822	484.38
442.043	507.38
442.264	564.38
442.486	593.38
442.707	517.38
442.928	481.38
443.149	480.38
443.371	544.38
443.592	537.38
443.813	624.38
444.034	640.38
444.255	547.38
444.476	488.38
444.698	470.38
444.919	466.38
445.14	582.38
445.361	537.38
445.582	514.38
445.803	569.38
446.024	667.38
446.245	650.38
446.466	617.38
446.687	535.38
446.908	477.38
447.129	440.38
447.35	437.38
447.571	424.38
447.792	433.38
448.013	448.38
448.234	457.38
448.455	520.38
448.675	611.38
448.896	688.38
449.117	606.38
449.338	578.38
449.559	648.38
449.779	695.38
450	581.38
450.221	472.38
450.442	455.38
450.662	439.38
450.883	421.38
451.104	451.38
451.324	473.38
451.545	426.38
451.766	401.38
451.986	395.38
452.207	402.38
452.428	398.38
452.648	380.38
452.869	395.38
453.089	395.38
453.31	409.38
453.53	419.38
453.751	408.38
453.971	405.38
454.192	432.38
454.412	412.38
454.633	391.38
454.853	397.38
455.073	410.38
455.294	422.38
455.514	485.38
455.734	469.38
455.955	390.38
456.175	393.38
456.395	368.38
456.616	380.38
456.836	362.38
457.056	364.38
457.276	359.38
457.497	374.38
457.717	374.38
457.937	370.38
458.157	384.38
458.377	390.38
458.598	413.38
458.818	469.38
459.038	534.38
459.258	541.38
459.478	471.38
459.698	419.38
459.918	393.38
460.138	398.38
460.358	412.38
460.578	400.38
460.798	427.38
461.018	421.38
461.238	404.38
461.458	413.38
461.678	403.38
461.898	421.38
462.118	403.38
462.338	410.38
462.558	400.38
462.777	425.38
462.997	426.38
463.217	452.38
463.437	427.38
463.657	435.38
463.876	434.38
464.096	433.38
464.316	439.38
464.536	451.38
464.755	430.38
464.975	448.38
465.195	492.38
465.414	590.38
465.634	497.38
465.854	449.38
466.073	432.38
466.293	420.38
466.512	396.38
466.732	418.38
466.951	416.38
467.171	403.38
467.391	425.38
467.61	422.38
467.829	404.38
468.049	434.38
468.268	402.38
468.488	392.38
468.707	391.38
468.927	379.38
469.146	391.38
469.365	386.38
469.585	391.38
469.804	418.38
470.023	414.38
470.243	412.38
470.462	413.38
470.681	444.38
470.901	446.38
471.12	414.38
471.339	424.38
471.558	405.38
471.777	418.38
471.997	398.38
472.216	412.38
472.435	466.38
472.654	428.38
472.873	415.38
473.092	417.38
473.311	405.38
473.53	412.38
473.749	417.38
473.968	482.38
474.187	522.38
474.406	558.38
474.625	447.38
474.844	416.38
475.063	432.38
475.282	405.38
475.501	420.38
475.72	425.38
475.939	407.38
476.158	413.38
476.377	426.38
476.596	427.38
476.814	449.38
477.033	412.38
477.252	414.38
477.471	425.38
477.69	434.38
477.908	429.38
478.127	434.38
478.346	446.38
478.564	429.38
478.783	448.38
479.002	459.38
479.22	457.38
479.439	477.38
479.658	472.38
479.876	491.38
480.095	484.38
480.313	516.38
480.532	511.38
480.751	487.38
480.969	519.38
481.188	593.38
481.406	624.38
481.624	530.38
481.843	519.38
482.061	481.38
482.28	484.38
482.498	472.38
482.717	480.38
482.935	462.38
483.153	482.38
483.372	482.38
483.59	483.38
483.808	481.38
484.027	498.38
484.245	466.38
484.463	480.38
484.681	499.38
484.9	477.38
485.118	497.38
485.336	484.38
485.554	488.38
485.772	511.38
485.99	483.38
486.209	519.38
486.427	512.38
486.645	505.38
486.863	527.38
487.081	538.38
487.299	515.38
487.517	494.38
487.735	526.38
487.953	500.38
488.171	526.38
488.389	507.38
488.607	522.38
488.825	514.38
489.043	537.38
489.261	527.38
489.479	531.38
489.696	536.38
489.914	533.38
490.132	513.38
490.35	522.38
490.568	537.38
490.786	548.38
491.003	544.38
491.221	580.38
491.439	591.38
491.657	588.38
491.874	598.38
492.092	599.38
492.31	577.38
492.527	603.38
492.745	600.38
492.963	586.38
493.18	608.38
493.398	580.38
493.615	606.38
493.833	591.38
494.05	604.38
494.268	614.38
494.485	594.38
494.703	593.38
494.92	601.38
495.138	613.38
495.355	609.38
495.573	623.38
495.79	617.38
496.008	615.38
496.225	604.38
496.442	619.38
496.66	613.38
496.877	609.38
497.094	623.38
497.312	609.38
497.529	636.38
497.746	635.38
497.963	650.38
498.181	680.38
498.398	653.38
498.615	658.38
498.832	699.38
499.049	680.38
499.267	700.38
499.484	693.38
499.701	721.38
499.918	730.38
500.135	763.38
500.352	788.38
500.569	803.38
500.786	774.38
501.003	783.38
501.22	770.38
501.437	758.38
501.654	745.38
501.871	746.38
502.088	708.38
502.305	713.38
502.522	677.38
502.739	672.38
502.956	640.38
503.172	632.38
503.389	625.38
503.606	632.38
503.823	640.38
504.04	645.38
504.256	615.38
504.473	585.38
504.69	613.38
504.907	614.38
505.123	591.38
505.34	585.38
505.557	577.38
505.773	595.38
505.99	585.38
506.207	577.38
506.423	572.38
506.64	626.38
506.856	577.38
507.073	558.38
507.289	585.38
507.506	589.38
507.722	611.38
507.939	607.38
508.155	586.38
508.372	576.38
508.588	557.38
508.805	582.38
509.021	584.38
509.238	571.38
509.454	561.38
509.67	569.38
509.887	557.38
510.103	581.38
510.319	589.38
510.536	692.38
510.752	1216.38
510.968	928.38
511.184	598.38
511.401	582.38
511.617	576.38
511.833	550.38
512.049	560.38
512.265	544.38
512.481	547.38
512.698	550.38
512.914	533.38
513.13	551.38
513.346	532.38
513.562	542.38
513.778	538.38
513.994	574.38
514.21	592.38
514.426	615.38
514.642	637.38
514.858	668.38
515.074	714.38
515.29	851.38
515.506	1344.38
515.721	1050.38
515.937	691.38
516.153	608.38
516.369	579.38
516.585	587.38
516.801	562.38
517.016	561.38
517.232	571.38
517.448	542.38
517.664	540.38
517.879	542.38
518.095	547.38
518.311	538.38
518.527	540.38
518.742	544.38
518.958	535.38
519.173	555.38
519.389	534.38
519.605	539.38
519.82	539.38
520.036	547.38
520.251	580.38
520.467	612.38
520.682	627.38
520.898	604.38
521.113	630.38
521.329	666.38
521.544	782.38
521.76	1070.38
521.975	1777.38
522.19	1720.38
522.406	920.38
522.621	648.38
522.836	578.38
523.052	553.38
523.267	530.38
523.482	535.38
523.698	516.38
523.913	513.38
524.128	490.38
524.343	493.38
524.559	486.38
524.774	457.38
524.989	466.38
525.204	487.38
525.419	480.38
525.634	466.38
525.849	459.38
526.064	461.38
526.28	461.38
526.495	448.38
526.71	456.38
526.925	438.38
527.14	445.38
527.355	454.38
527.57	432.38
527.785	414.38
527.999	436.38
528.214	436.38
528.429	430.38
528.644	433.38
528.859	439.38
529.074	450.38
529.289	482.38
529.503	556.38
529.718	542.38
529.933	473.38
530.148	476.38
530.363	448.38
530.577	436.38
530.792	428.38
531.007	440.38
531.221	427.38
531.436	424.38
531.651	412.38
531.865	417.38
532.08	404.38
532.295	412.38
532.509	419.38
532.724	407.38
532.938	415.38
533.153	420.38
533.367	441.38
533.582	421.38
533.796	410.38
534.011	442.38
534.225	405.38
534.44	402.38
534.654	410.38
534.868	411.38
535.083	419.38
535.297	416.38
535.511	404.38
535.726	421.38
535.94	426.38
536.154	410.38
536.369	434.38
536.583	407.38
536.797	395.38
537.011	384.38
537.225	383.38
537.44	374.38
537.654	389.38
537.868	415.38
538.082	408.38
538.296	405.38
538.51	391.38
538.724	390.38
538.938	418.38
539.153	407.38
539.367	421.38
539.581	411.38
539.795	400.38
540.009	400.38
540.222	376.38
540.436	395.38
540.65	401.38
540.864	405.38
541.078	414.38
541.292	413.38
541.506	403.38
541.72	398.38
541.934	399.38
542.147	378.38
542.361	382.38
542.575	390.38
542.789	393.38
543.002	391.38
543.216	400.38
543.43	403.38
543.644	397.38
543.857	378.38
544.071	402.38
544.285	384.38
544.498	375.38
544.712	386.38
544.925	398.38
545.139	386.38
545.352	363.38
545.566	386.38
545.779	377.38
545.993	386.38
546.206	404.38
546.42	382.38
546.633	374.38
546.847	385.38
547.06	380.38
547.274	357.38
547.487	372.38
547.7	362.38
547.914	375.38
548.127	365.38
548.34	363.38
548.554	370.38
548.767	368.38
548.98	390.38
549.193	369.38
549.407	380.38
549.62	375.38
549.833	380.38
550.046	380.38
550.259	373.38
550.473	361.38
550.686	354.38
550.899	349.38
551.112	370.38
551.325	361.38
551.538	365.38
551.751	373.38
551.964	351.38
552.177	361.38
552.39	352.38
552.603	347.38
552.816	365.38
553.029	384.38
553.242	365.38
553.455	365.38
553.667	392.38
553.88	404.38
554.093	370.38
554.306	389.38
554.519	345.38
554.732	362.38
554.944	355.38
555.157	356.38
555.37	361.38
555.583	356.38
555.795	359.38
556.008	337.38
556.221	352.38
556.433	333.38
556.646	349.38
556.859	352.38
557.071	352.38
557.284	349.38
557.496	333.38
557.709	343.38
557.921	318.38
558.134	341.38
558.346	322.38
558.559	333.38
558.771	332.38
558.984	333.38
559.196	325.38
559.409	336.38
559.621	344.38
559.833	332.38
560.046	333.38
560.258	351.38
560.47	335.38
560.683	313.38
560.895	305.38
561.107	340.38
561.32	317.38
561.532	333.38
561.744	334.38
561.956	340.38
562.168	320.38
562.381	323.38
562.593	332.38
562.805	330.38
563.017	334.38
563.229	327.38
563.441	332.38
563.653	328.38
563.865	338.38
564.077	353.38
564.289	333.38
564.501	345.38
564.713	351.38
564.925	338.38
565.137	362.38
565.349	368.38
565.561	344.38
565.773	358.38
565.985	343.38
566.197	345.38
566.408	377.38
566.62	374.38
566.832	371.38
567.044	388.38
567.255	388.38
567.467	397.38
567.679	386.38
567.891	379.38
568.102	368.38
568.314	373.38
568.526	369.38
568.737	359.38
568.949	357.38
569.161	345.38
569.372	326.38
569.584	328.38
569.795	321.38
570.007	344.38
570.218	380.38
570.43	350.38
570.641	329.38
570.853	324.38
571.064	317.38
571.276	320.38
571.487	290.38
571.698	309.38
571.91	307.38
572.121	307.38
572.333	319.38
572.544	306.38
572.755	299.38
572.966	294.38
573.178	299.38
573.389	288.38
573.6	285.38
573.811	291.38
574.023	278.38
574.234	310.38
574.445	298.38
574.656	296.38
574.867	290.38
575.078	276.38
575.289	266.38
575.501	286.38
575.712	283.38
575.923	275.38
576.134	274.38
576.345	286.38
576.556	279.38
576.767	276.38
576.978	289.38
577.188	284.38
577.399	297.38
577.61	266.38
577.821	277.38
578.032	271.38
578.243	325.38
578.454	595.38
578.665	386.38
578.875	318.38
579.086	284.38
579.297	277.38
579.508	254.38
579.718	264.38
579.929	267.38
580.14	269.38
580.35	263.38
580.561	254.38
580.772	252.38
580.982	269.38
581.193	263.38
581.403	261.38
581.614	258.38
581.825	257.38
582.035	265.38
582.246	266.38
582.456	262.38
582.667	261.38
582.877	260.38
583.087	257.38
583.298	270.38
583.508	264.38
583.719	266.38
583.929	260.38
584.139	243.38
584.35	258.38
584.56	254.38
584.77	263.38
584.981	262.38
585.191	262.38
585.401	259.38
585.611	257.38
585.821	255.38
586.032	241.38
586.242	250.38
586.452	259.38
586.662	249.38
586.872	247.38
587.082	254.38
587.292	264.38
587.502	265.38
587.713	243.38
587.923	242.38
588.133	274.38
588.343	244.38
588.553	247.38
588.762	249.38
588.972	252.38
589.182	302.38
589.392	299.38
589.602	259.38
589.812	280.38
590.022	271.38
590.232	246.38
590.441	269.38
590.651	244.38
590.861	237.38
591.071	251.38
591.281	245.38
591.49	249.38
591.7	252.38
591.91	240.38
592.119	247.38
592.329	256.38
592.539	252.38
592.748	251.38
592.958	258.38
593.167	252.38
593.377	261.38
593.587	256.38
593.796	262.38
594.006	253.38
594.215	253.38
594.424	234.38
594.634	256.38
594.843	250.38
595.053	260.38
595.262	247.38
595.472	257.38
595.681	262.38
595.89	250.38
596.1	241.38
596.309	243.38
596.518	236.38
596.727	253.38
596.937	244.38
597.146	246.38
597.355	229.38
597.564	232.38
597.774	221.38
597.983	246.38
598.192	236.38
598.401	219.38
598.61	218.38
598.819	230.38
599.028	217.38
599.237	221.38
599.446	236.38
599.655	225.38
599.864	230.38
600.073	213.38
600.282	225.38
600.491	205.38
600.7	237.38
600.909	218.38
601.118	223.38
601.327	219.38
601.536	224.38
601.745	217.38
601.953	219.38
602.162	212.38
602.371	207.38
602.58	215.38
602.789	216.38
602.997	207.38
603.206	230.38
603.415	195.38
603.623	193.38
603.832	209.38
604.041	211.38
604.249	223.38
604.458	211.38
604.666	208.38
604.875	214.38
605.084	225.38
605.292	221.38
605.501	205.38
605.709	205.38
605.918	195.38
606.126	203.38
606.334	213.38
606.543	212.38
606.751	203.38
606.96	208.38
607.168	212.38
607.376	206.38
607.585	214.38
607.793	200.38
608.001	204.38
608.21	204.38
608.418	205.38
608.626	194.38
608.834	197.38
609.043	197.38
609.251	209.38
609.459	206.38
609.667	215.38
609.875	202.38
610.083	200.38
610.291	201.38
610.499	206.38
610.707	194.38
610.916	212.38
611.124	205.38
611.332	195.38
611.54	209.38
611.748	213.38
611.955	215.38
612.163	197.38
612.371	209.38
612.579	201.38
612.787	209.38
612.995	203.38
613.203	213.38
613.411	208.38
613.618	204.38
613.826	189.38
614.034	213.38
614.242	201.38
614.449	209.38
614.657	197.38
614.865	210.38
615.072	191.38
615.28	188.38
615.488	196.38
615.695	195.38
615.903	208.38
616.111	205.38
616.318	198.38
616.526	202.38
616.733	203.38
616.941	201.38
617.148	201.38
617.356	214.38
617.563	206.38
617.771	199.38
617.978	181.38
618.185	208.38
618.393	193.38
618.6	194.38
618.807	196.38
619.015	199.38
619.222	193.38
619.429	183.38
619.637	195.38
619.844	194.38
620.051	196.38
620.258	204.38
620.466	195.38
620.673	182.38
620.88	179.38
621.087	205.38
621.294	197.38
621.501	191.38
621.708	203.38
621.915	200.38
622.122	192.38
622.329	204.38
622.536	193.38
622.743	188.38
622.95	199.38
623.157	174.38
623.364	185.38
623.571	183.38
623.778	169.38
623.985	189.38
624.192	192.38
624.399	200.38
624.606	175.38
624.812	178.38
625.019	169.38
625.226	180.38
625.433	190.38
625.639	187.38
625.846	191.38
626.053	186.38
626.259	182.38
626.466	181.38
626.673	181.38
626.879	180.38
627.086	191.38
627.293	166.38
627.499	178.38
627.706	155.38
627.912	186.38
628.119	186.38
628.325	186.38
628.532	165.38
628.738	167.38
628.945	173.38
629.151	166.38
629.357	187.38
629.564	178.38
629.77	167.38
629.976	179.38
630.183	178.38
630.389	181.38
630.595	166.38
630.802	164.38
631.008	164.38
631.214	146.38
631.42	162.38
631.627	180.38
631.833	181.38
632.039	158.38
632.245	157.38
632.451	172.38
632.657	176.38
632.863	156.38
633.069	169.38
633.275	164.38
633.481	170.38
633.688	160.38
633.893	165.38
634.099	172.38
634.305	167.38
634.511	154.38
634.717	141.38
634.923	168.38
635.129	145.38
635.335	153.38
635.541	168.38
635.747	160.38
635.952	155.38
636.158	162.38
636.364	168.38
636.57	184.38
636.775	166.38
636.981	170.38
637.187	160.38
637.392	157.38
637.598	158.38
637.804	145.38
638.009	170.38
638.215	148.38
638.421	160.38
638.626	157.38
638.832	138.38
639.037	146.38
639.243	155.38
639.448	176.38
639.654	162.38
639.859	160.38
640.065	151.38
640.27	156.38
640.475	159.38
640.681	149.38
640.886	157.38
641.091	135.38
641.297	155.38
641.502	162.38
641.707	140.38
641.913	142.38
642.118	164.38
642.323	169.38
642.528	150.38
642.733	135.38
642.939	157.38
643.144	160.38
643.349	132.38
643.554	164.38
643.759	153.38
643.964	140.38
644.169	152.38
644.374	129.38
644.579	158.38
644.784	149.38
644.989	159.38
645.194	140.38
645.399	141.38
645.604	147.38
645.809	150.38
646.014	145.38
646.219	140.38
646.423	152.38
646.628	151.38
646.833	156.38
647.038	160.38
647.243	145.38
647.447	133.38
647.652	138.38
647.857	148.38
648.062	141.38
648.266	158.38
648.471	154.38
648.676	152.38
648.88	147.38
649.085	154.38
649.289	150.38
649.494	175.38
649.698	165.38
649.903	163.38
650.107	166.38
650.312	141.38
650.516	153.38
650.721	163.38
650.925	133.38
651.13	130.38
651.334	135.38
651.539	134.38
651.743	126.38
651.947	139.38
652.152	131.38
652.356	138.38
652.56	138.38
652.764	127.38
652.969	117.38
653.173	120.38
653.377	121.38
653.581	120.38
653.785	137.38
653.99	136.38
654.194	132.38
654.398	120.38
654.602	132.38
654.806	115.38
655.01	116.38
655.214	125.38
655.418	118.38
655.622	116.38
655.826	124.38
656.03	137.38
656.234	118.38
656.438	114.38
656.642	138.38
656.846	124.38
657.049	130.38
657.253	130.38
657.457	124.38
657.661	105.38
657.865	113.38
658.068	109.38
658.272	112.38
658.476	102.38
658.68	94.38
658.883	109.38
659.087	96.38
659.291	83.38
659.494	83.38
659.698	96.38
659.901	99.38
660.105	92.38
660.309	89.38
660.512	95.38
660.716	83.38
660.919	86.38
661.123	101.38
661.326	91.38
661.53	84.38
661.733	80.38
661.936	98.38
662.14	99.38
662.343	80.38
662.546	86.38
662.75	76.38
662.953	85.38
663.156	84.38
663.36	91.38
663.563	91.38
663.766	83.38
663.969	73.38
664.173	81.38
664.376	75.38
664.579	80.38
664.782	87.38
664.985	72.38
665.188	68.38
665.391	78.38
665.594	73.38
665.797	89.38
666	76.38
666.203	89.38
666.406	75.38
666.609	88.38
666.812	85.38
667.015	85.38
667.218	69.38
667.421	66.38
667.624	73.38
667.827	78.38
668.03	89.38
668.232	85.38
668.435	75.38
668.638	70.38
668.841	82.38
669.043	89.38
669.246	77.38
669.449	87.38
669.651	66.38
669.854	89.38
670.057	73.38
670.259	77.38
670.462	75.38
670.665	84.38
670.867	75.38
671.07	74.38
671.272	84.38
671.475	85.38
671.677	88.38
671.88	72.38
672.082	84.38
672.284	86.38
672.487	85.38
672.689	78.38
672.892	100.38
