Data from 1965.PennyLincolnUp.Lamp.En5.5.200Scan.071719.P1._HRD10591_14-09-05-911.txt Node
Date: Thu Jul 18 14:09:05 EDT 2019
User: cochatt
Spectrometer: HR+D1059
Trigger mode: 1
Integration Time (sec): 1.000000E-1
Scans to average: 1
Electric dark correction enabled: true
Nonlinearity correction enabled: false
Boxcar width: 0
XAxis mode: Wavelengths
Number of Pixels in Spectrum: 2048
>>>>>Begin Spectral Data<<<<<
223.165	-14.12
223.4	-14.12
223.635	-14.12
223.869	-29.12
224.104	-16.12
224.338	-17.12
224.573	-10.12
224.808	0.88
225.042	-3.12
225.277	-14.12
225.511	-1.12
225.746	5.88
225.98	1.88
226.215	12.88
226.449	18.88
226.683	19.88
226.918	23.88
227.152	20.88
227.387	35.88
227.621	38.88
227.856	47.88
228.09	36.88
228.324	55.88
228.559	69.88
228.793	64.88
229.027	103.88
229.262	101.88
229.496	105.88
229.73	120.88
229.964	137.88
230.199	120.88
230.433	120.88
230.667	102.88
230.901	113.88
231.136	113.88
231.37	98.88
231.604	110.88
231.838	82.88
232.072	99.88
232.306	110.88
232.541	100.88
232.775	91.88
233.009	100.88
233.243	100.88
233.477	118.88
233.711	113.88
233.945	108.88
234.179	114.88
234.413	113.88
234.647	101.88
234.881	112.88
235.115	125.88
235.349	103.88
235.583	117.88
235.817	107.88
236.051	122.88
236.285	111.88
236.519	124.88
236.753	126.88
236.987	146.88
237.221	189.88
237.455	205.88
237.689	176.88
237.922	121.88
238.156	128.88
238.39	111.88
238.624	121.88
238.858	145.88
239.091	107.88
239.325	120.88
239.559	121.88
239.793	121.88
240.027	119.88
240.26	120.88
240.494	133.88
240.728	140.88
240.961	140.88
241.195	130.88
241.429	126.88
241.662	129.88
241.896	119.88
242.13	119.88
242.363	115.88
242.597	137.88
242.83	126.88
243.064	121.88
243.298	125.88
243.531	126.88
243.765	110.88
243.998	112.88
244.232	149.88
244.465	132.88
244.699	133.88
244.932	135.88
245.166	141.88
245.399	124.88
245.633	139.88
245.866	134.88
246.099	126.88
246.333	137.88
246.566	135.88
246.8	136.88
247.033	135.88
247.266	159.88
247.5	143.88
247.733	164.88
247.966	154.88
248.2	169.88
248.433	151.88
248.666	178.88
248.899	175.88
249.133	175.88
249.366	182.88
249.599	176.88
249.832	167.88
250.066	158.88
250.299	158.88
250.532	174.88
250.765	181.88
250.998	209.88
251.231	204.88
251.465	197.88
251.698	172.88
251.931	167.88
252.164	176.88
252.397	169.88
252.63	185.88
252.863	188.88
253.096	185.88
253.329	198.88
253.562	202.88
253.795	196.88
254.028	199.88
254.261	206.88
254.494	193.88
254.727	210.88
254.96	248.88
255.193	235.88
255.426	227.88
255.659	208.88
255.892	205.88
256.124	203.88
256.357	195.88
256.59	211.88
256.823	212.88
257.056	195.88
257.289	200.88
257.521	175.88
257.754	185.88
257.987	179.88
258.22	178.88
258.452	187.88
258.685	172.88
258.918	205.88
259.151	207.88
259.383	195.88
259.616	202.88
259.849	203.88
260.081	203.88
260.314	227.88
260.547	228.88
260.779	206.88
261.012	214.88
261.244	209.88
261.477	206.88
261.71	205.88
261.942	205.88
262.175	222.88
262.407	223.88
262.64	202.88
262.872	191.88
263.105	181.88
263.337	197.88
263.57	190.88
263.802	191.88
264.035	193.88
264.267	184.88
264.499	173.88
264.732	182.88
264.964	202.88
265.197	193.88
265.429	205.88
265.661	186.88
265.894	195.88
266.126	185.88
266.358	208.88
266.591	208.88
266.823	197.88
267.055	213.88
267.287	199.88
267.52	214.88
267.752	210.88
267.984	209.88
268.216	192.88
268.448	201.88
268.681	208.88
268.913	221.88
269.145	217.88
269.377	229.88
269.609	245.88
269.841	244.88
270.073	237.88
270.306	264.88
270.538	279.88
270.77	279.88
271.002	261.88
271.234	274.88
271.466	253.88
271.698	283.88
271.93	283.88
272.162	279.88
272.394	280.88
272.626	268.88
272.858	254.88
273.09	264.88
273.322	251.88
273.553	237.88
273.785	241.88
274.017	227.88
274.249	228.88
274.481	235.88
274.713	232.88
274.945	248.88
275.176	241.88
275.408	236.88
275.64	223.88
275.872	224.88
276.104	230.88
276.335	238.88
276.567	249.88
276.799	239.88
277.031	290.88
277.262	287.88
277.494	291.88
277.726	239.88
277.957	242.88
278.189	252.88
278.421	241.88
278.652	231.88
278.884	226.88
279.115	238.88
279.347	231.88
279.579	242.88
279.81	228.88
280.042	227.88
280.273	242.88
280.505	248.88
280.736	218.88
280.968	224.88
281.199	239.88
281.431	229.88
281.662	217.88
281.894	241.88
282.125	232.88
282.356	249.88
282.588	270.88
282.819	260.88
283.051	243.88
283.282	235.88
283.513	232.88
283.745	251.88
283.976	237.88
284.207	241.88
284.439	225.88
284.67	238.88
284.901	236.88
285.132	225.88
285.364	235.88
285.595	248.88
285.826	233.88
286.057	243.88
286.288	238.88
286.52	225.88
286.751	234.88
286.982	257.88
287.213	238.88
287.444	232.88
287.675	242.88
287.906	279.88
288.138	281.88
288.369	261.88
288.6	267.88
288.831	242.88
289.062	259.88
289.293	245.88
289.524	247.88
289.755	248.88
289.986	242.88
290.217	257.88
290.448	262.88
290.679	246.88
290.91	251.88
291.141	244.88
291.371	249.88
291.602	238.88
291.833	240.88
292.064	243.88
292.295	245.88
292.526	241.88
292.757	237.88
292.987	241.88
293.218	241.88
293.449	266.88
293.68	265.88
293.91	257.88
294.141	247.88
294.372	241.88
294.603	270.88
294.833	256.88
295.064	252.88
295.295	270.88
295.525	265.88
295.756	253.88
295.987	258.88
296.217	277.88
296.448	301.88
296.679	284.88
296.909	233.88
297.14	263.88
297.37	257.88
297.601	267.88
297.831	269.88
298.062	251.88
298.292	257.88
298.523	240.88
298.753	249.88
298.984	279.88
299.214	265.88
299.445	281.88
299.675	271.88
299.905	256.88
300.136	267.88
300.366	265.88
300.597	270.88
300.827	277.88
301.057	287.88
301.288	284.88
301.518	282.88
301.748	275.88
301.979	269.88
302.209	298.88
302.439	293.88
302.669	272.88
302.9	283.88
303.13	297.88
303.36	279.88
303.59	284.88
303.82	303.88
304.051	309.88
304.281	287.88
304.511	291.88
304.741	291.88
304.971	285.88
305.201	290.88
305.431	279.88
305.661	300.88
305.891	303.88
306.121	297.88
306.352	293.88
306.582	295.88
306.812	287.88
307.042	284.88
307.272	270.88
307.502	298.88
307.731	302.88
307.961	292.88
308.191	285.88
308.421	288.88
308.651	305.88
308.881	293.88
309.111	285.88
309.341	310.88
309.571	315.88
309.8	321.88
310.03	334.88
310.26	337.88
310.49	329.88
310.72	323.88
310.949	351.88
311.179	351.88
311.409	342.88
311.639	343.88
311.868	337.88
312.098	326.88
312.328	339.88
312.557	366.88
312.787	354.88
313.017	371.88
313.246	342.88
313.476	309.88
313.706	329.88
313.935	346.88
314.165	338.88
314.394	374.88
314.624	352.88
314.853	337.88
315.083	303.88
315.312	356.88
315.542	314.88
315.771	315.88
316.001	297.88
316.23	330.88
316.46	341.88
316.689	344.88
316.919	330.88
317.148	334.88
317.377	335.88
317.607	343.88
317.836	340.88
318.065	343.88
318.295	336.88
318.524	316.88
318.753	330.88
318.983	311.88
319.212	340.88
319.441	333.88
319.67	345.88
319.9	333.88
320.129	345.88
320.358	313.88
320.587	326.88
320.816	352.88
321.046	343.88
321.275	350.88
321.504	355.88
321.733	357.88
321.962	358.88
322.191	377.88
322.42	391.88
322.649	393.88
322.878	419.88
323.108	421.88
323.337	425.88
323.566	459.88
323.795	514.88
324.024	557.88
324.253	666.88
324.482	981.88
324.71	1440.88
324.939	1969.88
325.168	1663.88
325.397	894.88
325.626	593.88
325.855	526.88
326.084	478.88
326.313	439.88
326.542	469.88
326.77	506.88
326.999	631.88
327.228	857.88
327.457	1293.88
327.686	1471.88
327.914	973.88
328.143	678.88
328.372	590.88
328.6	543.88
328.829	497.88
329.058	528.88
329.287	539.88
329.515	500.88
329.744	469.88
329.972	464.88
330.201	473.88
330.43	530.88
330.658	569.88
330.887	579.88
331.115	555.88
331.344	475.88
331.572	442.88
331.801	423.88
332.03	441.88
332.258	420.88
332.486	385.88
332.715	387.88
332.943	389.88
333.172	383.88
333.4	409.88
333.629	402.88
333.857	398.88
334.085	457.88
334.314	430.88
334.542	465.88
334.771	475.88
334.999	447.88
335.227	411.88
335.455	391.88
335.684	395.88
335.912	389.88
336.14	381.88
336.369	384.88
336.597	387.88
336.825	391.88
337.053	401.88
337.281	382.88
337.51	373.88
337.738	375.88
337.966	372.88
338.194	392.88
338.422	387.88
338.65	373.88
338.878	375.88
339.106	378.88
339.334	366.88
339.562	360.88
339.79	370.88
340.018	367.88
340.246	369.88
340.474	384.88
340.702	379.88
340.93	365.88
341.158	379.88
341.386	356.88
341.614	377.88
341.842	359.88
342.07	381.88
342.298	371.88
342.526	366.88
342.754	350.88
342.981	351.88
343.209	343.88
343.437	364.88
343.665	360.88
343.893	376.88
344.12	382.88
344.348	357.88
344.576	401.88
344.804	383.88
345.031	398.88
345.259	385.88
345.487	359.88
345.714	363.88
345.942	381.88
346.17	370.88
346.397	362.88
346.625	375.88
346.853	364.88
347.08	371.88
347.308	350.88
347.535	381.88
347.763	383.88
347.99	391.88
348.218	365.88
348.445	397.88
348.673	379.88
348.9	375.88
349.128	368.88
349.355	337.88
349.583	367.88
349.81	349.88
350.037	351.88
350.265	337.88
350.492	338.88
350.72	358.88
350.947	352.88
351.174	357.88
351.402	384.88
351.629	381.88
351.856	381.88
352.083	370.88
352.311	385.88
352.538	383.88
352.765	384.88
352.992	370.88
353.22	353.88
353.447	385.88
353.674	334.88
353.901	343.88
354.128	342.88
354.355	337.88
354.583	348.88
354.81	345.88
355.037	354.88
355.264	353.88
355.491	325.88
355.718	307.88
355.945	333.88
356.172	322.88
356.399	316.88
356.626	318.88
356.853	332.88
357.08	347.88
357.307	325.88
357.534	315.88
357.761	339.88
357.988	347.88
358.215	332.88
358.441	340.88
358.668	333.88
358.895	343.88
359.122	341.88
359.349	364.88
359.576	370.88
359.802	393.88
360.029	405.88
360.256	417.88
360.483	392.88
360.709	366.88
360.936	369.88
361.163	352.88
361.39	364.88
361.616	374.88
361.843	357.88
362.07	364.88
362.296	375.88
362.523	359.88
362.749	367.88
362.976	358.88
363.203	353.88
363.429	349.88
363.656	355.88
363.882	341.88
364.109	345.88
364.335	354.88
364.562	331.88
364.788	356.88
365.015	344.88
365.241	344.88
365.468	346.88
365.694	349.88
365.92	345.88
366.147	373.88
366.373	345.88
366.599	345.88
366.826	334.88
367.052	338.88
367.278	336.88
367.505	338.88
367.731	356.88
367.957	319.88
368.184	341.88
368.41	345.88
368.636	352.88
368.862	384.88
369.089	351.88
369.315	335.88
369.541	340.88
369.767	330.88
369.993	334.88
370.219	354.88
370.445	329.88
370.672	336.88
370.898	335.88
371.124	342.88
371.35	339.88
371.576	329.88
371.802	335.88
372.028	329.88
372.254	339.88
372.48	327.88
372.706	325.88
372.932	323.88
373.158	342.88
373.384	358.88
373.61	345.88
373.835	346.88
374.061	338.88
374.287	335.88
374.513	341.88
374.739	345.88
374.965	348.88
375.191	355.88
375.416	335.88
375.642	343.88
375.868	347.88
376.094	347.88
376.319	324.88
376.545	341.88
376.771	327.88
376.997	345.88
377.222	353.88
377.448	329.88
377.674	326.88
377.899	345.88
378.125	343.88
378.35	325.88
378.576	352.88
378.802	343.88
379.027	341.88
379.253	331.88
379.478	345.88
379.704	332.88
379.929	360.88
380.155	334.88
380.38	326.88
380.606	337.88
380.831	333.88
381.057	334.88
381.282	338.88
381.507	345.88
381.733	351.88
381.958	342.88
382.184	336.88
382.409	339.88
382.634	330.88
382.86	335.88
383.085	335.88
383.31	345.88
383.535	352.88
383.761	347.88
383.986	350.88
384.211	360.88
384.436	350.88
384.662	342.88
384.887	354.88
385.112	372.88
385.337	363.88
385.562	346.88
385.787	341.88
386.013	369.88
386.238	366.88
386.463	378.88
386.688	352.88
386.913	339.88
387.138	354.88
387.363	349.88
387.588	378.88
387.813	359.88
388.038	352.88
388.263	360.88
388.488	357.88
388.713	345.88
388.938	354.88
389.163	351.88
389.387	351.88
389.612	349.88
389.837	356.88
390.062	366.88
390.287	362.88
390.512	368.88
390.736	341.88
390.961	368.88
391.186	353.88
391.411	346.88
391.636	351.88
391.86	360.88
392.085	367.88
392.31	364.88
392.534	368.88
392.759	380.88
392.984	371.88
393.208	377.88
393.433	370.88
393.658	362.88
393.882	362.88
394.107	366.88
394.331	351.88
394.556	357.88
394.78	377.88
395.005	368.88
395.229	378.88
395.454	369.88
395.678	375.88
395.903	391.88
396.127	396.88
396.352	393.88
396.576	359.88
396.801	361.88
397.025	365.88
397.249	375.88
397.474	371.88
397.698	371.88
397.922	383.88
398.147	406.88
398.371	387.88
398.595	398.88
398.82	402.88
399.044	409.88
399.268	439.88
399.492	432.88
399.717	450.88
399.941	458.88
400.165	497.88
400.389	469.88
400.613	445.88
400.837	432.88
401.062	425.88
401.286	400.88
401.51	411.88
401.734	394.88
401.958	413.88
402.182	401.88
402.406	421.88
402.63	423.88
402.854	425.88
403.078	437.88
403.302	433.88
403.526	442.88
403.75	435.88
403.974	425.88
404.198	402.88
404.422	426.88
404.645	445.88
404.869	410.88
405.093	441.88
405.317	462.88
405.541	521.88
405.765	477.88
405.988	450.88
406.212	457.88
406.436	485.88
406.66	487.88
406.883	485.88
407.107	472.88
407.331	507.88
407.555	546.88
407.778	557.88
408.002	499.88
408.226	476.88
408.449	464.88
408.673	474.88
408.896	498.88
409.12	518.88
409.344	511.88
409.567	450.88
409.791	432.88
410.014	443.88
410.238	416.88
410.461	447.88
410.685	424.88
410.908	437.88
411.132	471.88
411.355	496.88
411.578	456.88
411.802	445.88
412.025	440.88
412.249	444.88
412.472	441.88
412.695	480.88
412.919	475.88
413.142	410.88
413.365	402.88
413.589	432.88
413.812	416.88
414.035	409.88
414.258	400.88
414.482	410.88
414.705	405.88
414.928	407.88
415.151	403.88
415.374	399.88
415.597	400.88
415.821	409.88
416.044	418.88
416.267	407.88
416.49	400.88
416.713	409.88
416.936	396.88
417.159	405.88
417.382	406.88
417.605	414.88
417.828	400.88
418.051	423.88
418.274	418.88
418.497	408.88
418.72	391.88
418.943	418.88
419.166	408.88
419.389	433.88
419.611	430.88
419.834	420.88
420.057	460.88
420.28	427.88
420.503	409.88
420.726	425.88
420.948	431.88
421.171	481.88
421.394	481.88
421.617	434.88
421.839	403.88
422.062	424.88
422.285	431.88
422.507	484.88
422.73	554.88
422.953	525.88
423.175	461.88
423.398	453.88
423.621	450.88
423.843	442.88
424.066	450.88
424.288	458.88
424.511	461.88
424.733	515.88
424.956	579.88
425.178	576.88
425.401	553.88
425.623	549.88
425.846	505.88
426.068	462.88
426.291	465.88
426.513	461.88
426.735	458.88
426.958	512.88
427.18	578.88
427.402	660.88
427.625	731.88
427.847	692.88
428.069	575.88
428.292	502.88
428.514	458.88
428.736	443.88
428.958	448.88
429.181	419.88
429.403	451.88
429.625	445.88
429.847	452.88
430.069	511.88
430.292	531.88
430.514	434.88
430.736	420.88
430.958	427.88
431.18	408.88
431.402	385.88
431.624	413.88
431.846	383.88
432.068	400.88
432.29	389.88
432.512	412.88
432.734	405.88
432.956	406.88
433.178	413.88
433.4	430.88
433.622	401.88
433.844	410.88
434.066	401.88
434.287	407.88
434.509	389.88
434.731	407.88
434.953	425.88
435.175	426.88
435.397	422.88
435.618	471.88
435.84	519.88
436.062	559.88
436.284	614.88
436.505	521.88
436.727	455.88
436.949	411.88
437.17	439.88
437.392	415.88
437.614	443.88
437.835	482.88
438.057	572.88
438.278	647.88
438.5	626.88
438.721	711.88
438.943	659.88
439.165	525.88
439.386	492.88
439.608	455.88
439.829	471.88
440.05	499.88
440.272	523.88
440.493	494.88
440.715	478.88
440.936	452.88
441.158	419.88
441.379	412.88
441.6	442.88
441.822	477.88
442.043	501.88
442.264	567.88
442.486	594.88
442.707	516.88
442.928	464.88
443.149	483.88
443.371	484.88
443.592	522.88
443.813	613.88
444.034	649.88
444.255	572.88
444.476	467.88
444.698	446.88
444.919	435.88
445.14	544.88
445.361	532.88
445.582	496.88
445.803	557.88
446.024	649.88
446.245	655.88
446.466	583.88
446.687	501.88
446.908	499.88
447.129	452.88
447.35	415.88
447.571	441.88
447.792	407.88
448.013	447.88
448.234	473.88
448.455	506.88
448.675	591.88
448.896	670.88
449.117	569.88
449.338	569.88
449.559	620.88
449.779	702.88
450	553.88
450.221	466.88
450.442	464.88
450.662	425.88
450.883	441.88
451.104	461.88
451.324	446.88
451.545	426.88
451.766	413.88
451.986	398.88
452.207	409.88
452.428	389.88
452.648	396.88
452.869	382.88
453.089	415.88
453.31	419.88
453.53	413.88
453.751	417.88
453.971	396.88
454.192	415.88
454.412	419.88
454.633	387.88
454.853	387.88
455.073	386.88
455.294	411.88
455.514	458.88
455.734	449.88
455.955	396.88
456.175	377.88
456.395	363.88
456.616	358.88
456.836	373.88
457.056	365.88
457.276	365.88
457.497	380.88
457.717	353.88
457.937	375.88
458.157	389.88
458.377	374.88
458.598	403.88
458.818	465.88
459.038	542.88
459.258	527.88
459.478	451.88
459.698	413.88
459.918	397.88
460.138	399.88
460.358	393.88
460.578	407.88
460.798	393.88
461.018	418.88
461.238	384.88
461.458	380.88
461.678	398.88
461.898	410.88
462.118	409.88
462.338	395.88
462.558	408.88
462.777	419.88
462.997	410.88
463.217	411.88
463.437	433.88
463.657	415.88
463.876	409.88
464.096	419.88
464.316	413.88
464.536	439.88
464.755	427.88
464.975	444.88
465.195	513.88
465.414	568.88
465.634	495.88
465.854	447.88
466.073	436.88
466.293	409.88
466.512	408.88
466.732	393.88
466.951	407.88
467.171	382.88
467.391	409.88
467.61	393.88
467.829	414.88
468.049	420.88
468.268	411.88
468.488	398.88
468.707	399.88
468.927	391.88
469.146	383.88
469.365	394.88
469.585	391.88
469.804	386.88
470.023	417.88
470.243	429.88
470.462	406.88
470.681	425.88
470.901	429.88
471.12	407.88
471.339	416.88
471.558	405.88
471.777	401.88
471.997	397.88
472.216	409.88
472.435	451.88
472.654	423.88
472.873	417.88
473.092	416.88
473.311	399.88
473.53	405.88
473.749	415.88
473.968	447.88
474.187	555.88
474.406	541.88
474.625	455.88
474.844	408.88
475.063	409.88
475.282	391.88
475.501	408.88
475.72	423.88
475.939	418.88
476.158	421.88
476.377	433.88
476.596	407.88
476.814	430.88
477.033	429.88
477.252	431.88
477.471	419.88
477.69	418.88
477.908	422.88
478.127	422.88
478.346	455.88
478.564	447.88
478.783	455.88
479.002	457.88
479.22	461.88
479.439	488.88
479.658	472.88
479.876	480.88
480.095	495.88
480.313	508.88
480.532	506.88
480.751	510.88
480.969	496.88
481.188	571.88
481.406	603.88
481.624	533.88
481.843	495.88
482.061	501.88
482.28	481.88
482.498	478.88
482.717	442.88
482.935	461.88
483.153	485.88
483.372	486.88
483.59	468.88
483.808	462.88
484.027	477.88
484.245	477.88
484.463	471.88
484.681	480.88
484.9	478.88
485.118	490.88
485.336	501.88
485.554	503.88
485.772	501.88
485.99	512.88
486.209	479.88
486.427	486.88
486.645	482.88
486.863	509.88
487.081	501.88
487.299	505.88
487.517	484.88
487.735	519.88
487.953	520.88
488.171	531.88
488.389	501.88
488.607	504.88
488.825	492.88
489.043	510.88
489.261	521.88
489.479	477.88
489.696	491.88
489.914	507.88
490.132	517.88
490.35	518.88
490.568	535.88
490.786	536.88
491.003	533.88
491.221	552.88
491.439	547.88
491.657	552.88
491.874	573.88
492.092	581.88
492.31	562.88
492.527	596.88
492.745	585.88
492.963	594.88
493.18	605.88
493.398	601.88
493.615	590.88
493.833	603.88
494.05	605.88
494.268	590.88
494.485	583.88
494.703	593.88
494.92	594.88
495.138	579.88
495.355	602.88
495.573	615.88
495.79	597.88
496.008	598.88
496.225	613.88
496.442	588.88
496.66	602.88
496.877	578.88
497.094	617.88
497.312	607.88
497.529	606.88
497.746	608.88
497.963	631.88
498.181	638.88
498.398	629.88
498.615	633.88
498.832	641.88
499.049	663.88
499.267	673.88
499.484	673.88
499.701	707.88
499.918	706.88
500.135	729.88
500.352	739.88
500.569	746.88
500.786	754.88
501.003	746.88
501.22	767.88
501.437	735.88
501.654	698.88
501.871	721.88
502.088	719.88
502.305	681.88
502.522	675.88
502.739	664.88
502.956	624.88
503.172	635.88
503.389	614.88
503.606	642.88
503.823	633.88
504.04	615.88
504.256	598.88
504.473	601.88
504.69	595.88
504.907	591.88
505.123	571.88
505.34	588.88
505.557	577.88
505.773	593.88
505.99	585.88
506.207	591.88
506.423	568.88
506.64	569.88
506.856	578.88
507.073	571.88
507.289	595.88
507.506	575.88
507.722	578.88
507.939	588.88
508.155	592.88
508.372	573.88
508.588	542.88
508.805	561.88
509.021	565.88
509.238	579.88
509.454	572.88
509.67	584.88
509.887	553.88
510.103	565.88
510.319	578.88
510.536	691.88
510.752	1165.88
510.968	938.88
511.184	603.88
511.401	540.88
511.617	555.88
511.833	537.88
512.049	558.88
512.265	529.88
512.481	517.88
512.698	511.88
512.914	509.88
513.13	519.88
513.346	532.88
513.562	517.88
513.778	537.88
513.994	538.88
514.21	584.88
514.426	587.88
514.642	611.88
514.858	654.88
515.074	693.88
515.29	845.88
515.506	1325.88
515.721	1072.88
515.937	652.88
516.153	629.88
516.369	593.88
516.585	549.88
516.801	543.88
517.016	552.88
517.232	529.88
517.448	557.88
517.664	518.88
517.879	545.88
518.095	543.88
518.311	554.88
518.527	529.88
518.742	530.88
518.958	539.88
519.173	507.88
519.389	527.88
519.605	529.88
519.82	535.88
520.036	554.88
520.251	589.88
520.467	596.88
520.682	582.88
520.898	607.88
521.113	623.88
521.329	681.88
521.544	760.88
521.76	1025.88
521.975	1776.88
522.19	1709.88
522.406	899.88
522.621	655.88
522.836	558.88
523.052	531.88
523.267	519.88
523.482	507.88
523.698	487.88
523.913	464.88
524.128	473.88
524.343	482.88
524.559	469.88
524.774	463.88
524.989	461.88
525.204	483.88
525.419	470.88
525.634	463.88
525.849	446.88
526.064	457.88
526.28	450.88
526.495	447.88
526.71	442.88
526.925	446.88
527.14	442.88
527.355	449.88
527.57	414.88
527.785	421.88
527.999	418.88
528.214	434.88
528.429	423.88
528.644	425.88
528.859	422.88
529.074	447.88
529.289	463.88
529.503	554.88
529.718	521.88
529.933	464.88
530.148	446.88
530.363	434.88
530.577	428.88
530.792	425.88
531.007	417.88
531.221	420.88
531.436	416.88
531.651	419.88
531.865	438.88
532.08	415.88
532.295	410.88
532.509	437.88
532.724	423.88
532.938	397.88
533.153	420.88
533.367	402.88
533.582	397.88
533.796	402.88
534.011	388.88
534.225	383.88
534.44	409.88
534.654	399.88
534.868	405.88
535.083	390.88
535.297	398.88
535.511	388.88
535.726	423.88
535.94	416.88
536.154	411.88
536.369	416.88
536.583	415.88
536.797	397.88
537.011	404.88
537.225	402.88
537.44	398.88
537.654	396.88
537.868	410.88
538.082	394.88
538.296	387.88
538.51	375.88
538.724	382.88
538.938	400.88
539.153	397.88
539.367	410.88
539.581	429.88
539.795	408.88
540.009	395.88
540.222	385.88
540.436	400.88
540.65	393.88
540.864	394.88
541.078	403.88
541.292	393.88
541.506	400.88
541.72	391.88
541.934	397.88
542.147	391.88
542.361	386.88
542.575	385.88
542.789	386.88
543.002	381.88
543.216	383.88
543.43	385.88
543.644	381.88
543.857	389.88
544.071	409.88
544.285	394.88
544.498	388.88
544.712	368.88
544.925	377.88
545.139	364.88
545.352	377.88
545.566	363.88
545.779	367.88
545.993	374.88
546.206	381.88
546.42	393.88
546.633	392.88
546.847	401.88
547.06	353.88
547.274	379.88
547.487	349.88
547.7	345.88
547.914	352.88
548.127	363.88
548.34	389.88
548.554	365.88
548.767	369.88
548.98	376.88
549.193	375.88
549.407	369.88
549.62	366.88
549.833	382.88
550.046	353.88
550.259	358.88
550.473	365.88
550.686	369.88
550.899	347.88
551.112	368.88
551.325	359.88
551.538	355.88
551.751	373.88
551.964	360.88
552.177	334.88
552.39	368.88
552.603	357.88
552.816	358.88
553.029	375.88
553.242	367.88
553.455	371.88
553.667	370.88
553.88	373.88
554.093	360.88
554.306	366.88
554.519	367.88
554.732	351.88
554.944	346.88
555.157	353.88
555.37	368.88
555.583	338.88
555.795	361.88
556.008	357.88
556.221	339.88
556.433	343.88
556.646	333.88
556.859	337.88
557.071	346.88
557.284	349.88
557.496	333.88
557.709	324.88
557.921	314.88
558.134	334.88
558.346	361.88
558.559	333.88
558.771	295.88
558.984	309.88
559.196	331.88
559.409	326.88
559.621	330.88
559.833	313.88
560.046	323.88
560.258	314.88
560.47	324.88
560.683	328.88
560.895	321.88
561.107	355.88
561.32	306.88
561.532	315.88
561.744	309.88
561.956	323.88
562.168	333.88
562.381	329.88
562.593	328.88
562.805	322.88
563.017	330.88
563.229	321.88
563.441	320.88
563.653	339.88
563.865	326.88
564.077	336.88
564.289	330.88
564.501	327.88
564.713	328.88
564.925	322.88
565.137	348.88
565.349	344.88
565.561	334.88
565.773	342.88
565.985	363.88
566.197	334.88
566.408	351.88
566.62	361.88
566.832	364.88
567.044	375.88
567.255	356.88
567.467	372.88
567.679	371.88
567.891	354.88
568.102	371.88
568.314	378.88
568.526	358.88
568.737	379.88
568.949	339.88
569.161	347.88
569.372	329.88
569.584	330.88
569.795	339.88
570.007	332.88
570.218	387.88
570.43	360.88
570.641	314.88
570.853	323.88
571.064	340.88
571.276	321.88
571.487	321.88
571.698	297.88
571.91	317.88
572.121	296.88
572.333	306.88
572.544	296.88
572.755	298.88
572.966	290.88
573.178	292.88
573.389	293.88
573.6	288.88
573.811	285.88
574.023	274.88
574.234	281.88
574.445	290.88
574.656	282.88
574.867	283.88
575.078	278.88
575.289	290.88
575.501	271.88
575.712	269.88
575.923	283.88
576.134	275.88
576.345	285.88
576.556	281.88
576.767	284.88
576.978	253.88
577.188	280.88
577.399	271.88
577.61	265.88
577.821	292.88
578.032	282.88
578.243	322.88
578.454	550.88
578.665	389.88
578.875	298.88
579.086	259.88
579.297	269.88
579.508	268.88
579.718	278.88
579.929	266.88
580.14	267.88
580.35	268.88
580.561	261.88
580.772	264.88
580.982	267.88
581.193	265.88
581.403	258.88
581.614	253.88
581.825	266.88
582.035	267.88
582.246	254.88
582.456	269.88
582.667	260.88
582.877	264.88
583.087	245.88
583.298	257.88
583.508	266.88
583.719	261.88
583.929	272.88
584.139	265.88
584.35	259.88
584.56	272.88
584.77	252.88
584.981	266.88
585.191	255.88
585.401	270.88
585.611	246.88
585.821	256.88
586.032	271.88
586.242	263.88
586.452	250.88
586.662	261.88
586.872	245.88
587.082	246.88
587.292	222.88
587.502	256.88
587.713	253.88
587.923	257.88
588.133	250.88
588.343	259.88
588.553	229.88
588.762	240.88
588.972	257.88
589.182	311.88
589.392	313.88
589.602	254.88
589.812	279.88
590.022	287.88
590.232	240.88
590.441	245.88
590.651	246.88
590.861	213.88
591.071	255.88
591.281	247.88
591.49	240.88
591.7	247.88
591.91	273.88
592.119	242.88
592.329	250.88
592.539	273.88
592.748	269.88
592.958	240.88
593.167	279.88
593.377	255.88
593.587	267.88
593.796	255.88
594.006	251.88
594.215	266.88
594.424	249.88
594.634	242.88
594.843	252.88
595.053	248.88
595.262	236.88
595.472	250.88
595.681	230.88
595.89	239.88
596.1	225.88
596.309	234.88
596.518	232.88
596.727	222.88
596.937	225.88
597.146	230.88
597.355	242.88
597.564	232.88
597.774	218.88
597.983	231.88
598.192	234.88
598.401	240.88
598.61	227.88
598.819	238.88
599.028	222.88
599.237	210.88
599.446	219.88
599.655	242.88
599.864	227.88
600.073	219.88
600.282	223.88
600.491	229.88
600.7	230.88
600.909	225.88
601.118	211.88
601.327	207.88
601.536	226.88
601.745	219.88
601.953	208.88
602.162	226.88
602.371	217.88
602.58	204.88
602.789	245.88
602.997	219.88
603.206	233.88
603.415	217.88
603.623	203.88
603.832	210.88
604.041	179.88
604.249	197.88
604.458	211.88
604.666	207.88
604.875	207.88
605.084	209.88
605.292	216.88
605.501	219.88
605.709	219.88
605.918	216.88
606.126	214.88
606.334	203.88
606.543	216.88
606.751	197.88
606.96	206.88
607.168	201.88
607.376	204.88
607.585	219.88
607.793	221.88
608.001	193.88
608.21	198.88
608.418	208.88
608.626	219.88
608.834	205.88
609.043	208.88
609.251	210.88
609.459	212.88
609.667	208.88
609.875	218.88
610.083	199.88
610.291	195.88
610.499	212.88
610.707	202.88
610.916	214.88
611.124	204.88
611.332	198.88
611.54	199.88
611.748	201.88
611.955	213.88
612.163	216.88
612.371	208.88
612.579	213.88
612.787	190.88
612.995	217.88
613.203	214.88
613.411	219.88
613.618	208.88
613.826	217.88
614.034	201.88
614.242	209.88
614.449	212.88
614.657	203.88
614.865	197.88
615.072	204.88
615.28	184.88
615.488	214.88
615.695	200.88
615.903	219.88
616.111	202.88
616.318	218.88
616.526	199.88
616.733	199.88
616.941	220.88
617.148	190.88
617.356	205.88
617.563	201.88
617.771	187.88
617.978	205.88
618.185	209.88
618.393	204.88
618.6	206.88
618.807	198.88
619.015	212.88
619.222	199.88
619.429	183.88
619.637	196.88
619.844	197.88
620.051	188.88
620.258	185.88
620.466	206.88
620.673	190.88
620.88	179.88
621.087	191.88
621.294	178.88
621.501	194.88
621.708	211.88
621.915	190.88
622.122	204.88
622.329	186.88
622.536	183.88
622.743	209.88
622.95	174.88
623.157	195.88
623.364	177.88
623.571	200.88
623.778	175.88
623.985	193.88
624.192	193.88
624.399	171.88
624.606	194.88
624.812	179.88
625.019	189.88
625.226	190.88
625.433	170.88
625.639	191.88
625.846	183.88
626.053	177.88
626.259	185.88
626.466	190.88
626.673	177.88
626.879	174.88
627.086	187.88
627.293	177.88
627.499	171.88
627.706	184.88
627.912	180.88
628.119	165.88
628.325	191.88
628.532	189.88
628.738	195.88
628.945	185.88
629.151	174.88
629.357	171.88
629.564	176.88
629.77	186.88
629.976	181.88
630.183	183.88
630.389	181.88
630.595	178.88
630.802	187.88
631.008	176.88
631.214	180.88
631.42	149.88
631.627	174.88
631.833	169.88
632.039	163.88
632.245	162.88
632.451	185.88
632.657	152.88
632.863	157.88
633.069	182.88
633.275	188.88
633.481	170.88
633.688	153.88
633.893	163.88
634.099	162.88
634.305	166.88
634.511	166.88
634.717	170.88
634.923	168.88
635.129	151.88
635.335	153.88
635.541	154.88
635.747	173.88
635.952	164.88
636.158	162.88
636.364	170.88
636.57	171.88
636.775	164.88
636.981	158.88
637.187	166.88
637.392	170.88
637.598	165.88
637.804	160.88
638.009	164.88
638.215	174.88
638.421	172.88
638.626	158.88
638.832	164.88
639.037	157.88
639.243	149.88
639.448	146.88
639.654	173.88
639.859	159.88
640.065	153.88
640.27	160.88
640.475	150.88
640.681	169.88
640.886	162.88
641.091	147.88
641.297	175.88
641.502	165.88
641.707	145.88
641.913	150.88
642.118	150.88
642.323	153.88
642.528	153.88
642.733	159.88
642.939	163.88
643.144	161.88
643.349	165.88
643.554	145.88
643.759	154.88
643.964	145.88
644.169	149.88
644.374	145.88
644.579	162.88
644.784	143.88
644.989	155.88
645.194	153.88
645.399	129.88
645.604	151.88
645.809	146.88
646.014	149.88
646.219	131.88
646.423	157.88
646.628	157.88
646.833	160.88
647.038	150.88
647.243	152.88
647.447	157.88
647.652	156.88
647.857	156.88
648.062	156.88
648.266	150.88
648.471	151.88
648.676	141.88
648.88	155.88
649.085	147.88
649.289	143.88
649.494	159.88
649.698	172.88
649.903	170.88
650.107	139.88
650.312	138.88
650.516	151.88
650.721	138.88
650.925	157.88
651.13	149.88
651.334	141.88
651.539	138.88
651.743	135.88
651.947	133.88
652.152	134.88
652.356	142.88
652.56	127.88
652.764	142.88
652.969	115.88
653.173	118.88
653.377	131.88
653.581	127.88
653.785	119.88
653.99	136.88
654.194	133.88
654.398	125.88
654.602	128.88
654.806	143.88
655.01	145.88
655.214	133.88
655.418	126.88
655.622	131.88
655.826	137.88
656.03	125.88
656.234	131.88
656.438	140.88
656.642	113.88
656.846	117.88
657.049	113.88
657.253	137.88
657.457	131.88
657.661	121.88
657.865	117.88
658.068	109.88
658.272	126.88
658.476	110.88
658.68	114.88
658.883	120.88
659.087	95.88
659.291	102.88
659.494	99.88
659.698	95.88
659.901	100.88
660.105	97.88
660.309	85.88
660.512	96.88
660.716	96.88
660.919	91.88
661.123	83.88
661.326	85.88
661.53	89.88
661.733	98.88
661.936	89.88
662.14	88.88
662.343	91.88
662.546	91.88
662.75	102.88
662.953	98.88
663.156	105.88
663.36	91.88
663.563	93.88
663.766	93.88
663.969	85.88
664.173	82.88
664.376	75.88
664.579	79.88
664.782	84.88
664.985	65.88
665.188	77.88
665.391	100.88
665.594	97.88
665.797	77.88
666	91.88
666.203	82.88
666.406	104.88
666.609	81.88
666.812	83.88
667.015	83.88
667.218	79.88
667.421	82.88
667.624	100.88
667.827	89.88
668.03	91.88
668.232	94.88
668.435	87.88
668.638	93.88
668.841	89.88
669.043	89.88
669.246	79.88
669.449	79.88
669.651	82.88
669.854	98.88
670.057	72.88
670.259	80.88
670.462	86.88
670.665	92.88
670.867	81.88
671.07	83.88
671.272	84.88
671.475	89.88
671.677	83.88
671.88	92.88
672.082	87.88
672.284	83.88
672.487	75.88
672.689	86.88
672.892	84.88
