Data from 1965.PennyLincolnUp.Lamp.En5.5.200Scan.071719.P1._HRD10591_14-10-28-912.txt Node
Date: Thu Jul 18 14:10:28 EDT 2019
User: cochatt
Spectrometer: HR+D1059
Trigger mode: 1
Integration Time (sec): 1.000000E-1
Scans to average: 1
Electric dark correction enabled: true
Nonlinearity correction enabled: false
Boxcar width: 0
XAxis mode: Wavelengths
Number of Pixels in Spectrum: 2048
>>>>>Begin Spectral Data<<<<<
223.165	-13.25
223.4	-13.25
223.635	-13.25
223.869	-18.25
224.104	-30.25
224.338	-5.25
224.573	-18.25
224.808	-10.25
225.042	-2.25
225.277	6.75
225.511	3.75
225.746	-4.25
225.98	8.75
226.215	6.75
226.449	17.75
226.683	9.75
226.918	18.75
227.152	29.75
227.387	29.75
227.621	52.75
227.856	49.75
228.09	49.75
228.324	53.75
228.559	53.75
228.793	45.75
229.027	100.75
229.262	101.75
229.496	94.75
229.73	142.75
229.964	149.75
230.199	121.75
230.433	109.75
230.667	107.75
230.901	109.75
231.136	114.75
231.37	102.75
231.604	113.75
231.838	101.75
232.072	93.75
232.306	105.75
232.541	114.75
232.775	114.75
233.009	111.75
233.243	116.75
233.477	113.75
233.711	114.75
233.945	110.75
234.179	101.75
234.413	115.75
234.647	123.75
234.881	101.75
235.115	110.75
235.349	125.75
235.583	106.75
235.817	117.75
236.051	116.75
236.285	127.75
236.519	125.75
236.753	130.75
236.987	154.75
237.221	182.75
237.455	240.75
237.689	172.75
237.922	140.75
238.156	124.75
238.39	117.75
238.624	130.75
238.858	128.75
239.091	117.75
239.325	120.75
239.559	116.75
239.793	119.75
240.027	119.75
240.26	137.75
240.494	162.75
240.728	142.75
240.961	150.75
241.195	144.75
241.429	133.75
241.662	136.75
241.896	128.75
242.13	118.75
242.363	123.75
242.597	138.75
242.83	114.75
243.064	122.75
243.298	120.75
243.531	130.75
243.765	121.75
243.998	149.75
244.232	129.75
244.465	137.75
244.699	123.75
244.932	130.75
245.166	140.75
245.399	129.75
245.633	127.75
245.866	142.75
246.099	141.75
246.333	127.75
246.566	135.75
246.8	126.75
247.033	134.75
247.266	152.75
247.5	151.75
247.733	150.75
247.966	147.75
248.2	153.75
248.433	157.75
248.666	156.75
248.899	177.75
249.133	184.75
249.366	202.75
249.599	184.75
249.832	177.75
250.066	163.75
250.299	155.75
250.532	180.75
250.765	193.75
250.998	203.75
251.231	189.75
251.465	194.75
251.698	200.75
251.931	180.75
252.164	181.75
252.397	187.75
252.63	179.75
252.863	190.75
253.096	210.75
253.329	197.75
253.562	211.75
253.795	209.75
254.028	190.75
254.261	197.75
254.494	221.75
254.727	244.75
254.96	257.75
255.193	270.75
255.426	242.75
255.659	208.75
255.892	221.75
256.124	213.75
256.357	210.75
256.59	203.75
256.823	191.75
257.056	210.75
257.289	191.75
257.521	191.75
257.754	192.75
257.987	179.75
258.22	207.75
258.452	200.75
258.685	209.75
258.918	184.75
259.151	199.75
259.383	211.75
259.616	209.75
259.849	207.75
260.081	218.75
260.314	221.75
260.547	257.75
260.779	234.75
261.012	220.75
261.244	208.75
261.477	207.75
261.71	210.75
261.942	220.75
262.175	219.75
262.407	216.75
262.64	198.75
262.872	203.75
263.105	185.75
263.337	194.75
263.57	188.75
263.802	197.75
264.035	198.75
264.267	206.75
264.499	180.75
264.732	197.75
264.964	199.75
265.197	192.75
265.429	191.75
265.661	188.75
265.894	203.75
266.126	201.75
266.358	200.75
266.591	200.75
266.823	217.75
267.055	198.75
267.287	204.75
267.52	215.75
267.752	206.75
267.984	215.75
268.216	212.75
268.448	215.75
268.681	227.75
268.913	214.75
269.145	250.75
269.377	245.75
269.609	230.75
269.841	236.75
270.073	259.75
270.306	269.75
270.538	299.75
270.77	293.75
271.002	282.75
271.234	267.75
271.466	273.75
271.698	292.75
271.93	298.75
272.162	295.75
272.394	288.75
272.626	267.75
272.858	263.75
273.09	253.75
273.322	258.75
273.553	249.75
273.785	258.75
274.017	227.75
274.249	253.75
274.481	233.75
274.713	255.75
274.945	247.75
275.176	238.75
275.408	247.75
275.64	232.75
275.872	248.75
276.104	257.75
276.335	228.75
276.567	244.75
276.799	276.75
277.031	277.75
277.262	287.75
277.494	290.75
277.726	280.75
277.957	269.75
278.189	268.75
278.421	267.75
278.652	256.75
278.884	246.75
279.115	241.75
279.347	248.75
279.579	253.75
279.81	219.75
280.042	247.75
280.273	242.75
280.505	226.75
280.736	228.75
280.968	226.75
281.199	236.75
281.431	235.75
281.662	239.75
281.894	247.75
282.125	245.75
282.356	274.75
282.588	294.75
282.819	279.75
283.051	234.75
283.282	253.75
283.513	249.75
283.745	245.75
283.976	231.75
284.207	267.75
284.439	244.75
284.67	242.75
284.901	252.75
285.132	236.75
285.364	259.75
285.595	285.75
285.826	248.75
286.057	237.75
286.288	237.75
286.52	231.75
286.751	247.75
286.982	239.75
287.213	267.75
287.444	270.75
287.675	262.75
287.906	269.75
288.138	265.75
288.369	265.75
288.6	280.75
288.831	281.75
289.062	270.75
289.293	271.75
289.524	260.75
289.755	269.75
289.986	275.75
290.217	264.75
290.448	249.75
290.679	260.75
290.91	247.75
291.141	263.75
291.371	245.75
291.602	266.75
291.833	258.75
292.064	267.75
292.295	257.75
292.526	251.75
292.757	259.75
292.987	258.75
293.218	261.75
293.449	269.75
293.68	252.75
293.91	260.75
294.141	255.75
294.372	253.75
294.603	258.75
294.833	248.75
295.064	268.75
295.295	267.75
295.525	266.75
295.756	248.75
295.987	279.75
296.217	297.75
296.448	317.75
296.679	275.75
296.909	278.75
297.14	275.75
297.37	253.75
297.601	268.75
297.831	276.75
298.062	263.75
298.292	271.75
298.523	277.75
298.753	269.75
298.984	270.75
299.214	286.75
299.445	263.75
299.675	279.75
299.905	269.75
300.136	267.75
300.366	279.75
300.597	266.75
300.827	268.75
301.057	287.75
301.288	289.75
301.518	286.75
301.748	295.75
301.979	290.75
302.209	286.75
302.439	276.75
302.669	291.75
302.9	293.75
303.13	289.75
303.36	295.75
303.59	279.75
303.82	286.75
304.051	290.75
304.281	292.75
304.511	285.75
304.741	282.75
304.971	299.75
305.201	295.75
305.431	279.75
305.661	301.75
305.891	303.75
306.121	302.75
306.352	302.75
306.582	294.75
306.812	301.75
307.042	291.75
307.272	289.75
307.502	311.75
307.731	291.75
307.961	293.75
308.191	297.75
308.421	292.75
308.651	304.75
308.881	295.75
309.111	301.75
309.341	299.75
309.571	306.75
309.8	329.75
310.03	326.75
310.26	355.75
310.49	332.75
310.72	350.75
310.949	372.75
311.179	371.75
311.409	344.75
311.639	364.75
311.868	354.75
312.098	362.75
312.328	356.75
312.557	362.75
312.787	397.75
313.017	393.75
313.246	387.75
313.476	343.75
313.706	354.75
313.935	366.75
314.165	359.75
314.394	386.75
314.624	367.75
314.853	345.75
315.083	353.75
315.312	338.75
315.542	330.75
315.771	339.75
316.001	325.75
316.23	346.75
316.46	333.75
316.689	364.75
316.919	345.75
317.148	353.75
317.377	367.75
317.607	374.75
317.836	366.75
318.065	365.75
318.295	344.75
318.524	342.75
318.753	339.75
318.983	345.75
319.212	348.75
319.441	345.75
319.67	340.75
319.9	344.75
320.129	349.75
320.358	339.75
320.587	351.75
320.816	352.75
321.046	383.75
321.275	381.75
321.504	382.75
321.733	384.75
321.962	390.75
322.191	397.75
322.42	393.75
322.649	417.75
322.878	420.75
323.108	441.75
323.337	462.75
323.566	493.75
323.795	513.75
324.024	577.75
324.253	722.75
324.482	1064.75
324.71	1654.75
324.939	2228.75
325.168	1823.75
325.397	988.75
325.626	641.75
325.855	548.75
326.084	495.75
326.313	509.75
326.542	506.75
326.77	541.75
326.999	673.75
327.228	946.75
327.457	1428.75
327.686	1634.75
327.914	1093.75
328.143	714.75
328.372	650.75
328.6	574.75
328.829	574.75
329.058	584.75
329.287	571.75
329.515	539.75
329.744	498.75
329.972	494.75
330.201	529.75
330.43	555.75
330.658	584.75
330.887	614.75
331.115	575.75
331.344	513.75
331.572	473.75
331.801	461.75
332.03	464.75
332.258	437.75
332.486	431.75
332.715	415.75
332.943	398.75
333.172	416.75
333.4	405.75
333.629	424.75
333.857	458.75
334.085	465.75
334.314	453.75
334.542	519.75
334.771	522.75
334.999	482.75
335.227	443.75
335.455	414.75
335.684	401.75
335.912	411.75
336.14	419.75
336.369	410.75
336.597	398.75
336.825	403.75
337.053	430.75
337.281	403.75
337.51	406.75
337.738	427.75
337.966	410.75
338.194	399.75
338.422	420.75
338.65	406.75
338.878	394.75
339.106	375.75
339.334	377.75
339.562	382.75
339.79	374.75
340.018	374.75
340.246	386.75
340.474	409.75
340.702	401.75
340.93	389.75
341.158	382.75
341.386	394.75
341.614	391.75
341.842	391.75
342.07	375.75
342.298	379.75
342.526	381.75
342.754	381.75
342.981	370.75
343.209	386.75
343.437	377.75
343.665	398.75
343.893	386.75
344.12	392.75
344.348	374.75
344.576	388.75
344.804	389.75
345.031	407.75
345.259	403.75
345.487	402.75
345.714	392.75
345.942	394.75
346.17	372.75
346.397	390.75
346.625	386.75
346.853	390.75
347.08	380.75
347.308	399.75
347.535	398.75
347.763	391.75
347.99	405.75
348.218	391.75
348.445	395.75
348.673	394.75
348.9	377.75
349.128	381.75
349.355	374.75
349.583	373.75
349.81	374.75
350.037	363.75
350.265	369.75
350.492	361.75
350.72	379.75
350.947	371.75
351.174	392.75
351.402	405.75
351.629	392.75
351.856	386.75
352.083	393.75
352.311	412.75
352.538	417.75
352.765	416.75
352.992	391.75
353.22	382.75
353.447	385.75
353.674	369.75
353.901	357.75
354.128	373.75
354.355	361.75
354.583	355.75
354.81	341.75
355.037	347.75
355.264	343.75
355.491	352.75
355.718	361.75
355.945	341.75
356.172	346.75
356.399	358.75
356.626	347.75
356.853	349.75
357.08	335.75
357.307	349.75
357.534	372.75
357.761	347.75
357.988	350.75
358.215	356.75
358.441	340.75
358.668	336.75
358.895	326.75
359.122	358.75
359.349	383.75
359.576	388.75
359.802	418.75
360.029	440.75
360.256	459.75
360.483	406.75
360.709	381.75
360.936	375.75
361.163	389.75
361.39	374.75
361.616	391.75
361.843	381.75
362.07	374.75
362.296	374.75
362.523	393.75
362.749	375.75
362.976	385.75
363.203	373.75
363.429	362.75
363.656	345.75
363.882	372.75
364.109	361.75
364.335	372.75
364.562	341.75
364.788	354.75
365.015	356.75
365.241	372.75
365.468	371.75
365.694	362.75
365.92	356.75
366.147	350.75
366.373	362.75
366.599	365.75
366.826	346.75
367.052	344.75
367.278	359.75
367.505	355.75
367.731	353.75
367.957	347.75
368.184	356.75
368.41	361.75
368.636	348.75
368.862	385.75
369.089	343.75
369.315	363.75
369.541	333.75
369.767	349.75
369.993	347.75
370.219	357.75
370.445	355.75
370.672	349.75
370.898	356.75
371.124	360.75
371.35	372.75
371.576	353.75
371.802	355.75
372.028	335.75
372.254	333.75
372.48	347.75
372.706	353.75
372.932	352.75
373.158	364.75
373.384	353.75
373.61	337.75
373.835	351.75
374.061	344.75
374.287	352.75
374.513	354.75
374.739	359.75
374.965	364.75
375.191	369.75
375.416	348.75
375.642	357.75
375.868	366.75
376.094	347.75
376.319	338.75
376.545	354.75
376.771	332.75
376.997	343.75
377.222	351.75
377.448	353.75
377.674	348.75
377.899	344.75
378.125	356.75
378.35	333.75
378.576	331.75
378.802	342.75
379.027	328.75
379.253	341.75
379.478	328.75
379.704	347.75
379.929	356.75
380.155	343.75
380.38	341.75
380.606	372.75
380.831	353.75
381.057	347.75
381.282	345.75
381.507	361.75
381.733	345.75
381.958	356.75
382.184	364.75
382.409	353.75
382.634	367.75
382.86	363.75
383.085	365.75
383.31	351.75
383.535	365.75
383.761	348.75
383.986	355.75
384.211	365.75
384.436	377.75
384.662	379.75
384.887	377.75
385.112	366.75
385.337	377.75
385.562	354.75
385.787	363.75
386.013	390.75
386.238	357.75
386.463	374.75
386.688	380.75
386.913	373.75
387.138	387.75
387.363	365.75
387.588	365.75
387.813	380.75
388.038	363.75
388.263	365.75
388.488	381.75
388.713	370.75
388.938	378.75
389.163	385.75
389.387	393.75
389.612	373.75
389.837	384.75
390.062	378.75
390.287	353.75
390.512	353.75
390.736	381.75
390.961	383.75
391.186	383.75
391.411	387.75
391.636	378.75
391.86	364.75
392.085	377.75
392.31	375.75
392.534	360.75
392.759	374.75
392.984	386.75
393.208	365.75
393.433	389.75
393.658	386.75
393.882	363.75
394.107	368.75
394.331	365.75
394.556	359.75
394.78	363.75
395.005	361.75
395.229	361.75
395.454	364.75
395.678	385.75
395.903	393.75
396.127	418.75
396.352	425.75
396.576	385.75
396.801	393.75
397.025	377.75
397.249	390.75
397.474	405.75
397.698	399.75
397.922	425.75
398.147	428.75
398.371	431.75
398.595	412.75
398.82	409.75
399.044	420.75
399.268	413.75
399.492	471.75
399.717	464.75
399.941	476.75
400.165	506.75
400.389	516.75
400.613	477.75
400.837	456.75
401.062	435.75
401.286	422.75
401.51	419.75
401.734	411.75
401.958	452.75
402.182	447.75
402.406	440.75
402.63	450.75
402.854	441.75
403.078	439.75
403.302	439.75
403.526	441.75
403.75	423.75
403.974	454.75
404.198	425.75
404.422	435.75
404.645	455.75
404.869	453.75
405.093	499.75
405.317	537.75
405.541	518.75
405.765	483.75
405.988	466.75
406.212	475.75
406.436	489.75
406.66	500.75
406.883	480.75
407.107	517.75
407.331	536.75
407.555	598.75
407.778	580.75
408.002	549.75
408.226	476.75
408.449	482.75
408.673	509.75
408.896	523.75
409.12	526.75
409.344	507.75
409.567	457.75
409.791	471.75
410.014	449.75
410.238	444.75
410.461	449.75
410.685	450.75
410.908	453.75
411.132	480.75
411.355	518.75
411.578	489.75
411.802	483.75
412.025	446.75
412.249	463.75
412.472	474.75
412.695	497.75
412.919	502.75
413.142	453.75
413.365	426.75
413.589	434.75
413.812	433.75
414.035	423.75
414.258	415.75
414.482	397.75
414.705	402.75
414.928	411.75
415.151	409.75
415.374	400.75
415.597	404.75
415.821	402.75
416.044	418.75
416.267	417.75
416.49	398.75
416.713	411.75
416.936	399.75
417.159	419.75
417.382	417.75
417.605	421.75
417.828	430.75
418.051	444.75
418.274	457.75
418.497	414.75
418.72	419.75
418.943	408.75
419.166	419.75
419.389	437.75
419.611	427.75
419.834	444.75
420.057	430.75
420.28	440.75
420.503	442.75
420.726	434.75
420.948	466.75
421.171	500.75
421.394	518.75
421.617	478.75
421.839	437.75
422.062	436.75
422.285	448.75
422.507	493.75
422.73	561.75
422.953	529.75
423.175	459.75
423.398	465.75
423.621	457.75
423.843	481.75
424.066	481.75
424.288	477.75
424.511	492.75
424.733	545.75
424.956	581.75
425.178	555.75
425.401	593.75
425.623	589.75
425.846	529.75
426.068	468.75
426.291	465.75
426.513	457.75
426.735	493.75
426.958	520.75
427.18	617.75
427.402	703.75
427.625	749.75
427.847	663.75
428.069	587.75
428.292	548.75
428.514	482.75
428.736	445.75
428.958	471.75
429.181	449.75
429.403	441.75
429.625	448.75
429.847	491.75
430.069	533.75
430.292	569.75
430.514	481.75
430.736	437.75
430.958	449.75
431.18	423.75
431.402	420.75
431.624	404.75
431.846	410.75
432.068	399.75
432.29	433.75
432.512	432.75
432.734	430.75
432.956	409.75
433.178	438.75
433.4	421.75
433.622	438.75
433.844	424.75
434.066	409.75
434.287	430.75
434.509	430.75
434.731	403.75
434.953	437.75
435.175	449.75
435.397	473.75
435.618	477.75
435.84	522.75
436.062	585.75
436.284	663.75
436.505	540.75
436.727	518.75
436.949	457.75
437.17	449.75
437.392	444.75
437.614	456.75
437.835	508.75
438.057	605.75
438.278	677.75
438.5	657.75
438.721	713.75
438.943	656.75
439.165	574.75
439.386	503.75
439.608	490.75
439.829	509.75
440.05	530.75
440.272	567.75
440.493	539.75
440.715	505.75
440.936	471.75
441.158	460.75
441.379	455.75
441.6	471.75
441.822	474.75
442.043	547.75
442.264	583.75
442.486	622.75
442.707	535.75
442.928	503.75
443.149	503.75
443.371	508.75
443.592	565.75
443.813	653.75
444.034	669.75
444.255	570.75
444.476	494.75
444.698	485.75
444.919	488.75
445.14	603.75
445.361	534.75
445.582	529.75
445.803	606.75
446.024	685.75
446.245	685.75
446.466	628.75
446.687	526.75
446.908	483.75
447.129	462.75
447.35	444.75
447.571	442.75
447.792	457.75
448.013	469.75
448.234	460.75
448.455	543.75
448.675	623.75
448.896	711.75
449.117	629.75
449.338	576.75
449.559	685.75
449.779	716.75
450	586.75
450.221	513.75
450.442	481.75
450.662	461.75
450.883	454.75
451.104	482.75
451.324	464.75
451.545	433.75
451.766	407.75
451.986	403.75
452.207	409.75
452.428	410.75
452.648	406.75
452.869	404.75
453.089	422.75
453.31	428.75
453.53	407.75
453.751	409.75
453.971	431.75
454.192	439.75
454.412	408.75
454.633	402.75
454.853	399.75
455.073	399.75
455.294	426.75
455.514	488.75
455.734	482.75
455.955	393.75
456.175	380.75
456.395	393.75
456.616	384.75
456.836	389.75
457.056	379.75
457.276	379.75
457.497	376.75
457.717	378.75
457.937	385.75
458.157	387.75
458.377	409.75
458.598	414.75
458.818	492.75
459.038	555.75
459.258	580.75
459.478	460.75
459.698	426.75
459.918	439.75
460.138	424.75
460.358	435.75
460.578	417.75
460.798	428.75
461.018	414.75
461.238	417.75
461.458	413.75
461.678	405.75
461.898	412.75
462.118	415.75
462.338	414.75
462.558	436.75
462.777	420.75
462.997	426.75
463.217	424.75
463.437	437.75
463.657	441.75
463.876	434.75
464.096	442.75
464.316	451.75
464.536	453.75
464.755	451.75
464.975	476.75
465.195	500.75
465.414	622.75
465.634	537.75
465.854	469.75
466.073	430.75
466.293	424.75
466.512	428.75
466.732	418.75
466.951	400.75
467.171	402.75
467.391	400.75
467.61	410.75
467.829	445.75
468.049	440.75
468.268	435.75
468.488	406.75
468.707	415.75
468.927	402.75
469.146	404.75
469.365	410.75
469.585	409.75
469.804	408.75
470.023	438.75
470.243	421.75
470.462	409.75
470.681	455.75
470.901	444.75
471.12	450.75
471.339	419.75
471.558	417.75
471.777	402.75
471.997	405.75
472.216	427.75
472.435	467.75
472.654	468.75
472.873	422.75
473.092	435.75
473.311	409.75
473.53	420.75
473.749	441.75
473.968	471.75
474.187	550.75
474.406	571.75
474.625	483.75
474.844	444.75
475.063	435.75
475.282	410.75
475.501	430.75
475.72	456.75
475.939	427.75
476.158	418.75
476.377	434.75
476.596	417.75
476.814	437.75
477.033	446.75
477.252	441.75
477.471	428.75
477.69	436.75
477.908	445.75
478.127	446.75
478.346	461.75
478.564	449.75
478.783	459.75
479.002	482.75
479.22	486.75
479.439	487.75
479.658	520.75
479.876	520.75
480.095	519.75
480.313	534.75
480.532	541.75
480.751	501.75
480.969	537.75
481.188	603.75
481.406	660.75
481.624	573.75
481.843	509.75
482.061	508.75
482.28	490.75
482.498	490.75
482.717	472.75
482.935	483.75
483.153	490.75
483.372	473.75
483.59	476.75
483.808	497.75
484.027	493.75
484.245	511.75
484.463	489.75
484.681	503.75
484.9	499.75
485.118	516.75
485.336	499.75
485.554	495.75
485.772	493.75
485.99	526.75
486.209	523.75
486.427	511.75
486.645	535.75
486.863	565.75
487.081	551.75
487.299	540.75
487.517	550.75
487.735	519.75
487.953	528.75
488.171	493.75
488.389	523.75
488.607	553.75
488.825	525.75
489.043	524.75
489.261	534.75
489.479	527.75
489.696	543.75
489.914	548.75
490.132	541.75
490.35	570.75
490.568	553.75
490.786	542.75
491.003	554.75
491.221	574.75
491.439	584.75
491.657	609.75
491.874	623.75
492.092	615.75
492.31	623.75
492.527	638.75
492.745	611.75
492.963	614.75
493.18	611.75
493.398	621.75
493.615	628.75
493.833	625.75
494.05	607.75
494.268	626.75
494.485	618.75
494.703	622.75
494.92	626.75
495.138	617.75
495.355	641.75
495.573	613.75
495.79	615.75
496.008	628.75
496.225	605.75
496.442	631.75
496.66	625.75
496.877	632.75
497.094	621.75
497.312	644.75
497.529	640.75
497.746	649.75
497.963	647.75
498.181	681.75
498.398	665.75
498.615	663.75
498.832	686.75
499.049	690.75
499.267	681.75
499.484	715.75
499.701	762.75
499.918	748.75
500.135	733.75
500.352	781.75
500.569	794.75
500.786	780.75
501.003	794.75
501.22	765.75
501.437	772.75
501.654	749.75
501.871	759.75
502.088	753.75
502.305	714.75
502.522	677.75
502.739	701.75
502.956	649.75
503.172	651.75
503.389	637.75
503.606	654.75
503.823	660.75
504.04	649.75
504.256	631.75
504.473	599.75
504.69	631.75
504.907	601.75
505.123	610.75
505.34	626.75
505.557	622.75
505.773	633.75
505.99	625.75
506.207	619.75
506.423	609.75
506.64	611.75
506.856	632.75
507.073	607.75
507.289	609.75
507.506	569.75
507.722	598.75
507.939	622.75
508.155	598.75
508.372	594.75
508.588	572.75
508.805	579.75
509.021	569.75
509.238	597.75
509.454	588.75
509.67	593.75
509.887	607.75
510.103	581.75
510.319	601.75
510.536	712.75
510.752	1260.75
510.968	992.75
511.184	634.75
511.401	573.75
511.617	566.75
511.833	563.75
512.049	563.75
512.265	582.75
512.481	557.75
512.698	525.75
512.914	548.75
513.13	550.75
513.346	568.75
513.562	537.75
513.778	563.75
513.994	576.75
514.21	577.75
514.426	612.75
514.642	649.75
514.858	696.75
515.074	720.75
515.29	920.75
515.506	1405.75
515.721	1089.75
515.937	723.75
516.153	629.75
516.369	612.75
516.585	595.75
516.801	555.75
517.016	555.75
517.232	568.75
517.448	546.75
517.664	574.75
517.879	572.75
518.095	543.75
518.311	556.75
518.527	551.75
518.742	548.75
518.958	565.75
519.173	533.75
519.389	531.75
519.605	534.75
519.82	556.75
520.036	602.75
520.251	630.75
520.467	629.75
520.682	633.75
520.898	639.75
521.113	661.75
521.329	739.75
521.544	828.75
521.76	1103.75
521.975	1891.75
522.19	1794.75
522.406	921.75
522.621	671.75
522.836	598.75
523.052	553.75
523.267	543.75
523.482	542.75
523.698	523.75
523.913	522.75
524.128	524.75
524.343	508.75
524.559	482.75
524.774	471.75
524.989	493.75
525.204	498.75
525.419	492.75
525.634	475.75
525.849	487.75
526.064	478.75
526.28	457.75
526.495	465.75
526.71	445.75
526.925	460.75
527.14	443.75
527.355	432.75
527.57	444.75
527.785	472.75
527.999	415.75
528.214	446.75
528.429	458.75
528.644	439.75
528.859	439.75
529.074	458.75
529.289	489.75
529.503	571.75
529.718	534.75
529.933	501.75
530.148	474.75
530.363	462.75
530.577	423.75
530.792	445.75
531.007	447.75
531.221	439.75
531.436	431.75
531.651	423.75
531.865	415.75
532.08	403.75
532.295	431.75
532.509	412.75
532.724	437.75
532.938	445.75
533.153	421.75
533.367	415.75
533.582	424.75
533.796	422.75
534.011	419.75
534.225	414.75
534.44	419.75
534.654	404.75
534.868	407.75
535.083	418.75
535.297	407.75
535.511	420.75
535.726	442.75
535.94	439.75
536.154	428.75
536.369	426.75
536.583	384.75
536.797	423.75
537.011	415.75
537.225	411.75
537.44	395.75
537.654	402.75
537.868	397.75
538.082	405.75
538.296	413.75
538.51	414.75
538.724	403.75
538.938	407.75
539.153	403.75
539.367	419.75
539.581	443.75
539.795	420.75
540.009	410.75
540.222	408.75
540.436	395.75
540.65	403.75
540.864	414.75
541.078	419.75
541.292	424.75
541.506	413.75
541.72	398.75
541.934	393.75
542.147	389.75
542.361	393.75
542.575	409.75
542.789	405.75
543.002	397.75
543.216	409.75
543.43	412.75
543.644	396.75
543.857	412.75
544.071	393.75
544.285	381.75
544.498	404.75
544.712	369.75
544.925	387.75
545.139	386.75
545.352	372.75
545.566	378.75
545.779	398.75
545.993	384.75
546.206	391.75
546.42	391.75
546.633	378.75
546.847	369.75
547.06	389.75
547.274	385.75
547.487	389.75
547.7	367.75
547.914	394.75
548.127	380.75
548.34	393.75
548.554	367.75
548.767	387.75
548.98	385.75
549.193	373.75
549.407	380.75
549.62	381.75
549.833	369.75
550.046	365.75
550.259	371.75
550.473	375.75
550.686	372.75
550.899	364.75
551.112	361.75
551.325	373.75
551.538	385.75
551.751	357.75
551.964	368.75
552.177	373.75
552.39	387.75
552.603	372.75
552.816	392.75
553.029	371.75
553.242	370.75
553.455	374.75
553.667	385.75
553.88	393.75
554.093	380.75
554.306	395.75
554.519	357.75
554.732	363.75
554.944	366.75
555.157	362.75
555.37	362.75
555.583	342.75
555.795	360.75
556.008	346.75
556.221	334.75
556.433	352.75
556.646	349.75
556.859	357.75
557.071	331.75
557.284	345.75
557.496	353.75
557.709	372.75
557.921	338.75
558.134	355.75
558.346	345.75
558.559	335.75
558.771	334.75
558.984	344.75
559.196	339.75
559.409	337.75
559.621	362.75
559.833	342.75
560.046	334.75
560.258	336.75
560.47	344.75
560.683	352.75
560.895	339.75
561.107	354.75
561.32	336.75
561.532	345.75
561.744	338.75
561.956	329.75
562.168	321.75
562.381	331.75
562.593	341.75
562.805	329.75
563.017	338.75
563.229	329.75
563.441	327.75
563.653	329.75
563.865	316.75
564.077	337.75
564.289	332.75
564.501	347.75
564.713	326.75
564.925	331.75
565.137	358.75
565.349	357.75
565.561	371.75
565.773	361.75
565.985	353.75
566.197	348.75
566.408	369.75
566.62	373.75
566.832	381.75
567.044	379.75
567.255	383.75
567.467	393.75
567.679	390.75
567.891	390.75
568.102	373.75
568.314	396.75
568.526	371.75
568.737	359.75
568.949	358.75
569.161	354.75
569.372	360.75
569.584	343.75
569.795	343.75
570.007	365.75
570.218	383.75
570.43	396.75
570.641	331.75
570.853	318.75
571.064	320.75
571.276	317.75
571.487	309.75
571.698	321.75
571.91	300.75
572.121	308.75
572.333	315.75
572.544	311.75
572.755	310.75
572.966	305.75
573.178	301.75
573.389	295.75
573.6	285.75
573.811	291.75
574.023	282.75
574.234	294.75
574.445	275.75
574.656	285.75
574.867	308.75
575.078	281.75
575.289	286.75
575.501	288.75
575.712	284.75
575.923	272.75
576.134	284.75
576.345	290.75
576.556	292.75
576.767	277.75
576.978	285.75
577.188	292.75
577.399	305.75
577.61	281.75
577.821	271.75
578.032	298.75
578.243	327.75
578.454	577.75
578.665	391.75
578.875	300.75
579.086	285.75
579.297	278.75
579.508	259.75
579.718	267.75
579.929	281.75
580.14	260.75
580.35	262.75
580.561	276.75
580.772	270.75
580.982	272.75
581.193	260.75
581.403	261.75
581.614	273.75
581.825	248.75
582.035	253.75
582.246	261.75
582.456	281.75
582.667	249.75
582.877	249.75
583.087	249.75
583.298	264.75
583.508	250.75
583.719	272.75
583.929	260.75
584.139	244.75
584.35	268.75
584.56	277.75
584.77	271.75
584.981	280.75
585.191	262.75
585.401	275.75
585.611	268.75
585.821	247.75
586.032	265.75
586.242	263.75
586.452	263.75
586.662	251.75
586.872	255.75
587.082	274.75
587.292	263.75
587.502	267.75
587.713	264.75
587.923	249.75
588.133	257.75
588.343	269.75
588.553	262.75
588.762	262.75
588.972	250.75
589.182	284.75
589.392	278.75
589.602	255.75
589.812	286.75
590.022	269.75
590.232	237.75
590.441	248.75
590.651	248.75
590.861	238.75
591.071	250.75
591.281	255.75
591.49	263.75
591.7	269.75
591.91	233.75
592.119	242.75
592.329	259.75
592.539	258.75
592.748	247.75
592.958	235.75
593.167	247.75
593.377	258.75
593.587	276.75
593.796	258.75
594.006	246.75
594.215	247.75
594.424	245.75
594.634	273.75
594.843	257.75
595.053	253.75
595.262	266.75
595.472	257.75
595.681	263.75
595.89	238.75
596.1	238.75
596.309	267.75
596.518	251.75
596.727	252.75
596.937	237.75
597.146	230.75
597.355	229.75
597.564	236.75
597.774	259.75
597.983	233.75
598.192	223.75
598.401	228.75
598.61	223.75
598.819	228.75
599.028	229.75
599.237	244.75
599.446	220.75
599.655	215.75
599.864	216.75
600.073	230.75
600.282	222.75
600.491	215.75
600.7	231.75
600.909	249.75
601.118	214.75
601.327	229.75
601.536	223.75
601.745	208.75
601.953	235.75
602.162	225.75
602.371	219.75
602.58	218.75
602.789	212.75
602.997	224.75
603.206	215.75
603.415	210.75
603.623	214.75
603.832	207.75
604.041	216.75
604.249	217.75
604.458	208.75
604.666	199.75
604.875	216.75
605.084	219.75
605.292	208.75
605.501	206.75
605.709	204.75
605.918	190.75
606.126	218.75
606.334	214.75
606.543	219.75
606.751	215.75
606.96	202.75
607.168	206.75
607.376	202.75
607.585	196.75
607.793	217.75
608.001	229.75
608.21	203.75
608.418	200.75
608.626	199.75
608.834	216.75
609.043	217.75
609.251	204.75
609.459	213.75
609.667	223.75
609.875	218.75
610.083	194.75
610.291	224.75
610.499	215.75
610.707	218.75
610.916	218.75
611.124	213.75
611.332	213.75
611.54	229.75
611.748	217.75
611.955	216.75
612.163	222.75
612.371	217.75
612.579	203.75
612.787	212.75
612.995	219.75
613.203	209.75
613.411	212.75
613.618	202.75
613.826	202.75
614.034	205.75
614.242	188.75
614.449	204.75
614.657	191.75
614.865	202.75
615.072	195.75
615.28	196.75
615.488	196.75
615.695	210.75
615.903	206.75
616.111	199.75
616.318	188.75
616.526	206.75
616.733	208.75
616.941	207.75
617.148	205.75
617.356	209.75
617.563	217.75
617.771	205.75
617.978	211.75
618.185	197.75
618.393	220.75
618.6	201.75
618.807	205.75
619.015	212.75
619.222	204.75
619.429	189.75
619.637	211.75
619.844	189.75
620.051	200.75
620.258	196.75
620.466	181.75
620.673	189.75
620.88	177.75
621.087	192.75
621.294	186.75
621.501	181.75
621.708	201.75
621.915	215.75
622.122	189.75
622.329	194.75
622.536	198.75
622.743	198.75
622.95	195.75
623.157	193.75
623.364	185.75
623.571	196.75
623.778	201.75
623.985	179.75
624.192	173.75
624.399	187.75
624.606	191.75
624.812	207.75
625.019	183.75
625.226	181.75
625.433	173.75
625.639	165.75
625.846	191.75
626.053	187.75
626.259	190.75
626.466	177.75
626.673	169.75
626.879	193.75
627.086	191.75
627.293	175.75
627.499	185.75
627.706	179.75
627.912	172.75
628.119	181.75
628.325	177.75
628.532	184.75
628.738	164.75
628.945	184.75
629.151	174.75
629.357	183.75
629.564	171.75
629.77	170.75
629.976	168.75
630.183	186.75
630.389	187.75
630.595	169.75
630.802	179.75
631.008	167.75
631.214	167.75
631.42	178.75
631.627	176.75
631.833	172.75
632.039	154.75
632.245	160.75
632.451	166.75
632.657	183.75
632.863	166.75
633.069	181.75
633.275	169.75
633.481	161.75
633.688	171.75
633.893	166.75
634.099	174.75
634.305	166.75
634.511	168.75
634.717	178.75
634.923	154.75
635.129	166.75
635.335	164.75
635.541	184.75
635.747	164.75
635.952	166.75
636.158	168.75
636.364	165.75
636.57	168.75
636.775	166.75
636.981	169.75
637.187	162.75
637.392	149.75
637.598	171.75
637.804	171.75
638.009	146.75
638.215	151.75
638.421	168.75
638.626	147.75
638.832	165.75
639.037	165.75
639.243	163.75
639.448	157.75
639.654	150.75
639.859	153.75
640.065	163.75
640.27	161.75
640.475	163.75
640.681	163.75
640.886	159.75
641.091	155.75
641.297	156.75
641.502	149.75
641.707	154.75
641.913	170.75
642.118	146.75
642.323	149.75
642.528	154.75
642.733	145.75
642.939	138.75
643.144	154.75
643.349	158.75
643.554	143.75
643.759	151.75
643.964	142.75
644.169	139.75
644.374	144.75
644.579	144.75
644.784	148.75
644.989	147.75
645.194	157.75
645.399	155.75
645.604	165.75
645.809	157.75
646.014	154.75
646.219	150.75
646.423	154.75
646.628	163.75
646.833	168.75
647.038	155.75
647.243	142.75
647.447	151.75
647.652	134.75
647.857	146.75
648.062	132.75
648.266	151.75
648.471	155.75
648.676	152.75
648.88	144.75
649.085	156.75
649.289	147.75
649.494	157.75
649.698	172.75
649.903	168.75
650.107	157.75
650.312	156.75
650.516	149.75
650.721	136.75
650.925	156.75
651.13	143.75
651.334	141.75
651.539	138.75
651.743	145.75
651.947	133.75
652.152	150.75
652.356	129.75
652.56	132.75
652.764	136.75
652.969	135.75
653.173	127.75
653.377	147.75
653.581	117.75
653.785	132.75
653.99	133.75
654.194	142.75
654.398	118.75
654.602	124.75
654.806	137.75
655.01	140.75
655.214	134.75
655.418	123.75
655.622	117.75
655.826	123.75
656.03	127.75
656.234	132.75
656.438	122.75
656.642	134.75
656.846	136.75
657.049	131.75
657.253	127.75
657.457	119.75
657.661	99.75
657.865	117.75
658.068	97.75
658.272	115.75
658.476	106.75
658.68	99.75
658.883	117.75
659.087	92.75
659.291	105.75
659.494	98.75
659.698	88.75
659.901	95.75
660.105	84.75
660.309	86.75
660.512	86.75
660.716	97.75
660.919	88.75
661.123	97.75
661.326	69.75
661.53	76.75
661.733	68.75
661.936	74.75
662.14	88.75
662.343	83.75
662.546	85.75
662.75	86.75
662.953	98.75
663.156	84.75
663.36	97.75
663.563	84.75
663.766	82.75
663.969	83.75
664.173	74.75
664.376	85.75
664.579	89.75
664.782	90.75
664.985	74.75
665.188	73.75
665.391	90.75
665.594	72.75
665.797	85.75
666	74.75
666.203	81.75
666.406	72.75
666.609	83.75
666.812	94.75
667.015	83.75
667.218	81.75
667.421	69.75
667.624	70.75
667.827	91.75
668.03	71.75
668.232	82.75
668.435	72.75
668.638	81.75
668.841	84.75
669.043	90.75
669.246	84.75
669.449	99.75
669.651	95.75
669.854	77.75
670.057	88.75
670.259	91.75
670.462	78.75
670.665	86.75
670.867	92.75
671.07	90.75
671.272	79.75
671.475	97.75
671.677	79.75
671.88	85.75
672.082	84.75
672.284	87.75
672.487	85.75
672.689	76.75
672.892	83.75
