Data from 1965.PennyLincolnUp.Lamp.En5.5.200Scan.071719.P1._HRD10591_14-07-52-910.txt Node
Date: Thu Jul 18 14:07:52 EDT 2019
User: cochatt
Spectrometer: HR+D1059
Trigger mode: 1
Integration Time (sec): 1.000000E-1
Scans to average: 1
Electric dark correction enabled: true
Nonlinearity correction enabled: false
Boxcar width: 0
XAxis mode: Wavelengths
Number of Pixels in Spectrum: 2048
>>>>>Begin Spectral Data<<<<<
223.165	-25.94
223.4	-25.94
223.635	-25.94
223.869	-13.94
224.104	-18.94
224.338	-20.94
224.573	-12.94
224.808	-5.94
225.042	-6.94
225.277	-6.94
225.511	-5.94
225.746	0.06
225.98	-7.94
226.215	12.06
226.449	12.06
226.683	28.06
226.918	32.06
227.152	42.06
227.387	28.06
227.621	53.06
227.856	46.06
228.09	48.06
228.324	47.06
228.559	55.06
228.793	64.06
229.027	94.06
229.262	103.06
229.496	101.06
229.73	103.06
229.964	125.06
230.199	110.06
230.433	99.06
230.667	92.06
230.901	92.06
231.136	98.06
231.37	111.06
231.604	106.06
231.838	88.06
232.072	109.06
232.306	91.06
232.541	92.06
232.775	97.06
233.009	83.06
233.243	98.06
233.477	101.06
233.711	107.06
233.945	110.06
234.179	104.06
234.413	104.06
234.647	111.06
234.881	112.06
235.115	101.06
235.349	89.06
235.583	107.06
235.817	103.06
236.051	105.06
236.285	125.06
236.519	118.06
236.753	97.06
236.987	91.06
237.221	137.06
237.455	195.06
237.689	159.06
237.922	108.06
238.156	127.06
238.39	127.06
238.624	103.06
238.858	104.06
239.091	111.06
239.325	109.06
239.559	107.06
239.793	100.06
240.027	109.06
240.26	121.06
240.494	125.06
240.728	128.06
240.961	122.06
241.195	123.06
241.429	112.06
241.662	111.06
241.896	110.06
242.13	117.06
242.363	103.06
242.597	119.06
242.83	122.06
243.064	99.06
243.298	113.06
243.531	120.06
243.765	124.06
243.998	116.06
244.232	141.06
244.465	122.06
244.699	122.06
244.932	125.06
245.166	130.06
245.399	127.06
245.633	117.06
245.866	135.06
246.099	124.06
246.333	120.06
246.566	145.06
246.8	135.06
247.033	123.06
247.266	130.06
247.5	137.06
247.733	141.06
247.966	126.06
248.2	143.06
248.433	124.06
248.666	128.06
248.899	160.06
249.133	162.06
249.366	167.06
249.599	161.06
249.832	136.06
250.066	153.06
250.299	166.06
250.532	153.06
250.765	155.06
250.998	156.06
251.231	181.06
251.465	175.06
251.698	162.06
251.931	167.06
252.164	152.06
252.397	176.06
252.63	160.06
252.863	162.06
253.096	160.06
253.329	176.06
253.562	171.06
253.795	187.06
254.028	161.06
254.261	185.06
254.494	171.06
254.727	197.06
254.96	219.06
255.193	209.06
255.426	196.06
255.659	179.06
255.892	165.06
256.124	184.06
256.357	176.06
256.59	180.06
256.823	183.06
257.056	192.06
257.289	172.06
257.521	163.06
257.754	168.06
257.987	161.06
258.22	167.06
258.452	156.06
258.685	174.06
258.918	165.06
259.151	163.06
259.383	171.06
259.616	185.06
259.849	170.06
260.081	174.06
260.314	176.06
260.547	189.06
260.779	181.06
261.012	187.06
261.244	184.06
261.477	192.06
261.71	164.06
261.942	177.06
262.175	183.06
262.407	176.06
262.64	177.06
262.872	170.06
263.105	166.06
263.337	182.06
263.57	180.06
263.802	163.06
264.035	175.06
264.267	189.06
264.499	166.06
264.732	162.06
264.964	175.06
265.197	175.06
265.429	165.06
265.661	157.06
265.894	171.06
266.126	182.06
266.358	171.06
266.591	171.06
266.823	174.06
267.055	174.06
267.287	175.06
267.52	187.06
267.752	179.06
267.984	170.06
268.216	187.06
268.448	186.06
268.681	180.06
268.913	174.06
269.145	209.06
269.377	197.06
269.609	209.06
269.841	199.06
270.073	214.06
270.306	212.06
270.538	233.06
270.77	240.06
271.002	233.06
271.234	222.06
271.466	230.06
271.698	223.06
271.93	229.06
272.162	215.06
272.394	246.06
272.626	235.06
272.858	219.06
273.09	199.06
273.322	213.06
273.553	201.06
273.785	216.06
274.017	214.06
274.249	190.06
274.481	203.06
274.713	208.06
274.945	205.06
275.176	201.06
275.408	213.06
275.64	213.06
275.872	196.06
276.104	193.06
276.335	208.06
276.567	184.06
276.799	231.06
277.031	211.06
277.262	229.06
277.494	235.06
277.726	237.06
277.957	216.06
278.189	221.06
278.421	213.06
278.652	225.06
278.884	200.06
279.115	208.06
279.347	206.06
279.579	192.06
279.81	201.06
280.042	208.06
280.273	216.06
280.505	207.06
280.736	195.06
280.968	187.06
281.199	222.06
281.431	204.06
281.662	199.06
281.894	209.06
282.125	228.06
282.356	233.06
282.588	233.06
282.819	231.06
283.051	213.06
283.282	216.06
283.513	216.06
283.745	206.06
283.976	223.06
284.207	217.06
284.439	202.06
284.67	195.06
284.901	221.06
285.132	212.06
285.364	211.06
285.595	199.06
285.826	231.06
286.057	198.06
286.288	214.06
286.52	233.06
286.751	220.06
286.982	238.06
287.213	206.06
287.444	224.06
287.675	215.06
287.906	233.06
288.138	220.06
288.369	228.06
288.6	223.06
288.831	230.06
289.062	225.06
289.293	226.06
289.524	217.06
289.755	216.06
289.986	234.06
290.217	219.06
290.448	228.06
290.679	226.06
290.91	215.06
291.141	201.06
291.371	210.06
291.602	243.06
291.833	215.06
292.064	243.06
292.295	224.06
292.526	234.06
292.757	220.06
292.987	224.06
293.218	216.06
293.449	225.06
293.68	228.06
293.91	219.06
294.141	231.06
294.372	228.06
294.603	224.06
294.833	212.06
295.064	231.06
295.295	228.06
295.525	218.06
295.756	233.06
295.987	240.06
296.217	237.06
296.448	255.06
296.679	224.06
296.909	236.06
297.14	235.06
297.37	237.06
297.601	222.06
297.831	227.06
298.062	243.06
298.292	232.06
298.523	235.06
298.753	234.06
298.984	230.06
299.214	239.06
299.445	228.06
299.675	222.06
299.905	239.06
300.136	236.06
300.366	237.06
300.597	245.06
300.827	248.06
301.057	261.06
301.288	256.06
301.518	251.06
301.748	248.06
301.979	243.06
302.209	246.06
302.439	247.06
302.669	236.06
302.9	271.06
303.13	261.06
303.36	267.06
303.59	259.06
303.82	264.06
304.051	255.06
304.281	247.06
304.511	262.06
304.741	239.06
304.971	258.06
305.201	269.06
305.431	256.06
305.661	253.06
305.891	269.06
306.121	247.06
306.352	246.06
306.582	239.06
306.812	248.06
307.042	265.06
307.272	244.06
307.502	272.06
307.731	257.06
307.961	253.06
308.191	247.06
308.421	254.06
308.651	254.06
308.881	244.06
309.111	269.06
309.341	256.06
309.571	272.06
309.8	273.06
310.03	286.06
310.26	300.06
310.49	269.06
310.72	317.06
310.949	295.06
311.179	324.06
311.409	287.06
311.639	281.06
311.868	285.06
312.098	276.06
312.328	268.06
312.557	299.06
312.787	307.06
313.017	302.06
313.246	303.06
313.476	273.06
313.706	272.06
313.935	296.06
314.165	308.06
314.394	298.06
314.624	289.06
314.853	295.06
315.083	280.06
315.312	282.06
315.542	279.06
315.771	282.06
316.001	292.06
316.23	283.06
316.46	286.06
316.689	288.06
316.919	288.06
317.148	303.06
317.377	307.06
317.607	297.06
317.836	300.06
318.065	285.06
318.295	281.06
318.524	274.06
318.753	296.06
318.983	296.06
319.212	296.06
319.441	287.06
319.67	305.06
319.9	300.06
320.129	293.06
320.358	289.06
320.587	318.06
320.816	309.06
321.046	309.06
321.275	297.06
321.504	314.06
321.733	315.06
321.962	318.06
322.191	317.06
322.42	321.06
322.649	324.06
322.878	348.06
323.108	333.06
323.337	372.06
323.566	369.06
323.795	409.06
324.024	427.06
324.253	501.06
324.482	709.06
324.71	1037.06
324.939	1451.06
325.168	1218.06
325.397	670.06
325.626	451.06
325.855	401.06
326.084	371.06
326.313	367.06
326.542	384.06
326.77	423.06
326.999	484.06
327.228	625.06
327.457	959.06
327.686	1071.06
327.914	731.06
328.143	514.06
328.372	425.06
328.6	407.06
328.829	408.06
329.058	416.06
329.287	422.06
329.515	389.06
329.744	377.06
329.972	364.06
330.201	379.06
330.43	396.06
330.658	451.06
330.887	451.06
331.115	423.06
331.344	363.06
331.572	364.06
331.801	353.06
332.03	359.06
332.258	352.06
332.486	348.06
332.715	340.06
332.943	342.06
333.172	318.06
333.4	324.06
333.629	357.06
333.857	357.06
334.085	372.06
334.314	374.06
334.542	393.06
334.771	376.06
334.999	363.06
335.227	349.06
335.455	347.06
335.684	336.06
335.912	327.06
336.14	335.06
336.369	342.06
336.597	326.06
336.825	340.06
337.053	336.06
337.281	344.06
337.51	334.06
337.738	335.06
337.966	329.06
338.194	339.06
338.422	330.06
338.65	332.06
338.878	334.06
339.106	323.06
339.334	336.06
339.562	312.06
339.79	320.06
340.018	306.06
340.246	341.06
340.474	313.06
340.702	323.06
340.93	337.06
341.158	322.06
341.386	325.06
341.614	324.06
341.842	324.06
342.07	331.06
342.298	318.06
342.526	315.06
342.754	313.06
342.981	318.06
343.209	311.06
343.437	313.06
343.665	317.06
343.893	339.06
344.12	346.06
344.348	331.06
344.576	340.06
344.804	327.06
345.031	345.06
345.259	355.06
345.487	343.06
345.714	326.06
345.942	336.06
346.17	320.06
346.397	323.06
346.625	327.06
346.853	298.06
347.08	327.06
347.308	325.06
347.535	333.06
347.763	339.06
347.99	331.06
348.218	327.06
348.445	318.06
348.673	324.06
348.9	317.06
349.128	312.06
349.355	313.06
349.583	325.06
349.81	321.06
350.037	325.06
350.265	311.06
350.492	317.06
350.72	321.06
350.947	316.06
351.174	321.06
351.402	327.06
351.629	324.06
351.856	312.06
352.083	315.06
352.311	322.06
352.538	346.06
352.765	331.06
352.992	329.06
353.22	304.06
353.447	312.06
353.674	310.06
353.901	302.06
354.128	288.06
354.355	303.06
354.583	303.06
354.81	283.06
355.037	292.06
355.264	303.06
355.491	298.06
355.718	300.06
355.945	279.06
356.172	287.06
356.399	316.06
356.626	291.06
356.853	283.06
357.08	311.06
357.307	308.06
357.534	301.06
357.761	296.06
357.988	294.06
358.215	297.06
358.441	311.06
358.668	303.06
358.895	315.06
359.122	286.06
359.349	293.06
359.576	325.06
359.802	334.06
360.029	336.06
360.256	348.06
360.483	329.06
360.709	343.06
360.936	305.06
361.163	318.06
361.39	333.06
361.616	331.06
361.843	304.06
362.07	312.06
362.296	301.06
362.523	328.06
362.749	323.06
362.976	321.06
363.203	313.06
363.429	312.06
363.656	320.06
363.882	317.06
364.109	300.06
364.335	304.06
364.562	302.06
364.788	322.06
365.015	322.06
365.241	291.06
365.468	320.06
365.694	297.06
365.92	307.06
366.147	305.06
366.373	311.06
366.599	313.06
366.826	291.06
367.052	298.06
367.278	309.06
367.505	312.06
367.731	315.06
367.957	295.06
368.184	295.06
368.41	321.06
368.636	333.06
368.862	344.06
369.089	318.06
369.315	320.06
369.541	320.06
369.767	311.06
369.993	317.06
370.219	297.06
370.445	310.06
370.672	315.06
370.898	314.06
371.124	319.06
371.35	319.06
371.576	278.06
371.802	312.06
372.028	314.06
372.254	312.06
372.48	315.06
372.706	311.06
372.932	319.06
373.158	327.06
373.384	320.06
373.61	308.06
373.835	302.06
374.061	325.06
374.287	323.06
374.513	314.06
374.739	319.06
374.965	310.06
375.191	316.06
375.416	323.06
375.642	316.06
375.868	314.06
376.094	314.06
376.319	321.06
376.545	301.06
376.771	321.06
376.997	313.06
377.222	315.06
377.448	311.06
377.674	289.06
377.899	303.06
378.125	298.06
378.35	304.06
378.576	303.06
378.802	303.06
379.027	304.06
379.253	301.06
379.478	314.06
379.704	317.06
379.929	311.06
380.155	326.06
380.38	304.06
380.606	315.06
380.831	315.06
381.057	312.06
381.282	324.06
381.507	309.06
381.733	328.06
381.958	316.06
382.184	297.06
382.409	303.06
382.634	311.06
382.86	329.06
383.085	330.06
383.31	338.06
383.535	323.06
383.761	325.06
383.986	345.06
384.211	323.06
384.436	326.06
384.662	340.06
384.887	316.06
385.112	317.06
385.337	339.06
385.562	313.06
385.787	325.06
386.013	335.06
386.238	351.06
386.463	337.06
386.688	328.06
386.913	348.06
387.138	319.06
387.363	326.06
387.588	338.06
387.813	327.06
388.038	327.06
388.263	323.06
388.488	324.06
388.713	313.06
388.938	324.06
389.163	341.06
389.387	321.06
389.612	318.06
389.837	332.06
390.062	340.06
390.287	331.06
390.512	334.06
390.736	334.06
390.961	351.06
391.186	340.06
391.411	332.06
391.636	341.06
391.86	326.06
392.085	351.06
392.31	346.06
392.534	330.06
392.759	336.06
392.984	333.06
393.208	346.06
393.433	316.06
393.658	333.06
393.882	353.06
394.107	327.06
394.331	327.06
394.556	348.06
394.78	329.06
395.005	345.06
395.229	345.06
395.454	349.06
395.678	340.06
395.903	376.06
396.127	356.06
396.352	371.06
396.576	343.06
396.801	360.06
397.025	331.06
397.249	349.06
397.474	361.06
397.698	351.06
397.922	357.06
398.147	363.06
398.371	385.06
398.595	395.06
398.82	363.06
399.044	364.06
399.268	389.06
399.492	401.06
399.717	418.06
399.941	419.06
400.165	442.06
400.389	475.06
400.613	428.06
400.837	409.06
401.062	400.06
401.286	379.06
401.51	385.06
401.734	375.06
401.958	388.06
402.182	377.06
402.406	393.06
402.63	363.06
402.854	386.06
403.078	377.06
403.302	371.06
403.526	387.06
403.75	364.06
403.974	380.06
404.198	381.06
404.422	394.06
404.645	399.06
404.869	398.06
405.093	409.06
405.317	437.06
405.541	451.06
405.765	414.06
405.988	412.06
406.212	430.06
406.436	438.06
406.66	424.06
406.883	400.06
407.107	430.06
407.331	479.06
407.555	494.06
407.778	500.06
408.002	463.06
408.226	432.06
408.449	425.06
408.673	423.06
408.896	451.06
409.12	467.06
409.344	441.06
409.567	415.06
409.791	413.06
410.014	411.06
410.238	378.06
410.461	381.06
410.685	400.06
410.908	400.06
411.132	405.06
411.355	445.06
411.578	441.06
411.802	382.06
412.025	382.06
412.249	400.06
412.472	409.06
412.695	424.06
412.919	397.06
413.142	393.06
413.365	387.06
413.589	382.06
413.812	379.06
414.035	359.06
414.258	360.06
414.482	358.06
414.705	372.06
414.928	393.06
415.151	383.06
415.374	364.06
415.597	356.06
415.821	372.06
416.044	372.06
416.267	369.06
416.49	351.06
416.713	374.06
416.936	350.06
417.159	355.06
417.382	375.06
417.605	380.06
417.828	378.06
418.051	389.06
418.274	380.06
418.497	375.06
418.72	375.06
418.943	375.06
419.166	384.06
419.389	369.06
419.611	397.06
419.834	393.06
420.057	381.06
420.28	384.06
420.503	377.06
420.726	377.06
420.948	381.06
421.171	414.06
421.394	443.06
421.617	410.06
421.839	407.06
422.062	391.06
422.285	398.06
422.507	431.06
422.73	454.06
422.953	455.06
423.175	390.06
423.398	395.06
423.621	398.06
423.843	399.06
424.066	399.06
424.288	401.06
424.511	435.06
424.733	445.06
424.956	494.06
425.178	492.06
425.401	489.06
425.623	499.06
425.846	435.06
426.068	420.06
426.291	402.06
426.513	416.06
426.735	401.06
426.958	439.06
427.18	499.06
427.402	589.06
427.625	645.06
427.847	569.06
428.069	487.06
428.292	453.06
428.514	395.06
428.736	401.06
428.958	387.06
429.181	395.06
429.403	372.06
429.625	375.06
429.847	439.06
430.069	459.06
430.292	458.06
430.514	392.06
430.736	382.06
430.958	371.06
431.18	369.06
431.402	379.06
431.624	354.06
431.846	346.06
432.068	388.06
432.29	361.06
432.512	391.06
432.734	381.06
432.956	374.06
433.178	382.06
433.4	387.06
433.622	353.06
433.844	359.06
434.066	349.06
434.287	367.06
434.509	356.06
434.731	367.06
434.953	356.06
435.175	395.06
435.397	411.06
435.618	392.06
435.84	439.06
436.062	500.06
436.284	533.06
436.505	446.06
436.727	407.06
436.949	371.06
437.17	394.06
437.392	383.06
437.614	397.06
437.835	432.06
438.057	486.06
438.278	535.06
438.5	539.06
438.721	581.06
438.943	567.06
439.165	468.06
439.386	417.06
439.608	421.06
439.829	415.06
440.05	428.06
440.272	459.06
440.493	442.06
440.715	408.06
440.936	395.06
441.158	383.06
441.379	373.06
441.6	384.06
441.822	412.06
442.043	433.06
442.264	476.06
442.486	511.06
442.707	433.06
442.928	424.06
443.149	408.06
443.371	440.06
443.592	449.06
443.813	540.06
444.034	576.06
444.255	494.06
444.476	437.06
444.698	421.06
444.919	413.06
445.14	488.06
445.361	441.06
445.582	452.06
445.803	492.06
446.024	525.06
446.245	551.06
446.466	506.06
446.687	424.06
446.908	400.06
447.129	398.06
447.35	377.06
447.571	383.06
447.792	374.06
448.013	393.06
448.234	410.06
448.455	424.06
448.675	511.06
448.896	573.06
449.117	496.06
449.338	476.06
449.559	545.06
449.779	604.06
450	478.06
450.221	411.06
450.442	390.06
450.662	391.06
450.883	402.06
451.104	399.06
451.324	371.06
451.545	368.06
451.766	365.06
451.986	359.06
452.207	338.06
452.428	340.06
452.648	346.06
452.869	348.06
453.089	349.06
453.31	352.06
453.53	334.06
453.751	330.06
453.971	349.06
454.192	362.06
454.412	345.06
454.633	342.06
454.853	364.06
455.073	345.06
455.294	363.06
455.514	410.06
455.734	383.06
455.955	356.06
456.175	339.06
456.395	330.06
456.616	320.06
456.836	333.06
457.056	343.06
457.276	328.06
457.497	332.06
457.717	342.06
457.937	335.06
458.157	343.06
458.377	325.06
458.598	356.06
458.818	399.06
459.038	459.06
459.258	449.06
459.478	404.06
459.698	380.06
459.918	355.06
460.138	363.06
460.358	356.06
460.578	354.06
460.798	394.06
461.018	375.06
461.238	391.06
461.458	366.06
461.678	363.06
461.898	369.06
462.118	383.06
462.338	390.06
462.558	379.06
462.777	394.06
462.997	382.06
463.217	393.06
463.437	423.06
463.657	398.06
463.876	399.06
464.096	398.06
464.316	375.06
464.536	396.06
464.755	409.06
464.975	391.06
465.195	419.06
465.414	468.06
465.634	419.06
465.854	383.06
466.073	388.06
466.293	371.06
466.512	355.06
466.732	371.06
466.951	360.06
467.171	361.06
467.391	350.06
467.61	373.06
467.829	359.06
468.049	367.06
468.268	367.06
468.488	343.06
468.707	343.06
468.927	344.06
469.146	338.06
469.365	348.06
469.585	343.06
469.804	344.06
470.023	377.06
470.243	366.06
470.462	358.06
470.681	387.06
470.901	373.06
471.12	375.06
471.339	355.06
471.558	369.06
471.777	356.06
471.997	359.06
472.216	376.06
472.435	399.06
472.654	351.06
472.873	356.06
473.092	371.06
473.311	366.06
473.53	360.06
473.749	376.06
473.968	413.06
474.187	471.06
474.406	461.06
474.625	413.06
474.844	375.06
475.063	366.06
475.282	381.06
475.501	371.06
475.72	373.06
475.939	372.06
476.158	380.06
476.377	383.06
476.596	365.06
476.814	367.06
477.033	368.06
477.252	388.06
477.471	415.06
477.69	410.06
477.908	391.06
478.127	391.06
478.346	392.06
478.564	411.06
478.783	424.06
479.002	389.06
479.22	415.06
479.439	419.06
479.658	420.06
479.876	451.06
480.095	425.06
480.313	449.06
480.532	457.06
480.751	465.06
480.969	437.06
481.188	462.06
481.406	506.06
481.624	463.06
481.843	419.06
482.061	452.06
482.28	442.06
482.498	425.06
482.717	441.06
482.935	418.06
483.153	428.06
483.372	422.06
483.59	432.06
483.808	423.06
484.027	439.06
484.245	454.06
484.463	423.06
484.681	452.06
484.9	442.06
485.118	427.06
485.336	443.06
485.554	437.06
485.772	437.06
485.99	458.06
486.209	444.06
486.427	443.06
486.645	439.06
486.863	465.06
487.081	472.06
487.299	474.06
487.517	450.06
487.735	464.06
487.953	459.06
488.171	481.06
488.389	446.06
488.607	450.06
488.825	455.06
489.043	453.06
489.261	476.06
489.479	481.06
489.696	470.06
489.914	461.06
490.132	470.06
490.35	459.06
490.568	455.06
490.786	475.06
491.003	477.06
491.221	507.06
491.439	493.06
491.657	515.06
491.874	489.06
492.092	511.06
492.31	491.06
492.527	518.06
492.745	520.06
492.963	536.06
493.18	516.06
493.398	536.06
493.615	534.06
493.833	522.06
494.05	547.06
494.268	532.06
494.485	505.06
494.703	523.06
494.92	547.06
495.138	519.06
495.355	534.06
495.573	528.06
495.79	533.06
496.008	519.06
496.225	532.06
496.442	543.06
496.66	531.06
496.877	533.06
497.094	541.06
497.312	544.06
497.529	548.06
497.746	561.06
497.963	581.06
498.181	568.06
498.398	579.06
498.615	587.06
498.832	588.06
499.049	610.06
499.267	589.06
499.484	610.06
499.701	645.06
499.918	659.06
500.135	669.06
500.352	685.06
500.569	709.06
500.786	707.06
501.003	694.06
501.22	689.06
501.437	675.06
501.654	661.06
501.871	651.06
502.088	629.06
502.305	634.06
502.522	603.06
502.739	597.06
502.956	574.06
503.172	573.06
503.389	553.06
503.606	568.06
503.823	565.06
504.04	570.06
504.256	570.06
504.473	527.06
504.69	540.06
504.907	524.06
505.123	524.06
505.34	517.06
505.557	506.06
505.773	517.06
505.99	527.06
506.207	521.06
506.423	509.06
506.64	479.06
506.856	504.06
507.073	500.06
507.289	480.06
507.506	515.06
507.722	513.06
507.939	532.06
508.155	507.06
508.372	478.06
508.588	489.06
508.805	467.06
509.021	476.06
509.238	471.06
509.454	504.06
509.67	479.06
509.887	492.06
510.103	490.06
510.319	483.06
510.536	555.06
510.752	925.06
510.968	745.06
511.184	525.06
511.401	496.06
511.617	479.06
511.833	445.06
512.049	462.06
512.265	458.06
512.481	470.06
512.698	469.06
512.914	462.06
513.13	454.06
513.346	474.06
513.562	453.06
513.778	461.06
513.994	471.06
514.21	505.06
514.426	490.06
514.642	505.06
514.858	531.06
515.074	572.06
515.29	661.06
515.506	966.06
515.721	812.06
515.937	567.06
516.153	519.06
516.369	488.06
516.585	473.06
516.801	476.06
517.016	493.06
517.232	477.06
517.448	486.06
517.664	492.06
517.879	473.06
518.095	462.06
518.311	469.06
518.527	465.06
518.742	479.06
518.958	449.06
519.173	473.06
519.389	474.06
519.605	460.06
519.82	483.06
520.036	476.06
520.251	487.06
520.467	497.06
520.682	518.06
520.898	496.06
521.113	522.06
521.329	550.06
521.544	608.06
521.76	749.06
521.975	1226.06
522.19	1187.06
522.406	698.06
522.621	531.06
522.836	511.06
523.052	456.06
523.267	453.06
523.482	439.06
523.698	441.06
523.913	451.06
524.128	414.06
524.343	437.06
524.559	408.06
524.774	399.06
524.989	401.06
525.204	419.06
525.419	428.06
525.634	411.06
525.849	412.06
526.064	401.06
526.28	392.06
526.495	389.06
526.71	383.06
526.925	405.06
527.14	399.06
527.355	389.06
527.57	378.06
527.785	399.06
527.999	377.06
528.214	385.06
528.429	392.06
528.644	395.06
528.859	397.06
529.074	389.06
529.289	394.06
529.503	461.06
529.718	441.06
529.933	413.06
530.148	385.06
530.363	407.06
530.577	391.06
530.792	406.06
531.007	361.06
531.221	381.06
531.436	384.06
531.651	401.06
531.865	381.06
532.08	364.06
532.295	354.06
532.509	384.06
532.724	351.06
532.938	363.06
533.153	365.06
533.367	367.06
533.582	374.06
533.796	381.06
534.011	365.06
534.225	363.06
534.44	372.06
534.654	365.06
534.868	362.06
535.083	366.06
535.297	379.06
535.511	348.06
535.726	385.06
535.94	373.06
536.154	380.06
536.369	376.06
536.583	355.06
536.797	356.06
537.011	363.06
537.225	362.06
537.44	347.06
537.654	343.06
537.868	365.06
538.082	379.06
538.296	373.06
538.51	358.06
538.724	362.06
538.938	350.06
539.153	349.06
539.367	376.06
539.581	375.06
539.795	347.06
540.009	359.06
540.222	352.06
540.436	343.06
540.65	355.06
540.864	341.06
541.078	356.06
541.292	369.06
541.506	365.06
541.72	351.06
541.934	345.06
542.147	359.06
542.361	359.06
542.575	348.06
542.789	366.06
543.002	351.06
543.216	355.06
543.43	363.06
543.644	350.06
543.857	372.06
544.071	355.06
544.285	363.06
544.498	343.06
544.712	340.06
544.925	357.06
545.139	355.06
545.352	344.06
545.566	341.06
545.779	347.06
545.993	349.06
546.206	337.06
546.42	336.06
546.633	342.06
546.847	344.06
547.06	336.06
547.274	343.06
547.487	344.06
547.7	327.06
547.914	322.06
548.127	341.06
548.34	328.06
548.554	344.06
548.767	342.06
548.98	357.06
549.193	331.06
549.407	344.06
549.62	328.06
549.833	342.06
550.046	329.06
550.259	332.06
550.473	339.06
550.686	357.06
550.899	343.06
551.112	337.06
551.325	340.06
551.538	357.06
551.751	337.06
551.964	328.06
552.177	339.06
552.39	364.06
552.603	333.06
552.816	338.06
553.029	328.06
553.242	315.06
553.455	357.06
553.667	340.06
553.88	340.06
554.093	338.06
554.306	337.06
554.519	321.06
554.732	339.06
554.944	320.06
555.157	345.06
555.37	334.06
555.583	329.06
555.795	322.06
556.008	331.06
556.221	332.06
556.433	318.06
556.646	313.06
556.859	308.06
557.071	307.06
557.284	302.06
557.496	300.06
557.709	316.06
557.921	306.06
558.134	300.06
558.346	315.06
558.559	317.06
558.771	308.06
558.984	323.06
559.196	310.06
559.409	303.06
559.621	301.06
559.833	304.06
560.046	313.06
560.258	309.06
560.47	304.06
560.683	310.06
560.895	316.06
561.107	292.06
561.32	316.06
561.532	299.06
561.744	301.06
561.956	294.06
562.168	314.06
562.381	318.06
562.593	307.06
562.805	291.06
563.017	307.06
563.229	308.06
563.441	330.06
563.653	315.06
563.865	312.06
564.077	297.06
564.289	309.06
564.501	312.06
564.713	311.06
564.925	332.06
565.137	321.06
565.349	322.06
565.561	311.06
565.773	329.06
565.985	335.06
566.197	342.06
566.408	352.06
566.62	326.06
566.832	337.06
567.044	347.06
567.255	352.06
567.467	359.06
567.679	349.06
567.891	360.06
568.102	361.06
568.314	362.06
568.526	338.06
568.737	328.06
568.949	334.06
569.161	322.06
569.372	314.06
569.584	316.06
569.795	302.06
570.007	323.06
570.218	341.06
570.43	326.06
570.641	300.06
570.853	294.06
571.064	289.06
571.276	296.06
571.487	285.06
571.698	313.06
571.91	296.06
572.121	287.06
572.333	289.06
572.544	297.06
572.755	277.06
572.966	282.06
573.178	273.06
573.389	253.06
573.6	278.06
573.811	267.06
574.023	284.06
574.234	263.06
574.445	263.06
574.656	279.06
574.867	266.06
575.078	268.06
575.289	272.06
575.501	259.06
575.712	262.06
575.923	281.06
576.134	278.06
576.345	270.06
576.556	275.06
576.767	271.06
576.978	282.06
577.188	265.06
577.399	265.06
577.61	244.06
577.821	252.06
578.032	262.06
578.243	290.06
578.454	452.06
578.665	342.06
578.875	253.06
579.086	262.06
579.297	261.06
579.508	260.06
579.718	236.06
579.929	253.06
580.14	227.06
580.35	255.06
580.561	252.06
580.772	246.06
580.982	252.06
581.193	233.06
581.403	248.06
581.614	264.06
581.825	248.06
582.035	244.06
582.246	249.06
582.456	243.06
582.667	252.06
582.877	248.06
583.087	226.06
583.298	254.06
583.508	244.06
583.719	246.06
583.929	238.06
584.139	233.06
584.35	243.06
584.56	233.06
584.77	247.06
584.981	244.06
585.191	247.06
585.401	251.06
585.611	241.06
585.821	223.06
586.032	234.06
586.242	232.06
586.452	226.06
586.662	234.06
586.872	224.06
587.082	244.06
587.292	236.06
587.502	248.06
587.713	239.06
587.923	237.06
588.133	224.06
588.343	233.06
588.553	252.06
588.762	255.06
588.972	240.06
589.182	355.06
589.392	360.06
589.602	271.06
589.812	339.06
590.022	291.06
590.232	234.06
590.441	235.06
590.651	227.06
590.861	227.06
591.071	228.06
591.281	222.06
591.49	240.06
591.7	235.06
591.91	235.06
592.119	238.06
592.329	230.06
592.539	238.06
592.748	238.06
592.958	241.06
593.167	240.06
593.377	238.06
593.587	260.06
593.796	255.06
594.006	246.06
594.215	236.06
594.424	244.06
594.634	238.06
594.843	261.06
595.053	241.06
595.262	241.06
595.472	216.06
595.681	220.06
595.89	241.06
596.1	238.06
596.309	219.06
596.518	237.06
596.727	225.06
596.937	227.06
597.146	225.06
597.355	223.06
597.564	216.06
597.774	232.06
597.983	194.06
598.192	206.06
598.401	216.06
598.61	207.06
598.819	214.06
599.028	224.06
599.237	234.06
599.446	212.06
599.655	225.06
599.864	220.06
600.073	208.06
600.282	211.06
600.491	237.06
600.7	208.06
600.909	207.06
601.118	191.06
601.327	200.06
601.536	192.06
601.745	201.06
601.953	223.06
602.162	195.06
602.371	202.06
602.58	193.06
602.789	207.06
602.997	219.06
603.206	185.06
603.415	211.06
603.623	195.06
603.832	201.06
604.041	200.06
604.249	200.06
604.458	211.06
604.666	203.06
604.875	201.06
605.084	203.06
605.292	215.06
605.501	220.06
605.709	200.06
605.918	215.06
606.126	205.06
606.334	199.06
606.543	193.06
606.751	208.06
606.96	184.06
607.168	192.06
607.376	194.06
607.585	184.06
607.793	201.06
608.001	181.06
608.21	181.06
608.418	213.06
608.626	199.06
608.834	179.06
609.043	198.06
609.251	198.06
609.459	197.06
609.667	195.06
609.875	189.06
610.083	197.06
610.291	201.06
610.499	197.06
610.707	205.06
610.916	194.06
611.124	186.06
611.332	204.06
611.54	193.06
611.748	200.06
611.955	197.06
612.163	186.06
612.371	190.06
612.579	195.06
612.787	185.06
612.995	212.06
613.203	198.06
613.411	202.06
613.618	199.06
613.826	187.06
614.034	198.06
614.242	209.06
614.449	202.06
614.657	190.06
614.865	179.06
615.072	180.06
615.28	187.06
615.488	199.06
615.695	192.06
615.903	199.06
616.111	192.06
616.318	193.06
616.526	195.06
616.733	202.06
616.941	186.06
617.148	191.06
617.356	176.06
617.563	176.06
617.771	180.06
617.978	183.06
618.185	182.06
618.393	180.06
618.6	173.06
618.807	188.06
619.015	185.06
619.222	177.06
619.429	191.06
619.637	186.06
619.844	189.06
620.051	180.06
620.258	202.06
620.466	193.06
620.673	181.06
620.88	181.06
621.087	182.06
621.294	175.06
621.501	172.06
621.708	186.06
621.915	184.06
622.122	175.06
622.329	165.06
622.536	189.06
622.743	187.06
622.95	185.06
623.157	174.06
623.364	178.06
623.571	187.06
623.778	183.06
623.985	163.06
624.192	183.06
624.399	180.06
624.606	188.06
624.812	169.06
625.019	176.06
625.226	165.06
625.433	175.06
625.639	170.06
625.846	172.06
626.053	155.06
626.259	179.06
626.466	175.06
626.673	165.06
626.879	174.06
627.086	161.06
627.293	168.06
627.499	185.06
627.706	193.06
627.912	175.06
628.119	175.06
628.325	179.06
628.532	167.06
628.738	180.06
628.945	175.06
629.151	174.06
629.357	159.06
629.564	159.06
629.77	164.06
629.976	176.06
630.183	156.06
630.389	165.06
630.595	164.06
630.802	164.06
631.008	170.06
631.214	169.06
631.42	166.06
631.627	172.06
631.833	168.06
632.039	160.06
632.245	171.06
632.451	152.06
632.657	169.06
632.863	166.06
633.069	145.06
633.275	157.06
633.481	155.06
633.688	154.06
633.893	164.06
634.099	164.06
634.305	159.06
634.511	178.06
634.717	155.06
634.923	151.06
635.129	143.06
635.335	155.06
635.541	156.06
635.747	145.06
635.952	170.06
636.158	156.06
636.364	153.06
636.57	163.06
636.775	183.06
636.981	169.06
637.187	152.06
637.392	151.06
637.598	165.06
637.804	156.06
638.009	158.06
638.215	151.06
638.421	152.06
638.626	146.06
638.832	150.06
639.037	147.06
639.243	152.06
639.448	147.06
639.654	163.06
639.859	146.06
640.065	148.06
640.27	162.06
640.475	154.06
640.681	133.06
640.886	149.06
641.091	169.06
641.297	151.06
641.502	149.06
641.707	147.06
641.913	144.06
642.118	161.06
642.323	149.06
642.528	146.06
642.733	151.06
642.939	163.06
643.144	148.06
643.349	159.06
643.554	148.06
643.759	152.06
643.964	144.06
644.169	141.06
644.374	137.06
644.579	145.06
644.784	150.06
644.989	158.06
645.194	141.06
645.399	149.06
645.604	147.06
645.809	148.06
646.014	150.06
646.219	142.06
646.423	161.06
646.628	139.06
646.833	149.06
647.038	147.06
647.243	148.06
647.447	145.06
647.652	151.06
647.857	131.06
648.062	142.06
648.266	152.06
648.471	153.06
648.676	156.06
648.88	147.06
649.085	155.06
649.289	155.06
649.494	152.06
649.698	159.06
649.903	153.06
650.107	166.06
650.312	144.06
650.516	155.06
650.721	120.06
650.925	127.06
651.13	131.06
651.334	132.06
651.539	140.06
651.743	134.06
651.947	143.06
652.152	129.06
652.356	149.06
652.56	127.06
652.764	116.06
652.969	131.06
653.173	125.06
653.377	128.06
653.581	128.06
653.785	116.06
653.99	133.06
654.194	136.06
654.398	127.06
654.602	138.06
654.806	135.06
655.01	142.06
655.214	118.06
655.418	137.06
655.622	130.06
655.826	130.06
656.03	121.06
656.234	139.06
656.438	155.06
656.642	124.06
656.846	143.06
657.049	144.06
657.253	128.06
657.457	115.06
657.661	120.06
657.865	111.06
658.068	114.06
658.272	115.06
658.476	98.06
658.68	111.06
658.883	103.06
659.087	96.06
659.291	107.06
659.494	88.06
659.698	99.06
659.901	98.06
660.105	113.06
660.309	120.06
660.512	82.06
660.716	80.06
660.919	88.06
661.123	91.06
661.326	89.06
661.53	82.06
661.733	92.06
661.936	99.06
662.14	89.06
662.343	86.06
662.546	84.06
662.75	83.06
662.953	104.06
663.156	85.06
663.36	85.06
663.563	93.06
663.766	86.06
663.969	88.06
664.173	81.06
664.376	83.06
664.579	85.06
664.782	79.06
664.985	87.06
665.188	85.06
665.391	88.06
665.594	76.06
665.797	87.06
666	89.06
666.203	97.06
666.406	81.06
666.609	78.06
666.812	85.06
667.015	72.06
667.218	78.06
667.421	81.06
667.624	87.06
667.827	78.06
668.03	74.06
668.232	88.06
668.435	83.06
668.638	87.06
668.841	90.06
669.043	99.06
669.246	90.06
669.449	75.06
669.651	83.06
669.854	87.06
670.057	75.06
670.259	75.06
670.462	80.06
670.665	91.06
670.867	89.06
671.07	90.06
671.272	91.06
671.475	97.06
671.677	76.06
671.88	67.06
672.082	65.06
672.284	94.06
672.487	104.06
672.689	74.06
672.892	84.06
