Data from 1965.PennyLincolnUp.Lamp.En5.5.200Scan.071719.P1._HRD10591_14-10-05-912.txt Node
Date: Thu Jul 18 14:10:05 EDT 2019
User: cochatt
Spectrometer: HR+D1059
Trigger mode: 1
Integration Time (sec): 1.000000E-1
Scans to average: 1
Electric dark correction enabled: true
Nonlinearity correction enabled: false
Boxcar width: 0
XAxis mode: Wavelengths
Number of Pixels in Spectrum: 2048
>>>>>Begin Spectral Data<<<<<
223.165	-11.12
223.4	-11.12
223.635	-11.12
223.869	-18.12
224.104	-6.12
224.338	-11.12
224.573	-16.12
224.808	-20.12
225.042	2.88
225.277	6.88
225.511	-6.12
225.746	-19.12
225.98	-14.12
226.215	14.88
226.449	16.88
226.683	25.88
226.918	28.88
227.152	25.88
227.387	32.88
227.621	33.88
227.856	38.88
228.09	53.88
228.324	38.88
228.559	47.88
228.793	66.88
229.027	93.88
229.262	111.88
229.496	119.88
229.73	130.88
229.964	158.88
230.199	117.88
230.433	115.88
230.667	125.88
230.901	110.88
231.136	111.88
231.37	104.88
231.604	104.88
231.838	116.88
232.072	115.88
232.306	120.88
232.541	127.88
232.775	120.88
233.009	107.88
233.243	121.88
233.477	110.88
233.711	83.88
233.945	95.88
234.179	109.88
234.413	106.88
234.647	114.88
234.881	118.88
235.115	125.88
235.349	98.88
235.583	127.88
235.817	118.88
236.051	120.88
236.285	117.88
236.519	127.88
236.753	128.88
236.987	154.88
237.221	175.88
237.455	220.88
237.689	169.88
237.922	143.88
238.156	135.88
238.39	117.88
238.624	120.88
238.858	120.88
239.091	113.88
239.325	122.88
239.559	124.88
239.793	124.88
240.027	141.88
240.26	148.88
240.494	141.88
240.728	156.88
240.961	152.88
241.195	135.88
241.429	124.88
241.662	122.88
241.896	118.88
242.13	136.88
242.363	142.88
242.597	124.88
242.83	136.88
243.064	120.88
243.298	125.88
243.531	120.88
243.765	140.88
243.998	143.88
244.232	142.88
244.465	140.88
244.699	142.88
244.932	145.88
245.166	151.88
245.399	144.88
245.633	127.88
245.866	129.88
246.099	133.88
246.333	144.88
246.566	135.88
246.8	144.88
247.033	141.88
247.266	158.88
247.5	149.88
247.733	153.88
247.966	171.88
248.2	161.88
248.433	167.88
248.666	168.88
248.899	178.88
249.133	188.88
249.366	191.88
249.599	185.88
249.832	158.88
250.066	184.88
250.299	182.88
250.532	161.88
250.765	197.88
250.998	205.88
251.231	196.88
251.465	196.88
251.698	176.88
251.931	202.88
252.164	188.88
252.397	176.88
252.63	189.88
252.863	195.88
253.096	205.88
253.329	214.88
253.562	201.88
253.795	205.88
254.028	192.88
254.261	190.88
254.494	213.88
254.727	225.88
254.96	246.88
255.193	257.88
255.426	240.88
255.659	201.88
255.892	229.88
256.124	208.88
256.357	216.88
256.59	204.88
256.823	206.88
257.056	214.88
257.289	189.88
257.521	185.88
257.754	201.88
257.987	210.88
258.22	202.88
258.452	204.88
258.685	188.88
258.918	194.88
259.151	180.88
259.383	193.88
259.616	197.88
259.849	207.88
260.081	244.88
260.314	248.88
260.547	229.88
260.779	210.88
261.012	229.88
261.244	199.88
261.477	230.88
261.71	209.88
261.942	222.88
262.175	231.88
262.407	225.88
262.64	214.88
262.872	193.88
263.105	204.88
263.337	213.88
263.57	194.88
263.802	200.88
264.035	214.88
264.267	196.88
264.499	180.88
264.732	192.88
264.964	194.88
265.197	196.88
265.429	193.88
265.661	196.88
265.894	197.88
266.126	204.88
266.358	210.88
266.591	194.88
266.823	198.88
267.055	205.88
267.287	213.88
267.52	199.88
267.752	205.88
267.984	203.88
268.216	218.88
268.448	223.88
268.681	207.88
268.913	229.88
269.145	244.88
269.377	246.88
269.609	249.88
269.841	252.88
270.073	242.88
270.306	286.88
270.538	290.88
270.77	310.88
271.002	280.88
271.234	277.88
271.466	294.88
271.698	300.88
271.93	298.88
272.162	301.88
272.394	317.88
272.626	269.88
272.858	250.88
273.09	266.88
273.322	261.88
273.553	249.88
273.785	253.88
274.017	240.88
274.249	259.88
274.481	234.88
274.713	257.88
274.945	250.88
275.176	231.88
275.408	238.88
275.64	266.88
275.872	256.88
276.104	239.88
276.335	240.88
276.567	257.88
276.799	264.88
277.031	293.88
277.262	296.88
277.494	302.88
277.726	270.88
277.957	266.88
278.189	262.88
278.421	266.88
278.652	233.88
278.884	261.88
279.115	244.88
279.347	244.88
279.579	227.88
279.81	255.88
280.042	239.88
280.273	239.88
280.505	244.88
280.736	246.88
280.968	251.88
281.199	234.88
281.431	252.88
281.662	238.88
281.894	244.88
282.125	236.88
282.356	260.88
282.588	272.88
282.819	270.88
283.051	257.88
283.282	234.88
283.513	260.88
283.745	256.88
283.976	264.88
284.207	262.88
284.439	232.88
284.67	247.88
284.901	254.88
285.132	245.88
285.364	266.88
285.595	240.88
285.826	253.88
286.057	268.88
286.288	251.88
286.52	256.88
286.751	258.88
286.982	238.88
287.213	242.88
287.444	247.88
287.675	264.88
287.906	270.88
288.138	285.88
288.369	274.88
288.6	274.88
288.831	273.88
289.062	268.88
289.293	260.88
289.524	279.88
289.755	259.88
289.986	272.88
290.217	281.88
290.448	249.88
290.679	264.88
290.91	263.88
291.141	244.88
291.371	264.88
291.602	256.88
291.833	258.88
292.064	255.88
292.295	251.88
292.526	257.88
292.757	272.88
292.987	267.88
293.218	268.88
293.449	267.88
293.68	256.88
293.91	270.88
294.141	280.88
294.372	283.88
294.603	268.88
294.833	280.88
295.064	256.88
295.295	275.88
295.525	290.88
295.756	270.88
295.987	283.88
296.217	294.88
296.448	298.88
296.679	280.88
296.909	258.88
297.14	280.88
297.37	264.88
297.601	268.88
297.831	272.88
298.062	280.88
298.292	279.88
298.523	278.88
298.753	282.88
298.984	273.88
299.214	280.88
299.445	284.88
299.675	279.88
299.905	280.88
300.136	292.88
300.366	283.88
300.597	282.88
300.827	287.88
301.057	285.88
301.288	301.88
301.518	295.88
301.748	293.88
301.979	289.88
302.209	292.88
302.439	297.88
302.669	289.88
302.9	290.88
303.13	289.88
303.36	291.88
303.59	297.88
303.82	303.88
304.051	310.88
304.281	281.88
304.511	290.88
304.741	297.88
304.971	288.88
305.201	286.88
305.431	291.88
305.661	297.88
305.891	302.88
306.121	324.88
306.352	304.88
306.582	296.88
306.812	294.88
307.042	294.88
307.272	302.88
307.502	300.88
307.731	287.88
307.961	305.88
308.191	308.88
308.421	295.88
308.651	310.88
308.881	313.88
309.111	318.88
309.341	298.88
309.571	305.88
309.8	332.88
310.03	322.88
310.26	352.88
310.49	336.88
310.72	368.88
310.949	347.88
311.179	374.88
311.409	374.88
311.639	358.88
311.868	346.88
312.098	357.88
312.328	384.88
312.557	374.88
312.787	395.88
313.017	391.88
313.246	374.88
313.476	356.88
313.706	365.88
313.935	332.88
314.165	356.88
314.394	363.88
314.624	356.88
314.853	344.88
315.083	370.88
315.312	352.88
315.542	354.88
315.771	343.88
316.001	351.88
316.23	350.88
316.46	358.88
316.689	338.88
316.919	379.88
317.148	362.88
317.377	369.88
317.607	359.88
317.836	351.88
318.065	356.88
318.295	350.88
318.524	336.88
318.753	342.88
318.983	350.88
319.212	364.88
319.441	362.88
319.67	358.88
319.9	356.88
320.129	367.88
320.358	342.88
320.587	350.88
320.816	359.88
321.046	361.88
321.275	368.88
321.504	362.88
321.733	380.88
321.962	366.88
322.191	396.88
322.42	421.88
322.649	436.88
322.878	422.88
323.108	447.88
323.337	470.88
323.566	479.88
323.795	524.88
324.024	586.88
324.253	721.88
324.482	1044.88
324.71	1596.88
324.939	2219.88
325.168	1846.88
325.397	975.88
325.626	633.88
325.855	524.88
326.084	534.88
326.313	485.88
326.542	501.88
326.77	560.88
326.999	654.88
327.228	918.88
327.457	1420.88
327.686	1622.88
327.914	1082.88
328.143	719.88
328.372	641.88
328.6	561.88
328.829	569.88
329.058	572.88
329.287	566.88
329.515	526.88
329.744	489.88
329.972	494.88
330.201	530.88
330.43	573.88
330.658	587.88
330.887	615.88
331.115	576.88
331.344	501.88
331.572	474.88
331.801	466.88
332.03	467.88
332.258	442.88
332.486	437.88
332.715	418.88
332.943	421.88
333.172	420.88
333.4	413.88
333.629	417.88
333.857	438.88
334.085	462.88
334.314	476.88
334.542	491.88
334.771	524.88
334.999	469.88
335.227	422.88
335.455	417.88
335.684	410.88
335.912	394.88
336.14	424.88
336.369	391.88
336.597	413.88
336.825	404.88
337.053	389.88
337.281	401.88
337.51	410.88
337.738	406.88
337.966	414.88
338.194	398.88
338.422	418.88
338.65	398.88
338.878	378.88
339.106	396.88
339.334	393.88
339.562	384.88
339.79	395.88
340.018	406.88
340.246	388.88
340.474	408.88
340.702	398.88
340.93	382.88
341.158	400.88
341.386	398.88
341.614	399.88
341.842	399.88
342.07	389.88
342.298	378.88
342.526	368.88
342.754	378.88
342.981	385.88
343.209	369.88
343.437	369.88
343.665	360.88
343.893	387.88
344.12	385.88
344.348	398.88
344.576	392.88
344.804	400.88
345.031	393.88
345.259	410.88
345.487	401.88
345.714	410.88
345.942	382.88
346.17	385.88
346.397	387.88
346.625	386.88
346.853	374.88
347.08	391.88
347.308	375.88
347.535	410.88
347.763	401.88
347.99	382.88
348.218	388.88
348.445	391.88
348.673	406.88
348.9	388.88
349.128	381.88
349.355	367.88
349.583	368.88
349.81	368.88
350.037	368.88
350.265	357.88
350.492	365.88
350.72	361.88
350.947	363.88
351.174	396.88
351.402	424.88
351.629	378.88
351.856	394.88
352.083	416.88
352.311	423.88
352.538	406.88
352.765	393.88
352.992	396.88
353.22	376.88
353.447	380.88
353.674	366.88
353.901	363.88
354.128	359.88
354.355	345.88
354.583	372.88
354.81	364.88
355.037	355.88
355.264	360.88
355.491	359.88
355.718	342.88
355.945	350.88
356.172	350.88
356.399	354.88
356.626	351.88
356.853	345.88
357.08	353.88
357.307	339.88
357.534	372.88
357.761	363.88
357.988	350.88
358.215	358.88
358.441	352.88
358.668	353.88
358.895	356.88
359.122	366.88
359.349	368.88
359.576	389.88
359.802	386.88
360.029	431.88
360.256	446.88
360.483	428.88
360.709	394.88
360.936	392.88
361.163	375.88
361.39	369.88
361.616	375.88
361.843	407.88
362.07	405.88
362.296	390.88
362.523	387.88
362.749	380.88
362.976	382.88
363.203	370.88
363.429	365.88
363.656	355.88
363.882	338.88
364.109	378.88
364.335	365.88
364.562	363.88
364.788	366.88
365.015	346.88
365.241	338.88
365.468	366.88
365.694	358.88
365.92	355.88
366.147	382.88
366.373	356.88
366.599	356.88
366.826	351.88
367.052	358.88
367.278	361.88
367.505	352.88
367.731	350.88
367.957	369.88
368.184	380.88
368.41	357.88
368.636	371.88
368.862	376.88
369.089	360.88
369.315	362.88
369.541	366.88
369.767	348.88
369.993	372.88
370.219	357.88
370.445	344.88
370.672	363.88
370.898	349.88
371.124	352.88
371.35	363.88
371.576	355.88
371.802	348.88
372.028	358.88
372.254	352.88
372.48	360.88
372.706	345.88
372.932	347.88
373.158	365.88
373.384	354.88
373.61	356.88
373.835	364.88
374.061	356.88
374.287	358.88
374.513	353.88
374.739	374.88
374.965	338.88
375.191	356.88
375.416	356.88
375.642	370.88
375.868	354.88
376.094	372.88
376.319	328.88
376.545	353.88
376.771	326.88
376.997	348.88
377.222	358.88
377.448	344.88
377.674	343.88
377.899	362.88
378.125	358.88
378.35	345.88
378.576	347.88
378.802	329.88
379.027	330.88
379.253	337.88
379.478	333.88
379.704	353.88
379.929	367.88
380.155	360.88
380.38	350.88
380.606	363.88
380.831	365.88
381.057	375.88
381.282	343.88
381.507	344.88
381.733	345.88
381.958	366.88
382.184	351.88
382.409	356.88
382.634	362.88
382.86	376.88
383.085	364.88
383.31	354.88
383.535	368.88
383.761	358.88
383.986	365.88
384.211	382.88
384.436	371.88
384.662	369.88
384.887	363.88
385.112	367.88
385.337	342.88
385.562	382.88
385.787	365.88
386.013	381.88
386.238	400.88
386.463	378.88
386.688	379.88
386.913	373.88
387.138	368.88
387.363	382.88
387.588	378.88
387.813	359.88
388.038	362.88
388.263	357.88
388.488	358.88
388.713	378.88
388.938	386.88
389.163	376.88
389.387	382.88
389.612	388.88
389.837	369.88
390.062	354.88
390.287	371.88
390.512	388.88
390.736	379.88
390.961	385.88
391.186	397.88
391.411	384.88
391.636	374.88
391.86	374.88
392.085	390.88
392.31	384.88
392.534	398.88
392.759	387.88
392.984	374.88
393.208	356.88
393.433	378.88
393.658	372.88
393.882	365.88
394.107	377.88
394.331	370.88
394.556	361.88
394.78	368.88
395.005	383.88
395.229	368.88
395.454	377.88
395.678	386.88
395.903	418.88
396.127	421.88
396.352	426.88
396.576	411.88
396.801	402.88
397.025	374.88
397.249	386.88
397.474	405.88
397.698	396.88
397.922	421.88
398.147	432.88
398.371	418.88
398.595	416.88
398.82	392.88
399.044	421.88
399.268	424.88
399.492	451.88
399.717	473.88
399.941	463.88
400.165	518.88
400.389	518.88
400.613	468.88
400.837	462.88
401.062	445.88
401.286	441.88
401.51	440.88
401.734	424.88
401.958	449.88
402.182	447.88
402.406	466.88
402.63	455.88
402.854	412.88
403.078	443.88
403.302	438.88
403.526	443.88
403.75	425.88
403.974	428.88
404.198	464.88
404.422	433.88
404.645	464.88
404.869	480.88
405.093	496.88
405.317	514.88
405.541	536.88
405.765	479.88
405.988	468.88
406.212	477.88
406.436	485.88
406.66	518.88
406.883	492.88
407.107	476.88
407.331	537.88
407.555	576.88
407.778	584.88
408.002	529.88
408.226	501.88
408.449	490.88
408.673	481.88
408.896	517.88
409.12	544.88
409.344	521.88
409.567	443.88
409.791	460.88
410.014	444.88
410.238	446.88
410.461	439.88
410.685	450.88
410.908	464.88
411.132	480.88
411.355	520.88
411.578	485.88
411.802	458.88
412.025	438.88
412.249	441.88
412.472	460.88
412.695	490.88
412.919	512.88
413.142	456.88
413.365	444.88
413.589	420.88
413.812	409.88
414.035	421.88
414.258	441.88
414.482	415.88
414.705	441.88
414.928	399.88
415.151	411.88
415.374	417.88
415.597	408.88
415.821	412.88
416.044	411.88
416.267	413.88
416.49	429.88
416.713	401.88
416.936	414.88
417.159	415.88
417.382	438.88
417.605	414.88
417.828	441.88
418.051	442.88
418.274	426.88
418.497	420.88
418.72	413.88
418.943	426.88
419.166	427.88
419.389	460.88
419.611	445.88
419.834	445.88
420.057	449.88
420.28	443.88
420.503	444.88
420.726	450.88
420.948	457.88
421.171	489.88
421.394	528.88
421.617	434.88
421.839	432.88
422.062	426.88
422.285	448.88
422.507	510.88
422.73	592.88
422.953	533.88
423.175	480.88
423.398	459.88
423.621	461.88
423.843	465.88
424.066	471.88
424.288	481.88
424.511	480.88
424.733	530.88
424.956	619.88
425.178	578.88
425.401	585.88
425.623	605.88
425.846	518.88
426.068	492.88
426.291	493.88
426.513	476.88
426.735	493.88
426.958	544.88
427.18	617.88
427.402	723.88
427.625	783.88
427.847	696.88
428.069	606.88
428.292	540.88
428.514	480.88
428.736	463.88
428.958	441.88
429.181	457.88
429.403	443.88
429.625	459.88
429.847	484.88
430.069	534.88
430.292	528.88
430.514	498.88
430.736	446.88
430.958	439.88
431.18	438.88
431.402	422.88
431.624	413.88
431.846	417.88
432.068	407.88
432.29	439.88
432.512	419.88
432.734	420.88
432.956	411.88
433.178	454.88
433.4	452.88
433.622	413.88
433.844	426.88
434.066	431.88
434.287	420.88
434.509	432.88
434.731	429.88
434.953	452.88
435.175	440.88
435.397	478.88
435.618	477.88
435.84	536.88
436.062	602.88
436.284	636.88
436.505	523.88
436.727	509.88
436.949	470.88
437.17	439.88
437.392	442.88
437.614	463.88
437.835	496.88
438.057	603.88
438.278	674.88
438.5	678.88
438.721	722.88
438.943	679.88
439.165	545.88
439.386	528.88
439.608	498.88
439.829	508.88
440.05	532.88
440.272	578.88
440.493	541.88
440.715	476.88
440.936	469.88
441.158	458.88
441.379	437.88
441.6	472.88
441.822	484.88
442.043	520.88
442.264	597.88
442.486	617.88
442.707	535.88
442.928	483.88
443.149	511.88
443.371	538.88
443.592	570.88
443.813	657.88
444.034	713.88
444.255	557.88
444.476	528.88
444.698	481.88
444.919	498.88
445.14	597.88
445.361	530.88
445.582	525.88
445.803	592.88
446.024	665.88
446.245	684.88
446.466	650.88
446.687	542.88
446.908	488.88
447.129	462.88
447.35	468.88
447.571	456.88
447.792	440.88
448.013	457.88
448.234	482.88
448.455	504.88
448.675	617.88
448.896	704.88
449.117	594.88
449.338	593.88
449.559	665.88
449.779	728.88
450	622.88
450.221	497.88
450.442	470.88
450.662	452.88
450.883	470.88
451.104	484.88
451.324	470.88
451.545	455.88
451.766	415.88
451.986	409.88
452.207	410.88
452.428	398.88
452.648	432.88
452.869	432.88
453.089	419.88
453.31	438.88
453.53	444.88
453.751	412.88
453.971	421.88
454.192	436.88
454.412	426.88
454.633	412.88
454.853	407.88
455.073	406.88
455.294	442.88
455.514	482.88
455.734	468.88
455.955	396.88
456.175	396.88
456.395	414.88
456.616	384.88
456.836	387.88
457.056	396.88
457.276	375.88
457.497	384.88
457.717	383.88
457.937	385.88
458.157	373.88
458.377	400.88
458.598	429.88
458.818	483.88
459.038	570.88
459.258	575.88
459.478	473.88
459.698	445.88
459.918	414.88
460.138	416.88
460.358	428.88
460.578	404.88
460.798	420.88
461.018	403.88
461.238	409.88
461.458	444.88
461.678	415.88
461.898	433.88
462.118	399.88
462.338	408.88
462.558	440.88
462.777	417.88
462.997	426.88
463.217	441.88
463.437	443.88
463.657	440.88
463.876	434.88
464.096	428.88
464.316	437.88
464.536	447.88
464.755	453.88
464.975	465.88
465.195	522.88
465.414	602.88
465.634	489.88
465.854	468.88
466.073	443.88
466.293	444.88
466.512	415.88
466.732	419.88
466.951	418.88
467.171	399.88
467.391	420.88
467.61	442.88
467.829	446.88
468.049	427.88
468.268	429.88
468.488	416.88
468.707	416.88
468.927	399.88
469.146	385.88
469.365	400.88
469.585	393.88
469.804	416.88
470.023	436.88
470.243	440.88
470.462	426.88
470.681	440.88
470.901	425.88
471.12	412.88
471.339	426.88
471.558	425.88
471.777	404.88
471.997	398.88
472.216	442.88
472.435	470.88
472.654	454.88
472.873	421.88
473.092	420.88
473.311	429.88
473.53	428.88
473.749	432.88
473.968	477.88
474.187	576.88
474.406	578.88
474.625	488.88
474.844	432.88
475.063	418.88
475.282	425.88
475.501	437.88
475.72	428.88
475.939	444.88
476.158	433.88
476.377	433.88
476.596	416.88
476.814	443.88
477.033	457.88
477.252	448.88
477.471	459.88
477.69	440.88
477.908	451.88
478.127	467.88
478.346	457.88
478.564	448.88
478.783	453.88
479.002	473.88
479.22	479.88
479.439	487.88
479.658	495.88
479.876	485.88
480.095	500.88
480.313	512.88
480.532	529.88
480.751	511.88
480.969	526.88
481.188	600.88
481.406	637.88
481.624	560.88
481.843	516.88
482.061	501.88
482.28	512.88
482.498	504.88
482.717	505.88
482.935	489.88
483.153	476.88
483.372	466.88
483.59	482.88
483.808	486.88
484.027	489.88
484.245	463.88
484.463	483.88
484.681	475.88
484.9	484.88
485.118	520.88
485.336	496.88
485.554	544.88
485.772	521.88
485.99	492.88
486.209	524.88
486.427	510.88
486.645	506.88
486.863	550.88
487.081	536.88
487.299	553.88
487.517	528.88
487.735	527.88
487.953	535.88
488.171	536.88
488.389	531.88
488.607	507.88
488.825	531.88
489.043	546.88
489.261	523.88
489.479	537.88
489.696	529.88
489.914	534.88
490.132	531.88
490.35	575.88
490.568	557.88
490.786	550.88
491.003	546.88
491.221	572.88
491.439	592.88
491.657	588.88
491.874	595.88
492.092	604.88
492.31	631.88
492.527	594.88
492.745	609.88
492.963	613.88
493.18	622.88
493.398	616.88
493.615	634.88
493.833	612.88
494.05	636.88
494.268	617.88
494.485	600.88
494.703	630.88
494.92	606.88
495.138	628.88
495.355	626.88
495.573	606.88
495.79	608.88
496.008	622.88
496.225	639.88
496.442	632.88
496.66	622.88
496.877	624.88
497.094	641.88
497.312	648.88
497.529	638.88
497.746	636.88
497.963	644.88
498.181	671.88
498.398	684.88
498.615	670.88
498.832	692.88
499.049	666.88
499.267	698.88
499.484	721.88
499.701	724.88
499.918	763.88
500.135	733.88
500.352	789.88
500.569	802.88
500.786	791.88
501.003	763.88
501.22	804.88
501.437	784.88
501.654	746.88
501.871	763.88
502.088	742.88
502.305	717.88
502.522	695.88
502.739	655.88
502.956	657.88
503.172	653.88
503.389	659.88
503.606	651.88
503.823	679.88
504.04	658.88
504.256	644.88
504.473	612.88
504.69	628.88
504.907	606.88
505.123	613.88
505.34	628.88
505.557	587.88
505.773	608.88
505.99	596.88
506.207	605.88
506.423	590.88
506.64	598.88
506.856	618.88
507.073	595.88
507.289	602.88
507.506	582.88
507.722	582.88
507.939	634.88
508.155	612.88
508.372	578.88
508.588	590.88
508.805	575.88
509.021	585.88
509.238	605.88
509.454	612.88
509.67	588.88
509.887	592.88
510.103	608.88
510.319	605.88
510.536	711.88
510.752	1238.88
510.968	978.88
511.184	620.88
511.401	588.88
511.617	577.88
511.833	570.88
512.049	555.88
512.265	558.88
512.481	529.88
512.698	560.88
512.914	565.88
513.13	552.88
513.346	566.88
513.562	557.88
513.778	556.88
513.994	586.88
514.21	577.88
514.426	594.88
514.642	666.88
514.858	697.88
515.074	747.88
515.29	908.88
515.506	1410.88
515.721	1106.88
515.937	713.88
516.153	648.88
516.369	610.88
516.585	599.88
516.801	571.88
517.016	552.88
517.232	556.88
517.448	559.88
517.664	569.88
517.879	589.88
518.095	587.88
518.311	565.88
518.527	556.88
518.742	522.88
518.958	566.88
519.173	541.88
519.389	537.88
519.605	557.88
519.82	568.88
520.036	590.88
520.251	626.88
520.467	631.88
520.682	636.88
520.898	662.88
521.113	646.88
521.329	708.88
521.544	871.88
521.76	1114.88
521.975	1884.88
522.19	1781.88
522.406	928.88
522.621	666.88
522.836	622.88
523.052	561.88
523.267	554.88
523.482	530.88
523.698	518.88
523.913	508.88
524.128	524.88
524.343	508.88
524.559	500.88
524.774	493.88
524.989	488.88
525.204	489.88
525.419	509.88
525.634	489.88
525.849	492.88
526.064	470.88
526.28	441.88
526.495	468.88
526.71	445.88
526.925	460.88
527.14	453.88
527.355	472.88
527.57	478.88
527.785	442.88
527.999	428.88
528.214	452.88
528.429	450.88
528.644	438.88
528.859	442.88
529.074	444.88
529.289	467.88
529.503	569.88
529.718	540.88
529.933	483.88
530.148	448.88
530.363	474.88
530.577	431.88
530.792	434.88
531.007	449.88
531.221	428.88
531.436	442.88
531.651	436.88
531.865	420.88
532.08	429.88
532.295	432.88
532.509	415.88
532.724	425.88
532.938	436.88
533.153	427.88
533.367	424.88
533.582	435.88
533.796	405.88
534.011	423.88
534.225	416.88
534.44	404.88
534.654	432.88
534.868	414.88
535.083	415.88
535.297	425.88
535.511	432.88
535.726	444.88
535.94	417.88
536.154	418.88
536.369	411.88
536.583	403.88
536.797	423.88
537.011	417.88
537.225	431.88
537.44	426.88
537.654	417.88
537.868	421.88
538.082	428.88
538.296	396.88
538.51	407.88
538.724	416.88
538.938	415.88
539.153	413.88
539.367	438.88
539.581	437.88
539.795	405.88
540.009	412.88
540.222	401.88
540.436	404.88
540.65	410.88
540.864	409.88
541.078	437.88
541.292	415.88
541.506	413.88
541.72	395.88
541.934	400.88
542.147	389.88
542.361	405.88
542.575	377.88
542.789	384.88
543.002	383.88
543.216	408.88
543.43	417.88
543.644	399.88
543.857	408.88
544.071	392.88
544.285	421.88
544.498	408.88
544.712	389.88
544.925	391.88
545.139	409.88
545.352	386.88
545.566	386.88
545.779	400.88
545.993	399.88
546.206	392.88
546.42	397.88
546.633	392.88
546.847	404.88
547.06	370.88
547.274	394.88
547.487	387.88
547.7	390.88
547.914	369.88
548.127	376.88
548.34	373.88
548.554	376.88
548.767	388.88
548.98	376.88
549.193	381.88
549.407	380.88
549.62	386.88
549.833	368.88
550.046	358.88
550.259	372.88
550.473	371.88
550.686	379.88
550.899	378.88
551.112	363.88
551.325	356.88
551.538	379.88
551.751	374.88
551.964	369.88
552.177	349.88
552.39	399.88
552.603	370.88
552.816	368.88
553.029	368.88
553.242	360.88
553.455	367.88
553.667	392.88
553.88	410.88
554.093	387.88
554.306	394.88
554.519	383.88
554.732	377.88
554.944	364.88
555.157	355.88
555.37	353.88
555.583	356.88
555.795	372.88
556.008	363.88
556.221	349.88
556.433	351.88
556.646	374.88
556.859	353.88
557.071	361.88
557.284	350.88
557.496	346.88
557.709	349.88
557.921	350.88
558.134	352.88
558.346	351.88
558.559	333.88
558.771	352.88
558.984	342.88
559.196	340.88
559.409	328.88
559.621	344.88
559.833	335.88
560.046	334.88
560.258	338.88
560.47	335.88
560.683	338.88
560.895	336.88
561.107	307.88
561.32	328.88
561.532	338.88
561.744	335.88
561.956	333.88
562.168	334.88
562.381	345.88
562.593	330.88
562.805	327.88
563.017	335.88
563.229	336.88
563.441	348.88
563.653	342.88
563.865	331.88
564.077	337.88
564.289	350.88
564.501	331.88
564.713	349.88
564.925	354.88
565.137	335.88
565.349	353.88
565.561	330.88
565.773	342.88
565.985	338.88
566.197	361.88
566.408	364.88
566.62	371.88
566.832	363.88
567.044	373.88
567.255	382.88
567.467	395.88
567.679	396.88
567.891	407.88
568.102	382.88
568.314	372.88
568.526	368.88
568.737	378.88
568.949	353.88
569.161	332.88
569.372	362.88
569.584	344.88
569.795	320.88
570.007	344.88
570.218	385.88
570.43	370.88
570.641	336.88
570.853	337.88
571.064	331.88
571.276	327.88
571.487	313.88
571.698	321.88
571.91	324.88
572.121	302.88
572.333	316.88
572.544	310.88
572.755	302.88
572.966	289.88
573.178	309.88
573.389	297.88
573.6	293.88
573.811	300.88
574.023	301.88
574.234	300.88
574.445	262.88
574.656	290.88
574.867	301.88
575.078	308.88
575.289	303.88
575.501	305.88
575.712	272.88
575.923	284.88
576.134	304.88
576.345	286.88
576.556	278.88
576.767	300.88
576.978	286.88
577.188	288.88
577.399	282.88
577.61	298.88
577.821	287.88
578.032	289.88
578.243	327.88
578.454	596.88
578.665	422.88
578.875	294.88
579.086	292.88
579.297	288.88
579.508	289.88
579.718	289.88
579.929	257.88
580.14	273.88
580.35	278.88
580.561	277.88
580.772	271.88
580.982	274.88
581.193	268.88
581.403	264.88
581.614	245.88
581.825	268.88
582.035	262.88
582.246	260.88
582.456	258.88
582.667	264.88
582.877	252.88
583.087	248.88
583.298	261.88
583.508	271.88
583.719	266.88
583.929	279.88
584.139	258.88
584.35	253.88
584.56	257.88
584.77	273.88
584.981	233.88
585.191	268.88
585.401	272.88
585.611	267.88
585.821	272.88
586.032	270.88
586.242	258.88
586.452	244.88
586.662	252.88
586.872	262.88
587.082	271.88
587.292	253.88
587.502	245.88
587.713	245.88
587.923	258.88
588.133	260.88
588.343	255.88
588.553	277.88
588.762	268.88
588.972	254.88
589.182	285.88
589.392	289.88
589.602	265.88
589.812	290.88
590.022	248.88
590.232	257.88
590.441	255.88
590.651	257.88
590.861	225.88
591.071	253.88
591.281	249.88
591.49	244.88
591.7	260.88
591.91	266.88
592.119	260.88
592.329	242.88
592.539	266.88
592.748	258.88
592.958	254.88
593.167	249.88
593.377	274.88
593.587	278.88
593.796	276.88
594.006	248.88
594.215	244.88
594.424	261.88
594.634	274.88
594.843	244.88
595.053	261.88
595.262	238.88
595.472	253.88
595.681	257.88
595.89	252.88
596.1	243.88
596.309	258.88
596.518	249.88
596.727	253.88
596.937	240.88
597.146	245.88
597.355	254.88
597.564	261.88
597.774	215.88
597.983	226.88
598.192	234.88
598.401	240.88
598.61	235.88
598.819	248.88
599.028	223.88
599.237	222.88
599.446	235.88
599.655	230.88
599.864	224.88
600.073	223.88
600.282	231.88
600.491	250.88
600.7	221.88
600.909	235.88
601.118	224.88
601.327	231.88
601.536	221.88
601.745	219.88
601.953	225.88
602.162	208.88
602.371	240.88
602.58	220.88
602.789	220.88
602.997	222.88
603.206	223.88
603.415	221.88
603.623	221.88
603.832	223.88
604.041	222.88
604.249	223.88
604.458	214.88
604.666	216.88
604.875	225.88
605.084	216.88
605.292	226.88
605.501	208.88
605.709	214.88
605.918	219.88
606.126	224.88
606.334	218.88
606.543	225.88
606.751	205.88
606.96	213.88
607.168	201.88
607.376	218.88
607.585	223.88
607.793	209.88
608.001	204.88
608.21	201.88
608.418	206.88
608.626	216.88
608.834	205.88
609.043	221.88
609.251	213.88
609.459	216.88
609.667	193.88
609.875	197.88
610.083	210.88
610.291	228.88
610.499	201.88
610.707	201.88
610.916	200.88
611.124	222.88
611.332	207.88
611.54	230.88
611.748	220.88
611.955	223.88
612.163	219.88
612.371	209.88
612.579	203.88
612.787	219.88
612.995	209.88
613.203	220.88
613.411	205.88
613.618	200.88
613.826	211.88
614.034	205.88
614.242	209.88
614.449	194.88
614.657	193.88
614.865	222.88
615.072	222.88
615.28	192.88
615.488	198.88
615.695	204.88
615.903	187.88
616.111	227.88
616.318	205.88
616.526	193.88
616.733	207.88
616.941	190.88
617.148	213.88
617.356	196.88
617.563	204.88
617.771	209.88
617.978	209.88
618.185	216.88
618.393	201.88
618.6	205.88
618.807	210.88
619.015	203.88
619.222	196.88
619.429	192.88
619.637	197.88
619.844	192.88
620.051	205.88
620.258	203.88
620.466	178.88
620.673	201.88
620.88	195.88
621.087	177.88
621.294	186.88
621.501	206.88
621.708	181.88
621.915	188.88
622.122	204.88
622.329	209.88
622.536	183.88
622.743	186.88
622.95	192.88
623.157	193.88
623.364	199.88
623.571	185.88
623.778	192.88
623.985	184.88
624.192	174.88
624.399	188.88
624.606	213.88
624.812	189.88
625.019	176.88
625.226	197.88
625.433	180.88
625.639	194.88
625.846	195.88
626.053	172.88
626.259	174.88
626.466	186.88
626.673	195.88
626.879	181.88
627.086	178.88
627.293	182.88
627.499	183.88
627.706	191.88
627.912	169.88
628.119	182.88
628.325	195.88
628.532	177.88
628.738	171.88
628.945	174.88
629.151	176.88
629.357	175.88
629.564	162.88
629.77	174.88
629.976	172.88
630.183	177.88
630.389	175.88
630.595	175.88
630.802	169.88
631.008	174.88
631.214	185.88
631.42	180.88
631.627	166.88
631.833	178.88
632.039	165.88
632.245	175.88
632.451	183.88
632.657	178.88
632.863	166.88
633.069	169.88
633.275	156.88
633.481	189.88
633.688	175.88
633.893	168.88
634.099	161.88
634.305	146.88
634.511	173.88
634.717	163.88
634.923	175.88
635.129	154.88
635.335	158.88
635.541	179.88
635.747	176.88
635.952	175.88
636.158	174.88
636.364	171.88
636.57	173.88
636.775	164.88
636.981	187.88
637.187	169.88
637.392	160.88
637.598	168.88
637.804	161.88
638.009	168.88
638.215	170.88
638.421	165.88
638.626	150.88
638.832	166.88
639.037	161.88
639.243	163.88
639.448	156.88
639.654	161.88
639.859	150.88
640.065	152.88
640.27	158.88
640.475	161.88
640.681	157.88
640.886	157.88
641.091	160.88
641.297	156.88
641.502	154.88
641.707	164.88
641.913	174.88
642.118	157.88
642.323	150.88
642.528	151.88
642.733	147.88
642.939	167.88
643.144	168.88
643.349	169.88
643.554	179.88
643.759	158.88
643.964	156.88
644.169	157.88
644.374	165.88
644.579	151.88
644.784	161.88
644.989	143.88
645.194	164.88
645.399	169.88
645.604	154.88
645.809	163.88
646.014	156.88
646.219	167.88
646.423	149.88
646.628	151.88
646.833	169.88
647.038	171.88
647.243	162.88
647.447	152.88
647.652	153.88
647.857	166.88
648.062	145.88
648.266	139.88
648.471	132.88
648.676	151.88
648.88	154.88
649.085	159.88
649.289	161.88
649.494	160.88
649.698	184.88
649.903	177.88
650.107	155.88
650.312	146.88
650.516	142.88
650.721	147.88
650.925	150.88
651.13	160.88
651.334	133.88
651.539	128.88
651.743	143.88
651.947	136.88
652.152	142.88
652.356	144.88
652.56	143.88
652.764	144.88
652.969	132.88
653.173	139.88
653.377	136.88
653.581	138.88
653.785	143.88
653.99	126.88
654.194	127.88
654.398	121.88
654.602	136.88
654.806	139.88
655.01	141.88
655.214	143.88
655.418	131.88
655.622	132.88
655.826	141.88
656.03	141.88
656.234	144.88
656.438	130.88
656.642	148.88
656.846	143.88
657.049	124.88
657.253	142.88
657.457	122.88
657.661	127.88
657.865	126.88
658.068	109.88
658.272	124.88
658.476	120.88
658.68	114.88
658.883	104.88
659.087	98.88
659.291	112.88
659.494	90.88
659.698	100.88
659.901	105.88
660.105	96.88
660.309	93.88
660.512	89.88
660.716	103.88
660.919	91.88
661.123	98.88
661.326	98.88
661.53	76.88
661.733	117.88
661.936	88.88
662.14	73.88
662.343	100.88
662.546	87.88
662.75	92.88
662.953	95.88
663.156	93.88
663.36	93.88
663.563	103.88
663.766	97.88
663.969	93.88
664.173	91.88
664.376	81.88
664.579	87.88
664.782	85.88
664.985	81.88
665.188	76.88
665.391	86.88
665.594	83.88
665.797	93.88
666	80.88
666.203	82.88
666.406	76.88
666.609	85.88
666.812	79.88
667.015	88.88
667.218	90.88
667.421	92.88
667.624	83.88
667.827	85.88
668.03	95.88
668.232	95.88
668.435	87.88
668.638	79.88
668.841	92.88
669.043	86.88
669.246	86.88
669.449	73.88
669.651	75.88
669.854	87.88
670.057	95.88
670.259	65.88
670.462	91.88
670.665	70.88
670.867	93.88
671.07	84.88
671.272	85.88
671.475	91.88
671.677	74.88
671.88	75.88
672.082	79.88
672.284	78.88
672.487	82.88
672.689	72.88
672.892	79.88
