Data from 1965.PennyLincolnUp.Lamp.En5.5.200Scan.071719.P1._HRD10591_14-11-00-912.txt Node
Date: Thu Jul 18 14:11:00 EDT 2019
User: cochatt
Spectrometer: HR+D1059
Trigger mode: 1
Integration Time (sec): 1.000000E-1
Scans to average: 1
Electric dark correction enabled: true
Nonlinearity correction enabled: false
Boxcar width: 0
XAxis mode: Wavelengths
Number of Pixels in Spectrum: 2048
>>>>>Begin Spectral Data<<<<<
223.165	-14.31
223.4	-14.31
223.635	-14.31
223.869	-16.31
224.104	-8.31
224.338	-20.31
224.573	-24.31
224.808	-9.31
225.042	-21.31
225.277	-11.31
225.511	-3.31
225.746	4.69
225.98	20.69
226.215	8.69
226.449	23.69
226.683	20.69
226.918	21.69
227.152	28.69
227.387	34.69
227.621	29.69
227.856	30.69
228.09	39.69
228.324	45.69
228.559	54.69
228.793	68.69
229.027	93.69
229.262	103.69
229.496	115.69
229.73	125.69
229.964	134.69
230.199	133.69
230.433	104.69
230.667	105.69
230.901	109.69
231.136	108.69
231.37	109.69
231.604	89.69
231.838	101.69
232.072	120.69
232.306	119.69
232.541	126.69
232.775	110.69
233.009	93.69
233.243	94.69
233.477	105.69
233.711	101.69
233.945	116.69
234.179	108.69
234.413	128.69
234.647	116.69
234.881	123.69
235.115	98.69
235.349	117.69
235.583	112.69
235.817	119.69
236.051	122.69
236.285	124.69
236.519	134.69
236.753	130.69
236.987	134.69
237.221	169.69
237.455	195.69
237.689	181.69
237.922	132.69
238.156	138.69
238.39	128.69
238.624	124.69
238.858	116.69
239.091	115.69
239.325	125.69
239.559	116.69
239.793	142.69
240.027	134.69
240.26	133.69
240.494	143.69
240.728	159.69
240.961	138.69
241.195	120.69
241.429	141.69
241.662	130.69
241.896	134.69
242.13	124.69
242.363	107.69
242.597	124.69
242.83	134.69
243.064	126.69
243.298	121.69
243.531	126.69
243.765	126.69
243.998	134.69
244.232	138.69
244.465	132.69
244.699	122.69
244.932	134.69
245.166	128.69
245.399	128.69
245.633	127.69
245.866	126.69
246.099	143.69
246.333	161.69
246.566	136.69
246.8	139.69
247.033	157.69
247.266	147.69
247.5	152.69
247.733	146.69
247.966	163.69
248.2	162.69
248.433	173.69
248.666	172.69
248.899	187.69
249.133	175.69
249.366	210.69
249.599	188.69
249.832	170.69
250.066	174.69
250.299	182.69
250.532	180.69
250.765	174.69
250.998	202.69
251.231	203.69
251.465	207.69
251.698	200.69
251.931	192.69
252.164	180.69
252.397	195.69
252.63	193.69
252.863	180.69
253.096	218.69
253.329	217.69
253.562	208.69
253.795	202.69
254.028	227.69
254.261	215.69
254.494	223.69
254.727	234.69
254.96	266.69
255.193	239.69
255.426	224.69
255.659	222.69
255.892	223.69
256.124	208.69
256.357	213.69
256.59	229.69
256.823	206.69
257.056	197.69
257.289	189.69
257.521	200.69
257.754	198.69
257.987	190.69
258.22	191.69
258.452	188.69
258.685	201.69
258.918	189.69
259.151	198.69
259.383	209.69
259.616	205.69
259.849	216.69
260.081	216.69
260.314	233.69
260.547	240.69
260.779	226.69
261.012	228.69
261.244	218.69
261.477	214.69
261.71	212.69
261.942	219.69
262.175	222.69
262.407	231.69
262.64	186.69
262.872	199.69
263.105	200.69
263.337	187.69
263.57	205.69
263.802	193.69
264.035	197.69
264.267	191.69
264.499	179.69
264.732	192.69
264.964	203.69
265.197	197.69
265.429	204.69
265.661	195.69
265.894	192.69
266.126	205.69
266.358	184.69
266.591	217.69
266.823	207.69
267.055	213.69
267.287	237.69
267.52	207.69
267.752	214.69
267.984	218.69
268.216	206.69
268.448	221.69
268.681	220.69
268.913	211.69
269.145	230.69
269.377	266.69
269.609	257.69
269.841	262.69
270.073	252.69
270.306	278.69
270.538	306.69
270.77	280.69
271.002	292.69
271.234	269.69
271.466	280.69
271.698	287.69
271.93	300.69
272.162	311.69
272.394	295.69
272.626	280.69
272.858	259.69
273.09	256.69
273.322	242.69
273.553	247.69
273.785	277.69
274.017	250.69
274.249	249.69
274.481	237.69
274.713	239.69
274.945	265.69
275.176	246.69
275.408	263.69
275.64	248.69
275.872	240.69
276.104	252.69
276.335	264.69
276.567	249.69
276.799	267.69
277.031	279.69
277.262	288.69
277.494	291.69
277.726	266.69
277.957	277.69
278.189	267.69
278.421	249.69
278.652	242.69
278.884	228.69
279.115	240.69
279.347	244.69
279.579	243.69
279.81	233.69
280.042	229.69
280.273	223.69
280.505	238.69
280.736	251.69
280.968	231.69
281.199	228.69
281.431	246.69
281.662	238.69
281.894	238.69
282.125	248.69
282.356	252.69
282.588	268.69
282.819	259.69
283.051	264.69
283.282	249.69
283.513	260.69
283.745	234.69
283.976	250.69
284.207	267.69
284.439	266.69
284.67	253.69
284.901	249.69
285.132	235.69
285.364	233.69
285.595	256.69
285.826	259.69
286.057	265.69
286.288	258.69
286.52	250.69
286.751	263.69
286.982	247.69
287.213	227.69
287.444	274.69
287.675	249.69
287.906	263.69
288.138	274.69
288.369	272.69
288.6	291.69
288.831	262.69
289.062	252.69
289.293	271.69
289.524	254.69
289.755	259.69
289.986	278.69
290.217	251.69
290.448	243.69
290.679	257.69
290.91	258.69
291.141	268.69
291.371	271.69
291.602	268.69
291.833	246.69
292.064	269.69
292.295	262.69
292.526	263.69
292.757	270.69
292.987	270.69
293.218	254.69
293.449	266.69
293.68	246.69
293.91	264.69
294.141	275.69
294.372	270.69
294.603	247.69
294.833	268.69
295.064	256.69
295.295	274.69
295.525	258.69
295.756	271.69
295.987	287.69
296.217	303.69
296.448	296.69
296.679	289.69
296.909	264.69
297.14	270.69
297.37	277.69
297.601	274.69
297.831	267.69
298.062	252.69
298.292	279.69
298.523	257.69
298.753	278.69
298.984	286.69
299.214	290.69
299.445	290.69
299.675	288.69
299.905	280.69
300.136	270.69
300.366	279.69
300.597	276.69
300.827	293.69
301.057	300.69
301.288	310.69
301.518	292.69
301.748	274.69
301.979	284.69
302.209	293.69
302.439	302.69
302.669	293.69
302.9	308.69
303.13	282.69
303.36	278.69
303.59	312.69
303.82	313.69
304.051	314.69
304.281	300.69
304.511	271.69
304.741	280.69
304.971	301.69
305.201	296.69
305.431	290.69
305.661	283.69
305.891	298.69
306.121	290.69
306.352	301.69
306.582	316.69
306.812	286.69
307.042	294.69
307.272	301.69
307.502	294.69
307.731	316.69
307.961	284.69
308.191	292.69
308.421	304.69
308.651	311.69
308.881	306.69
309.111	301.69
309.341	320.69
309.571	333.69
309.8	325.69
310.03	342.69
310.26	345.69
310.49	352.69
310.72	356.69
310.949	367.69
311.179	372.69
311.409	361.69
311.639	324.69
311.868	345.69
312.098	350.69
312.328	348.69
312.557	382.69
312.787	378.69
313.017	389.69
313.246	383.69
313.476	359.69
313.706	351.69
313.935	347.69
314.165	358.69
314.394	366.69
314.624	379.69
314.853	366.69
315.083	344.69
315.312	365.69
315.542	350.69
315.771	344.69
316.001	346.69
316.23	359.69
316.46	341.69
316.689	338.69
316.919	347.69
317.148	346.69
317.377	354.69
317.607	338.69
317.836	359.69
318.065	352.69
318.295	349.69
318.524	336.69
318.753	340.69
318.983	323.69
319.212	318.69
319.441	348.69
319.67	338.69
319.9	359.69
320.129	344.69
320.358	374.69
320.587	356.69
320.816	372.69
321.046	383.69
321.275	384.69
321.504	373.69
321.733	376.69
321.962	380.69
322.191	398.69
322.42	406.69
322.649	434.69
322.878	444.69
323.108	464.69
323.337	444.69
323.566	487.69
323.795	505.69
324.024	595.69
324.253	742.69
324.482	1059.69
324.71	1586.69
324.939	2187.69
325.168	1846.69
325.397	978.69
325.626	652.69
325.855	542.69
326.084	510.69
326.313	486.69
326.542	505.69
326.77	559.69
326.999	671.69
327.228	939.69
327.457	1385.69
327.686	1651.69
327.914	1074.69
328.143	720.69
328.372	657.69
328.6	584.69
328.829	574.69
329.058	570.69
329.287	583.69
329.515	544.69
329.744	518.69
329.972	483.69
330.201	530.69
330.43	546.69
330.658	594.69
330.887	606.69
331.115	588.69
331.344	502.69
331.572	466.69
331.801	475.69
332.03	438.69
332.258	436.69
332.486	430.69
332.715	427.69
332.943	414.69
333.172	430.69
333.4	402.69
333.629	442.69
333.857	440.69
334.085	457.69
334.314	484.69
334.542	506.69
334.771	514.69
334.999	455.69
335.227	442.69
335.455	428.69
335.684	409.69
335.912	421.69
336.14	408.69
336.369	382.69
336.597	410.69
336.825	414.69
337.053	391.69
337.281	376.69
337.51	397.69
337.738	400.69
337.966	387.69
338.194	414.69
338.422	430.69
338.65	392.69
338.878	376.69
339.106	362.69
339.334	392.69
339.562	367.69
339.79	385.69
340.018	398.69
340.246	383.69
340.474	413.69
340.702	398.69
340.93	416.69
341.158	394.69
341.386	411.69
341.614	376.69
341.842	395.69
342.07	392.69
342.298	380.69
342.526	385.69
342.754	376.69
342.981	366.69
343.209	388.69
343.437	398.69
343.665	382.69
343.893	369.69
344.12	383.69
344.348	384.69
344.576	380.69
344.804	406.69
345.031	412.69
345.259	436.69
345.487	418.69
345.714	387.69
345.942	392.69
346.17	399.69
346.397	384.69
346.625	395.69
346.853	382.69
347.08	379.69
347.308	395.69
347.535	393.69
347.763	403.69
347.99	391.69
348.218	394.69
348.445	409.69
348.673	388.69
348.9	380.69
349.128	382.69
349.355	367.69
349.583	348.69
349.81	360.69
350.037	351.69
350.265	380.69
350.492	366.69
350.72	371.69
350.947	391.69
351.174	395.69
351.402	391.69
351.629	396.69
351.856	370.69
352.083	411.69
352.311	414.69
352.538	412.69
352.765	383.69
352.992	399.69
353.22	384.69
353.447	398.69
353.674	377.69
353.901	355.69
354.128	364.69
354.355	360.69
354.583	367.69
354.81	350.69
355.037	358.69
355.264	356.69
355.491	351.69
355.718	339.69
355.945	363.69
356.172	360.69
356.399	339.69
356.626	348.69
356.853	351.69
357.08	362.69
357.307	344.69
357.534	361.69
357.761	340.69
357.988	347.69
358.215	371.69
358.441	340.69
358.668	358.69
358.895	348.69
359.122	367.69
359.349	357.69
359.576	387.69
359.802	423.69
360.029	440.69
360.256	446.69
360.483	412.69
360.709	394.69
360.936	398.69
361.163	396.69
361.39	387.69
361.616	392.69
361.843	382.69
362.07	382.69
362.296	391.69
362.523	374.69
362.749	403.69
362.976	374.69
363.203	384.69
363.429	349.69
363.656	349.69
363.882	361.69
364.109	352.69
364.335	354.69
364.562	342.69
364.788	348.69
365.015	364.69
365.241	358.69
365.468	366.69
365.694	382.69
365.92	372.69
366.147	356.69
366.373	363.69
366.599	356.69
366.826	365.69
367.052	355.69
367.278	367.69
367.505	347.69
367.731	370.69
367.957	364.69
368.184	372.69
368.41	356.69
368.636	387.69
368.862	362.69
369.089	382.69
369.315	357.69
369.541	379.69
369.767	352.69
369.993	357.69
370.219	368.69
370.445	365.69
370.672	344.69
370.898	351.69
371.124	347.69
371.35	361.69
371.576	350.69
371.802	359.69
372.028	352.69
372.254	365.69
372.48	339.69
372.706	375.69
372.932	364.69
373.158	364.69
373.384	368.69
373.61	359.69
373.835	369.69
374.061	374.69
374.287	361.69
374.513	358.69
374.739	364.69
374.965	356.69
375.191	367.69
375.416	365.69
375.642	344.69
375.868	357.69
376.094	357.69
376.319	360.69
376.545	358.69
376.771	355.69
376.997	354.69
377.222	366.69
377.448	354.69
377.674	342.69
377.899	354.69
378.125	352.69
378.35	345.69
378.576	338.69
378.802	349.69
379.027	335.69
379.253	337.69
379.478	347.69
379.704	346.69
379.929	344.69
380.155	346.69
380.38	358.69
380.606	330.69
380.831	350.69
381.057	366.69
381.282	348.69
381.507	358.69
381.733	360.69
381.958	365.69
382.184	356.69
382.409	358.69
382.634	359.69
382.86	366.69
383.085	365.69
383.31	361.69
383.535	355.69
383.761	360.69
383.986	363.69
384.211	363.69
384.436	371.69
384.662	365.69
384.887	375.69
385.112	351.69
385.337	384.69
385.562	374.69
385.787	371.69
386.013	380.69
386.238	372.69
386.463	390.69
386.688	382.69
386.913	368.69
387.138	384.69
387.363	364.69
387.588	370.69
387.813	370.69
388.038	355.69
388.263	382.69
388.488	378.69
388.713	384.69
388.938	372.69
389.163	379.69
389.387	392.69
389.612	376.69
389.837	391.69
390.062	356.69
390.287	384.69
390.512	378.69
390.736	370.69
390.961	385.69
391.186	389.69
391.411	390.69
391.636	370.69
391.86	363.69
392.085	392.69
392.31	378.69
392.534	379.69
392.759	387.69
392.984	382.69
393.208	396.69
393.433	370.69
393.658	375.69
393.882	378.69
394.107	379.69
394.331	383.69
394.556	382.69
394.78	370.69
395.005	374.69
395.229	378.69
395.454	380.69
395.678	386.69
395.903	416.69
396.127	413.69
396.352	407.69
396.576	395.69
396.801	390.69
397.025	393.69
397.249	410.69
397.474	405.69
397.698	381.69
397.922	419.69
398.147	425.69
398.371	411.69
398.595	400.69
398.82	432.69
399.044	426.69
399.268	414.69
399.492	471.69
399.717	459.69
399.941	489.69
400.165	519.69
400.389	524.69
400.613	501.69
400.837	436.69
401.062	430.69
401.286	445.69
401.51	428.69
401.734	425.69
401.958	420.69
402.182	423.69
402.406	438.69
402.63	434.69
402.854	435.69
403.078	423.69
403.302	436.69
403.526	446.69
403.75	453.69
403.974	445.69
404.198	436.69
404.422	462.69
404.645	448.69
404.869	488.69
405.093	491.69
405.317	514.69
405.541	542.69
405.765	491.69
405.988	473.69
406.212	482.69
406.436	512.69
406.66	514.69
406.883	498.69
407.107	502.69
407.331	549.69
407.555	588.69
407.778	566.69
408.002	528.69
408.226	490.69
408.449	494.69
408.673	477.69
408.896	510.69
409.12	537.69
409.344	506.69
409.567	461.69
409.791	471.69
410.014	456.69
410.238	433.69
410.461	432.69
410.685	434.69
410.908	456.69
411.132	471.69
411.355	520.69
411.578	478.69
411.802	440.69
412.025	466.69
412.249	462.69
412.472	485.69
412.695	512.69
412.919	510.69
413.142	467.69
413.365	435.69
413.589	452.69
413.812	420.69
414.035	439.69
414.258	434.69
414.482	408.69
414.705	403.69
414.928	421.69
415.151	418.69
415.374	424.69
415.597	403.69
415.821	412.69
416.044	422.69
416.267	421.69
416.49	420.69
416.713	393.69
416.936	396.69
417.159	411.69
417.382	431.69
417.605	434.69
417.828	422.69
418.051	435.69
418.274	452.69
418.497	423.69
418.72	429.69
418.943	413.69
419.166	401.69
419.389	451.69
419.611	436.69
419.834	440.69
420.057	458.69
420.28	452.69
420.503	441.69
420.726	450.69
420.948	456.69
421.171	508.69
421.394	493.69
421.617	451.69
421.839	452.69
422.062	443.69
422.285	470.69
422.507	511.69
422.73	555.69
422.953	528.69
423.175	475.69
423.398	452.69
423.621	436.69
423.843	461.69
424.066	460.69
424.288	457.69
424.511	509.69
424.733	542.69
424.956	581.69
425.178	602.69
425.401	599.69
425.623	588.69
425.846	520.69
426.068	490.69
426.291	479.69
426.513	490.69
426.735	493.69
426.958	535.69
427.18	612.69
427.402	704.69
427.625	772.69
427.847	705.69
428.069	616.69
428.292	540.69
428.514	490.69
428.736	456.69
428.958	449.69
429.181	429.69
429.403	439.69
429.625	479.69
429.847	518.69
430.069	554.69
430.292	548.69
430.514	496.69
430.736	456.69
430.958	451.69
431.18	427.69
431.402	438.69
431.624	422.69
431.846	420.69
432.068	427.69
432.29	404.69
432.512	436.69
432.734	444.69
432.956	434.69
433.178	450.69
433.4	447.69
433.622	447.69
433.844	439.69
434.066	434.69
434.287	406.69
434.509	440.69
434.731	426.69
434.953	442.69
435.175	457.69
435.397	474.69
435.618	479.69
435.84	536.69
436.062	587.69
436.284	648.69
436.505	546.69
436.727	468.69
436.949	476.69
437.17	463.69
437.392	456.69
437.614	484.69
437.835	509.69
438.057	589.69
438.278	665.69
438.5	678.69
438.721	727.69
438.943	708.69
439.165	560.69
439.386	512.69
439.608	493.69
439.829	498.69
440.05	508.69
440.272	579.69
440.493	543.69
440.715	485.69
440.936	464.69
441.158	454.69
441.379	455.69
441.6	460.69
441.822	511.69
442.043	523.69
442.264	606.69
442.486	636.69
442.707	548.69
442.928	528.69
443.149	509.69
443.371	511.69
443.592	564.69
443.813	630.69
444.034	660.69
444.255	571.69
444.476	495.69
444.698	475.69
444.919	461.69
445.14	588.69
445.361	550.69
445.582	541.69
445.803	605.69
446.024	681.69
446.245	684.69
446.466	608.69
446.687	542.69
446.908	512.69
447.129	457.69
447.35	451.69
447.571	445.69
447.792	454.69
448.013	441.69
448.234	485.69
448.455	540.69
448.675	622.69
448.896	700.69
449.117	594.69
449.338	594.69
449.559	674.69
449.779	724.69
450	619.69
450.221	500.69
450.442	463.69
450.662	473.69
450.883	469.69
451.104	455.69
451.324	472.69
451.545	430.69
451.766	420.69
451.986	441.69
452.207	408.69
452.428	414.69
452.648	409.69
452.869	408.69
453.089	430.69
453.31	430.69
453.53	418.69
453.751	401.69
453.971	407.69
454.192	424.69
454.412	407.69
454.633	410.69
454.853	389.69
455.073	402.69
455.294	437.69
455.514	500.69
455.734	468.69
455.955	397.69
456.175	390.69
456.395	384.69
456.616	383.69
456.836	392.69
457.056	395.69
457.276	352.69
457.497	380.69
457.717	379.69
457.937	390.69
458.157	410.69
458.377	404.69
458.598	426.69
458.818	490.69
459.038	575.69
459.258	535.69
459.478	482.69
459.698	424.69
459.918	428.69
460.138	419.69
460.358	420.69
460.578	437.69
460.798	418.69
461.018	421.69
461.238	411.69
461.458	410.69
461.678	395.69
461.898	424.69
462.118	440.69
462.338	439.69
462.558	440.69
462.777	437.69
462.997	440.69
463.217	436.69
463.437	443.69
463.657	432.69
463.876	443.69
464.096	432.69
464.316	429.69
464.536	450.69
464.755	455.69
464.975	458.69
465.195	543.69
465.414	611.69
465.634	515.69
465.854	449.69
466.073	462.69
466.293	434.69
466.512	411.69
466.732	412.69
466.951	411.69
467.171	444.69
467.391	412.69
467.61	422.69
467.829	431.69
468.049	436.69
468.268	424.69
468.488	393.69
468.707	385.69
468.927	406.69
469.146	394.69
469.365	391.69
469.585	397.69
469.804	404.69
470.023	415.69
470.243	398.69
470.462	412.69
470.681	442.69
470.901	444.69
471.12	427.69
471.339	425.69
471.558	429.69
471.777	424.69
471.997	418.69
472.216	427.69
472.435	461.69
472.654	459.69
472.873	408.69
473.092	435.69
473.311	423.69
473.53	436.69
473.749	418.69
473.968	469.69
474.187	596.69
474.406	574.69
474.625	469.69
474.844	438.69
475.063	419.69
475.282	416.69
475.501	415.69
475.72	412.69
475.939	439.69
476.158	444.69
476.377	428.69
476.596	424.69
476.814	445.69
477.033	448.69
477.252	443.69
477.471	471.69
477.69	439.69
477.908	456.69
478.127	424.69
478.346	453.69
478.564	455.69
478.783	456.69
479.002	472.69
479.22	478.69
479.439	481.69
479.658	505.69
479.876	506.69
480.095	532.69
480.313	515.69
480.532	505.69
480.751	528.69
480.969	550.69
481.188	616.69
481.406	656.69
481.624	556.69
481.843	528.69
482.061	508.69
482.28	498.69
482.498	510.69
482.717	485.69
482.935	472.69
483.153	511.69
483.372	489.69
483.59	488.69
483.808	486.69
484.027	490.69
484.245	507.69
484.463	512.69
484.681	495.69
484.9	509.69
485.118	505.69
485.336	513.69
485.554	515.69
485.772	504.69
485.99	486.69
486.209	521.69
486.427	523.69
486.645	499.69
486.863	534.69
487.081	534.69
487.299	543.69
487.517	556.69
487.735	526.69
487.953	522.69
488.171	533.69
488.389	522.69
488.607	512.69
488.825	536.69
489.043	536.69
489.261	544.69
489.479	552.69
489.696	526.69
489.914	559.69
490.132	558.69
490.35	558.69
490.568	577.69
490.786	564.69
491.003	551.69
491.221	584.69
491.439	600.69
491.657	620.69
491.874	595.69
492.092	624.69
492.31	620.69
492.527	618.69
492.745	616.69
492.963	623.69
493.18	611.69
493.398	615.69
493.615	595.69
493.833	628.69
494.05	606.69
494.268	632.69
494.485	641.69
494.703	620.69
494.92	625.69
495.138	615.69
495.355	632.69
495.573	627.69
495.79	626.69
496.008	635.69
496.225	594.69
496.442	610.69
496.66	634.69
496.877	609.69
497.094	650.69
497.312	647.69
497.529	657.69
497.746	640.69
497.963	660.69
498.181	717.69
498.398	662.69
498.615	692.69
498.832	679.69
499.049	696.69
499.267	729.69
499.484	711.69
499.701	730.69
499.918	743.69
500.135	751.69
500.352	801.69
500.569	760.69
500.786	777.69
501.003	836.69
501.22	771.69
501.437	787.69
501.654	741.69
501.871	769.69
502.088	766.69
502.305	734.69
502.522	675.69
502.739	703.69
502.956	639.69
503.172	655.69
503.389	647.69
503.606	646.69
503.823	654.69
504.04	665.69
504.256	674.69
504.473	612.69
504.69	617.69
504.907	638.69
505.123	604.69
505.34	632.69
505.557	616.69
505.773	611.69
505.99	623.69
506.207	622.69
506.423	609.69
506.64	602.69
506.856	596.69
507.073	590.69
507.289	586.69
507.506	601.69
507.722	622.69
507.939	635.69
508.155	600.69
508.372	592.69
508.588	587.69
508.805	572.69
509.021	602.69
509.238	597.69
509.454	615.69
509.67	592.69
509.887	583.69
510.103	592.69
510.319	596.69
510.536	726.69
510.752	1256.69
510.968	986.69
511.184	638.69
511.401	612.69
511.617	586.69
511.833	565.69
512.049	554.69
512.265	572.69
512.481	590.69
512.698	565.69
512.914	559.69
513.13	539.69
513.346	559.69
513.562	568.69
513.778	548.69
513.994	567.69
514.21	599.69
514.426	626.69
514.642	656.69
514.858	662.69
515.074	728.69
515.29	907.69
515.506	1372.69
515.721	1111.69
515.937	710.69
516.153	656.69
516.369	628.69
516.585	616.69
516.801	583.69
517.016	582.69
517.232	585.69
517.448	550.69
517.664	566.69
517.879	570.69
518.095	574.69
518.311	572.69
518.527	556.69
518.742	552.69
518.958	560.69
519.173	550.69
519.389	547.69
519.605	542.69
519.82	566.69
520.036	583.69
520.251	609.69
520.467	637.69
520.682	631.69
520.898	639.69
521.113	666.69
521.329	708.69
521.544	826.69
521.76	1087.69
521.975	1831.69
522.19	1742.69
522.406	928.69
522.621	670.69
522.836	635.69
523.052	586.69
523.267	534.69
523.482	540.69
523.698	528.69
523.913	537.69
524.128	521.69
524.343	504.69
524.559	498.69
524.774	487.69
524.989	476.69
525.204	483.69
525.419	483.69
525.634	469.69
525.849	485.69
526.064	485.69
526.28	453.69
526.495	467.69
526.71	456.69
526.925	462.69
527.14	452.69
527.355	459.69
527.57	443.69
527.785	475.69
527.999	437.69
528.214	446.69
528.429	442.69
528.644	429.69
528.859	456.69
529.074	460.69
529.289	484.69
529.503	575.69
529.718	546.69
529.933	482.69
530.148	472.69
530.363	469.69
530.577	456.69
530.792	442.69
531.007	446.69
531.221	442.69
531.436	435.69
531.651	450.69
531.865	433.69
532.08	424.69
532.295	441.69
532.509	435.69
532.724	429.69
532.938	432.69
533.153	427.69
533.367	418.69
533.582	415.69
533.796	430.69
534.011	410.69
534.225	410.69
534.44	413.69
534.654	412.69
534.868	422.69
535.083	419.69
535.297	426.69
535.511	423.69
535.726	464.69
535.94	424.69
536.154	412.69
536.369	424.69
536.583	415.69
536.797	417.69
537.011	421.69
537.225	410.69
537.44	410.69
537.654	398.69
537.868	421.69
538.082	407.69
538.296	399.69
538.51	420.69
538.724	410.69
538.938	410.69
539.153	400.69
539.367	432.69
539.581	417.69
539.795	434.69
540.009	404.69
540.222	404.69
540.436	408.69
540.65	416.69
540.864	410.69
541.078	422.69
541.292	418.69
541.506	408.69
541.72	399.69
541.934	392.69
542.147	403.69
542.361	410.69
542.575	392.69
542.789	397.69
543.002	407.69
543.216	403.69
543.43	390.69
543.644	419.69
543.857	412.69
544.071	424.69
544.285	398.69
544.498	394.69
544.712	385.69
544.925	398.69
545.139	368.69
545.352	401.69
545.566	390.69
545.779	379.69
545.993	402.69
546.206	405.69
546.42	398.69
546.633	385.69
546.847	404.69
547.06	383.69
547.274	394.69
547.487	385.69
547.7	382.69
547.914	376.69
548.127	380.69
548.34	361.69
548.554	371.69
548.767	360.69
548.98	388.69
549.193	378.69
549.407	371.69
549.62	381.69
549.833	390.69
550.046	396.69
550.259	402.69
550.473	391.69
550.686	355.69
550.899	353.69
551.112	374.69
551.325	363.69
551.538	373.69
551.751	358.69
551.964	383.69
552.177	378.69
552.39	370.69
552.603	379.69
552.816	382.69
553.029	375.69
553.242	368.69
553.455	375.69
553.667	364.69
553.88	375.69
554.093	391.69
554.306	364.69
554.519	377.69
554.732	374.69
554.944	363.69
555.157	370.69
555.37	364.69
555.583	350.69
555.795	376.69
556.008	359.69
556.221	353.69
556.433	349.69
556.646	346.69
556.859	320.69
557.071	332.69
557.284	353.69
557.496	335.69
557.709	351.69
557.921	329.69
558.134	350.69
558.346	344.69
558.559	338.69
558.771	346.69
558.984	338.69
559.196	337.69
559.409	336.69
559.621	355.69
559.833	330.69
560.046	336.69
560.258	334.69
560.47	343.69
560.683	356.69
560.895	349.69
561.107	333.69
561.32	344.69
561.532	340.69
561.744	350.69
561.956	346.69
562.168	326.69
562.381	351.69
562.593	328.69
562.805	330.69
563.017	342.69
563.229	350.69
563.441	329.69
563.653	349.69
563.865	328.69
564.077	344.69
564.289	348.69
564.501	358.69
564.713	351.69
564.925	359.69
565.137	360.69
565.349	344.69
565.561	358.69
565.773	347.69
565.985	373.69
566.197	358.69
566.408	378.69
566.62	363.69
566.832	390.69
567.044	350.69
567.255	389.69
567.467	382.69
567.679	395.69
567.891	389.69
568.102	385.69
568.314	384.69
568.526	366.69
568.737	365.69
568.949	361.69
569.161	344.69
569.372	341.69
569.584	335.69
569.795	340.69
570.007	336.69
570.218	375.69
570.43	388.69
570.641	335.69
570.853	329.69
571.064	323.69
571.276	313.69
571.487	324.69
571.698	315.69
571.91	310.69
572.121	308.69
572.333	312.69
572.544	300.69
572.755	322.69
572.966	299.69
573.178	314.69
573.389	310.69
573.6	303.69
573.811	286.69
574.023	301.69
574.234	298.69
574.445	299.69
574.656	282.69
574.867	279.69
575.078	278.69
575.289	284.69
575.501	297.69
575.712	287.69
575.923	290.69
576.134	286.69
576.345	296.69
576.556	299.69
576.767	292.69
576.978	285.69
577.188	302.69
577.399	283.69
577.61	282.69
577.821	285.69
578.032	300.69
578.243	328.69
578.454	574.69
578.665	398.69
578.875	287.69
579.086	268.69
579.297	282.69
579.508	283.69
579.718	282.69
579.929	281.69
580.14	244.69
580.35	263.69
580.561	276.69
580.772	255.69
580.982	260.69
581.193	270.69
581.403	267.69
581.614	280.69
581.825	280.69
582.035	253.69
582.246	250.69
582.456	257.69
582.667	278.69
582.877	265.69
583.087	259.69
583.298	279.69
583.508	270.69
583.719	265.69
583.929	265.69
584.139	237.69
584.35	260.69
584.56	264.69
584.77	263.69
584.981	271.69
585.191	242.69
585.401	260.69
585.611	270.69
585.821	258.69
586.032	249.69
586.242	261.69
586.452	265.69
586.662	249.69
586.872	247.69
587.082	263.69
587.292	258.69
587.502	252.69
587.713	278.69
587.923	249.69
588.133	284.69
588.343	247.69
588.553	246.69
588.762	271.69
588.972	242.69
589.182	290.69
589.392	283.69
589.602	275.69
589.812	278.69
590.022	254.69
590.232	251.69
590.441	264.69
590.651	238.69
590.861	251.69
591.071	256.69
591.281	251.69
591.49	250.69
591.7	255.69
591.91	258.69
592.119	250.69
592.329	264.69
592.539	259.69
592.748	264.69
592.958	270.69
593.167	255.69
593.377	267.69
593.587	273.69
593.796	272.69
594.006	273.69
594.215	265.69
594.424	263.69
594.634	260.69
594.843	272.69
595.053	268.69
595.262	240.69
595.472	229.69
595.681	249.69
595.89	246.69
596.1	241.69
596.309	245.69
596.518	235.69
596.727	253.69
596.937	251.69
597.146	248.69
597.355	242.69
597.564	228.69
597.774	236.69
597.983	223.69
598.192	246.69
598.401	238.69
598.61	227.69
598.819	250.69
599.028	238.69
599.237	230.69
599.446	209.69
599.655	231.69
599.864	213.69
600.073	243.69
600.282	211.69
600.491	211.69
600.7	231.69
600.909	230.69
601.118	215.69
601.327	250.69
601.536	209.69
601.745	208.69
601.953	217.69
602.162	242.69
602.371	222.69
602.58	214.69
602.789	219.69
602.997	230.69
603.206	235.69
603.415	215.69
603.623	220.69
603.832	227.69
604.041	222.69
604.249	230.69
604.458	213.69
604.666	217.69
604.875	218.69
605.084	207.69
605.292	213.69
605.501	226.69
605.709	217.69
605.918	210.69
606.126	235.69
606.334	232.69
606.543	207.69
606.751	210.69
606.96	214.69
607.168	201.69
607.376	209.69
607.585	196.69
607.793	216.69
608.001	213.69
608.21	213.69
608.418	223.69
608.626	214.69
608.834	200.69
609.043	216.69
609.251	209.69
609.459	204.69
609.667	209.69
609.875	212.69
610.083	221.69
610.291	212.69
610.499	206.69
610.707	210.69
610.916	206.69
611.124	220.69
611.332	226.69
611.54	226.69
611.748	211.69
611.955	207.69
612.163	211.69
612.371	200.69
612.579	216.69
612.787	203.69
612.995	202.69
613.203	200.69
613.411	212.69
613.618	212.69
613.826	214.69
614.034	200.69
614.242	218.69
614.449	202.69
614.657	180.69
614.865	195.69
615.072	212.69
615.28	205.69
615.488	188.69
615.695	196.69
615.903	196.69
616.111	200.69
616.318	210.69
616.526	214.69
616.733	204.69
616.941	203.69
617.148	205.69
617.356	214.69
617.563	204.69
617.771	194.69
617.978	208.69
618.185	207.69
618.393	194.69
618.6	207.69
618.807	208.69
619.015	193.69
619.222	186.69
619.429	205.69
619.637	205.69
619.844	196.69
620.051	205.69
620.258	189.69
620.466	192.69
620.673	191.69
620.88	203.69
621.087	192.69
621.294	203.69
621.501	199.69
621.708	190.69
621.915	199.69
622.122	204.69
622.329	180.69
622.536	190.69
622.743	186.69
622.95	180.69
623.157	202.69
623.364	182.69
623.571	188.69
623.778	181.69
623.985	186.69
624.192	178.69
624.399	171.69
624.606	181.69
624.812	200.69
625.019	185.69
625.226	197.69
625.433	175.69
625.639	195.69
625.846	191.69
626.053	180.69
626.259	186.69
626.466	184.69
626.673	184.69
626.879	188.69
627.086	194.69
627.293	202.69
627.499	199.69
627.706	171.69
627.912	187.69
628.119	175.69
628.325	184.69
628.532	182.69
628.738	172.69
628.945	168.69
629.151	178.69
629.357	168.69
629.564	160.69
629.77	167.69
629.976	164.69
630.183	168.69
630.389	173.69
630.595	180.69
630.802	184.69
631.008	176.69
631.214	175.69
631.42	176.69
631.627	164.69
631.833	185.69
632.039	190.69
632.245	188.69
632.451	160.69
632.657	151.69
632.863	166.69
633.069	163.69
633.275	164.69
633.481	155.69
633.688	165.69
633.893	161.69
634.099	173.69
634.305	174.69
634.511	174.69
634.717	171.69
634.923	166.69
635.129	168.69
635.335	158.69
635.541	160.69
635.747	168.69
635.952	146.69
636.158	176.69
636.364	171.69
636.57	167.69
636.775	172.69
636.981	182.69
637.187	175.69
637.392	173.69
637.598	158.69
637.804	171.69
638.009	161.69
638.215	168.69
638.421	143.69
638.626	156.69
638.832	175.69
639.037	169.69
639.243	157.69
639.448	152.69
639.654	143.69
639.859	156.69
640.065	162.69
640.27	165.69
640.475	152.69
640.681	164.69
640.886	146.69
641.091	159.69
641.297	170.69
641.502	144.69
641.707	162.69
641.913	163.69
642.118	144.69
642.323	156.69
642.528	147.69
642.733	147.69
642.939	138.69
643.144	138.69
643.349	140.69
643.554	158.69
643.759	154.69
643.964	142.69
644.169	141.69
644.374	152.69
644.579	160.69
644.784	132.69
644.989	146.69
645.194	163.69
645.399	160.69
645.604	165.69
645.809	155.69
646.014	149.69
646.219	146.69
646.423	145.69
646.628	138.69
646.833	143.69
647.038	138.69
647.243	150.69
647.447	142.69
647.652	155.69
647.857	154.69
648.062	145.69
648.266	147.69
648.471	151.69
648.676	158.69
648.88	147.69
649.085	142.69
649.289	162.69
649.494	184.69
649.698	179.69
649.903	178.69
650.107	159.69
650.312	156.69
650.516	147.69
650.721	158.69
650.925	142.69
651.13	140.69
651.334	141.69
651.539	136.69
651.743	139.69
651.947	151.69
652.152	142.69
652.356	128.69
652.56	134.69
652.764	136.69
652.969	126.69
653.173	125.69
653.377	134.69
653.581	123.69
653.785	121.69
653.99	134.69
654.194	127.69
654.398	120.69
654.602	130.69
654.806	132.69
655.01	136.69
655.214	124.69
655.418	133.69
655.622	133.69
655.826	124.69
656.03	118.69
656.234	131.69
656.438	123.69
656.642	128.69
656.846	110.69
657.049	133.69
657.253	128.69
657.457	122.69
657.661	115.69
657.865	119.69
658.068	117.69
658.272	109.69
658.476	99.69
658.68	103.69
658.883	107.69
659.087	109.69
659.291	87.69
659.494	88.69
659.698	92.69
659.901	94.69
660.105	101.69
660.309	108.69
660.512	95.69
660.716	86.69
660.919	87.69
661.123	100.69
661.326	82.69
661.53	95.69
661.733	88.69
661.936	88.69
662.14	83.69
662.343	85.69
662.546	91.69
662.75	82.69
662.953	89.69
663.156	80.69
663.36	83.69
663.563	86.69
663.766	89.69
663.969	87.69
664.173	77.69
664.376	81.69
664.579	92.69
664.782	77.69
664.985	86.69
665.188	94.69
665.391	94.69
665.594	81.69
665.797	86.69
666	86.69
666.203	80.69
666.406	81.69
666.609	93.69
666.812	82.69
667.015	88.69
667.218	75.69
667.421	101.69
667.624	86.69
667.827	75.69
668.03	72.69
668.232	84.69
668.435	95.69
668.638	100.69
668.841	65.69
669.043	80.69
669.246	73.69
669.449	74.69
669.651	83.69
669.854	80.69
670.057	93.69
670.259	79.69
670.462	78.69
670.665	71.69
670.867	78.69
671.07	80.69
671.272	90.69
671.475	91.69
671.677	87.69
671.88	85.69
672.082	88.69
672.284	80.69
672.487	79.69
672.689	81.69
672.892	77.69
