Data from 1965.PennyLincolnUp.Lamp.En5.5.200Scan.071719.P1._HRD10591_14-09-58-911.txt Node
Date: Thu Jul 18 14:09:58 EDT 2019
User: cochatt
Spectrometer: HR+D1059
Trigger mode: 1
Integration Time (sec): 1.000000E-1
Scans to average: 1
Electric dark correction enabled: true
Nonlinearity correction enabled: false
Boxcar width: 0
XAxis mode: Wavelengths
Number of Pixels in Spectrum: 2048
>>>>>Begin Spectral Data<<<<<
223.165	-6.31
223.4	-6.31
223.635	-6.31
223.869	-22.31
224.104	-14.31
224.338	8.69
224.573	-16.31
224.808	-9.31
225.042	-7.31
225.277	-20.31
225.511	-24.31
225.746	-5.31
225.98	6.69
226.215	15.69
226.449	13.69
226.683	16.69
226.918	22.69
227.152	41.69
227.387	27.69
227.621	39.69
227.856	30.69
228.09	58.69
228.324	50.69
228.559	59.69
228.793	76.69
229.027	96.69
229.262	114.69
229.496	100.69
229.73	110.69
229.964	132.69
230.199	114.69
230.433	122.69
230.667	107.69
230.901	96.69
231.136	123.69
231.37	110.69
231.604	114.69
231.838	97.69
232.072	89.69
232.306	95.69
232.541	101.69
232.775	98.69
233.009	107.69
233.243	98.69
233.477	107.69
233.711	102.69
233.945	90.69
234.179	114.69
234.413	97.69
234.647	109.69
234.881	108.69
235.115	118.69
235.349	98.69
235.583	118.69
235.817	100.69
236.051	125.69
236.285	118.69
236.519	120.69
236.753	124.69
236.987	119.69
237.221	166.69
237.455	202.69
237.689	164.69
237.922	131.69
238.156	126.69
238.39	108.69
238.624	123.69
238.858	102.69
239.091	102.69
239.325	96.69
239.559	116.69
239.793	123.69
240.027	125.69
240.26	117.69
240.494	144.69
240.728	139.69
240.961	146.69
241.195	124.69
241.429	138.69
241.662	120.69
241.896	125.69
242.13	119.69
242.363	124.69
242.597	132.69
242.83	122.69
243.064	133.69
243.298	136.69
243.531	120.69
243.765	115.69
243.998	110.69
244.232	124.69
244.465	130.69
244.699	121.69
244.932	130.69
245.166	135.69
245.399	126.69
245.633	128.69
245.866	137.69
246.099	125.69
246.333	140.69
246.566	124.69
246.8	146.69
247.033	133.69
247.266	139.69
247.5	140.69
247.733	149.69
247.966	150.69
248.2	157.69
248.433	155.69
248.666	158.69
248.899	174.69
249.133	180.69
249.366	209.69
249.599	174.69
249.832	140.69
250.066	158.69
250.299	166.69
250.532	168.69
250.765	190.69
250.998	192.69
251.231	191.69
251.465	184.69
251.698	192.69
251.931	186.69
252.164	173.69
252.397	174.69
252.63	175.69
252.863	210.69
253.096	190.69
253.329	192.69
253.562	189.69
253.795	194.69
254.028	203.69
254.261	203.69
254.494	213.69
254.727	228.69
254.96	248.69
255.193	236.69
255.426	211.69
255.659	207.69
255.892	223.69
256.124	204.69
256.357	196.69
256.59	201.69
256.823	191.69
257.056	190.69
257.289	206.69
257.521	199.69
257.754	182.69
257.987	188.69
258.22	190.69
258.452	192.69
258.685	182.69
258.918	180.69
259.151	178.69
259.383	185.69
259.616	194.69
259.849	197.69
260.081	223.69
260.314	208.69
260.547	211.69
260.779	200.69
261.012	193.69
261.244	205.69
261.477	207.69
261.71	201.69
261.942	210.69
262.175	220.69
262.407	201.69
262.64	183.69
262.872	208.69
263.105	179.69
263.337	194.69
263.57	180.69
263.802	186.69
264.035	193.69
264.267	195.69
264.499	195.69
264.732	190.69
264.964	186.69
265.197	198.69
265.429	188.69
265.661	183.69
265.894	186.69
266.126	197.69
266.358	184.69
266.591	194.69
266.823	205.69
267.055	201.69
267.287	193.69
267.52	191.69
267.752	201.69
267.984	199.69
268.216	202.69
268.448	191.69
268.681	204.69
268.913	227.69
269.145	240.69
269.377	252.69
269.609	232.69
269.841	246.69
270.073	228.69
270.306	246.69
270.538	278.69
270.77	269.69
271.002	262.69
271.234	262.69
271.466	258.69
271.698	279.69
271.93	282.69
272.162	280.69
272.394	274.69
272.626	284.69
272.858	254.69
273.09	254.69
273.322	238.69
273.553	227.69
273.785	238.69
274.017	227.69
274.249	248.69
274.481	227.69
274.713	230.69
274.945	227.69
275.176	250.69
275.408	219.69
275.64	231.69
275.872	238.69
276.104	243.69
276.335	237.69
276.567	257.69
276.799	247.69
277.031	269.69
277.262	292.69
277.494	273.69
277.726	279.69
277.957	262.69
278.189	243.69
278.421	236.69
278.652	224.69
278.884	235.69
279.115	253.69
279.347	226.69
279.579	231.69
279.81	234.69
280.042	212.69
280.273	224.69
280.505	220.69
280.736	230.69
280.968	239.69
281.199	231.69
281.431	231.69
281.662	235.69
281.894	238.69
282.125	250.69
282.356	233.69
282.588	266.69
282.819	273.69
283.051	237.69
283.282	244.69
283.513	222.69
283.745	223.69
283.976	253.69
284.207	229.69
284.439	248.69
284.67	235.69
284.901	222.69
285.132	234.69
285.364	228.69
285.595	226.69
285.826	237.69
286.057	213.69
286.288	245.69
286.52	259.69
286.751	238.69
286.982	238.69
287.213	256.69
287.444	228.69
287.675	268.69
287.906	273.69
288.138	256.69
288.369	258.69
288.6	288.69
288.831	249.69
289.062	248.69
289.293	257.69
289.524	264.69
289.755	238.69
289.986	247.69
290.217	246.69
290.448	258.69
290.679	231.69
290.91	255.69
291.141	235.69
291.371	252.69
291.602	249.69
291.833	259.69
292.064	244.69
292.295	260.69
292.526	229.69
292.757	232.69
292.987	250.69
293.218	244.69
293.449	239.69
293.68	236.69
293.91	255.69
294.141	250.69
294.372	248.69
294.603	268.69
294.833	252.69
295.064	230.69
295.295	244.69
295.525	254.69
295.756	264.69
295.987	265.69
296.217	300.69
296.448	289.69
296.679	264.69
296.909	270.69
297.14	251.69
297.37	264.69
297.601	249.69
297.831	251.69
298.062	267.69
298.292	263.69
298.523	248.69
298.753	252.69
298.984	253.69
299.214	249.69
299.445	270.69
299.675	251.69
299.905	259.69
300.136	270.69
300.366	255.69
300.597	259.69
300.827	269.69
301.057	261.69
301.288	286.69
301.518	256.69
301.748	261.69
301.979	277.69
302.209	274.69
302.439	274.69
302.669	272.69
302.9	278.69
303.13	277.69
303.36	278.69
303.59	285.69
303.82	293.69
304.051	294.69
304.281	284.69
304.511	268.69
304.741	279.69
304.971	264.69
305.201	274.69
305.431	294.69
305.661	275.69
305.891	297.69
306.121	292.69
306.352	286.69
306.582	287.69
306.812	278.69
307.042	276.69
307.272	277.69
307.502	278.69
307.731	273.69
307.961	275.69
308.191	292.69
308.421	285.69
308.651	299.69
308.881	290.69
309.111	292.69
309.341	292.69
309.571	323.69
309.8	332.69
310.03	318.69
310.26	341.69
310.49	331.69
310.72	336.69
310.949	356.69
311.179	336.69
311.409	319.69
311.639	319.69
311.868	363.69
312.098	335.69
312.328	320.69
312.557	347.69
312.787	348.69
313.017	343.69
313.246	340.69
313.476	333.69
313.706	335.69
313.935	320.69
314.165	359.69
314.394	350.69
314.624	354.69
314.853	327.69
315.083	349.69
315.312	317.69
315.542	320.69
315.771	311.69
316.001	333.69
316.23	328.69
316.46	322.69
316.689	313.69
316.919	331.69
317.148	348.69
317.377	331.69
317.607	342.69
317.836	340.69
318.065	332.69
318.295	341.69
318.524	322.69
318.753	336.69
318.983	335.69
319.212	323.69
319.441	330.69
319.67	340.69
319.9	340.69
320.129	319.69
320.358	322.69
320.587	347.69
320.816	358.69
321.046	342.69
321.275	349.69
321.504	365.69
321.733	350.69
321.962	361.69
322.191	376.69
322.42	392.69
322.649	393.69
322.878	393.69
323.108	397.69
323.337	427.69
323.566	443.69
323.795	507.69
324.024	542.69
324.253	664.69
324.482	953.69
324.71	1482.69
324.939	2024.69
325.168	1647.69
325.397	881.69
325.626	636.69
325.855	523.69
326.084	465.69
326.313	472.69
326.542	467.69
326.77	509.69
326.999	602.69
327.228	848.69
327.457	1290.69
327.686	1438.69
327.914	981.69
328.143	658.69
328.372	598.69
328.6	546.69
328.829	519.69
329.058	527.69
329.287	538.69
329.515	498.69
329.744	472.69
329.972	468.69
330.201	474.69
330.43	518.69
330.658	526.69
330.887	570.69
331.115	551.69
331.344	462.69
331.572	436.69
331.801	432.69
332.03	436.69
332.258	404.69
332.486	403.69
332.715	384.69
332.943	400.69
333.172	387.69
333.4	400.69
333.629	399.69
333.857	416.69
334.085	421.69
334.314	429.69
334.542	476.69
334.771	490.69
334.999	453.69
335.227	427.69
335.455	403.69
335.684	369.69
335.912	392.69
336.14	381.69
336.369	369.69
336.597	395.69
336.825	404.69
337.053	374.69
337.281	372.69
337.51	381.69
337.738	373.69
337.966	383.69
338.194	378.69
338.422	406.69
338.65	380.69
338.878	374.69
339.106	370.69
339.334	358.69
339.562	362.69
339.79	363.69
340.018	366.69
340.246	365.69
340.474	378.69
340.702	396.69
340.93	375.69
341.158	378.69
341.386	379.69
341.614	387.69
341.842	380.69
342.07	367.69
342.298	356.69
342.526	351.69
342.754	354.69
342.981	346.69
343.209	353.69
343.437	376.69
343.665	346.69
343.893	362.69
344.12	357.69
344.348	355.69
344.576	373.69
344.804	375.69
345.031	389.69
345.259	399.69
345.487	390.69
345.714	370.69
345.942	354.69
346.17	388.69
346.397	357.69
346.625	353.69
346.853	358.69
347.08	375.69
347.308	366.69
347.535	362.69
347.763	384.69
347.99	388.69
348.218	358.69
348.445	358.69
348.673	357.69
348.9	361.69
349.128	358.69
349.355	347.69
349.583	355.69
349.81	335.69
350.037	352.69
350.265	344.69
350.492	355.69
350.72	348.69
350.947	350.69
351.174	360.69
351.402	373.69
351.629	379.69
351.856	357.69
352.083	367.69
352.311	372.69
352.538	368.69
352.765	360.69
352.992	386.69
353.22	373.69
353.447	371.69
353.674	340.69
353.901	348.69
354.128	343.69
354.355	341.69
354.583	325.69
354.81	341.69
355.037	349.69
355.264	334.69
355.491	328.69
355.718	319.69
355.945	334.69
356.172	330.69
356.399	319.69
356.626	335.69
356.853	314.69
357.08	332.69
357.307	329.69
357.534	329.69
357.761	326.69
357.988	325.69
358.215	343.69
358.441	331.69
358.668	334.69
358.895	352.69
359.122	350.69
359.349	339.69
359.576	356.69
359.802	403.69
360.029	411.69
360.256	415.69
360.483	386.69
360.709	356.69
360.936	352.69
361.163	379.69
361.39	356.69
361.616	363.69
361.843	366.69
362.07	344.69
362.296	337.69
362.523	353.69
362.749	369.69
362.976	362.69
363.203	360.69
363.429	361.69
363.656	360.69
363.882	363.69
364.109	346.69
364.335	344.69
364.562	341.69
364.788	330.69
365.015	351.69
365.241	358.69
365.468	332.69
365.694	365.69
365.92	374.69
366.147	347.69
366.373	352.69
366.599	339.69
366.826	357.69
367.052	343.69
367.278	330.69
367.505	328.69
367.731	341.69
367.957	349.69
368.184	350.69
368.41	331.69
368.636	349.69
368.862	366.69
369.089	339.69
369.315	338.69
369.541	336.69
369.767	346.69
369.993	343.69
370.219	348.69
370.445	343.69
370.672	329.69
370.898	327.69
371.124	342.69
371.35	335.69
371.576	317.69
371.802	330.69
372.028	334.69
372.254	346.69
372.48	343.69
372.706	327.69
372.932	353.69
373.158	332.69
373.384	350.69
373.61	349.69
373.835	319.69
374.061	331.69
374.287	321.69
374.513	330.69
374.739	327.69
374.965	326.69
375.191	335.69
375.416	340.69
375.642	343.69
375.868	344.69
376.094	332.69
376.319	342.69
376.545	354.69
376.771	328.69
376.997	336.69
377.222	350.69
377.448	320.69
377.674	355.69
377.899	354.69
378.125	332.69
378.35	318.69
378.576	351.69
378.802	326.69
379.027	344.69
379.253	338.69
379.478	331.69
379.704	327.69
379.929	325.69
380.155	334.69
380.38	326.69
380.606	327.69
380.831	335.69
381.057	335.69
381.282	340.69
381.507	334.69
381.733	353.69
381.958	338.69
382.184	324.69
382.409	347.69
382.634	353.69
382.86	348.69
383.085	336.69
383.31	338.69
383.535	358.69
383.761	342.69
383.986	335.69
384.211	341.69
384.436	341.69
384.662	351.69
384.887	363.69
385.112	344.69
385.337	360.69
385.562	348.69
385.787	362.69
386.013	360.69
386.238	354.69
386.463	375.69
386.688	350.69
386.913	361.69
387.138	362.69
387.363	357.69
387.588	354.69
387.813	368.69
388.038	326.69
388.263	344.69
388.488	361.69
388.713	370.69
388.938	356.69
389.163	355.69
389.387	365.69
389.612	356.69
389.837	368.69
390.062	356.69
390.287	354.69
390.512	357.69
390.736	354.69
390.961	361.69
391.186	340.69
391.411	361.69
391.636	351.69
391.86	351.69
392.085	375.69
392.31	354.69
392.534	367.69
392.759	356.69
392.984	390.69
393.208	365.69
393.433	365.69
393.658	375.69
393.882	340.69
394.107	378.69
394.331	358.69
394.556	354.69
394.78	365.69
395.005	371.69
395.229	360.69
395.454	367.69
395.678	379.69
395.903	382.69
396.127	396.69
396.352	421.69
396.576	391.69
396.801	352.69
397.025	371.69
397.249	381.69
397.474	378.69
397.698	371.69
397.922	396.69
398.147	402.69
398.371	415.69
398.595	408.69
398.82	388.69
399.044	387.69
399.268	411.69
399.492	428.69
399.717	439.69
399.941	463.69
400.165	496.69
400.389	475.69
400.613	463.69
400.837	455.69
401.062	439.69
401.286	430.69
401.51	419.69
401.734	398.69
401.958	386.69
402.182	416.69
402.406	426.69
402.63	419.69
402.854	409.69
403.078	403.69
403.302	428.69
403.526	434.69
403.75	402.69
403.974	405.69
404.198	417.69
404.422	429.69
404.645	439.69
404.869	439.69
405.093	461.69
405.317	479.69
405.541	487.69
405.765	494.69
405.988	441.69
406.212	450.69
406.436	476.69
406.66	489.69
406.883	468.69
407.107	468.69
407.331	495.69
407.555	556.69
407.778	553.69
408.002	510.69
408.226	450.69
408.449	441.69
408.673	471.69
408.896	493.69
409.12	520.69
409.344	472.69
409.567	436.69
409.791	431.69
410.014	432.69
410.238	448.69
410.461	407.69
410.685	450.69
410.908	443.69
411.132	473.69
411.355	485.69
411.578	456.69
411.802	441.69
412.025	442.69
412.249	431.69
412.472	459.69
412.695	490.69
412.919	487.69
413.142	426.69
413.365	427.69
413.589	411.69
413.812	411.69
414.035	405.69
414.258	402.69
414.482	390.69
414.705	385.69
414.928	392.69
415.151	405.69
415.374	387.69
415.597	403.69
415.821	382.69
416.044	404.69
416.267	404.69
416.49	392.69
416.713	383.69
416.936	405.69
417.159	392.69
417.382	394.69
417.605	406.69
417.828	416.69
418.051	421.69
418.274	389.69
418.497	388.69
418.72	405.69
418.943	396.69
419.166	410.69
419.389	429.69
419.611	434.69
419.834	412.69
420.057	432.69
420.28	421.69
420.503	415.69
420.726	416.69
420.948	438.69
421.171	459.69
421.394	473.69
421.617	448.69
421.839	418.69
422.062	416.69
422.285	434.69
422.507	475.69
422.73	552.69
422.953	524.69
423.175	477.69
423.398	446.69
423.621	439.69
423.843	452.69
424.066	461.69
424.288	444.69
424.511	486.69
424.733	521.69
424.956	572.69
425.178	542.69
425.401	548.69
425.623	568.69
425.846	499.69
426.068	452.69
426.291	442.69
426.513	446.69
426.735	460.69
426.958	476.69
427.18	564.69
427.402	668.69
427.625	716.69
427.847	652.69
428.069	581.69
428.292	504.69
428.514	447.69
428.736	426.69
428.958	432.69
429.181	426.69
429.403	434.69
429.625	457.69
429.847	455.69
430.069	517.69
430.292	519.69
430.514	441.69
430.736	427.69
430.958	424.69
431.18	413.69
431.402	381.69
431.624	396.69
431.846	414.69
432.068	391.69
432.29	396.69
432.512	396.69
432.734	406.69
432.956	409.69
433.178	438.69
433.4	432.69
433.622	401.69
433.844	412.69
434.066	396.69
434.287	398.69
434.509	412.69
434.731	420.69
434.953	432.69
435.175	429.69
435.397	452.69
435.618	472.69
435.84	502.69
436.062	574.69
436.284	595.69
436.505	514.69
436.727	472.69
436.949	430.69
437.17	439.69
437.392	450.69
437.614	426.69
437.835	461.69
438.057	567.69
438.278	619.69
438.5	629.69
438.721	652.69
438.943	637.69
439.165	499.69
439.386	474.69
439.608	500.69
439.829	470.69
440.05	496.69
440.272	529.69
440.493	487.69
440.715	464.69
440.936	421.69
441.158	432.69
441.379	418.69
441.6	456.69
441.822	454.69
442.043	495.69
442.264	562.69
442.486	592.69
442.707	501.69
442.928	466.69
443.149	481.69
443.371	501.69
443.592	547.69
443.813	597.69
444.034	656.69
444.255	532.69
444.476	492.69
444.698	468.69
444.919	455.69
445.14	586.69
445.361	525.69
445.582	504.69
445.803	551.69
446.024	640.69
446.245	628.69
446.466	564.69
446.687	506.69
446.908	464.69
447.129	454.69
447.35	433.69
447.571	446.69
447.792	412.69
448.013	440.69
448.234	461.69
448.455	503.69
448.675	596.69
448.896	670.69
449.117	591.69
449.338	548.69
449.559	628.69
449.779	698.69
450	568.69
450.221	481.69
450.442	437.69
450.662	415.69
450.883	420.69
451.104	434.69
451.324	429.69
451.545	420.69
451.766	406.69
451.986	407.69
452.207	411.69
452.428	395.69
452.648	401.69
452.869	372.69
453.089	390.69
453.31	403.69
453.53	395.69
453.751	389.69
453.971	376.69
454.192	424.69
454.412	395.69
454.633	377.69
454.853	390.69
455.073	384.69
455.294	405.69
455.514	464.69
455.734	450.69
455.955	383.69
456.175	370.69
456.395	380.69
456.616	364.69
456.836	374.69
457.056	374.69
457.276	352.69
457.497	365.69
457.717	374.69
457.937	363.69
458.157	380.69
458.377	391.69
458.598	399.69
458.818	454.69
459.038	503.69
459.258	530.69
459.478	442.69
459.698	419.69
459.918	405.69
460.138	396.69
460.358	402.69
460.578	400.69
460.798	392.69
461.018	415.69
461.238	410.69
461.458	404.69
461.678	399.69
461.898	413.69
462.118	407.69
462.338	427.69
462.558	405.69
462.777	404.69
462.997	424.69
463.217	410.69
463.437	423.69
463.657	437.69
463.876	414.69
464.096	444.69
464.316	448.69
464.536	436.69
464.755	445.69
464.975	437.69
465.195	499.69
465.414	549.69
465.634	500.69
465.854	448.69
466.073	413.69
466.293	398.69
466.512	395.69
466.732	404.69
466.951	404.69
467.171	407.69
467.391	406.69
467.61	432.69
467.829	414.69
468.049	414.69
468.268	415.69
468.488	400.69
468.707	403.69
468.927	379.69
469.146	381.69
469.365	377.69
469.585	396.69
469.804	412.69
470.023	390.69
470.243	388.69
470.462	422.69
470.681	432.69
470.901	421.69
471.12	399.69
471.339	401.69
471.558	432.69
471.777	410.69
471.997	388.69
472.216	428.69
472.435	447.69
472.654	428.69
472.873	404.69
473.092	410.69
473.311	409.69
473.53	410.69
473.749	420.69
473.968	450.69
474.187	535.69
474.406	543.69
474.625	469.69
474.844	438.69
475.063	414.69
475.282	415.69
475.501	415.69
475.72	413.69
475.939	411.69
476.158	412.69
476.377	427.69
476.596	408.69
476.814	411.69
477.033	424.69
477.252	404.69
477.471	439.69
477.69	439.69
477.908	443.69
478.127	417.69
478.346	440.69
478.564	458.69
478.783	450.69
479.002	449.69
479.22	469.69
479.439	467.69
479.658	484.69
479.876	470.69
480.095	477.69
480.313	532.69
480.532	491.69
480.751	482.69
480.969	494.69
481.188	575.69
481.406	622.69
481.624	523.69
481.843	485.69
482.061	487.69
482.28	466.69
482.498	475.69
482.717	476.69
482.935	473.69
483.153	477.69
483.372	485.69
483.59	464.69
483.808	468.69
484.027	491.69
484.245	446.69
484.463	478.69
484.681	499.69
484.9	488.69
485.118	487.69
485.336	479.69
485.554	459.69
485.772	474.69
485.99	486.69
486.209	470.69
486.427	504.69
486.645	504.69
486.863	510.69
487.081	512.69
487.299	510.69
487.517	500.69
487.735	479.69
487.953	510.69
488.171	504.69
488.389	517.69
488.607	517.69
488.825	518.69
489.043	510.69
489.261	494.69
489.479	501.69
489.696	526.69
489.914	499.69
490.132	531.69
490.35	537.69
490.568	519.69
490.786	560.69
491.003	552.69
491.221	554.69
491.439	575.69
491.657	570.69
491.874	555.69
492.092	575.69
492.31	565.69
492.527	567.69
492.745	597.69
492.963	590.69
493.18	588.69
493.398	604.69
493.615	620.69
493.833	604.69
494.05	590.69
494.268	599.69
494.485	600.69
494.703	594.69
494.92	595.69
495.138	620.69
495.355	598.69
495.573	593.69
495.79	610.69
496.008	592.69
496.225	610.69
496.442	585.69
496.66	610.69
496.877	597.69
497.094	586.69
497.312	614.69
497.529	600.69
497.746	634.69
497.963	642.69
498.181	647.69
498.398	657.69
498.615	660.69
498.832	672.69
499.049	644.69
499.267	683.69
499.484	673.69
499.701	696.69
499.918	688.69
500.135	719.69
500.352	748.69
500.569	755.69
500.786	746.69
501.003	788.69
501.22	740.69
501.437	715.69
501.654	704.69
501.871	726.69
502.088	700.69
502.305	663.69
502.522	670.69
502.739	634.69
502.956	631.69
503.172	627.69
503.389	610.69
503.606	622.69
503.823	617.69
504.04	619.69
504.256	604.69
504.473	591.69
504.69	577.69
504.907	607.69
505.123	581.69
505.34	590.69
505.557	583.69
505.773	563.69
505.99	570.69
506.207	583.69
506.423	574.69
506.64	573.69
506.856	583.69
507.073	560.69
507.289	564.69
507.506	573.69
507.722	589.69
507.939	611.69
508.155	590.69
508.372	574.69
508.588	547.69
508.805	566.69
509.021	554.69
509.238	576.69
509.454	574.69
509.67	578.69
509.887	564.69
510.103	561.69
510.319	588.69
510.536	661.69
510.752	1116.69
510.968	892.69
511.184	587.69
511.401	548.69
511.617	538.69
511.833	540.69
512.049	519.69
512.265	513.69
512.481	532.69
512.698	515.69
512.914	524.69
513.13	519.69
513.346	520.69
513.562	516.69
513.778	548.69
513.994	543.69
514.21	554.69
514.426	576.69
514.642	634.69
514.858	663.69
515.074	692.69
515.29	843.69
515.506	1293.69
515.721	1010.69
515.937	646.69
516.153	602.69
516.369	605.69
516.585	554.69
516.801	547.69
517.016	526.69
517.232	550.69
517.448	520.69
517.664	535.69
517.879	533.69
518.095	532.69
518.311	527.69
518.527	529.69
518.742	540.69
518.958	553.69
519.173	537.69
519.389	543.69
519.605	536.69
519.82	532.69
520.036	570.69
520.251	590.69
520.467	586.69
520.682	597.69
520.898	611.69
521.113	619.69
521.329	714.69
521.544	778.69
521.76	979.69
521.975	1708.69
522.19	1600.69
522.406	842.69
522.621	664.69
522.836	574.69
523.052	567.69
523.267	510.69
523.482	518.69
523.698	506.69
523.913	499.69
524.128	507.69
524.343	479.69
524.559	461.69
524.774	440.69
524.989	462.69
525.204	464.69
525.419	494.69
525.634	452.69
525.849	455.69
526.064	475.69
526.28	447.69
526.495	439.69
526.71	434.69
526.925	426.69
527.14	454.69
527.355	439.69
527.57	440.69
527.785	413.69
527.999	426.69
528.214	418.69
528.429	426.69
528.644	423.69
528.859	441.69
529.074	440.69
529.289	474.69
529.503	534.69
529.718	500.69
529.933	475.69
530.148	440.69
530.363	438.69
530.577	408.69
530.792	427.69
531.007	428.69
531.221	403.69
531.436	404.69
531.651	421.69
531.865	392.69
532.08	418.69
532.295	430.69
532.509	398.69
532.724	419.69
532.938	410.69
533.153	415.69
533.367	420.69
533.582	399.69
533.796	400.69
534.011	389.69
534.225	411.69
534.44	400.69
534.654	398.69
534.868	399.69
535.083	399.69
535.297	403.69
535.511	407.69
535.726	418.69
535.94	440.69
536.154	397.69
536.369	396.69
536.583	402.69
536.797	398.69
537.011	386.69
537.225	390.69
537.44	393.69
537.654	372.69
537.868	410.69
538.082	400.69
538.296	396.69
538.51	410.69
538.724	392.69
538.938	361.69
539.153	390.69
539.367	429.69
539.581	396.69
539.795	413.69
540.009	407.69
540.222	384.69
540.436	396.69
540.65	401.69
540.864	406.69
541.078	408.69
541.292	374.69
541.506	381.69
541.72	385.69
541.934	374.69
542.147	380.69
542.361	385.69
542.575	391.69
542.789	387.69
543.002	382.69
543.216	388.69
543.43	390.69
543.644	389.69
543.857	373.69
544.071	385.69
544.285	400.69
544.498	388.69
544.712	373.69
544.925	374.69
545.139	391.69
545.352	363.69
545.566	394.69
545.779	367.69
545.993	373.69
546.206	388.69
546.42	374.69
546.633	387.69
546.847	368.69
547.06	365.69
547.274	390.69
547.487	360.69
547.7	373.69
547.914	363.69
548.127	373.69
548.34	368.69
548.554	357.69
548.767	368.69
548.98	362.69
549.193	361.69
549.407	379.69
549.62	358.69
549.833	361.69
550.046	371.69
550.259	370.69
550.473	355.69
550.686	371.69
550.899	382.69
551.112	378.69
551.325	356.69
551.538	360.69
551.751	360.69
551.964	357.69
552.177	380.69
552.39	360.69
552.603	355.69
552.816	355.69
553.029	364.69
553.242	362.69
553.455	361.69
553.667	364.69
553.88	391.69
554.093	376.69
554.306	373.69
554.519	342.69
554.732	352.69
554.944	336.69
555.157	348.69
555.37	356.69
555.583	366.69
555.795	355.69
556.008	352.69
556.221	361.69
556.433	339.69
556.646	335.69
556.859	341.69
557.071	314.69
557.284	322.69
557.496	339.69
557.709	333.69
557.921	325.69
558.134	333.69
558.346	328.69
558.559	321.69
558.771	316.69
558.984	326.69
559.196	318.69
559.409	323.69
559.621	321.69
559.833	331.69
560.046	331.69
560.258	311.69
560.47	319.69
560.683	337.69
560.895	320.69
561.107	330.69
561.32	332.69
561.532	334.69
561.744	310.69
561.956	322.69
562.168	328.69
562.381	320.69
562.593	332.69
562.805	307.69
563.017	317.69
563.229	316.69
563.441	321.69
563.653	331.69
563.865	327.69
564.077	326.69
564.289	318.69
564.501	341.69
564.713	339.69
564.925	354.69
565.137	362.69
565.349	337.69
565.561	341.69
565.773	338.69
565.985	342.69
566.197	367.69
566.408	367.69
566.62	354.69
566.832	366.69
567.044	375.69
567.255	358.69
567.467	364.69
567.679	351.69
567.891	361.69
568.102	363.69
568.314	361.69
568.526	374.69
568.737	379.69
568.949	348.69
569.161	342.69
569.372	323.69
569.584	330.69
569.795	326.69
570.007	352.69
570.218	386.69
570.43	358.69
570.641	326.69
570.853	304.69
571.064	317.69
571.276	311.69
571.487	310.69
571.698	298.69
571.91	310.69
572.121	282.69
572.333	302.69
572.544	307.69
572.755	284.69
572.966	276.69
573.178	283.69
573.389	297.69
573.6	283.69
573.811	283.69
574.023	304.69
574.234	279.69
574.445	293.69
574.656	299.69
574.867	291.69
575.078	278.69
575.289	286.69
575.501	286.69
575.712	275.69
575.923	282.69
576.134	242.69
576.345	273.69
576.556	276.69
576.767	279.69
576.978	272.69
577.188	260.69
577.399	278.69
577.61	279.69
577.821	268.69
578.032	278.69
578.243	333.69
578.454	529.69
578.665	383.69
578.875	284.69
579.086	270.69
579.297	266.69
579.508	245.69
579.718	263.69
579.929	267.69
580.14	268.69
580.35	252.69
580.561	259.69
580.772	260.69
580.982	255.69
581.193	264.69
581.403	268.69
581.614	263.69
581.825	258.69
582.035	248.69
582.246	254.69
582.456	248.69
582.667	255.69
582.877	265.69
583.087	258.69
583.298	238.69
583.508	244.69
583.719	252.69
583.929	242.69
584.139	260.69
584.35	267.69
584.56	251.69
584.77	258.69
584.981	259.69
585.191	248.69
585.401	246.69
585.611	256.69
585.821	251.69
586.032	263.69
586.242	256.69
586.452	236.69
586.662	234.69
586.872	259.69
587.082	248.69
587.292	268.69
587.502	243.69
587.713	231.69
587.923	265.69
588.133	243.69
588.343	245.69
588.553	256.69
588.762	245.69
588.972	237.69
589.182	271.69
589.392	282.69
589.602	274.69
589.812	278.69
590.022	244.69
590.232	243.69
590.441	240.69
590.651	242.69
590.861	237.69
591.071	236.69
591.281	245.69
591.49	244.69
591.7	261.69
591.91	247.69
592.119	255.69
592.329	245.69
592.539	260.69
592.748	245.69
592.958	255.69
593.167	256.69
593.377	262.69
593.587	257.69
593.796	254.69
594.006	228.69
594.215	252.69
594.424	262.69
594.634	262.69
594.843	268.69
595.053	261.69
595.262	242.69
595.472	252.69
595.681	228.69
595.89	238.69
596.1	234.69
596.309	231.69
596.518	228.69
596.727	229.69
596.937	234.69
597.146	233.69
597.355	228.69
597.564	231.69
597.774	219.69
597.983	230.69
598.192	224.69
598.401	231.69
598.61	215.69
598.819	221.69
599.028	212.69
599.237	221.69
599.446	227.69
599.655	216.69
599.864	211.69
600.073	214.69
600.282	215.69
600.491	208.69
600.7	213.69
600.909	214.69
601.118	229.69
601.327	223.69
601.536	219.69
601.745	219.69
601.953	212.69
602.162	207.69
602.371	207.69
602.58	204.69
602.789	202.69
602.997	211.69
603.206	194.69
603.415	203.69
603.623	201.69
603.832	201.69
604.041	217.69
604.249	222.69
604.458	196.69
604.666	207.69
604.875	206.69
605.084	189.69
605.292	198.69
605.501	204.69
605.709	220.69
605.918	201.69
606.126	198.69
606.334	187.69
606.543	196.69
606.751	198.69
606.96	214.69
607.168	204.69
607.376	192.69
607.585	196.69
607.793	221.69
608.001	204.69
608.21	199.69
608.418	209.69
608.626	189.69
608.834	212.69
609.043	213.69
609.251	195.69
609.459	208.69
609.667	215.69
609.875	202.69
610.083	197.69
610.291	198.69
610.499	196.69
610.707	192.69
610.916	197.69
611.124	212.69
611.332	208.69
611.54	214.69
611.748	197.69
611.955	194.69
612.163	182.69
612.371	191.69
612.579	197.69
612.787	194.69
612.995	184.69
613.203	218.69
613.411	207.69
613.618	197.69
613.826	216.69
614.034	178.69
614.242	192.69
614.449	189.69
614.657	199.69
614.865	207.69
615.072	198.69
615.28	199.69
615.488	190.69
615.695	191.69
615.903	202.69
616.111	214.69
616.318	196.69
616.526	210.69
616.733	180.69
616.941	196.69
617.148	203.69
617.356	195.69
617.563	199.69
617.771	192.69
617.978	198.69
618.185	201.69
618.393	196.69
618.6	182.69
618.807	213.69
619.015	188.69
619.222	197.69
619.429	180.69
619.637	189.69
619.844	184.69
620.051	192.69
620.258	183.69
620.466	190.69
620.673	189.69
620.88	175.69
621.087	174.69
621.294	199.69
621.501	199.69
621.708	188.69
621.915	194.69
622.122	187.69
622.329	174.69
622.536	194.69
622.743	191.69
622.95	187.69
623.157	180.69
623.364	198.69
623.571	192.69
623.778	183.69
623.985	192.69
624.192	171.69
624.399	172.69
624.606	179.69
624.812	152.69
625.019	170.69
625.226	171.69
625.433	182.69
625.639	170.69
625.846	168.69
626.053	162.69
626.259	195.69
626.466	183.69
626.673	169.69
626.879	175.69
627.086	183.69
627.293	172.69
627.499	180.69
627.706	184.69
627.912	174.69
628.119	184.69
628.325	169.69
628.532	184.69
628.738	156.69
628.945	172.69
629.151	175.69
629.357	159.69
629.564	159.69
629.77	166.69
629.976	182.69
630.183	167.69
630.389	174.69
630.595	168.69
630.802	177.69
631.008	165.69
631.214	169.69
631.42	186.69
631.627	168.69
631.833	169.69
632.039	176.69
632.245	171.69
632.451	163.69
632.657	160.69
632.863	148.69
633.069	166.69
633.275	157.69
633.481	155.69
633.688	170.69
633.893	154.69
634.099	155.69
634.305	160.69
634.511	152.69
634.717	165.69
634.923	156.69
635.129	164.69
635.335	152.69
635.541	139.69
635.747	171.69
635.952	179.69
636.158	156.69
636.364	154.69
636.57	159.69
636.775	151.69
636.981	152.69
637.187	164.69
637.392	158.69
637.598	166.69
637.804	152.69
638.009	149.69
638.215	165.69
638.421	163.69
638.626	162.69
638.832	137.69
639.037	155.69
639.243	144.69
639.448	160.69
639.654	151.69
639.859	151.69
640.065	139.69
640.27	151.69
640.475	167.69
640.681	148.69
640.886	150.69
641.091	147.69
641.297	152.69
641.502	161.69
641.707	148.69
641.913	148.69
642.118	132.69
642.323	157.69
642.528	159.69
642.733	156.69
642.939	144.69
643.144	154.69
643.349	160.69
643.554	145.69
643.759	148.69
643.964	137.69
644.169	152.69
644.374	150.69
644.579	144.69
644.784	151.69
644.989	155.69
645.194	154.69
645.399	154.69
645.604	157.69
645.809	149.69
646.014	151.69
646.219	151.69
646.423	151.69
646.628	141.69
646.833	151.69
647.038	150.69
647.243	144.69
647.447	141.69
647.652	141.69
647.857	149.69
648.062	148.69
648.266	142.69
648.471	142.69
648.676	149.69
648.88	141.69
649.085	143.69
649.289	142.69
649.494	152.69
649.698	170.69
649.903	164.69
650.107	151.69
650.312	158.69
650.516	142.69
650.721	135.69
650.925	144.69
651.13	136.69
651.334	140.69
651.539	147.69
651.743	132.69
651.947	133.69
652.152	130.69
652.356	125.69
652.56	138.69
652.764	128.69
652.969	134.69
653.173	114.69
653.377	123.69
653.581	120.69
653.785	126.69
653.99	127.69
654.194	142.69
654.398	136.69
654.602	123.69
654.806	130.69
655.01	120.69
655.214	123.69
655.418	126.69
655.622	130.69
655.826	128.69
656.03	136.69
656.234	152.69
656.438	133.69
656.642	134.69
656.846	139.69
657.049	134.69
657.253	126.69
657.457	120.69
657.661	120.69
657.865	118.69
658.068	104.69
658.272	105.69
658.476	109.69
658.68	112.69
658.883	100.69
659.087	109.69
659.291	88.69
659.494	107.69
659.698	92.69
659.901	106.69
660.105	102.69
660.309	88.69
660.512	80.69
660.716	99.69
660.919	77.69
661.123	97.69
661.326	74.69
661.53	78.69
661.733	87.69
661.936	74.69
662.14	87.69
662.343	93.69
662.546	80.69
662.75	86.69
662.953	83.69
663.156	72.69
663.36	86.69
663.563	88.69
663.766	88.69
663.969	73.69
664.173	68.69
664.376	82.69
664.579	87.69
664.782	107.69
664.985	73.69
665.188	80.69
665.391	87.69
665.594	78.69
665.797	91.69
666	76.69
666.203	84.69
666.406	80.69
666.609	90.69
666.812	86.69
667.015	80.69
667.218	86.69
667.421	97.69
667.624	84.69
667.827	81.69
668.03	78.69
668.232	71.69
668.435	78.69
668.638	92.69
668.841	95.69
669.043	67.69
669.246	74.69
669.449	56.69
669.651	77.69
669.854	80.69
670.057	79.69
670.259	89.69
670.462	93.69
670.665	85.69
670.867	81.69
671.07	73.69
671.272	91.69
671.475	83.69
671.677	91.69
671.88	82.69
672.082	80.69
672.284	88.69
672.487	80.69
672.689	85.69
672.892	77.69
