Data from 1965.PennyLincolnUp.Lamp.En5.5.200Scan.071719.P1._HRD10591_14-08-00-910.txt Node
Date: Thu Jul 18 14:08:00 EDT 2019
User: cochatt
Spectrometer: HR+D1059
Trigger mode: 1
Integration Time (sec): 1.000000E-1
Scans to average: 1
Electric dark correction enabled: true
Nonlinearity correction enabled: false
Boxcar width: 0
XAxis mode: Wavelengths
Number of Pixels in Spectrum: 2048
>>>>>Begin Spectral Data<<<<<
223.165	-13.31
223.4	-13.31
223.635	-13.31
223.869	-18.31
224.104	-19.31
224.338	-8.31
224.573	-23.31
224.808	-13.31
225.042	-6.31
225.277	-12.31
225.511	-7.31
225.746	9.69
225.98	3.69
226.215	13.69
226.449	14.69
226.683	13.69
226.918	32.69
227.152	33.69
227.387	42.69
227.621	43.69
227.856	45.69
228.09	41.69
228.324	54.69
228.559	51.69
228.793	60.69
229.027	81.69
229.262	101.69
229.496	99.69
229.73	109.69
229.964	130.69
230.199	116.69
230.433	91.69
230.667	105.69
230.901	106.69
231.136	93.69
231.37	111.69
231.604	97.69
231.838	106.69
232.072	105.69
232.306	97.69
232.541	99.69
232.775	94.69
233.009	100.69
233.243	91.69
233.477	103.69
233.711	101.69
233.945	113.69
234.179	114.69
234.413	113.69
234.647	99.69
234.881	94.69
235.115	100.69
235.349	98.69
235.583	91.69
235.817	103.69
236.051	94.69
236.285	116.69
236.519	102.69
236.753	93.69
236.987	138.69
237.221	161.69
237.455	177.69
237.689	156.69
237.922	112.69
238.156	116.69
238.39	120.69
238.624	112.69
238.858	107.69
239.091	104.69
239.325	97.69
239.559	104.69
239.793	107.69
240.027	99.69
240.26	130.69
240.494	122.69
240.728	125.69
240.961	118.69
241.195	103.69
241.429	119.69
241.662	113.69
241.896	123.69
242.13	116.69
242.363	115.69
242.597	120.69
242.83	122.69
243.064	112.69
243.298	114.69
243.531	117.69
243.765	122.69
243.998	100.69
244.232	115.69
244.465	108.69
244.699	120.69
244.932	120.69
245.166	131.69
245.399	125.69
245.633	125.69
245.866	128.69
246.099	116.69
246.333	123.69
246.566	133.69
246.8	134.69
247.033	129.69
247.266	122.69
247.5	128.69
247.733	136.69
247.966	138.69
248.2	143.69
248.433	143.69
248.666	149.69
248.899	167.69
249.133	165.69
249.366	160.69
249.599	164.69
249.832	153.69
250.066	152.69
250.299	153.69
250.532	153.69
250.765	169.69
250.998	183.69
251.231	185.69
251.465	193.69
251.698	148.69
251.931	173.69
252.164	181.69
252.397	172.69
252.63	180.69
252.863	180.69
253.096	178.69
253.329	184.69
253.562	188.69
253.795	173.69
254.028	185.69
254.261	192.69
254.494	189.69
254.727	192.69
254.96	221.69
255.193	212.69
255.426	187.69
255.659	191.69
255.892	195.69
256.124	205.69
256.357	180.69
256.59	188.69
256.823	173.69
257.056	174.69
257.289	167.69
257.521	170.69
257.754	171.69
257.987	178.69
258.22	157.69
258.452	167.69
258.685	160.69
258.918	169.69
259.151	165.69
259.383	182.69
259.616	179.69
259.849	187.69
260.081	185.69
260.314	209.69
260.547	213.69
260.779	197.69
261.012	187.69
261.244	181.69
261.477	173.69
261.71	187.69
261.942	176.69
262.175	200.69
262.407	180.69
262.64	160.69
262.872	166.69
263.105	157.69
263.337	165.69
263.57	170.69
263.802	182.69
264.035	165.69
264.267	169.69
264.499	177.69
264.732	180.69
264.964	166.69
265.197	176.69
265.429	176.69
265.661	166.69
265.894	173.69
266.126	184.69
266.358	182.69
266.591	177.69
266.823	185.69
267.055	181.69
267.287	188.69
267.52	187.69
267.752	172.69
267.984	166.69
268.216	170.69
268.448	186.69
268.681	187.69
268.913	200.69
269.145	197.69
269.377	208.69
269.609	181.69
269.841	206.69
270.073	233.69
270.306	236.69
270.538	227.69
270.77	240.69
271.002	241.69
271.234	228.69
271.466	234.69
271.698	245.69
271.93	247.69
272.162	244.69
272.394	240.69
272.626	223.69
272.858	228.69
273.09	221.69
273.322	222.69
273.553	211.69
273.785	201.69
274.017	217.69
274.249	208.69
274.481	206.69
274.713	203.69
274.945	222.69
275.176	215.69
275.408	220.69
275.64	208.69
275.872	201.69
276.104	198.69
276.335	202.69
276.567	210.69
276.799	204.69
277.031	255.69
277.262	244.69
277.494	262.69
277.726	234.69
277.957	212.69
278.189	218.69
278.421	209.69
278.652	211.69
278.884	220.69
279.115	185.69
279.347	201.69
279.579	194.69
279.81	224.69
280.042	205.69
280.273	221.69
280.505	205.69
280.736	207.69
280.968	217.69
281.199	218.69
281.431	208.69
281.662	225.69
281.894	232.69
282.125	221.69
282.356	262.69
282.588	262.69
282.819	253.69
283.051	234.69
283.282	225.69
283.513	200.69
283.745	214.69
283.976	232.69
284.207	220.69
284.439	229.69
284.67	209.69
284.901	220.69
285.132	202.69
285.364	212.69
285.595	219.69
285.826	225.69
286.057	219.69
286.288	204.69
286.52	233.69
286.751	224.69
286.982	220.69
287.213	231.69
287.444	234.69
287.675	241.69
287.906	235.69
288.138	246.69
288.369	236.69
288.6	235.69
288.831	223.69
289.062	217.69
289.293	229.69
289.524	232.69
289.755	236.69
289.986	232.69
290.217	226.69
290.448	218.69
290.679	219.69
290.91	235.69
291.141	220.69
291.371	224.69
291.602	223.69
291.833	233.69
292.064	227.69
292.295	218.69
292.526	224.69
292.757	225.69
292.987	229.69
293.218	236.69
293.449	234.69
293.68	214.69
293.91	219.69
294.141	230.69
294.372	232.69
294.603	229.69
294.833	232.69
295.064	220.69
295.295	230.69
295.525	221.69
295.756	247.69
295.987	252.69
296.217	264.69
296.448	251.69
296.679	237.69
296.909	224.69
297.14	247.69
297.37	240.69
297.601	238.69
297.831	230.69
298.062	226.69
298.292	225.69
298.523	246.69
298.753	236.69
298.984	222.69
299.214	236.69
299.445	223.69
299.675	251.69
299.905	254.69
300.136	256.69
300.366	259.69
300.597	235.69
300.827	225.69
301.057	258.69
301.288	258.69
301.518	268.69
301.748	257.69
301.979	255.69
302.209	276.69
302.439	253.69
302.669	262.69
302.9	258.69
303.13	250.69
303.36	248.69
303.59	261.69
303.82	260.69
304.051	263.69
304.281	265.69
304.511	254.69
304.741	263.69
304.971	250.69
305.201	241.69
305.431	263.69
305.661	242.69
305.891	251.69
306.121	269.69
306.352	261.69
306.582	263.69
306.812	250.69
307.042	266.69
307.272	263.69
307.502	236.69
307.731	260.69
307.961	244.69
308.191	262.69
308.421	269.69
308.651	282.69
308.881	277.69
309.111	253.69
309.341	261.69
309.571	270.69
309.8	276.69
310.03	269.69
310.26	304.69
310.49	265.69
310.72	305.69
310.949	310.69
311.179	292.69
311.409	288.69
311.639	295.69
311.868	280.69
312.098	281.69
312.328	322.69
312.557	313.69
312.787	334.69
313.017	311.69
313.246	313.69
313.476	293.69
313.706	279.69
313.935	305.69
314.165	304.69
314.394	320.69
314.624	322.69
314.853	278.69
315.083	285.69
315.312	301.69
315.542	307.69
315.771	304.69
316.001	292.69
316.23	292.69
316.46	304.69
316.689	319.69
316.919	289.69
317.148	309.69
317.377	329.69
317.607	293.69
317.836	296.69
318.065	316.69
318.295	306.69
318.524	289.69
318.753	300.69
318.983	301.69
319.212	294.69
319.441	292.69
319.67	307.69
319.9	315.69
320.129	287.69
320.358	287.69
320.587	305.69
320.816	315.69
321.046	315.69
321.275	321.69
321.504	312.69
321.733	332.69
321.962	331.69
322.191	343.69
322.42	347.69
322.649	342.69
322.878	371.69
323.108	376.69
323.337	394.69
323.566	380.69
323.795	451.69
324.024	463.69
324.253	548.69
324.482	797.69
324.71	1217.69
324.939	1648.69
325.168	1370.69
325.397	731.69
325.626	497.69
325.855	436.69
326.084	414.69
326.313	393.69
326.542	407.69
326.77	420.69
326.999	521.69
327.228	698.69
327.457	1021.69
327.686	1222.69
327.914	801.69
328.143	549.69
328.372	491.69
328.6	462.69
328.829	435.69
329.058	470.69
329.287	454.69
329.515	417.69
329.744	421.69
329.972	416.69
330.201	417.69
330.43	430.69
330.658	461.69
330.887	477.69
331.115	450.69
331.344	401.69
331.572	389.69
331.801	385.69
332.03	389.69
332.258	371.69
332.486	352.69
332.715	360.69
332.943	339.69
333.172	348.69
333.4	352.69
333.629	371.69
333.857	361.69
334.085	372.69
334.314	388.69
334.542	418.69
334.771	424.69
334.999	390.69
335.227	380.69
335.455	363.69
335.684	351.69
335.912	359.69
336.14	341.69
336.369	354.69
336.597	360.69
336.825	360.69
337.053	371.69
337.281	366.69
337.51	347.69
337.738	358.69
337.966	341.69
338.194	331.69
338.422	355.69
338.65	342.69
338.878	320.69
339.106	317.69
339.334	332.69
339.562	361.69
339.79	324.69
340.018	341.69
340.246	348.69
340.474	332.69
340.702	321.69
340.93	327.69
341.158	312.69
341.386	345.69
341.614	363.69
341.842	330.69
342.07	321.69
342.298	329.69
342.526	333.69
342.754	316.69
342.981	331.69
343.209	315.69
343.437	337.69
343.665	331.69
343.893	329.69
344.12	332.69
344.348	344.69
344.576	344.69
344.804	342.69
345.031	333.69
345.259	350.69
345.487	340.69
345.714	340.69
345.942	349.69
346.17	352.69
346.397	322.69
346.625	313.69
346.853	334.69
347.08	337.69
347.308	340.69
347.535	329.69
347.763	335.69
347.99	330.69
348.218	348.69
348.445	352.69
348.673	332.69
348.9	326.69
349.128	345.69
349.355	321.69
349.583	317.69
349.81	331.69
350.037	320.69
350.265	317.69
350.492	318.69
350.72	299.69
350.947	322.69
351.174	313.69
351.402	338.69
351.629	335.69
351.856	323.69
352.083	350.69
352.311	339.69
352.538	336.69
352.765	347.69
352.992	339.69
353.22	332.69
353.447	341.69
353.674	318.69
353.901	320.69
354.128	312.69
354.355	303.69
354.583	324.69
354.81	310.69
355.037	298.69
355.264	313.69
355.491	318.69
355.718	296.69
355.945	308.69
356.172	315.69
356.399	306.69
356.626	308.69
356.853	300.69
357.08	312.69
357.307	320.69
357.534	305.69
357.761	284.69
357.988	296.69
358.215	310.69
358.441	315.69
358.668	313.69
358.895	295.69
359.122	312.69
359.349	323.69
359.576	338.69
359.802	330.69
360.029	378.69
360.256	370.69
360.483	363.69
360.709	335.69
360.936	328.69
361.163	337.69
361.39	343.69
361.616	331.69
361.843	330.69
362.07	336.69
362.296	329.69
362.523	333.69
362.749	316.69
362.976	310.69
363.203	324.69
363.429	313.69
363.656	324.69
363.882	314.69
364.109	330.69
364.335	312.69
364.562	316.69
364.788	312.69
365.015	312.69
365.241	307.69
365.468	309.69
365.694	315.69
365.92	304.69
366.147	323.69
366.373	329.69
366.599	314.69
366.826	317.69
367.052	298.69
367.278	308.69
367.505	321.69
367.731	325.69
367.957	325.69
368.184	324.69
368.41	317.69
368.636	332.69
368.862	324.69
369.089	335.69
369.315	324.69
369.541	307.69
369.767	317.69
369.993	311.69
370.219	341.69
370.445	313.69
370.672	318.69
370.898	322.69
371.124	304.69
371.35	312.69
371.576	328.69
371.802	312.69
372.028	295.69
372.254	317.69
372.48	309.69
372.706	333.69
372.932	320.69
373.158	317.69
373.384	315.69
373.61	328.69
373.835	323.69
374.061	326.69
374.287	330.69
374.513	318.69
374.739	314.69
374.965	331.69
375.191	326.69
375.416	333.69
375.642	329.69
375.868	308.69
376.094	295.69
376.319	306.69
376.545	326.69
376.771	321.69
376.997	305.69
377.222	298.69
377.448	318.69
377.674	308.69
377.899	314.69
378.125	315.69
378.35	296.69
378.576	307.69
378.802	314.69
379.027	324.69
379.253	334.69
379.478	320.69
379.704	320.69
379.929	331.69
380.155	322.69
380.38	312.69
380.606	320.69
380.831	314.69
381.057	340.69
381.282	311.69
381.507	300.69
381.733	330.69
381.958	326.69
382.184	332.69
382.409	316.69
382.634	334.69
382.86	296.69
383.085	322.69
383.31	318.69
383.535	321.69
383.761	301.69
383.986	343.69
384.211	327.69
384.436	325.69
384.662	333.69
384.887	326.69
385.112	326.69
385.337	342.69
385.562	333.69
385.787	350.69
386.013	347.69
386.238	349.69
386.463	341.69
386.688	345.69
386.913	332.69
387.138	346.69
387.363	323.69
387.588	353.69
387.813	356.69
388.038	334.69
388.263	336.69
388.488	335.69
388.713	332.69
388.938	334.69
389.163	335.69
389.387	346.69
389.612	332.69
389.837	331.69
390.062	337.69
390.287	334.69
390.512	340.69
390.736	330.69
390.961	339.69
391.186	335.69
391.411	330.69
391.636	345.69
391.86	341.69
392.085	351.69
392.31	370.69
392.534	342.69
392.759	350.69
392.984	346.69
393.208	346.69
393.433	356.69
393.658	356.69
393.882	356.69
394.107	352.69
394.331	352.69
394.556	327.69
394.78	347.69
395.005	349.69
395.229	355.69
395.454	345.69
395.678	356.69
395.903	375.69
396.127	378.69
396.352	372.69
396.576	354.69
396.801	355.69
397.025	362.69
397.249	362.69
397.474	361.69
397.698	357.69
397.922	368.69
398.147	392.69
398.371	380.69
398.595	376.69
398.82	369.69
399.044	397.69
399.268	397.69
399.492	424.69
399.717	429.69
399.941	456.69
400.165	456.69
400.389	472.69
400.613	437.69
400.837	404.69
401.062	411.69
401.286	416.69
401.51	412.69
401.734	393.69
401.958	416.69
402.182	384.69
402.406	403.69
402.63	413.69
402.854	398.69
403.078	379.69
403.302	388.69
403.526	395.69
403.75	407.69
403.974	404.69
404.198	397.69
404.422	393.69
404.645	394.69
404.869	394.69
405.093	413.69
405.317	440.69
405.541	448.69
405.765	417.69
405.988	409.69
406.212	432.69
406.436	446.69
406.66	439.69
406.883	434.69
407.107	450.69
407.331	474.69
407.555	500.69
407.778	521.69
408.002	465.69
408.226	448.69
408.449	443.69
408.673	450.69
408.896	465.69
409.12	499.69
409.344	451.69
409.567	393.69
409.791	391.69
410.014	421.69
410.238	399.69
410.461	381.69
410.685	409.69
410.908	422.69
411.132	430.69
411.355	464.69
411.578	445.69
411.802	411.69
412.025	383.69
412.249	389.69
412.472	409.69
412.695	428.69
412.919	434.69
413.142	409.69
413.365	372.69
413.589	392.69
413.812	397.69
414.035	384.69
414.258	371.69
414.482	371.69
414.705	377.69
414.928	379.69
415.151	376.69
415.374	379.69
415.597	362.69
415.821	382.69
416.044	361.69
416.267	362.69
416.49	384.69
416.713	358.69
416.936	368.69
417.159	377.69
417.382	380.69
417.605	366.69
417.828	390.69
418.051	387.69
418.274	380.69
418.497	389.69
418.72	371.69
418.943	384.69
419.166	406.69
419.389	417.69
419.611	420.69
419.834	395.69
420.057	389.69
420.28	384.69
420.503	380.69
420.726	385.69
420.948	397.69
421.171	416.69
421.394	449.69
421.617	400.69
421.839	406.69
422.062	387.69
422.285	418.69
422.507	450.69
422.73	482.69
422.953	474.69
423.175	446.69
423.398	413.69
423.621	414.69
423.843	420.69
424.066	412.69
424.288	413.69
424.511	418.69
424.733	471.69
424.956	522.69
425.178	506.69
425.401	489.69
425.623	514.69
425.846	472.69
426.068	423.69
426.291	418.69
426.513	425.69
426.735	423.69
426.958	464.69
427.18	527.69
427.402	609.69
427.625	647.69
427.847	582.69
428.069	520.69
428.292	453.69
428.514	416.69
428.736	416.69
428.958	413.69
429.181	397.69
429.403	400.69
429.625	395.69
429.847	418.69
430.069	473.69
430.292	473.69
430.514	414.69
430.736	392.69
430.958	381.69
431.18	377.69
431.402	358.69
431.624	370.69
431.846	376.69
432.068	361.69
432.29	378.69
432.512	381.69
432.734	379.69
432.956	373.69
433.178	399.69
433.4	388.69
433.622	386.69
433.844	381.69
434.066	372.69
434.287	383.69
434.509	387.69
434.731	387.69
434.953	393.69
435.175	402.69
435.397	419.69
435.618	440.69
435.84	460.69
436.062	532.69
436.284	571.69
436.505	472.69
436.727	462.69
436.949	414.69
437.17	389.69
437.392	403.69
437.614	412.69
437.835	433.69
438.057	474.69
438.278	579.69
438.5	576.69
438.721	622.69
438.943	580.69
439.165	492.69
439.386	454.69
439.608	434.69
439.829	425.69
440.05	465.69
440.272	479.69
440.493	456.69
440.715	408.69
440.936	380.69
441.158	404.69
441.379	407.69
441.6	415.69
441.822	436.69
442.043	443.69
442.264	514.69
442.486	523.69
442.707	476.69
442.928	450.69
443.149	437.69
443.371	460.69
443.592	473.69
443.813	560.69
444.034	592.69
444.255	480.69
444.476	456.69
444.698	448.69
444.919	417.69
445.14	525.69
445.361	493.69
445.582	435.69
445.803	492.69
446.024	578.69
446.245	579.69
446.466	540.69
446.687	465.69
446.908	439.69
447.129	390.69
447.35	407.69
447.571	396.69
447.792	396.69
448.013	391.69
448.234	414.69
448.455	458.69
448.675	542.69
448.896	597.69
449.117	514.69
449.338	498.69
449.559	593.69
449.779	638.69
450	533.69
450.221	447.69
450.442	396.69
450.662	407.69
450.883	402.69
451.104	411.69
451.324	398.69
451.545	387.69
451.766	364.69
451.986	359.69
452.207	356.69
452.428	369.69
452.648	357.69
452.869	346.69
453.089	364.69
453.31	378.69
453.53	355.69
453.751	376.69
453.971	340.69
454.192	373.69
454.412	376.69
454.633	361.69
454.853	372.69
455.073	356.69
455.294	378.69
455.514	424.69
455.734	402.69
455.955	360.69
456.175	350.69
456.395	356.69
456.616	346.69
456.836	363.69
457.056	346.69
457.276	326.69
457.497	335.69
457.717	346.69
457.937	327.69
458.157	354.69
458.377	349.69
458.598	368.69
458.818	429.69
459.038	476.69
459.258	457.69
459.478	426.69
459.698	396.69
459.918	389.69
460.138	382.69
460.358	354.69
460.578	376.69
460.798	359.69
461.018	396.69
461.238	374.69
461.458	376.69
461.678	353.69
461.898	380.69
462.118	384.69
462.338	380.69
462.558	401.69
462.777	390.69
462.997	391.69
463.217	409.69
463.437	394.69
463.657	395.69
463.876	398.69
464.096	400.69
464.316	400.69
464.536	404.69
464.755	425.69
464.975	426.69
465.195	455.69
465.414	484.69
465.634	450.69
465.854	415.69
466.073	392.69
466.293	404.69
466.512	373.69
466.732	350.69
466.951	378.69
467.171	381.69
467.391	363.69
467.61	395.69
467.829	403.69
468.049	365.69
468.268	344.69
468.488	398.69
468.707	365.69
468.927	357.69
469.146	360.69
469.365	354.69
469.585	354.69
469.804	371.69
470.023	378.69
470.243	366.69
470.462	386.69
470.681	386.69
470.901	400.69
471.12	358.69
471.339	370.69
471.558	379.69
471.777	392.69
471.997	378.69
472.216	377.69
472.435	381.69
472.654	405.69
472.873	382.69
473.092	384.69
473.311	372.69
473.53	374.69
473.749	377.69
473.968	421.69
474.187	471.69
474.406	470.69
474.625	402.69
474.844	384.69
475.063	382.69
475.282	393.69
475.501	398.69
475.72	398.69
475.939	394.69
476.158	395.69
476.377	412.69
476.596	384.69
476.814	389.69
477.033	391.69
477.252	390.69
477.471	396.69
477.69	418.69
477.908	394.69
478.127	415.69
478.346	404.69
478.564	421.69
478.783	424.69
479.002	414.69
479.22	417.69
479.439	454.69
479.658	440.69
479.876	459.69
480.095	455.69
480.313	448.69
480.532	458.69
480.751	456.69
480.969	474.69
481.188	506.69
481.406	538.69
481.624	482.69
481.843	457.69
482.061	444.69
482.28	448.69
482.498	445.69
482.717	450.69
482.935	435.69
483.153	441.69
483.372	429.69
483.59	440.69
483.808	461.69
484.027	466.69
484.245	435.69
484.463	438.69
484.681	447.69
484.9	457.69
485.118	450.69
485.336	460.69
485.554	454.69
485.772	452.69
485.99	454.69
486.209	440.69
486.427	437.69
486.645	479.69
486.863	480.69
487.081	486.69
487.299	480.69
487.517	448.69
487.735	449.69
487.953	482.69
488.171	454.69
488.389	475.69
488.607	486.69
488.825	481.69
489.043	492.69
489.261	473.69
489.479	478.69
489.696	468.69
489.914	484.69
490.132	480.69
490.35	473.69
490.568	502.69
490.786	502.69
491.003	506.69
491.221	525.69
491.439	531.69
491.657	501.69
491.874	526.69
492.092	521.69
492.31	526.69
492.527	529.69
492.745	536.69
492.963	547.69
493.18	538.69
493.398	533.69
493.615	554.69
493.833	534.69
494.05	538.69
494.268	569.69
494.485	553.69
494.703	540.69
494.92	564.69
495.138	547.69
495.355	520.69
495.573	547.69
495.79	535.69
496.008	548.69
496.225	547.69
496.442	560.69
496.66	562.69
496.877	557.69
497.094	553.69
497.312	554.69
497.529	560.69
497.746	588.69
497.963	587.69
498.181	596.69
498.398	575.69
498.615	601.69
498.832	630.69
499.049	597.69
499.267	605.69
499.484	626.69
499.701	648.69
499.918	661.69
500.135	712.69
500.352	692.69
500.569	723.69
500.786	746.69
501.003	723.69
501.22	728.69
501.437	687.69
501.654	690.69
501.871	667.69
502.088	650.69
502.305	626.69
502.522	623.69
502.739	604.69
502.956	584.69
503.172	586.69
503.389	576.69
503.606	566.69
503.823	598.69
504.04	554.69
504.256	552.69
504.473	565.69
504.69	556.69
504.907	541.69
505.123	528.69
505.34	528.69
505.557	541.69
505.773	555.69
505.99	522.69
506.207	556.69
506.423	556.69
506.64	535.69
506.856	538.69
507.073	537.69
507.289	509.69
507.506	509.69
507.722	522.69
507.939	524.69
508.155	536.69
508.372	497.69
508.588	506.69
508.805	487.69
509.021	512.69
509.238	502.69
509.454	514.69
509.67	516.69
509.887	505.69
510.103	512.69
510.319	524.69
510.536	609.69
510.752	993.69
510.968	776.69
511.184	524.69
511.401	503.69
511.617	501.69
511.833	478.69
512.049	497.69
512.265	472.69
512.481	476.69
512.698	468.69
512.914	511.69
513.13	474.69
513.346	478.69
513.562	476.69
513.778	490.69
513.994	472.69
514.21	497.69
514.426	506.69
514.642	572.69
514.858	559.69
515.074	615.69
515.29	733.69
515.506	1024.69
515.721	854.69
515.937	599.69
516.153	535.69
516.369	509.69
516.585	485.69
516.801	489.69
517.016	516.69
517.232	518.69
517.448	498.69
517.664	490.69
517.879	486.69
518.095	490.69
518.311	484.69
518.527	493.69
518.742	473.69
518.958	462.69
519.173	476.69
519.389	477.69
519.605	500.69
519.82	491.69
520.036	502.69
520.251	521.69
520.467	531.69
520.682	539.69
520.898	533.69
521.113	535.69
521.329	598.69
521.544	656.69
521.76	827.69
521.975	1364.69
522.19	1362.69
522.406	758.69
522.621	548.69
522.836	512.69
523.052	492.69
523.267	473.69
523.482	451.69
523.698	454.69
523.913	457.69
524.128	456.69
524.343	435.69
524.559	418.69
524.774	432.69
524.989	429.69
525.204	469.69
525.419	450.69
525.634	423.69
525.849	419.69
526.064	403.69
526.28	411.69
526.495	396.69
526.71	424.69
526.925	401.69
527.14	390.69
527.355	382.69
527.57	393.69
527.785	396.69
527.999	394.69
528.214	390.69
528.429	371.69
528.644	392.69
528.859	396.69
529.074	423.69
529.289	402.69
529.503	489.69
529.718	480.69
529.933	420.69
530.148	409.69
530.363	408.69
530.577	387.69
530.792	390.69
531.007	409.69
531.221	398.69
531.436	411.69
531.651	418.69
531.865	388.69
532.08	404.69
532.295	384.69
532.509	399.69
532.724	389.69
532.938	373.69
533.153	385.69
533.367	370.69
533.582	376.69
533.796	384.69
534.011	385.69
534.225	386.69
534.44	375.69
534.654	382.69
534.868	387.69
535.083	370.69
535.297	375.69
535.511	387.69
535.726	389.69
535.94	395.69
536.154	381.69
536.369	388.69
536.583	376.69
536.797	348.69
537.011	378.69
537.225	370.69
537.44	369.69
537.654	361.69
537.868	372.69
538.082	376.69
538.296	382.69
538.51	362.69
538.724	371.69
538.938	362.69
539.153	378.69
539.367	370.69
539.581	394.69
539.795	350.69
540.009	370.69
540.222	365.69
540.436	348.69
540.65	373.69
540.864	364.69
541.078	367.69
541.292	357.69
541.506	353.69
541.72	353.69
541.934	366.69
542.147	359.69
542.361	355.69
542.575	373.69
542.789	381.69
543.002	359.69
543.216	365.69
543.43	381.69
543.644	374.69
543.857	375.69
544.071	376.69
544.285	359.69
544.498	361.69
544.712	340.69
544.925	350.69
545.139	355.69
545.352	352.69
545.566	355.69
545.779	365.69
545.993	363.69
546.206	372.69
546.42	351.69
546.633	347.69
546.847	354.69
547.06	346.69
547.274	352.69
547.487	357.69
547.7	369.69
547.914	333.69
548.127	348.69
548.34	332.69
548.554	332.69
548.767	341.69
548.98	340.69
549.193	351.69
549.407	346.69
549.62	346.69
549.833	352.69
550.046	340.69
550.259	343.69
550.473	317.69
550.686	341.69
550.899	361.69
551.112	332.69
551.325	348.69
551.538	348.69
551.751	310.69
551.964	341.69
552.177	339.69
552.39	334.69
552.603	338.69
552.816	333.69
553.029	332.69
553.242	365.69
553.455	340.69
553.667	356.69
553.88	361.69
554.093	361.69
554.306	339.69
554.519	368.69
554.732	333.69
554.944	338.69
555.157	328.69
555.37	334.69
555.583	322.69
555.795	362.69
556.008	346.69
556.221	328.69
556.433	328.69
556.646	337.69
556.859	319.69
557.071	300.69
557.284	320.69
557.496	300.69
557.709	318.69
557.921	313.69
558.134	314.69
558.346	317.69
558.559	323.69
558.771	340.69
558.984	313.69
559.196	296.69
559.409	310.69
559.621	326.69
559.833	312.69
560.046	299.69
560.258	315.69
560.47	313.69
560.683	324.69
560.895	315.69
561.107	318.69
561.32	312.69
561.532	318.69
561.744	293.69
561.956	316.69
562.168	308.69
562.381	331.69
562.593	331.69
562.805	314.69
563.017	297.69
563.229	298.69
563.441	295.69
563.653	321.69
563.865	326.69
564.077	319.69
564.289	315.69
564.501	315.69
564.713	338.69
564.925	322.69
565.137	321.69
565.349	339.69
565.561	341.69
565.773	336.69
565.985	327.69
566.197	341.69
566.408	342.69
566.62	348.69
566.832	362.69
567.044	345.69
567.255	362.69
567.467	343.69
567.679	364.69
567.891	365.69
568.102	359.69
568.314	340.69
568.526	364.69
568.737	346.69
568.949	345.69
569.161	331.69
569.372	310.69
569.584	325.69
569.795	332.69
570.007	325.69
570.218	358.69
570.43	354.69
570.641	306.69
570.853	302.69
571.064	285.69
571.276	296.69
571.487	292.69
571.698	304.69
571.91	299.69
572.121	305.69
572.333	288.69
572.544	272.69
572.755	277.69
572.966	291.69
573.178	278.69
573.389	285.69
573.6	295.69
573.811	278.69
574.023	287.69
574.234	269.69
574.445	274.69
574.656	276.69
574.867	264.69
575.078	269.69
575.289	279.69
575.501	251.69
575.712	268.69
575.923	267.69
576.134	256.69
576.345	261.69
576.556	266.69
576.767	260.69
576.978	276.69
577.188	261.69
577.399	260.69
577.61	252.69
577.821	275.69
578.032	265.69
578.243	292.69
578.454	470.69
578.665	355.69
578.875	278.69
579.086	264.69
579.297	259.69
579.508	262.69
579.718	249.69
579.929	257.69
580.14	262.69
580.35	268.69
580.561	253.69
580.772	266.69
580.982	252.69
581.193	262.69
581.403	238.69
581.614	233.69
581.825	240.69
582.035	246.69
582.246	260.69
582.456	247.69
582.667	248.69
582.877	242.69
583.087	228.69
583.298	244.69
583.508	243.69
583.719	238.69
583.929	246.69
584.139	257.69
584.35	241.69
584.56	244.69
584.77	247.69
584.981	246.69
585.191	238.69
585.401	250.69
585.611	253.69
585.821	242.69
586.032	234.69
586.242	238.69
586.452	237.69
586.662	246.69
586.872	242.69
587.082	245.69
587.292	249.69
587.502	251.69
587.713	240.69
587.923	247.69
588.133	232.69
588.343	236.69
588.553	239.69
588.762	246.69
588.972	242.69
589.182	358.69
589.392	336.69
589.602	272.69
589.812	325.69
590.022	302.69
590.232	262.69
590.441	231.69
590.651	239.69
590.861	229.69
591.071	230.69
591.281	238.69
591.49	241.69
591.7	226.69
591.91	228.69
592.119	237.69
592.329	236.69
592.539	230.69
592.748	250.69
592.958	253.69
593.167	225.69
593.377	226.69
593.587	238.69
593.796	230.69
594.006	241.69
594.215	232.69
594.424	252.69
594.634	256.69
594.843	233.69
595.053	246.69
595.262	245.69
595.472	230.69
595.681	225.69
595.89	223.69
596.1	235.69
596.309	229.69
596.518	228.69
596.727	220.69
596.937	221.69
597.146	222.69
597.355	216.69
597.564	218.69
597.774	199.69
597.983	207.69
598.192	221.69
598.401	217.69
598.61	209.69
598.819	203.69
599.028	205.69
599.237	217.69
599.446	220.69
599.655	215.69
599.864	207.69
600.073	202.69
600.282	213.69
600.491	215.69
600.7	225.69
600.909	217.69
601.118	221.69
601.327	201.69
601.536	206.69
601.745	232.69
601.953	212.69
602.162	229.69
602.371	214.69
602.58	210.69
602.789	210.69
602.997	213.69
603.206	203.69
603.415	210.69
603.623	207.69
603.832	224.69
604.041	214.69
604.249	198.69
604.458	202.69
604.666	199.69
604.875	196.69
605.084	216.69
605.292	210.69
605.501	206.69
605.709	205.69
605.918	225.69
606.126	213.69
606.334	211.69
606.543	212.69
606.751	205.69
606.96	198.69
607.168	203.69
607.376	205.69
607.585	200.69
607.793	205.69
608.001	200.69
608.21	213.69
608.418	182.69
608.626	197.69
608.834	185.69
609.043	200.69
609.251	209.69
609.459	184.69
609.667	203.69
609.875	214.69
610.083	197.69
610.291	211.69
610.499	197.69
610.707	205.69
610.916	194.69
611.124	206.69
611.332	216.69
611.54	212.69
611.748	200.69
611.955	202.69
612.163	203.69
612.371	210.69
612.579	199.69
612.787	190.69
612.995	193.69
613.203	204.69
613.411	201.69
613.618	193.69
613.826	198.69
614.034	196.69
614.242	198.69
614.449	184.69
614.657	177.69
614.865	184.69
615.072	195.69
615.28	181.69
615.488	206.69
615.695	191.69
615.903	199.69
616.111	189.69
616.318	208.69
616.526	205.69
616.733	200.69
616.941	201.69
617.148	202.69
617.356	188.69
617.563	185.69
617.771	185.69
617.978	189.69
618.185	187.69
618.393	187.69
618.6	198.69
618.807	197.69
619.015	186.69
619.222	180.69
619.429	191.69
619.637	206.69
619.844	193.69
620.051	178.69
620.258	181.69
620.466	161.69
620.673	178.69
620.88	188.69
621.087	185.69
621.294	186.69
621.501	168.69
621.708	190.69
621.915	186.69
622.122	184.69
622.329	164.69
622.536	174.69
622.743	170.69
622.95	196.69
623.157	184.69
623.364	181.69
623.571	194.69
623.778	192.69
623.985	174.69
624.192	184.69
624.399	172.69
624.606	180.69
624.812	191.69
625.019	193.69
625.226	186.69
625.433	174.69
625.639	184.69
625.846	169.69
626.053	178.69
626.259	182.69
626.466	173.69
626.673	162.69
626.879	183.69
627.086	164.69
627.293	166.69
627.499	169.69
627.706	179.69
627.912	167.69
628.119	184.69
628.325	160.69
628.532	173.69
628.738	169.69
628.945	157.69
629.151	181.69
629.357	161.69
629.564	182.69
629.77	186.69
629.976	168.69
630.183	184.69
630.389	169.69
630.595	180.69
630.802	173.69
631.008	169.69
631.214	158.69
631.42	164.69
631.627	164.69
631.833	166.69
632.039	163.69
632.245	176.69
632.451	163.69
632.657	167.69
632.863	158.69
633.069	160.69
633.275	167.69
633.481	161.69
633.688	157.69
633.893	168.69
634.099	158.69
634.305	156.69
634.511	158.69
634.717	163.69
634.923	150.69
635.129	149.69
635.335	136.69
635.541	152.69
635.747	138.69
635.952	169.69
636.158	168.69
636.364	157.69
636.57	167.69
636.775	161.69
636.981	169.69
637.187	165.69
637.392	161.69
637.598	168.69
637.804	150.69
638.009	154.69
638.215	148.69
638.421	147.69
638.626	160.69
638.832	140.69
639.037	149.69
639.243	142.69
639.448	141.69
639.654	152.69
639.859	152.69
640.065	159.69
640.27	145.69
640.475	150.69
640.681	154.69
640.886	167.69
641.091	150.69
641.297	143.69
641.502	126.69
641.707	156.69
641.913	140.69
642.118	150.69
642.323	140.69
642.528	137.69
642.733	134.69
642.939	162.69
643.144	163.69
643.349	136.69
643.554	143.69
643.759	148.69
643.964	141.69
644.169	149.69
644.374	148.69
644.579	153.69
644.784	144.69
644.989	139.69
645.194	156.69
645.399	136.69
645.604	144.69
645.809	155.69
646.014	148.69
646.219	126.69
646.423	143.69
646.628	136.69
646.833	148.69
647.038	150.69
647.243	157.69
647.447	148.69
647.652	165.69
647.857	144.69
648.062	160.69
648.266	151.69
648.471	140.69
648.676	154.69
648.88	152.69
649.085	144.69
649.289	146.69
649.494	156.69
649.698	156.69
649.903	163.69
650.107	151.69
650.312	161.69
650.516	142.69
650.721	137.69
650.925	131.69
651.13	142.69
651.334	143.69
651.539	137.69
651.743	133.69
651.947	128.69
652.152	126.69
652.356	135.69
652.56	148.69
652.764	120.69
652.969	125.69
653.173	127.69
653.377	128.69
653.581	121.69
653.785	136.69
653.99	123.69
654.194	128.69
654.398	142.69
654.602	120.69
654.806	120.69
655.01	127.69
655.214	135.69
655.418	131.69
655.622	122.69
655.826	126.69
656.03	123.69
656.234	117.69
656.438	132.69
656.642	135.69
656.846	129.69
657.049	129.69
657.253	122.69
657.457	125.69
657.661	122.69
657.865	94.69
658.068	108.69
658.272	96.69
658.476	118.69
658.68	105.69
658.883	91.69
659.087	105.69
659.291	92.69
659.494	93.69
659.698	108.69
659.901	96.69
660.105	102.69
660.309	97.69
660.512	92.69
660.716	92.69
660.919	88.69
661.123	91.69
661.326	87.69
661.53	89.69
661.733	83.69
661.936	78.69
662.14	88.69
662.343	94.69
662.546	79.69
662.75	96.69
662.953	93.69
663.156	88.69
663.36	78.69
663.563	90.69
663.766	91.69
663.969	80.69
664.173	87.69
664.376	67.69
664.579	79.69
664.782	85.69
664.985	89.69
665.188	68.69
665.391	89.69
665.594	72.69
665.797	84.69
666	82.69
666.203	90.69
666.406	95.69
666.609	80.69
666.812	79.69
667.015	85.69
667.218	85.69
667.421	77.69
667.624	74.69
667.827	89.69
668.03	74.69
668.232	72.69
668.435	90.69
668.638	87.69
668.841	91.69
669.043	71.69
669.246	70.69
669.449	85.69
669.651	86.69
669.854	66.69
670.057	68.69
670.259	65.69
670.462	92.69
670.665	77.69
670.867	72.69
671.07	79.69
671.272	68.69
671.475	62.69
671.677	73.69
671.88	68.69
672.082	70.69
672.284	79.69
672.487	87.69
672.689	84.69
672.892	77.69
