Data from 1965.PennyLincolnUp.Lamp.En5.5.200Scan.071719.P1._HRD10591_14-08-21-910.txt Node
Date: Thu Jul 18 14:08:21 EDT 2019
User: cochatt
Spectrometer: HR+D1059
Trigger mode: 1
Integration Time (sec): 1.000000E-1
Scans to average: 1
Electric dark correction enabled: true
Nonlinearity correction enabled: false
Boxcar width: 0
XAxis mode: Wavelengths
Number of Pixels in Spectrum: 2048
>>>>>Begin Spectral Data<<<<<
223.165	-15.62
223.4	-15.62
223.635	-15.62
223.869	-25.62
224.104	7.38
224.338	-18.62
224.573	-1.62
224.808	-14.62
225.042	-11.62
225.277	-15.62
225.511	-5.62
225.746	8.38
225.98	-12.62
226.215	2.38
226.449	15.38
226.683	26.38
226.918	27.38
227.152	34.38
227.387	18.38
227.621	45.38
227.856	45.38
228.09	38.38
228.324	39.38
228.559	49.38
228.793	69.38
229.027	86.38
229.262	92.38
229.496	97.38
229.73	105.38
229.964	134.38
230.199	132.38
230.433	105.38
230.667	107.38
230.901	113.38
231.136	102.38
231.37	95.38
231.604	94.38
231.838	96.38
232.072	98.38
232.306	102.38
232.541	110.38
232.775	112.38
233.009	111.38
233.243	116.38
233.477	98.38
233.711	103.38
233.945	107.38
234.179	113.38
234.413	112.38
234.647	109.38
234.881	101.38
235.115	101.38
235.349	107.38
235.583	96.38
235.817	108.38
236.051	98.38
236.285	121.38
236.519	108.38
236.753	100.38
236.987	114.38
237.221	144.38
237.455	190.38
237.689	140.38
237.922	134.38
238.156	126.38
238.39	119.38
238.624	113.38
238.858	116.38
239.091	118.38
239.325	99.38
239.559	111.38
239.793	116.38
240.027	114.38
240.26	121.38
240.494	133.38
240.728	132.38
240.961	134.38
241.195	129.38
241.429	117.38
241.662	111.38
241.896	124.38
242.13	123.38
242.363	117.38
242.597	107.38
242.83	122.38
243.064	130.38
243.298	120.38
243.531	113.38
243.765	124.38
243.998	113.38
244.232	121.38
244.465	119.38
244.699	128.38
244.932	118.38
245.166	114.38
245.399	132.38
245.633	121.38
245.866	134.38
246.099	126.38
246.333	134.38
246.566	120.38
246.8	136.38
247.033	137.38
247.266	128.38
247.5	154.38
247.733	142.38
247.966	141.38
248.2	128.38
248.433	128.38
248.666	137.38
248.899	154.38
249.133	157.38
249.366	181.38
249.599	168.38
249.832	140.38
250.066	156.38
250.299	160.38
250.532	158.38
250.765	156.38
250.998	172.38
251.231	188.38
251.465	189.38
251.698	171.38
251.931	163.38
252.164	155.38
252.397	174.38
252.63	153.38
252.863	164.38
253.096	167.38
253.329	186.38
253.562	180.38
253.795	198.38
254.028	193.38
254.261	183.38
254.494	198.38
254.727	206.38
254.96	222.38
255.193	217.38
255.426	205.38
255.659	189.38
255.892	189.38
256.124	197.38
256.357	196.38
256.59	192.38
256.823	173.38
257.056	202.38
257.289	183.38
257.521	181.38
257.754	184.38
257.987	188.38
258.22	179.38
258.452	188.38
258.685	177.38
258.918	181.38
259.151	196.38
259.383	182.38
259.616	187.38
259.849	191.38
260.081	189.38
260.314	196.38
260.547	195.38
260.779	205.38
261.012	172.38
261.244	203.38
261.477	184.38
261.71	196.38
261.942	212.38
262.175	188.38
262.407	199.38
262.64	180.38
262.872	173.38
263.105	167.38
263.337	179.38
263.57	171.38
263.802	172.38
264.035	181.38
264.267	174.38
264.499	158.38
264.732	183.38
264.964	179.38
265.197	169.38
265.429	180.38
265.661	171.38
265.894	186.38
266.126	191.38
266.358	189.38
266.591	183.38
266.823	191.38
267.055	193.38
267.287	177.38
267.52	199.38
267.752	194.38
267.984	204.38
268.216	184.38
268.448	190.38
268.681	195.38
268.913	190.38
269.145	203.38
269.377	215.38
269.609	215.38
269.841	197.38
270.073	229.38
270.306	230.38
270.538	253.38
270.77	242.38
271.002	255.38
271.234	245.38
271.466	257.38
271.698	250.38
271.93	243.38
272.162	246.38
272.394	257.38
272.626	251.38
272.858	225.38
273.09	233.38
273.322	217.38
273.553	206.38
273.785	205.38
274.017	211.38
274.249	233.38
274.481	219.38
274.713	213.38
274.945	217.38
275.176	217.38
275.408	204.38
275.64	211.38
275.872	225.38
276.104	221.38
276.335	235.38
276.567	219.38
276.799	261.38
277.031	251.38
277.262	258.38
277.494	261.38
277.726	250.38
277.957	242.38
278.189	229.38
278.421	227.38
278.652	217.38
278.884	225.38
279.115	221.38
279.347	237.38
279.579	209.38
279.81	207.38
280.042	213.38
280.273	237.38
280.505	221.38
280.736	213.38
280.968	213.38
281.199	218.38
281.431	218.38
281.662	215.38
281.894	233.38
282.125	219.38
282.356	237.38
282.588	237.38
282.819	233.38
283.051	232.38
283.282	211.38
283.513	220.38
283.745	224.38
283.976	221.38
284.207	226.38
284.439	230.38
284.67	226.38
284.901	231.38
285.132	219.38
285.364	211.38
285.595	226.38
285.826	216.38
286.057	232.38
286.288	237.38
286.52	228.38
286.751	220.38
286.982	222.38
287.213	225.38
287.444	214.38
287.675	241.38
287.906	243.38
288.138	244.38
288.369	251.38
288.6	235.38
288.831	245.38
289.062	248.38
289.293	232.38
289.524	236.38
289.755	246.38
289.986	242.38
290.217	237.38
290.448	226.38
290.679	233.38
290.91	238.38
291.141	221.38
291.371	239.38
291.602	229.38
291.833	236.38
292.064	222.38
292.295	237.38
292.526	256.38
292.757	233.38
292.987	242.38
293.218	240.38
293.449	229.38
293.68	227.38
293.91	228.38
294.141	222.38
294.372	230.38
294.603	240.38
294.833	232.38
295.064	225.38
295.295	252.38
295.525	257.38
295.756	246.38
295.987	238.38
296.217	262.38
296.448	251.38
296.679	248.38
296.909	250.38
297.14	245.38
297.37	235.38
297.601	257.38
297.831	248.38
298.062	241.38
298.292	240.38
298.523	257.38
298.753	261.38
298.984	246.38
299.214	239.38
299.445	246.38
299.675	248.38
299.905	257.38
300.136	246.38
300.366	246.38
300.597	233.38
300.827	242.38
301.057	253.38
301.288	266.38
301.518	267.38
301.748	266.38
301.979	266.38
302.209	258.38
302.439	270.38
302.669	249.38
302.9	246.38
303.13	253.38
303.36	267.38
303.59	270.38
303.82	269.38
304.051	277.38
304.281	261.38
304.511	272.38
304.741	264.38
304.971	253.38
305.201	265.38
305.431	258.38
305.661	261.38
305.891	261.38
306.121	260.38
306.352	267.38
306.582	278.38
306.812	287.38
307.042	272.38
307.272	272.38
307.502	278.38
307.731	283.38
307.961	289.38
308.191	282.38
308.421	294.38
308.651	278.38
308.881	271.38
309.111	296.38
309.341	275.38
309.571	281.38
309.8	295.38
310.03	289.38
310.26	324.38
310.49	297.38
310.72	308.38
310.949	316.38
311.179	322.38
311.409	332.38
311.639	318.38
311.868	313.38
312.098	324.38
312.328	318.38
312.557	331.38
312.787	353.38
313.017	321.38
313.246	310.38
313.476	304.38
313.706	299.38
313.935	315.38
314.165	326.38
314.394	346.38
314.624	325.38
314.853	332.38
315.083	317.38
315.312	307.38
315.542	304.38
315.771	296.38
316.001	317.38
316.23	308.38
316.46	290.38
316.689	313.38
316.919	308.38
317.148	320.38
317.377	326.38
317.607	324.38
317.836	324.38
318.065	297.38
318.295	298.38
318.524	309.38
318.753	323.38
318.983	316.38
319.212	305.38
319.441	315.38
319.67	298.38
319.9	308.38
320.129	314.38
320.358	320.38
320.587	312.38
320.816	323.38
321.046	329.38
321.275	334.38
321.504	347.38
321.733	357.38
321.962	360.38
322.191	344.38
322.42	356.38
322.649	378.38
322.878	380.38
323.108	381.38
323.337	371.38
323.566	432.38
323.795	459.38
324.024	472.38
324.253	599.38
324.482	857.38
324.71	1294.38
324.939	1743.38
325.168	1505.38
325.397	810.38
325.626	551.38
325.855	477.38
326.084	434.38
326.313	400.38
326.542	442.38
326.77	465.38
326.999	571.38
327.228	787.38
327.457	1164.38
327.686	1323.38
327.914	856.38
328.143	594.38
328.372	517.38
328.6	503.38
328.829	477.38
329.058	477.38
329.287	485.38
329.515	455.38
329.744	403.38
329.972	424.38
330.201	438.38
330.43	467.38
330.658	504.38
330.887	512.38
331.115	500.38
331.344	428.38
331.572	397.38
331.801	395.38
332.03	396.38
332.258	387.38
332.486	366.38
332.715	380.38
332.943	369.38
333.172	370.38
333.4	370.38
333.629	384.38
333.857	387.38
334.085	394.38
334.314	426.38
334.542	436.38
334.771	450.38
334.999	402.38
335.227	380.38
335.455	375.38
335.684	370.38
335.912	376.38
336.14	353.38
336.369	360.38
336.597	355.38
336.825	370.38
337.053	358.38
337.281	366.38
337.51	341.38
337.738	360.38
337.966	352.38
338.194	370.38
338.422	375.38
338.65	380.38
338.878	352.38
339.106	340.38
339.334	364.38
339.562	338.38
339.79	336.38
340.018	342.38
340.246	341.38
340.474	359.38
340.702	360.38
340.93	364.38
341.158	348.38
341.386	340.38
341.614	344.38
341.842	349.38
342.07	336.38
342.298	320.38
342.526	332.38
342.754	323.38
342.981	330.38
343.209	331.38
343.437	347.38
343.665	348.38
343.893	357.38
344.12	357.38
344.348	345.38
344.576	347.38
344.804	355.38
345.031	346.38
345.259	365.38
345.487	379.38
345.714	347.38
345.942	372.38
346.17	355.38
346.397	334.38
346.625	334.38
346.853	364.38
347.08	341.38
347.308	324.38
347.535	358.38
347.763	364.38
347.99	354.38
348.218	357.38
348.445	349.38
348.673	353.38
348.9	355.38
349.128	332.38
349.355	333.38
349.583	328.38
349.81	329.38
350.037	331.38
350.265	315.38
350.492	327.38
350.72	332.38
350.947	337.38
351.174	330.38
351.402	354.38
351.629	354.38
351.856	360.38
352.083	338.38
352.311	357.38
352.538	362.38
352.765	354.38
352.992	376.38
353.22	338.38
353.447	348.38
353.674	335.38
353.901	345.38
354.128	322.38
354.355	331.38
354.583	318.38
354.81	314.38
355.037	319.38
355.264	307.38
355.491	316.38
355.718	322.38
355.945	325.38
356.172	312.38
356.399	320.38
356.626	333.38
356.853	322.38
357.08	317.38
357.307	334.38
357.534	308.38
357.761	324.38
357.988	323.38
358.215	325.38
358.441	336.38
358.668	330.38
358.895	312.38
359.122	323.38
359.349	341.38
359.576	331.38
359.802	357.38
360.029	386.38
360.256	371.38
360.483	362.38
360.709	363.38
360.936	345.38
361.163	353.38
361.39	349.38
361.616	343.38
361.843	352.38
362.07	352.38
362.296	361.38
362.523	333.38
362.749	328.38
362.976	327.38
363.203	326.38
363.429	330.38
363.656	326.38
363.882	313.38
364.109	319.38
364.335	327.38
364.562	325.38
364.788	325.38
365.015	316.38
365.241	316.38
365.468	321.38
365.694	322.38
365.92	328.38
366.147	334.38
366.373	331.38
366.599	313.38
366.826	325.38
367.052	316.38
367.278	325.38
367.505	322.38
367.731	334.38
367.957	339.38
368.184	321.38
368.41	326.38
368.636	318.38
368.862	323.38
369.089	335.38
369.315	313.38
369.541	313.38
369.767	324.38
369.993	320.38
370.219	329.38
370.445	333.38
370.672	321.38
370.898	316.38
371.124	301.38
371.35	317.38
371.576	325.38
371.802	334.38
372.028	306.38
372.254	326.38
372.48	315.38
372.706	329.38
372.932	332.38
373.158	317.38
373.384	320.38
373.61	339.38
373.835	329.38
374.061	333.38
374.287	332.38
374.513	326.38
374.739	334.38
374.965	326.38
375.191	326.38
375.416	329.38
375.642	330.38
375.868	333.38
376.094	332.38
376.319	318.38
376.545	321.38
376.771	312.38
376.997	327.38
377.222	317.38
377.448	325.38
377.674	313.38
377.899	320.38
378.125	320.38
378.35	333.38
378.576	296.38
378.802	320.38
379.027	326.38
379.253	330.38
379.478	333.38
379.704	324.38
379.929	319.38
380.155	318.38
380.38	313.38
380.606	322.38
380.831	312.38
381.057	332.38
381.282	338.38
381.507	331.38
381.733	317.38
381.958	333.38
382.184	336.38
382.409	346.38
382.634	350.38
382.86	327.38
383.085	322.38
383.31	315.38
383.535	337.38
383.761	344.38
383.986	342.38
384.211	332.38
384.436	329.38
384.662	328.38
384.887	311.38
385.112	348.38
385.337	358.38
385.562	332.38
385.787	336.38
386.013	353.38
386.238	346.38
386.463	353.38
386.688	346.38
386.913	361.38
387.138	336.38
387.363	332.38
387.588	340.38
387.813	342.38
388.038	328.38
388.263	354.38
388.488	341.38
388.713	342.38
388.938	353.38
389.163	332.38
389.387	356.38
389.612	352.38
389.837	363.38
390.062	353.38
390.287	343.38
390.512	348.38
390.736	355.38
390.961	345.38
391.186	317.38
391.411	334.38
391.636	368.38
391.86	340.38
392.085	350.38
392.31	364.38
392.534	357.38
392.759	355.38
392.984	319.38
393.208	324.38
393.433	353.38
393.658	363.38
393.882	352.38
394.107	351.38
394.331	350.38
394.556	349.38
394.78	354.38
395.005	374.38
395.229	331.38
395.454	361.38
395.678	368.38
395.903	369.38
396.127	380.38
396.352	371.38
396.576	381.38
396.801	370.38
397.025	372.38
397.249	352.38
397.474	350.38
397.698	378.38
397.922	390.38
398.147	386.38
398.371	403.38
398.595	389.38
398.82	397.38
399.044	409.38
399.268	396.38
399.492	412.38
399.717	441.38
399.941	450.38
400.165	473.38
400.389	460.38
400.613	441.38
400.837	420.38
401.062	399.38
401.286	390.38
401.51	395.38
401.734	403.38
401.958	390.38
402.182	406.38
402.406	414.38
402.63	415.38
402.854	412.38
403.078	418.38
403.302	397.38
403.526	401.38
403.75	380.38
403.974	400.38
404.198	414.38
404.422	403.38
404.645	423.38
404.869	409.38
405.093	423.38
405.317	470.38
405.541	493.38
405.765	440.38
405.988	440.38
406.212	424.38
406.436	452.38
406.66	482.38
406.883	469.38
407.107	462.38
407.331	476.38
407.555	516.38
407.778	541.38
408.002	467.38
408.226	454.38
408.449	452.38
408.673	460.38
408.896	459.38
409.12	494.38
409.344	468.38
409.567	445.38
409.791	413.38
410.014	412.38
410.238	394.38
410.461	413.38
410.685	406.38
410.908	412.38
411.132	446.38
411.355	474.38
411.578	454.38
411.802	405.38
412.025	406.38
412.249	395.38
412.472	435.38
412.695	437.38
412.919	430.38
413.142	397.38
413.365	405.38
413.589	399.38
413.812	382.38
414.035	392.38
414.258	394.38
414.482	390.38
414.705	388.38
414.928	382.38
415.151	368.38
415.374	380.38
415.597	381.38
415.821	391.38
416.044	392.38
416.267	391.38
416.49	373.38
416.713	354.38
416.936	369.38
417.159	371.38
417.382	371.38
417.605	397.38
417.828	404.38
418.051	394.38
418.274	404.38
418.497	390.38
418.72	388.38
418.943	381.38
419.166	395.38
419.389	420.38
419.611	421.38
419.834	403.38
420.057	419.38
420.28	412.38
420.503	402.38
420.726	407.38
420.948	420.38
421.171	434.38
421.394	462.38
421.617	421.38
421.839	409.38
422.062	414.38
422.285	401.38
422.507	453.38
422.73	507.38
422.953	461.38
423.175	439.38
423.398	433.38
423.621	417.38
423.843	427.38
424.066	424.38
424.288	405.38
424.511	438.38
424.733	505.38
424.956	544.38
425.178	541.38
425.401	512.38
425.623	542.38
425.846	468.38
426.068	459.38
426.291	432.38
426.513	427.38
426.735	436.38
426.958	482.38
427.18	544.38
427.402	627.38
427.625	696.38
427.847	629.38
428.069	542.38
428.292	444.38
428.514	458.38
428.736	441.38
428.958	412.38
429.181	395.38
429.403	392.38
429.625	419.38
429.847	454.38
430.069	493.38
430.292	502.38
430.514	408.38
430.736	411.38
430.958	401.38
431.18	398.38
431.402	384.38
431.624	381.38
431.846	370.38
432.068	364.38
432.29	398.38
432.512	381.38
432.734	391.38
432.956	382.38
433.178	388.38
433.4	408.38
433.622	382.38
433.844	381.38
434.066	378.38
434.287	364.38
434.509	378.38
434.731	390.38
434.953	403.38
435.175	406.38
435.397	435.38
435.618	422.38
435.84	472.38
436.062	538.38
436.284	560.38
436.505	503.38
436.727	451.38
436.949	426.38
437.17	393.38
437.392	406.38
437.614	434.38
437.835	457.38
438.057	517.38
438.278	582.38
438.5	591.38
438.721	626.38
438.943	596.38
439.165	507.38
439.386	474.38
439.608	456.38
439.829	454.38
440.05	468.38
440.272	475.38
440.493	476.38
440.715	424.38
440.936	426.38
441.158	428.38
441.379	412.38
441.6	441.38
441.822	444.38
442.043	456.38
442.264	520.38
442.486	526.38
442.707	471.38
442.928	443.38
443.149	449.38
443.371	477.38
443.592	491.38
443.813	544.38
444.034	582.38
444.255	510.38
444.476	467.38
444.698	436.38
444.919	442.38
445.14	525.38
445.361	498.38
445.582	477.38
445.803	503.38
446.024	597.38
446.245	599.38
446.466	541.38
446.687	489.38
446.908	433.38
447.129	408.38
447.35	421.38
447.571	401.38
447.792	392.38
448.013	404.38
448.234	430.38
448.455	456.38
448.675	534.38
448.896	620.38
449.117	540.38
449.338	513.38
449.559	618.38
449.779	664.38
450	537.38
450.221	447.38
450.442	419.38
450.662	387.38
450.883	418.38
451.104	416.38
451.324	435.38
451.545	414.38
451.766	389.38
451.986	380.38
452.207	359.38
452.428	374.38
452.648	363.38
452.869	371.38
453.089	384.38
453.31	375.38
453.53	386.38
453.751	362.38
453.971	373.38
454.192	363.38
454.412	387.38
454.633	372.38
454.853	378.38
455.073	356.38
455.294	405.38
455.514	444.38
455.734	435.38
455.955	378.38
456.175	353.38
456.395	334.38
456.616	347.38
456.836	348.38
457.056	336.38
457.276	350.38
457.497	357.38
457.717	347.38
457.937	360.38
458.157	353.38
458.377	372.38
458.598	382.38
458.818	446.38
459.038	492.38
459.258	502.38
459.478	412.38
459.698	397.38
459.918	386.38
460.138	388.38
460.358	396.38
460.578	389.38
460.798	395.38
461.018	399.38
461.238	382.38
461.458	380.38
461.678	386.38
461.898	383.38
462.118	382.38
462.338	387.38
462.558	391.38
462.777	397.38
462.997	429.38
463.217	418.38
463.437	408.38
463.657	415.38
463.876	423.38
464.096	413.38
464.316	406.38
464.536	415.38
464.755	406.38
464.975	426.38
465.195	460.38
465.414	532.38
465.634	469.38
465.854	413.38
466.073	390.38
466.293	384.38
466.512	375.38
466.732	369.38
466.951	367.38
467.171	377.38
467.391	376.38
467.61	370.38
467.829	385.38
468.049	387.38
468.268	406.38
468.488	390.38
468.707	370.38
468.927	383.38
469.146	374.38
469.365	380.38
469.585	377.38
469.804	384.38
470.023	388.38
470.243	381.38
470.462	403.38
470.681	397.38
470.901	392.38
471.12	382.38
471.339	383.38
471.558	382.38
471.777	380.38
471.997	363.38
472.216	390.38
472.435	419.38
472.654	390.38
472.873	392.38
473.092	375.38
473.311	379.38
473.53	384.38
473.749	389.38
473.968	419.38
474.187	498.38
474.406	530.38
474.625	443.38
474.844	392.38
475.063	380.38
475.282	398.38
475.501	377.38
475.72	400.38
475.939	375.38
476.158	394.38
476.377	386.38
476.596	385.38
476.814	396.38
477.033	402.38
477.252	410.38
477.471	409.38
477.69	424.38
477.908	422.38
478.127	433.38
478.346	408.38
478.564	413.38
478.783	416.38
479.002	420.38
479.22	418.38
479.439	446.38
479.658	462.38
479.876	465.38
480.095	475.38
480.313	494.38
480.532	477.38
480.751	444.38
480.969	465.38
481.188	528.38
481.406	557.38
481.624	496.38
481.843	464.38
482.061	479.38
482.28	443.38
482.498	451.38
482.717	446.38
482.935	452.38
483.153	453.38
483.372	460.38
483.59	440.38
483.808	445.38
484.027	450.38
484.245	447.38
484.463	459.38
484.681	461.38
484.9	454.38
485.118	468.38
485.336	460.38
485.554	453.38
485.772	479.38
485.99	471.38
486.209	490.38
486.427	475.38
486.645	485.38
486.863	484.38
487.081	500.38
487.299	500.38
487.517	474.38
487.735	486.38
487.953	475.38
488.171	512.38
488.389	490.38
488.607	481.38
488.825	481.38
489.043	491.38
489.261	470.38
489.479	474.38
489.696	502.38
489.914	481.38
490.132	492.38
490.35	521.38
490.568	506.38
490.786	512.38
491.003	518.38
491.221	525.38
491.439	540.38
491.657	555.38
491.874	560.38
492.092	535.38
492.31	553.38
492.527	527.38
492.745	566.38
492.963	556.38
493.18	564.38
493.398	575.38
493.615	567.38
493.833	573.38
494.05	557.38
494.268	573.38
494.485	570.38
494.703	555.38
494.92	568.38
495.138	570.38
495.355	558.38
495.573	581.38
495.79	540.38
496.008	570.38
496.225	592.38
496.442	560.38
496.66	576.38
496.877	575.38
497.094	592.38
497.312	574.38
497.529	590.38
497.746	588.38
497.963	593.38
498.181	598.38
498.398	604.38
498.615	629.38
498.832	626.38
499.049	642.38
499.267	637.38
499.484	673.38
499.701	681.38
499.918	677.38
500.135	698.38
500.352	707.38
500.569	708.38
500.786	754.38
501.003	750.38
501.22	712.38
501.437	697.38
501.654	692.38
501.871	710.38
502.088	704.38
502.305	638.38
502.522	622.38
502.739	634.38
502.956	601.38
503.172	601.38
503.389	601.38
503.606	607.38
503.823	594.38
504.04	577.38
504.256	578.38
504.473	567.38
504.69	580.38
504.907	557.38
505.123	568.38
505.34	570.38
505.557	536.38
505.773	573.38
505.99	569.38
506.207	561.38
506.423	550.38
506.64	535.38
506.856	552.38
507.073	527.38
507.289	548.38
507.506	543.38
507.722	565.38
507.939	565.38
508.155	550.38
508.372	525.38
508.588	523.38
508.805	526.38
509.021	518.38
509.238	511.38
509.454	548.38
509.67	536.38
509.887	532.38
510.103	509.38
510.319	533.38
510.536	642.38
510.752	1091.38
510.968	860.38
511.184	542.38
511.401	516.38
511.617	516.38
511.833	503.38
512.049	498.38
512.265	485.38
512.481	501.38
512.698	487.38
512.914	516.38
513.13	492.38
513.346	490.38
513.562	510.38
513.778	490.38
513.994	484.38
514.21	524.38
514.426	544.38
514.642	581.38
514.858	610.38
515.074	640.38
515.29	763.38
515.506	1178.38
515.721	932.38
515.937	631.38
516.153	570.38
516.369	554.38
516.585	532.38
516.801	530.38
517.016	538.38
517.232	521.38
517.448	497.38
517.664	504.38
517.879	514.38
518.095	507.38
518.311	515.38
518.527	487.38
518.742	499.38
518.958	488.38
519.173	510.38
519.389	490.38
519.605	489.38
519.82	501.38
520.036	524.38
520.251	551.38
520.467	565.38
520.682	550.38
520.898	555.38
521.113	553.38
521.329	626.38
521.544	708.38
521.76	904.38
521.975	1590.38
522.19	1515.38
522.406	792.38
522.621	614.38
522.836	551.38
523.052	519.38
523.267	501.38
523.482	477.38
523.698	473.38
523.913	474.38
524.128	466.38
524.343	466.38
524.559	453.38
524.774	474.38
524.989	429.38
525.204	426.38
525.419	435.38
525.634	450.38
525.849	436.38
526.064	428.38
526.28	422.38
526.495	408.38
526.71	407.38
526.925	426.38
527.14	411.38
527.355	411.38
527.57	421.38
527.785	418.38
527.999	434.38
528.214	385.38
528.429	415.38
528.644	407.38
528.859	425.38
529.074	394.38
529.289	438.38
529.503	511.38
529.718	516.38
529.933	446.38
530.148	407.38
530.363	416.38
530.577	427.38
530.792	390.38
531.007	397.38
531.221	400.38
531.436	423.38
531.651	396.38
531.865	379.38
532.08	398.38
532.295	406.38
532.509	395.38
532.724	384.38
532.938	375.38
533.153	392.38
533.367	380.38
533.582	391.38
533.796	398.38
534.011	380.38
534.225	375.38
534.44	400.38
534.654	400.38
534.868	373.38
535.083	376.38
535.297	390.38
535.511	383.38
535.726	390.38
535.94	382.38
536.154	398.38
536.369	409.38
536.583	380.38
536.797	377.38
537.011	392.38
537.225	381.38
537.44	353.38
537.654	388.38
537.868	378.38
538.082	386.38
538.296	384.38
538.51	375.38
538.724	375.38
538.938	370.38
539.153	376.38
539.367	387.38
539.581	391.38
539.795	380.38
540.009	359.38
540.222	374.38
540.436	390.38
540.65	381.38
540.864	403.38
541.078	387.38
541.292	382.38
541.506	380.38
541.72	362.38
541.934	378.38
542.147	368.38
542.361	382.38
542.575	368.38
542.789	359.38
543.002	370.38
543.216	354.38
543.43	388.38
543.644	389.38
543.857	373.38
544.071	373.38
544.285	375.38
544.498	376.38
544.712	353.38
544.925	363.38
545.139	349.38
545.352	355.38
545.566	355.38
545.779	366.38
545.993	370.38
546.206	358.38
546.42	347.38
546.633	366.38
546.847	357.38
547.06	357.38
547.274	355.38
547.487	358.38
547.7	344.38
547.914	333.38
548.127	361.38
548.34	352.38
548.554	336.38
548.767	353.38
548.98	348.38
549.193	361.38
549.407	344.38
549.62	352.38
549.833	348.38
550.046	330.38
550.259	348.38
550.473	352.38
550.686	365.38
550.899	340.38
551.112	338.38
551.325	330.38
551.538	337.38
551.751	350.38
551.964	341.38
552.177	342.38
552.39	356.38
552.603	341.38
552.816	353.38
553.029	359.38
553.242	351.38
553.455	345.38
553.667	354.38
553.88	369.38
554.093	352.38
554.306	361.38
554.519	349.38
554.732	343.38
554.944	354.38
555.157	350.38
555.37	335.38
555.583	336.38
555.795	338.38
556.008	340.38
556.221	348.38
556.433	308.38
556.646	320.38
556.859	333.38
557.071	310.38
557.284	332.38
557.496	320.38
557.709	314.38
557.921	311.38
558.134	323.38
558.346	308.38
558.559	326.38
558.771	317.38
558.984	331.38
559.196	299.38
559.409	325.38
559.621	319.38
559.833	321.38
560.046	325.38
560.258	289.38
560.47	316.38
560.683	320.38
560.895	314.38
561.107	317.38
561.32	314.38
561.532	308.38
561.744	309.38
561.956	328.38
562.168	320.38
562.381	330.38
562.593	346.38
562.805	322.38
563.017	312.38
563.229	328.38
563.441	318.38
563.653	332.38
563.865	322.38
564.077	330.38
564.289	319.38
564.501	338.38
564.713	330.38
564.925	324.38
565.137	355.38
565.349	329.38
565.561	337.38
565.773	332.38
565.985	329.38
566.197	342.38
566.408	358.38
566.62	369.38
566.832	362.38
567.044	380.38
567.255	357.38
567.467	352.38
567.679	362.38
567.891	382.38
568.102	368.38
568.314	377.38
568.526	357.38
568.737	348.38
568.949	330.38
569.161	331.38
569.372	332.38
569.584	330.38
569.795	310.38
570.007	325.38
570.218	364.38
570.43	349.38
570.641	309.38
570.853	300.38
571.064	316.38
571.276	288.38
571.487	310.38
571.698	286.38
571.91	293.38
572.121	288.38
572.333	294.38
572.544	292.38
572.755	292.38
572.966	274.38
573.178	283.38
573.389	299.38
573.6	283.38
573.811	270.38
574.023	265.38
574.234	277.38
574.445	279.38
574.656	277.38
574.867	268.38
575.078	264.38
575.289	273.38
575.501	248.38
575.712	277.38
575.923	268.38
576.134	272.38
576.345	279.38
576.556	273.38
576.767	277.38
576.978	273.38
577.188	275.38
577.399	282.38
577.61	259.38
577.821	276.38
578.032	274.38
578.243	286.38
578.454	513.38
578.665	398.38
578.875	277.38
579.086	258.38
579.297	250.38
579.508	258.38
579.718	248.38
579.929	257.38
580.14	244.38
580.35	260.38
580.561	246.38
580.772	259.38
580.982	266.38
581.193	253.38
581.403	258.38
581.614	257.38
581.825	245.38
582.035	256.38
582.246	246.38
582.456	246.38
582.667	259.38
582.877	265.38
583.087	246.38
583.298	266.38
583.508	264.38
583.719	265.38
583.929	281.38
584.139	263.38
584.35	240.38
584.56	248.38
584.77	257.38
584.981	241.38
585.191	247.38
585.401	251.38
585.611	230.38
585.821	248.38
586.032	246.38
586.242	249.38
586.452	242.38
586.662	239.38
586.872	240.38
587.082	245.38
587.292	240.38
587.502	234.38
587.713	236.38
587.923	247.38
588.133	249.38
588.343	236.38
588.553	242.38
588.762	258.38
588.972	251.38
589.182	326.38
589.392	317.38
589.602	263.38
589.812	307.38
590.022	283.38
590.232	252.38
590.441	226.38
590.651	235.38
590.861	239.38
591.071	248.38
591.281	234.38
591.49	235.38
591.7	226.38
591.91	240.38
592.119	238.38
592.329	231.38
592.539	250.38
592.748	257.38
592.958	255.38
593.167	250.38
593.377	230.38
593.587	251.38
593.796	258.38
594.006	226.38
594.215	243.38
594.424	243.38
594.634	234.38
594.843	236.38
595.053	249.38
595.262	241.38
595.472	236.38
595.681	240.38
595.89	220.38
596.1	222.38
596.309	221.38
596.518	242.38
596.727	246.38
596.937	239.38
597.146	213.38
597.355	223.38
597.564	233.38
597.774	217.38
597.983	234.38
598.192	229.38
598.401	216.38
598.61	220.38
598.819	219.38
599.028	213.38
599.237	224.38
599.446	232.38
599.655	226.38
599.864	214.38
600.073	208.38
600.282	211.38
600.491	220.38
600.7	228.38
600.909	218.38
601.118	215.38
601.327	213.38
601.536	222.38
601.745	199.38
601.953	221.38
602.162	225.38
602.371	211.38
602.58	209.38
602.789	201.38
602.997	206.38
603.206	219.38
603.415	209.38
603.623	202.38
603.832	208.38
604.041	207.38
604.249	194.38
604.458	210.38
604.666	208.38
604.875	209.38
605.084	193.38
605.292	202.38
605.501	221.38
605.709	206.38
605.918	199.38
606.126	195.38
606.334	187.38
606.543	202.38
606.751	212.38
606.96	204.38
607.168	201.38
607.376	199.38
607.585	203.38
607.793	211.38
608.001	219.38
608.21	205.38
608.418	199.38
608.626	206.38
608.834	197.38
609.043	211.38
609.251	200.38
609.459	216.38
609.667	202.38
609.875	186.38
610.083	193.38
610.291	202.38
610.499	190.38
610.707	205.38
610.916	201.38
611.124	204.38
611.332	190.38
611.54	203.38
611.748	206.38
611.955	201.38
612.163	184.38
612.371	215.38
612.579	197.38
612.787	209.38
612.995	185.38
613.203	204.38
613.411	180.38
613.618	181.38
613.826	198.38
614.034	196.38
614.242	197.38
614.449	190.38
614.657	213.38
614.865	190.38
615.072	203.38
615.28	197.38
615.488	206.38
615.695	213.38
615.903	187.38
616.111	195.38
616.318	182.38
616.526	192.38
616.733	184.38
616.941	196.38
617.148	203.38
617.356	194.38
617.563	202.38
617.771	186.38
617.978	192.38
618.185	185.38
618.393	182.38
618.6	176.38
618.807	197.38
619.015	191.38
619.222	178.38
619.429	182.38
619.637	176.38
619.844	190.38
620.051	185.38
620.258	193.38
620.466	182.38
620.673	166.38
620.88	190.38
621.087	187.38
621.294	192.38
621.501	174.38
621.708	169.38
621.915	192.38
622.122	173.38
622.329	187.38
622.536	196.38
622.743	179.38
622.95	186.38
623.157	165.38
623.364	177.38
623.571	173.38
623.778	165.38
623.985	177.38
624.192	168.38
624.399	176.38
624.606	176.38
624.812	177.38
625.019	178.38
625.226	174.38
625.433	189.38
625.639	173.38
625.846	176.38
626.053	177.38
626.259	178.38
626.466	157.38
626.673	187.38
626.879	177.38
627.086	180.38
627.293	175.38
627.499	177.38
627.706	171.38
627.912	162.38
628.119	178.38
628.325	168.38
628.532	176.38
628.738	176.38
628.945	179.38
629.151	175.38
629.357	173.38
629.564	181.38
629.77	168.38
629.976	163.38
630.183	164.38
630.389	176.38
630.595	178.38
630.802	157.38
631.008	166.38
631.214	164.38
631.42	169.38
631.627	155.38
631.833	166.38
632.039	177.38
632.245	164.38
632.451	155.38
632.657	179.38
632.863	156.38
633.069	169.38
633.275	164.38
633.481	159.38
633.688	163.38
633.893	162.38
634.099	161.38
634.305	158.38
634.511	170.38
634.717	143.38
634.923	151.38
635.129	138.38
635.335	158.38
635.541	156.38
635.747	180.38
635.952	165.38
636.158	159.38
636.364	158.38
636.57	157.38
636.775	168.38
636.981	165.38
637.187	155.38
637.392	148.38
637.598	169.38
637.804	167.38
638.009	156.38
638.215	138.38
638.421	159.38
638.626	146.38
638.832	148.38
639.037	152.38
639.243	133.38
639.448	150.38
639.654	153.38
639.859	140.38
640.065	140.38
640.27	163.38
640.475	146.38
640.681	154.38
640.886	166.38
641.091	142.38
641.297	161.38
641.502	153.38
641.707	162.38
641.913	138.38
642.118	153.38
642.323	139.38
642.528	146.38
642.733	152.38
642.939	132.38
643.144	142.38
643.349	143.38
643.554	138.38
643.759	156.38
643.964	137.38
644.169	155.38
644.374	149.38
644.579	152.38
644.784	138.38
644.989	130.38
645.194	129.38
645.399	135.38
645.604	125.38
645.809	150.38
646.014	152.38
646.219	158.38
646.423	167.38
646.628	131.38
646.833	151.38
647.038	131.38
647.243	162.38
647.447	144.38
647.652	148.38
647.857	124.38
648.062	151.38
648.266	149.38
648.471	137.38
648.676	152.38
648.88	143.38
649.085	150.38
649.289	131.38
649.494	146.38
649.698	156.38
649.903	146.38
650.107	146.38
650.312	139.38
650.516	149.38
650.721	135.38
650.925	141.38
651.13	131.38
651.334	137.38
651.539	143.38
651.743	126.38
651.947	123.38
652.152	127.38
652.356	131.38
652.56	124.38
652.764	134.38
652.969	124.38
653.173	138.38
653.377	130.38
653.581	128.38
653.785	124.38
653.99	125.38
654.194	140.38
654.398	128.38
654.602	124.38
654.806	140.38
655.01	127.38
655.214	118.38
655.418	112.38
655.622	126.38
655.826	126.38
656.03	113.38
656.234	131.38
656.438	143.38
656.642	128.38
656.846	123.38
657.049	112.38
657.253	114.38
657.457	121.38
657.661	115.38
657.865	121.38
658.068	118.38
658.272	115.38
658.476	115.38
658.68	109.38
658.883	104.38
659.087	101.38
659.291	98.38
659.494	97.38
659.698	106.38
659.901	94.38
660.105	84.38
660.309	90.38
660.512	88.38
660.716	84.38
660.919	97.38
661.123	109.38
661.326	97.38
661.53	85.38
661.733	91.38
661.936	89.38
662.14	85.38
662.343	91.38
662.546	89.38
662.75	93.38
662.953	74.38
663.156	84.38
663.36	94.38
663.563	75.38
663.766	95.38
663.969	95.38
664.173	78.38
664.376	92.38
664.579	85.38
664.782	71.38
664.985	80.38
665.188	88.38
665.391	75.38
665.594	85.38
665.797	83.38
666	85.38
666.203	72.38
666.406	65.38
666.609	80.38
666.812	93.38
667.015	84.38
667.218	76.38
667.421	76.38
667.624	73.38
667.827	87.38
668.03	86.38
668.232	88.38
668.435	77.38
668.638	74.38
668.841	80.38
669.043	87.38
669.246	87.38
669.449	81.38
669.651	77.38
669.854	86.38
670.057	76.38
670.259	74.38
670.462	86.38
670.665	87.38
670.867	85.38
671.07	61.38
671.272	86.38
671.475	73.38
671.677	88.38
671.88	96.38
672.082	72.38
672.284	78.38
672.487	70.38
672.689	70.38
672.892	77.38
