Data from 1965.PennyLincolnUp.Lamp.En5.5.200Scan.071719.P1._HRD10591_14-08-43-911.txt Node
Date: Thu Jul 18 14:08:43 EDT 2019
User: cochatt
Spectrometer: HR+D1059
Trigger mode: 1
Integration Time (sec): 1.000000E-1
Scans to average: 1
Electric dark correction enabled: true
Nonlinearity correction enabled: false
Boxcar width: 0
XAxis mode: Wavelengths
Number of Pixels in Spectrum: 2048
>>>>>Begin Spectral Data<<<<<
223.165	-21.94
223.4	-21.94
223.635	-21.94
223.869	-25.94
224.104	-14.94
224.338	-15.94
224.573	-26.94
224.808	4.06
225.042	-13.94
225.277	2.06
225.511	-0.94
225.746	1.06
225.98	19.06
226.215	16.06
226.449	18.06
226.683	16.06
226.918	18.06
227.152	26.06
227.387	30.06
227.621	49.06
227.856	55.06
228.09	51.06
228.324	55.06
228.559	56.06
228.793	74.06
229.027	84.06
229.262	101.06
229.496	104.06
229.73	120.06
229.964	142.06
230.199	120.06
230.433	106.06
230.667	114.06
230.901	105.06
231.136	118.06
231.37	103.06
231.604	125.06
231.838	100.06
232.072	91.06
232.306	102.06
232.541	102.06
232.775	101.06
233.009	111.06
233.243	107.06
233.477	102.06
233.711	104.06
233.945	102.06
234.179	109.06
234.413	119.06
234.647	99.06
234.881	119.06
235.115	111.06
235.349	109.06
235.583	110.06
235.817	103.06
236.051	96.06
236.285	109.06
236.519	123.06
236.753	112.06
236.987	123.06
237.221	165.06
237.455	222.06
237.689	171.06
237.922	138.06
238.156	114.06
238.39	120.06
238.624	111.06
238.858	125.06
239.091	119.06
239.325	130.06
239.559	110.06
239.793	129.06
240.027	121.06
240.26	132.06
240.494	147.06
240.728	115.06
240.961	130.06
241.195	131.06
241.429	128.06
241.662	146.06
241.896	119.06
242.13	114.06
242.363	117.06
242.597	111.06
242.83	121.06
243.064	137.06
243.298	117.06
243.531	109.06
243.765	133.06
243.998	125.06
244.232	131.06
244.465	136.06
244.699	133.06
244.932	133.06
245.166	131.06
245.399	129.06
245.633	143.06
245.866	139.06
246.099	137.06
246.333	139.06
246.566	129.06
246.8	149.06
247.033	147.06
247.266	146.06
247.5	134.06
247.733	154.06
247.966	159.06
248.2	146.06
248.433	151.06
248.666	161.06
248.899	160.06
249.133	166.06
249.366	193.06
249.599	171.06
249.832	155.06
250.066	165.06
250.299	151.06
250.532	176.06
250.765	187.06
250.998	197.06
251.231	200.06
251.465	202.06
251.698	161.06
251.931	177.06
252.164	174.06
252.397	190.06
252.63	177.06
252.863	192.06
253.096	189.06
253.329	200.06
253.562	197.06
253.795	195.06
254.028	193.06
254.261	177.06
254.494	217.06
254.727	222.06
254.96	225.06
255.193	235.06
255.426	214.06
255.659	203.06
255.892	208.06
256.124	212.06
256.357	199.06
256.59	189.06
256.823	197.06
257.056	176.06
257.289	175.06
257.521	195.06
257.754	185.06
257.987	193.06
258.22	187.06
258.452	177.06
258.685	192.06
258.918	189.06
259.151	177.06
259.383	201.06
259.616	209.06
259.849	185.06
260.081	214.06
260.314	223.06
260.547	230.06
260.779	205.06
261.012	207.06
261.244	204.06
261.477	204.06
261.71	192.06
261.942	207.06
262.175	214.06
262.407	198.06
262.64	193.06
262.872	199.06
263.105	187.06
263.337	172.06
263.57	177.06
263.802	185.06
264.035	190.06
264.267	186.06
264.499	189.06
264.732	187.06
264.964	180.06
265.197	186.06
265.429	162.06
265.661	191.06
265.894	189.06
266.126	177.06
266.358	176.06
266.591	185.06
266.823	187.06
267.055	185.06
267.287	208.06
267.52	183.06
267.752	192.06
267.984	193.06
268.216	185.06
268.448	203.06
268.681	209.06
268.913	196.06
269.145	226.06
269.377	230.06
269.609	231.06
269.841	235.06
270.073	243.06
270.306	250.06
270.538	287.06
270.77	265.06
271.002	265.06
271.234	252.06
271.466	251.06
271.698	251.06
271.93	269.06
272.162	273.06
272.394	278.06
272.626	256.06
272.858	245.06
273.09	251.06
273.322	227.06
273.553	206.06
273.785	225.06
274.017	222.06
274.249	220.06
274.481	224.06
274.713	230.06
274.945	223.06
275.176	226.06
275.408	236.06
275.64	220.06
275.872	228.06
276.104	232.06
276.335	225.06
276.567	240.06
276.799	242.06
277.031	266.06
277.262	252.06
277.494	275.06
277.726	249.06
277.957	263.06
278.189	233.06
278.421	233.06
278.652	225.06
278.884	225.06
279.115	214.06
279.347	229.06
279.579	223.06
279.81	225.06
280.042	235.06
280.273	222.06
280.505	236.06
280.736	232.06
280.968	219.06
281.199	218.06
281.431	233.06
281.662	225.06
281.894	222.06
282.125	242.06
282.356	238.06
282.588	266.06
282.819	267.06
283.051	238.06
283.282	218.06
283.513	228.06
283.745	222.06
283.976	227.06
284.207	220.06
284.439	243.06
284.67	237.06
284.901	231.06
285.132	224.06
285.364	223.06
285.595	230.06
285.826	220.06
286.057	228.06
286.288	234.06
286.52	237.06
286.751	222.06
286.982	245.06
287.213	223.06
287.444	242.06
287.675	235.06
287.906	258.06
288.138	257.06
288.369	249.06
288.6	249.06
288.831	257.06
289.062	232.06
289.293	241.06
289.524	233.06
289.755	249.06
289.986	240.06
290.217	256.06
290.448	223.06
290.679	240.06
290.91	254.06
291.141	224.06
291.371	247.06
291.602	234.06
291.833	226.06
292.064	239.06
292.295	257.06
292.526	221.06
292.757	232.06
292.987	246.06
293.218	257.06
293.449	241.06
293.68	233.06
293.91	251.06
294.141	243.06
294.372	226.06
294.603	236.06
294.833	268.06
295.064	248.06
295.295	246.06
295.525	260.06
295.756	249.06
295.987	262.06
296.217	295.06
296.448	295.06
296.679	279.06
296.909	248.06
297.14	253.06
297.37	255.06
297.601	254.06
297.831	253.06
298.062	262.06
298.292	243.06
298.523	263.06
298.753	265.06
298.984	265.06
299.214	262.06
299.445	263.06
299.675	265.06
299.905	259.06
300.136	266.06
300.366	273.06
300.597	264.06
300.827	253.06
301.057	278.06
301.288	266.06
301.518	273.06
301.748	262.06
301.979	274.06
302.209	272.06
302.439	277.06
302.669	287.06
302.9	271.06
303.13	293.06
303.36	282.06
303.59	285.06
303.82	295.06
304.051	285.06
304.281	272.06
304.511	283.06
304.741	270.06
304.971	277.06
305.201	270.06
305.431	269.06
305.661	263.06
305.891	262.06
306.121	282.06
306.352	287.06
306.582	297.06
306.812	293.06
307.042	282.06
307.272	262.06
307.502	297.06
307.731	288.06
307.961	288.06
308.191	283.06
308.421	276.06
308.651	258.06
308.881	291.06
309.111	303.06
309.341	292.06
309.571	291.06
309.8	294.06
310.03	311.06
310.26	315.06
310.49	343.06
310.72	352.06
310.949	332.06
311.179	337.06
311.409	324.06
311.639	321.06
311.868	323.06
312.098	321.06
312.328	336.06
312.557	335.06
312.787	368.06
313.017	336.06
313.246	326.06
313.476	337.06
313.706	319.06
313.935	318.06
314.165	330.06
314.394	337.06
314.624	352.06
314.853	332.06
315.083	319.06
315.312	327.06
315.542	333.06
315.771	313.06
316.001	301.06
316.23	336.06
316.46	306.06
316.689	315.06
316.919	331.06
317.148	346.06
317.377	335.06
317.607	341.06
317.836	320.06
318.065	313.06
318.295	313.06
318.524	298.06
318.753	321.06
318.983	307.06
319.212	321.06
319.441	317.06
319.67	313.06
319.9	323.06
320.129	334.06
320.358	319.06
320.587	317.06
320.816	334.06
321.046	336.06
321.275	353.06
321.504	334.06
321.733	331.06
321.962	349.06
322.191	374.06
322.42	369.06
322.649	392.06
322.878	411.06
323.108	397.06
323.337	431.06
323.566	423.06
323.795	452.06
324.024	530.06
324.253	633.06
324.482	925.06
324.71	1420.06
324.939	1913.06
325.168	1630.06
325.397	890.06
325.626	571.06
325.855	508.06
326.084	471.06
326.313	438.06
326.542	446.06
326.77	489.06
326.999	593.06
327.228	796.06
327.457	1217.06
327.686	1436.06
327.914	953.06
328.143	648.06
328.372	573.06
328.6	539.06
328.829	513.06
329.058	520.06
329.287	525.06
329.515	511.06
329.744	442.06
329.972	464.06
330.201	471.06
330.43	510.06
330.658	517.06
330.887	558.06
331.115	531.06
331.344	454.06
331.572	419.06
331.801	443.06
332.03	417.06
332.258	395.06
332.486	381.06
332.715	370.06
332.943	374.06
333.172	385.06
333.4	393.06
333.629	386.06
333.857	395.06
334.085	408.06
334.314	413.06
334.542	456.06
334.771	467.06
334.999	420.06
335.227	391.06
335.455	384.06
335.684	383.06
335.912	373.06
336.14	377.06
336.369	369.06
336.597	373.06
336.825	373.06
337.053	365.06
337.281	357.06
337.51	367.06
337.738	363.06
337.966	375.06
338.194	392.06
338.422	400.06
338.65	371.06
338.878	357.06
339.106	360.06
339.334	346.06
339.562	336.06
339.79	362.06
340.018	363.06
340.246	358.06
340.474	365.06
340.702	368.06
340.93	353.06
341.158	343.06
341.386	361.06
341.614	360.06
341.842	359.06
342.07	367.06
342.298	336.06
342.526	344.06
342.754	323.06
342.981	362.06
343.209	349.06
343.437	345.06
343.665	369.06
343.893	339.06
344.12	362.06
344.348	368.06
344.576	371.06
344.804	373.06
345.031	383.06
345.259	383.06
345.487	387.06
345.714	374.06
345.942	358.06
346.17	373.06
346.397	352.06
346.625	349.06
346.853	340.06
347.08	336.06
347.308	353.06
347.535	345.06
347.763	360.06
347.99	362.06
348.218	366.06
348.445	369.06
348.673	385.06
348.9	379.06
349.128	360.06
349.355	353.06
349.583	334.06
349.81	332.06
350.037	345.06
350.265	340.06
350.492	341.06
350.72	339.06
350.947	345.06
351.174	381.06
351.402	346.06
351.629	371.06
351.856	359.06
352.083	382.06
352.311	381.06
352.538	364.06
352.765	375.06
352.992	375.06
353.22	344.06
353.447	345.06
353.674	352.06
353.901	338.06
354.128	345.06
354.355	331.06
354.583	319.06
354.81	333.06
355.037	344.06
355.264	335.06
355.491	337.06
355.718	326.06
355.945	335.06
356.172	311.06
356.399	326.06
356.626	334.06
356.853	338.06
357.08	325.06
357.307	316.06
357.534	301.06
357.761	333.06
357.988	325.06
358.215	324.06
358.441	352.06
358.668	319.06
358.895	337.06
359.122	327.06
359.349	338.06
359.576	359.06
359.802	369.06
360.029	390.06
360.256	413.06
360.483	402.06
360.709	358.06
360.936	357.06
361.163	367.06
361.39	357.06
361.616	351.06
361.843	354.06
362.07	345.06
362.296	366.06
362.523	348.06
362.749	347.06
362.976	363.06
363.203	346.06
363.429	320.06
363.656	335.06
363.882	335.06
364.109	348.06
364.335	339.06
364.562	325.06
364.788	324.06
365.015	351.06
365.241	335.06
365.468	350.06
365.694	344.06
365.92	368.06
366.147	317.06
366.373	334.06
366.599	350.06
366.826	334.06
367.052	328.06
367.278	332.06
367.505	352.06
367.731	337.06
367.957	334.06
368.184	343.06
368.41	345.06
368.636	344.06
368.862	352.06
369.089	345.06
369.315	330.06
369.541	345.06
369.767	332.06
369.993	342.06
370.219	327.06
370.445	350.06
370.672	327.06
370.898	333.06
371.124	331.06
371.35	326.06
371.576	317.06
371.802	345.06
372.028	323.06
372.254	334.06
372.48	340.06
372.706	315.06
372.932	347.06
373.158	335.06
373.384	345.06
373.61	342.06
373.835	334.06
374.061	329.06
374.287	349.06
374.513	330.06
374.739	337.06
374.965	345.06
375.191	341.06
375.416	325.06
375.642	328.06
375.868	330.06
376.094	334.06
376.319	338.06
376.545	331.06
376.771	325.06
376.997	349.06
377.222	333.06
377.448	343.06
377.674	339.06
377.899	329.06
378.125	318.06
378.35	333.06
378.576	328.06
378.802	339.06
379.027	317.06
379.253	326.06
379.478	329.06
379.704	344.06
379.929	322.06
380.155	323.06
380.38	330.06
380.606	333.06
380.831	331.06
381.057	327.06
381.282	329.06
381.507	338.06
381.733	348.06
381.958	342.06
382.184	333.06
382.409	339.06
382.634	317.06
382.86	329.06
383.085	337.06
383.31	330.06
383.535	334.06
383.761	342.06
383.986	352.06
384.211	333.06
384.436	340.06
384.662	338.06
384.887	350.06
385.112	354.06
385.337	351.06
385.562	362.06
385.787	338.06
386.013	361.06
386.238	369.06
386.463	371.06
386.688	352.06
386.913	337.06
387.138	343.06
387.363	347.06
387.588	372.06
387.813	347.06
388.038	351.06
388.263	380.06
388.488	349.06
388.713	343.06
388.938	363.06
389.163	336.06
389.387	341.06
389.612	359.06
389.837	341.06
390.062	359.06
390.287	346.06
390.512	362.06
390.736	329.06
390.961	341.06
391.186	353.06
391.411	354.06
391.636	362.06
391.86	367.06
392.085	338.06
392.31	367.06
392.534	347.06
392.759	342.06
392.984	344.06
393.208	357.06
393.433	369.06
393.658	370.06
393.882	346.06
394.107	350.06
394.331	356.06
394.556	356.06
394.78	354.06
395.005	343.06
395.229	349.06
395.454	364.06
395.678	363.06
395.903	375.06
396.127	392.06
396.352	394.06
396.576	378.06
396.801	382.06
397.025	370.06
397.249	380.06
397.474	370.06
397.698	377.06
397.922	379.06
398.147	409.06
398.371	391.06
398.595	391.06
398.82	399.06
399.044	410.06
399.268	421.06
399.492	423.06
399.717	435.06
399.941	458.06
400.165	475.06
400.389	487.06
400.613	461.06
400.837	434.06
401.062	409.06
401.286	398.06
401.51	413.06
401.734	394.06
401.958	407.06
402.182	419.06
402.406	422.06
402.63	407.06
402.854	412.06
403.078	403.06
403.302	423.06
403.526	422.06
403.75	395.06
403.974	384.06
404.198	407.06
404.422	421.06
404.645	404.06
404.869	433.06
405.093	451.06
405.317	484.06
405.541	515.06
405.765	464.06
405.988	442.06
406.212	429.06
406.436	459.06
406.66	482.06
406.883	446.06
407.107	468.06
407.331	492.06
407.555	548.06
407.778	542.06
408.002	472.06
408.226	477.06
408.449	455.06
408.673	440.06
408.896	476.06
409.12	496.06
409.344	478.06
409.567	443.06
409.791	416.06
410.014	393.06
410.238	417.06
410.461	410.06
410.685	414.06
410.908	449.06
411.132	447.06
411.355	481.06
411.578	470.06
411.802	425.06
412.025	415.06
412.249	423.06
412.472	427.06
412.695	444.06
412.919	469.06
413.142	415.06
413.365	415.06
413.589	421.06
413.812	414.06
414.035	408.06
414.258	417.06
414.482	378.06
414.705	385.06
414.928	398.06
415.151	391.06
415.374	378.06
415.597	386.06
415.821	402.06
416.044	396.06
416.267	389.06
416.49	377.06
416.713	392.06
416.936	386.06
417.159	382.06
417.382	396.06
417.605	401.06
417.828	404.06
418.051	407.06
418.274	419.06
418.497	398.06
418.72	412.06
418.943	368.06
419.166	408.06
419.389	422.06
419.611	410.06
419.834	418.06
420.057	409.06
420.28	414.06
420.503	405.06
420.726	430.06
420.948	425.06
421.171	455.06
421.394	461.06
421.617	427.06
421.839	409.06
422.062	424.06
422.285	417.06
422.507	472.06
422.73	527.06
422.953	506.06
423.175	437.06
423.398	427.06
423.621	433.06
423.843	456.06
424.066	446.06
424.288	425.06
424.511	468.06
424.733	481.06
424.956	544.06
425.178	545.06
425.401	540.06
425.623	532.06
425.846	478.06
426.068	431.06
426.291	450.06
426.513	444.06
426.735	458.06
426.958	487.06
427.18	520.06
427.402	643.06
427.625	721.06
427.847	639.06
428.069	545.06
428.292	506.06
428.514	448.06
428.736	416.06
428.958	425.06
429.181	402.06
429.403	401.06
429.625	428.06
429.847	433.06
430.069	501.06
430.292	484.06
430.514	414.06
430.736	404.06
430.958	408.06
431.18	379.06
431.402	387.06
431.624	387.06
431.846	401.06
432.068	402.06
432.29	384.06
432.512	376.06
432.734	409.06
432.956	416.06
433.178	408.06
433.4	406.06
433.622	402.06
433.844	398.06
434.066	386.06
434.287	385.06
434.509	401.06
434.731	412.06
434.953	411.06
435.175	419.06
435.397	458.06
435.618	437.06
435.84	478.06
436.062	581.06
436.284	610.06
436.505	531.06
436.727	456.06
436.949	425.06
437.17	409.06
437.392	428.06
437.614	428.06
437.835	454.06
438.057	575.06
438.278	602.06
438.5	601.06
438.721	652.06
438.943	620.06
439.165	495.06
439.386	473.06
439.608	451.06
439.829	478.06
440.05	504.06
440.272	532.06
440.493	514.06
440.715	473.06
440.936	433.06
441.158	430.06
441.379	431.06
441.6	442.06
441.822	441.06
442.043	487.06
442.264	533.06
442.486	561.06
442.707	507.06
442.928	437.06
443.149	474.06
443.371	467.06
443.592	524.06
443.813	601.06
444.034	612.06
444.255	531.06
444.476	465.06
444.698	458.06
444.919	442.06
445.14	532.06
445.361	495.06
445.582	497.06
445.803	538.06
446.024	617.06
446.245	611.06
446.466	572.06
446.687	487.06
446.908	439.06
447.129	439.06
447.35	418.06
447.571	434.06
447.792	400.06
448.013	441.06
448.234	432.06
448.455	467.06
448.675	586.06
448.896	649.06
449.117	577.06
449.338	549.06
449.559	601.06
449.779	680.06
450	554.06
450.221	463.06
450.442	446.06
450.662	431.06
450.883	430.06
451.104	441.06
451.324	437.06
451.545	418.06
451.766	396.06
451.986	395.06
452.207	365.06
452.428	381.06
452.648	369.06
452.869	375.06
453.089	385.06
453.31	395.06
453.53	382.06
453.751	400.06
453.971	401.06
454.192	408.06
454.412	393.06
454.633	403.06
454.853	358.06
455.073	381.06
455.294	407.06
455.514	451.06
455.734	429.06
455.955	401.06
456.175	362.06
456.395	358.06
456.616	364.06
456.836	355.06
457.056	345.06
457.276	360.06
457.497	387.06
457.717	370.06
457.937	355.06
458.157	354.06
458.377	380.06
458.598	393.06
458.818	453.06
459.038	536.06
459.258	519.06
459.478	452.06
459.698	411.06
459.918	389.06
460.138	389.06
460.358	382.06
460.578	393.06
460.798	401.06
461.018	395.06
461.238	389.06
461.458	405.06
461.678	393.06
461.898	400.06
462.118	388.06
462.338	401.06
462.558	423.06
462.777	411.06
462.997	403.06
463.217	431.06
463.437	424.06
463.657	429.06
463.876	435.06
464.096	421.06
464.316	410.06
464.536	424.06
464.755	423.06
464.975	443.06
465.195	467.06
465.414	536.06
465.634	482.06
465.854	445.06
466.073	409.06
466.293	391.06
466.512	395.06
466.732	410.06
466.951	374.06
467.171	388.06
467.391	387.06
467.61	407.06
467.829	413.06
468.049	401.06
468.268	413.06
468.488	369.06
468.707	385.06
468.927	359.06
469.146	361.06
469.365	378.06
469.585	384.06
469.804	384.06
470.023	405.06
470.243	391.06
470.462	400.06
470.681	420.06
470.901	387.06
471.12	389.06
471.339	396.06
471.558	394.06
471.777	385.06
471.997	397.06
472.216	389.06
472.435	437.06
472.654	449.06
472.873	398.06
473.092	382.06
473.311	402.06
473.53	400.06
473.749	422.06
473.968	429.06
474.187	520.06
474.406	529.06
474.625	444.06
474.844	402.06
475.063	386.06
475.282	387.06
475.501	397.06
475.72	414.06
475.939	415.06
476.158	397.06
476.377	394.06
476.596	397.06
476.814	402.06
477.033	443.06
477.252	415.06
477.471	397.06
477.69	406.06
477.908	417.06
478.127	433.06
478.346	441.06
478.564	433.06
478.783	437.06
479.002	448.06
479.22	446.06
479.439	443.06
479.658	478.06
479.876	472.06
480.095	475.06
480.313	502.06
480.532	492.06
480.751	474.06
480.969	471.06
481.188	537.06
481.406	597.06
481.624	523.06
481.843	476.06
482.061	487.06
482.28	461.06
482.498	474.06
482.717	463.06
482.935	437.06
483.153	469.06
483.372	449.06
483.59	451.06
483.808	459.06
484.027	451.06
484.245	434.06
484.463	467.06
484.681	488.06
484.9	442.06
485.118	495.06
485.336	469.06
485.554	485.06
485.772	479.06
485.99	474.06
486.209	480.06
486.427	482.06
486.645	515.06
486.863	517.06
487.081	494.06
487.299	498.06
487.517	492.06
487.735	483.06
487.953	499.06
488.171	506.06
488.389	503.06
488.607	497.06
488.825	513.06
489.043	504.06
489.261	484.06
489.479	489.06
489.696	493.06
489.914	510.06
490.132	524.06
490.35	512.06
490.568	516.06
490.786	524.06
491.003	520.06
491.221	497.06
491.439	538.06
491.657	554.06
491.874	584.06
492.092	558.06
492.31	553.06
492.527	558.06
492.745	576.06
492.963	548.06
493.18	569.06
493.398	574.06
493.615	569.06
493.833	583.06
494.05	570.06
494.268	573.06
494.485	558.06
494.703	565.06
494.92	583.06
495.138	595.06
495.355	605.06
495.573	594.06
495.79	582.06
496.008	578.06
496.225	595.06
496.442	592.06
496.66	609.06
496.877	574.06
497.094	575.06
497.312	562.06
497.529	585.06
497.746	577.06
497.963	627.06
498.181	605.06
498.398	629.06
498.615	628.06
498.832	655.06
499.049	663.06
499.267	685.06
499.484	685.06
499.701	709.06
499.918	690.06
500.135	705.06
500.352	735.06
500.569	723.06
500.786	730.06
501.003	735.06
501.22	728.06
501.437	705.06
501.654	689.06
501.871	716.06
502.088	715.06
502.305	671.06
502.522	635.06
502.739	633.06
502.956	635.06
503.172	614.06
503.389	595.06
503.606	590.06
503.823	590.06
504.04	594.06
504.256	576.06
504.473	603.06
504.69	581.06
504.907	608.06
505.123	591.06
505.34	560.06
505.557	577.06
505.773	578.06
505.99	558.06
506.207	539.06
506.423	573.06
506.64	565.06
506.856	551.06
507.073	575.06
507.289	557.06
507.506	525.06
507.722	562.06
507.939	572.06
508.155	557.06
508.372	562.06
508.588	503.06
508.805	565.06
509.021	538.06
509.238	534.06
509.454	542.06
509.67	529.06
509.887	537.06
510.103	530.06
510.319	535.06
510.536	629.06
510.752	1142.06
510.968	907.06
511.184	613.06
511.401	530.06
511.617	530.06
511.833	518.06
512.049	525.06
512.265	507.06
512.481	525.06
512.698	506.06
512.914	521.06
513.13	509.06
513.346	514.06
513.562	496.06
513.778	515.06
513.994	521.06
514.21	546.06
514.426	559.06
514.642	606.06
514.858	629.06
515.074	665.06
515.29	825.06
515.506	1248.06
515.721	1009.06
515.937	681.06
516.153	593.06
516.369	565.06
516.585	558.06
516.801	559.06
517.016	527.06
517.232	513.06
517.448	519.06
517.664	526.06
517.879	521.06
518.095	537.06
518.311	509.06
518.527	521.06
518.742	511.06
518.958	534.06
519.173	537.06
519.389	528.06
519.605	526.06
519.82	545.06
520.036	537.06
520.251	578.06
520.467	577.06
520.682	599.06
520.898	581.06
521.113	613.06
521.329	658.06
521.544	757.06
521.76	973.06
521.975	1653.06
522.19	1634.06
522.406	878.06
522.621	624.06
522.836	567.06
523.052	528.06
523.267	494.06
523.482	484.06
523.698	475.06
523.913	466.06
524.128	492.06
524.343	496.06
524.559	457.06
524.774	435.06
524.989	450.06
525.204	473.06
525.419	480.06
525.634	454.06
525.849	448.06
526.064	455.06
526.28	422.06
526.495	420.06
526.71	429.06
526.925	434.06
527.14	427.06
527.355	430.06
527.57	429.06
527.785	409.06
527.999	415.06
528.214	408.06
528.429	418.06
528.644	435.06
528.859	426.06
529.074	435.06
529.289	462.06
529.503	553.06
529.718	499.06
529.933	463.06
530.148	449.06
530.363	445.06
530.577	414.06
530.792	419.06
531.007	429.06
531.221	437.06
531.436	407.06
531.651	391.06
531.865	403.06
532.08	393.06
532.295	408.06
532.509	402.06
532.724	415.06
532.938	410.06
533.153	411.06
533.367	402.06
533.582	396.06
533.796	403.06
534.011	400.06
534.225	402.06
534.44	399.06
534.654	395.06
534.868	400.06
535.083	402.06
535.297	413.06
535.511	405.06
535.726	397.06
535.94	407.06
536.154	400.06
536.369	399.06
536.583	390.06
536.797	396.06
537.011	396.06
537.225	371.06
537.44	389.06
537.654	417.06
537.868	384.06
538.082	385.06
538.296	394.06
538.51	393.06
538.724	379.06
538.938	399.06
539.153	383.06
539.367	417.06
539.581	398.06
539.795	409.06
540.009	389.06
540.222	409.06
540.436	375.06
540.65	374.06
540.864	393.06
541.078	391.06
541.292	379.06
541.506	392.06
541.72	358.06
541.934	377.06
542.147	383.06
542.361	354.06
542.575	377.06
542.789	366.06
543.002	381.06
543.216	374.06
543.43	389.06
543.644	379.06
543.857	372.06
544.071	375.06
544.285	382.06
544.498	381.06
544.712	374.06
544.925	371.06
545.139	381.06
545.352	359.06
545.566	359.06
545.779	361.06
545.993	382.06
546.206	375.06
546.42	380.06
546.633	377.06
546.847	369.06
547.06	360.06
547.274	356.06
547.487	361.06
547.7	358.06
547.914	361.06
548.127	346.06
548.34	358.06
548.554	354.06
548.767	375.06
548.98	372.06
549.193	374.06
549.407	359.06
549.62	357.06
549.833	348.06
550.046	350.06
550.259	361.06
550.473	347.06
550.686	363.06
550.899	353.06
551.112	365.06
551.325	374.06
551.538	349.06
551.751	345.06
551.964	358.06
552.177	366.06
552.39	345.06
552.603	361.06
552.816	378.06
553.029	361.06
553.242	359.06
553.455	353.06
553.667	357.06
553.88	396.06
554.093	363.06
554.306	352.06
554.519	367.06
554.732	366.06
554.944	334.06
555.157	338.06
555.37	343.06
555.583	349.06
555.795	348.06
556.008	339.06
556.221	350.06
556.433	328.06
556.646	333.06
556.859	328.06
557.071	338.06
557.284	309.06
557.496	313.06
557.709	325.06
557.921	327.06
558.134	314.06
558.346	306.06
558.559	313.06
558.771	309.06
558.984	328.06
559.196	307.06
559.409	325.06
559.621	319.06
559.833	311.06
560.046	323.06
560.258	285.06
560.47	333.06
560.683	322.06
560.895	331.06
561.107	316.06
561.32	298.06
561.532	303.06
561.744	325.06
561.956	339.06
562.168	309.06
562.381	316.06
562.593	331.06
562.805	327.06
563.017	323.06
563.229	320.06
563.441	312.06
563.653	319.06
563.865	326.06
564.077	317.06
564.289	334.06
564.501	337.06
564.713	334.06
564.925	332.06
565.137	351.06
565.349	354.06
565.561	325.06
565.773	321.06
565.985	349.06
566.197	351.06
566.408	337.06
566.62	338.06
566.832	365.06
567.044	389.06
567.255	384.06
567.467	375.06
567.679	372.06
567.891	396.06
568.102	386.06
568.314	383.06
568.526	355.06
568.737	339.06
568.949	325.06
569.161	338.06
569.372	349.06
569.584	336.06
569.795	324.06
570.007	313.06
570.218	370.06
570.43	370.06
570.641	327.06
570.853	320.06
571.064	300.06
571.276	309.06
571.487	309.06
571.698	312.06
571.91	309.06
572.121	293.06
572.333	285.06
572.544	287.06
572.755	293.06
572.966	285.06
573.178	275.06
573.389	304.06
573.6	270.06
573.811	298.06
574.023	299.06
574.234	278.06
574.445	286.06
574.656	285.06
574.867	282.06
575.078	285.06
575.289	289.06
575.501	266.06
575.712	268.06
575.923	269.06
576.134	268.06
576.345	273.06
576.556	275.06
576.767	267.06
576.978	273.06
577.188	272.06
577.399	246.06
577.61	277.06
577.821	265.06
578.032	288.06
578.243	306.06
578.454	539.06
578.665	397.06
578.875	294.06
579.086	275.06
579.297	291.06
579.508	274.06
579.718	275.06
579.929	273.06
580.14	259.06
580.35	269.06
580.561	269.06
580.772	265.06
580.982	241.06
581.193	276.06
581.403	264.06
581.614	257.06
581.825	276.06
582.035	255.06
582.246	266.06
582.456	254.06
582.667	257.06
582.877	270.06
583.087	247.06
583.298	235.06
583.508	261.06
583.719	238.06
583.929	242.06
584.139	251.06
584.35	263.06
584.56	242.06
584.77	251.06
584.981	245.06
585.191	247.06
585.401	242.06
585.611	243.06
585.821	259.06
586.032	255.06
586.242	248.06
586.452	249.06
586.662	249.06
586.872	251.06
587.082	230.06
587.292	237.06
587.502	250.06
587.713	244.06
587.923	264.06
588.133	210.06
588.343	245.06
588.553	240.06
588.762	232.06
588.972	243.06
589.182	305.06
589.392	302.06
589.602	262.06
589.812	286.06
590.022	267.06
590.232	235.06
590.441	250.06
590.651	232.06
590.861	242.06
591.071	249.06
591.281	240.06
591.49	240.06
591.7	249.06
591.91	227.06
592.119	241.06
592.329	250.06
592.539	249.06
592.748	241.06
592.958	251.06
593.167	242.06
593.377	241.06
593.587	252.06
593.796	247.06
594.006	252.06
594.215	228.06
594.424	249.06
594.634	251.06
594.843	216.06
595.053	245.06
595.262	248.06
595.472	225.06
595.681	237.06
595.89	232.06
596.1	240.06
596.309	241.06
596.518	237.06
596.727	214.06
596.937	219.06
597.146	233.06
597.355	216.06
597.564	235.06
597.774	235.06
597.983	234.06
598.192	224.06
598.401	256.06
598.61	215.06
598.819	228.06
599.028	232.06
599.237	226.06
599.446	217.06
599.655	221.06
599.864	230.06
600.073	211.06
600.282	211.06
600.491	228.06
600.7	219.06
600.909	232.06
601.118	221.06
601.327	213.06
601.536	208.06
601.745	226.06
601.953	214.06
602.162	216.06
602.371	207.06
602.58	200.06
602.789	211.06
602.997	187.06
603.206	207.06
603.415	206.06
603.623	206.06
603.832	206.06
604.041	213.06
604.249	201.06
604.458	208.06
604.666	199.06
604.875	200.06
605.084	198.06
605.292	216.06
605.501	207.06
605.709	205.06
605.918	203.06
606.126	188.06
606.334	187.06
606.543	204.06
606.751	206.06
606.96	215.06
607.168	209.06
607.376	169.06
607.585	201.06
607.793	191.06
608.001	191.06
608.21	206.06
608.418	198.06
608.626	192.06
608.834	197.06
609.043	195.06
609.251	201.06
609.459	191.06
609.667	183.06
609.875	202.06
610.083	208.06
610.291	223.06
610.499	199.06
610.707	225.06
610.916	191.06
611.124	212.06
611.332	200.06
611.54	202.06
611.748	212.06
611.955	206.06
612.163	205.06
612.371	210.06
612.579	202.06
612.787	187.06
612.995	202.06
613.203	190.06
613.411	211.06
613.618	202.06
613.826	192.06
614.034	195.06
614.242	197.06
614.449	191.06
614.657	199.06
614.865	203.06
615.072	196.06
615.28	202.06
615.488	198.06
615.695	183.06
615.903	199.06
616.111	194.06
616.318	208.06
616.526	203.06
616.733	200.06
616.941	186.06
617.148	190.06
617.356	185.06
617.563	191.06
617.771	214.06
617.978	189.06
618.185	197.06
618.393	194.06
618.6	211.06
618.807	194.06
619.015	199.06
619.222	186.06
619.429	193.06
619.637	182.06
619.844	204.06
620.051	202.06
620.258	191.06
620.466	189.06
620.673	191.06
620.88	192.06
621.087	188.06
621.294	175.06
621.501	185.06
621.708	191.06
621.915	181.06
622.122	187.06
622.329	196.06
622.536	199.06
622.743	191.06
622.95	194.06
623.157	169.06
623.364	175.06
623.571	194.06
623.778	191.06
623.985	190.06
624.192	175.06
624.399	196.06
624.606	169.06
624.812	174.06
625.019	186.06
625.226	191.06
625.433	190.06
625.639	182.06
625.846	206.06
626.053	187.06
626.259	187.06
626.466	186.06
626.673	192.06
626.879	178.06
627.086	161.06
627.293	194.06
627.499	176.06
627.706	193.06
627.912	158.06
628.119	165.06
628.325	175.06
628.532	177.06
628.738	177.06
628.945	168.06
629.151	161.06
629.357	171.06
629.564	162.06
629.77	167.06
629.976	163.06
630.183	185.06
630.389	157.06
630.595	166.06
630.802	168.06
631.008	165.06
631.214	171.06
631.42	178.06
631.627	185.06
631.833	159.06
632.039	170.06
632.245	163.06
632.451	168.06
632.657	176.06
632.863	161.06
633.069	174.06
633.275	166.06
633.481	158.06
633.688	153.06
633.893	162.06
634.099	173.06
634.305	183.06
634.511	163.06
634.717	154.06
634.923	151.06
635.129	169.06
635.335	170.06
635.541	161.06
635.747	154.06
635.952	163.06
636.158	162.06
636.364	164.06
636.57	156.06
636.775	157.06
636.981	160.06
637.187	154.06
637.392	165.06
637.598	151.06
637.804	160.06
638.009	151.06
638.215	151.06
638.421	170.06
638.626	171.06
638.832	164.06
639.037	162.06
639.243	160.06
639.448	171.06
639.654	159.06
639.859	161.06
640.065	169.06
640.27	182.06
640.475	166.06
640.681	158.06
640.886	146.06
641.091	161.06
641.297	152.06
641.502	147.06
641.707	155.06
641.913	153.06
642.118	159.06
642.323	133.06
642.528	142.06
642.733	171.06
642.939	151.06
643.144	150.06
643.349	149.06
643.554	153.06
643.759	157.06
643.964	160.06
644.169	163.06
644.374	159.06
644.579	140.06
644.784	154.06
644.989	165.06
645.194	149.06
645.399	143.06
645.604	138.06
645.809	153.06
646.014	133.06
646.219	134.06
646.423	156.06
646.628	153.06
646.833	144.06
647.038	151.06
647.243	154.06
647.447	135.06
647.652	157.06
647.857	145.06
648.062	157.06
648.266	141.06
648.471	160.06
648.676	145.06
648.88	149.06
649.085	156.06
649.289	155.06
649.494	151.06
649.698	182.06
649.903	158.06
650.107	154.06
650.312	157.06
650.516	156.06
650.721	150.06
650.925	149.06
651.13	140.06
651.334	139.06
651.539	117.06
651.743	130.06
651.947	135.06
652.152	129.06
652.356	134.06
652.56	143.06
652.764	143.06
652.969	130.06
653.173	135.06
653.377	127.06
653.581	130.06
653.785	127.06
653.99	136.06
654.194	134.06
654.398	142.06
654.602	122.06
654.806	141.06
655.01	137.06
655.214	133.06
655.418	137.06
655.622	136.06
655.826	132.06
656.03	133.06
656.234	118.06
656.438	129.06
656.642	140.06
656.846	129.06
657.049	119.06
657.253	129.06
657.457	114.06
657.661	119.06
657.865	111.06
658.068	113.06
658.272	108.06
658.476	111.06
658.68	106.06
658.883	111.06
659.087	107.06
659.291	95.06
659.494	98.06
659.698	99.06
659.901	98.06
660.105	106.06
660.309	86.06
660.512	93.06
660.716	84.06
660.919	92.06
661.123	104.06
661.326	98.06
661.53	87.06
661.733	89.06
661.936	96.06
662.14	89.06
662.343	84.06
662.546	81.06
662.75	84.06
662.953	96.06
663.156	90.06
663.36	85.06
663.563	89.06
663.766	79.06
663.969	85.06
664.173	73.06
664.376	91.06
664.579	89.06
664.782	88.06
664.985	92.06
665.188	80.06
665.391	83.06
665.594	94.06
665.797	83.06
666	86.06
666.203	88.06
666.406	86.06
666.609	86.06
666.812	83.06
667.015	95.06
667.218	93.06
667.421	70.06
667.624	69.06
667.827	90.06
668.03	89.06
668.232	88.06
668.435	90.06
668.638	81.06
668.841	85.06
669.043	85.06
669.246	101.06
669.449	82.06
669.651	78.06
669.854	94.06
670.057	101.06
670.259	77.06
670.462	82.06
670.665	77.06
670.867	88.06
671.07	99.06
671.272	89.06
671.475	76.06
671.677	75.06
671.88	98.06
672.082	82.06
672.284	86.06
672.487	84.06
672.689	95.06
672.892	83.06
