Data from 1965.PennyLincolnUp.Lamp.En5.5.200Scan.071719.P1._HRD10591_14-07-57-911.txt Node
Date: Thu Jul 18 14:07:57 EDT 2019
User: cochatt
Spectrometer: HR+D1059
Trigger mode: 1
Integration Time (sec): 1.000000E-1
Scans to average: 1
Electric dark correction enabled: true
Nonlinearity correction enabled: false
Boxcar width: 0
XAxis mode: Wavelengths
Number of Pixels in Spectrum: 2048
>>>>>Begin Spectral Data<<<<<
223.165	-9.12
223.4	-9.12
223.635	-9.12
223.869	-12.12
224.104	-13.12
224.338	-10.12
224.573	-13.12
224.808	-21.12
225.042	-10.12
225.277	-17.12
225.511	10.88
225.746	6.88
225.98	9.88
226.215	7.88
226.449	6.88
226.683	16.88
226.918	11.88
227.152	34.88
227.387	32.88
227.621	41.88
227.856	42.88
228.09	39.88
228.324	43.88
228.559	57.88
228.793	65.88
229.027	92.88
229.262	89.88
229.496	92.88
229.73	115.88
229.964	138.88
230.199	131.88
230.433	114.88
230.667	111.88
230.901	104.88
231.136	102.88
231.37	91.88
231.604	93.88
231.838	97.88
232.072	98.88
232.306	102.88
232.541	98.88
232.775	111.88
233.009	99.88
233.243	110.88
233.477	115.88
233.711	100.88
233.945	95.88
234.179	110.88
234.413	103.88
234.647	108.88
234.881	93.88
235.115	112.88
235.349	105.88
235.583	116.88
235.817	123.88
236.051	103.88
236.285	96.88
236.519	102.88
236.753	114.88
236.987	124.88
237.221	152.88
237.455	194.88
237.689	148.88
237.922	111.88
238.156	118.88
238.39	120.88
238.624	119.88
238.858	120.88
239.091	109.88
239.325	103.88
239.559	105.88
239.793	123.88
240.027	120.88
240.26	123.88
240.494	121.88
240.728	132.88
240.961	126.88
241.195	135.88
241.429	116.88
241.662	114.88
241.896	113.88
242.13	115.88
242.363	97.88
242.597	109.88
242.83	119.88
243.064	110.88
243.298	124.88
243.531	135.88
243.765	126.88
243.998	116.88
244.232	116.88
244.465	118.88
244.699	118.88
244.932	131.88
245.166	118.88
245.399	122.88
245.633	115.88
245.866	134.88
246.099	124.88
246.333	117.88
246.566	132.88
246.8	135.88
247.033	126.88
247.266	122.88
247.5	149.88
247.733	134.88
247.966	148.88
248.2	129.88
248.433	137.88
248.666	143.88
248.899	168.88
249.133	154.88
249.366	186.88
249.599	142.88
249.832	146.88
250.066	147.88
250.299	156.88
250.532	151.88
250.765	169.88
250.998	172.88
251.231	178.88
251.465	169.88
251.698	170.88
251.931	175.88
252.164	172.88
252.397	152.88
252.63	164.88
252.863	168.88
253.096	168.88
253.329	183.88
253.562	165.88
253.795	189.88
254.028	186.88
254.261	166.88
254.494	184.88
254.727	207.88
254.96	205.88
255.193	191.88
255.426	193.88
255.659	188.88
255.892	188.88
256.124	166.88
256.357	185.88
256.59	166.88
256.823	180.88
257.056	164.88
257.289	161.88
257.521	180.88
257.754	154.88
257.987	180.88
258.22	181.88
258.452	182.88
258.685	168.88
258.918	162.88
259.151	168.88
259.383	168.88
259.616	177.88
259.849	181.88
260.081	184.88
260.314	174.88
260.547	194.88
260.779	195.88
261.012	191.88
261.244	191.88
261.477	185.88
261.71	165.88
261.942	184.88
262.175	182.88
262.407	190.88
262.64	174.88
262.872	165.88
263.105	160.88
263.337	167.88
263.57	178.88
263.802	168.88
264.035	171.88
264.267	170.88
264.499	186.88
264.732	154.88
264.964	175.88
265.197	166.88
265.429	185.88
265.661	174.88
265.894	160.88
266.126	175.88
266.358	178.88
266.591	166.88
266.823	170.88
267.055	181.88
267.287	169.88
267.52	179.88
267.752	184.88
267.984	174.88
268.216	198.88
268.448	192.88
268.681	195.88
268.913	179.88
269.145	206.88
269.377	223.88
269.609	202.88
269.841	207.88
270.073	214.88
270.306	214.88
270.538	221.88
270.77	240.88
271.002	215.88
271.234	204.88
271.466	228.88
271.698	244.88
271.93	247.88
272.162	250.88
272.394	244.88
272.626	233.88
272.858	219.88
273.09	215.88
273.322	193.88
273.553	199.88
273.785	185.88
274.017	223.88
274.249	229.88
274.481	213.88
274.713	213.88
274.945	203.88
275.176	198.88
275.408	206.88
275.64	194.88
275.872	206.88
276.104	203.88
276.335	213.88
276.567	214.88
276.799	222.88
277.031	239.88
277.262	249.88
277.494	238.88
277.726	227.88
277.957	234.88
278.189	207.88
278.421	217.88
278.652	191.88
278.884	207.88
279.115	215.88
279.347	207.88
279.579	219.88
279.81	223.88
280.042	197.88
280.273	200.88
280.505	213.88
280.736	192.88
280.968	198.88
281.199	212.88
281.431	203.88
281.662	205.88
281.894	208.88
282.125	215.88
282.356	208.88
282.588	226.88
282.819	229.88
283.051	213.88
283.282	198.88
283.513	218.88
283.745	195.88
283.976	222.88
284.207	216.88
284.439	204.88
284.67	215.88
284.901	210.88
285.132	211.88
285.364	205.88
285.595	223.88
285.826	210.88
286.057	200.88
286.288	224.88
286.52	216.88
286.751	203.88
286.982	208.88
287.213	206.88
287.444	211.88
287.675	233.88
287.906	235.88
288.138	235.88
288.369	223.88
288.6	258.88
288.831	256.88
289.062	213.88
289.293	222.88
289.524	221.88
289.755	216.88
289.986	231.88
290.217	231.88
290.448	223.88
290.679	217.88
290.91	215.88
291.141	214.88
291.371	248.88
291.602	224.88
291.833	212.88
292.064	216.88
292.295	236.88
292.526	227.88
292.757	231.88
292.987	228.88
293.218	238.88
293.449	223.88
293.68	211.88
293.91	229.88
294.141	227.88
294.372	224.88
294.603	221.88
294.833	230.88
295.064	217.88
295.295	228.88
295.525	213.88
295.756	233.88
295.987	255.88
296.217	251.88
296.448	259.88
296.679	233.88
296.909	230.88
297.14	215.88
297.37	237.88
297.601	228.88
297.831	228.88
298.062	232.88
298.292	227.88
298.523	231.88
298.753	243.88
298.984	239.88
299.214	237.88
299.445	241.88
299.675	262.88
299.905	243.88
300.136	250.88
300.366	226.88
300.597	239.88
300.827	245.88
301.057	256.88
301.288	245.88
301.518	237.88
301.748	261.88
301.979	236.88
302.209	267.88
302.439	248.88
302.669	256.88
302.9	239.88
303.13	252.88
303.36	258.88
303.59	269.88
303.82	244.88
304.051	255.88
304.281	245.88
304.511	238.88
304.741	251.88
304.971	262.88
305.201	254.88
305.431	262.88
305.661	250.88
305.891	255.88
306.121	240.88
306.352	236.88
306.582	260.88
306.812	236.88
307.042	262.88
307.272	251.88
307.502	251.88
307.731	260.88
307.961	254.88
308.191	245.88
308.421	270.88
308.651	249.88
308.881	253.88
309.111	262.88
309.341	256.88
309.571	258.88
309.8	269.88
310.03	276.88
310.26	280.88
310.49	275.88
310.72	292.88
310.949	303.88
311.179	317.88
311.409	291.88
311.639	281.88
311.868	279.88
312.098	299.88
312.328	303.88
312.557	295.88
312.787	329.88
313.017	314.88
313.246	300.88
313.476	282.88
313.706	292.88
313.935	283.88
314.165	293.88
314.394	317.88
314.624	312.88
314.853	295.88
315.083	296.88
315.312	282.88
315.542	301.88
315.771	286.88
316.001	271.88
316.23	272.88
316.46	286.88
316.689	293.88
316.919	293.88
317.148	299.88
317.377	295.88
317.607	281.88
317.836	303.88
318.065	296.88
318.295	277.88
318.524	293.88
318.753	272.88
318.983	286.88
319.212	299.88
319.441	304.88
319.67	308.88
319.9	312.88
320.129	296.88
320.358	303.88
320.587	297.88
320.816	303.88
321.046	310.88
321.275	314.88
321.504	313.88
321.733	323.88
321.962	322.88
322.191	334.88
322.42	328.88
322.649	340.88
322.878	344.88
323.108	367.88
323.337	357.88
323.566	374.88
323.795	408.88
324.024	450.88
324.253	521.88
324.482	756.88
324.71	1116.88
324.939	1534.88
325.168	1296.88
325.397	695.88
325.626	468.88
325.855	415.88
326.084	399.88
326.313	382.88
326.542	384.88
326.77	421.88
326.999	492.88
327.228	684.88
327.457	1008.88
327.686	1166.88
327.914	770.88
328.143	541.88
328.372	480.88
328.6	434.88
328.829	436.88
329.058	436.88
329.287	446.88
329.515	413.88
329.744	383.88
329.972	378.88
330.201	389.88
330.43	440.88
330.658	446.88
330.887	443.88
331.115	454.88
331.344	394.88
331.572	383.88
331.801	374.88
332.03	378.88
332.258	352.88
332.486	344.88
332.715	333.88
332.943	328.88
333.172	351.88
333.4	343.88
333.629	351.88
333.857	351.88
334.085	394.88
334.314	382.88
334.542	407.88
334.771	386.88
334.999	390.88
335.227	342.88
335.455	352.88
335.684	352.88
335.912	335.88
336.14	335.88
336.369	336.88
336.597	331.88
336.825	345.88
337.053	316.88
337.281	348.88
337.51	343.88
337.738	340.88
337.966	351.88
338.194	336.88
338.422	337.88
338.65	334.88
338.878	332.88
339.106	331.88
339.334	330.88
339.562	328.88
339.79	338.88
340.018	332.88
340.246	328.88
340.474	347.88
340.702	331.88
340.93	318.88
341.158	329.88
341.386	323.88
341.614	327.88
341.842	319.88
342.07	310.88
342.298	340.88
342.526	314.88
342.754	306.88
342.981	330.88
343.209	313.88
343.437	332.88
343.665	318.88
343.893	335.88
344.12	347.88
344.348	315.88
344.576	335.88
344.804	330.88
345.031	345.88
345.259	364.88
345.487	333.88
345.714	336.88
345.942	338.88
346.17	339.88
346.397	328.88
346.625	324.88
346.853	323.88
347.08	338.88
347.308	336.88
347.535	334.88
347.763	343.88
347.99	328.88
348.218	313.88
348.445	339.88
348.673	333.88
348.9	335.88
349.128	315.88
349.355	313.88
349.583	331.88
349.81	318.88
350.037	318.88
350.265	318.88
350.492	336.88
350.72	300.88
350.947	296.88
351.174	336.88
351.402	318.88
351.629	301.88
351.856	339.88
352.083	340.88
352.311	328.88
352.538	309.88
352.765	322.88
352.992	323.88
353.22	329.88
353.447	327.88
353.674	322.88
353.901	328.88
354.128	295.88
354.355	300.88
354.583	302.88
354.81	302.88
355.037	299.88
355.264	299.88
355.491	299.88
355.718	285.88
355.945	293.88
356.172	292.88
356.399	313.88
356.626	295.88
356.853	304.88
357.08	308.88
357.307	293.88
357.534	282.88
357.761	310.88
357.988	308.88
358.215	293.88
358.441	286.88
358.668	314.88
358.895	326.88
359.122	322.88
359.349	315.88
359.576	333.88
359.802	333.88
360.029	365.88
360.256	356.88
360.483	340.88
360.709	338.88
360.936	327.88
361.163	327.88
361.39	336.88
361.616	326.88
361.843	316.88
362.07	316.88
362.296	317.88
362.523	314.88
362.749	323.88
362.976	319.88
363.203	319.88
363.429	322.88
363.656	326.88
363.882	312.88
364.109	340.88
364.335	307.88
364.562	306.88
364.788	302.88
365.015	310.88
365.241	302.88
365.468	321.88
365.694	318.88
365.92	323.88
366.147	316.88
366.373	309.88
366.599	311.88
366.826	307.88
367.052	313.88
367.278	301.88
367.505	325.88
367.731	307.88
367.957	301.88
368.184	320.88
368.41	317.88
368.636	334.88
368.862	317.88
369.089	314.88
369.315	309.88
369.541	327.88
369.767	301.88
369.993	345.88
370.219	323.88
370.445	305.88
370.672	314.88
370.898	301.88
371.124	294.88
371.35	313.88
371.576	319.88
371.802	315.88
372.028	306.88
372.254	300.88
372.48	309.88
372.706	315.88
372.932	294.88
373.158	310.88
373.384	306.88
373.61	331.88
373.835	317.88
374.061	318.88
374.287	319.88
374.513	303.88
374.739	310.88
374.965	324.88
375.191	314.88
375.416	310.88
375.642	313.88
375.868	325.88
376.094	309.88
376.319	323.88
376.545	311.88
376.771	320.88
376.997	313.88
377.222	319.88
377.448	310.88
377.674	302.88
377.899	308.88
378.125	301.88
378.35	301.88
378.576	306.88
378.802	290.88
379.027	322.88
379.253	327.88
379.478	288.88
379.704	304.88
379.929	311.88
380.155	300.88
380.38	310.88
380.606	312.88
380.831	317.88
381.057	336.88
381.282	302.88
381.507	307.88
381.733	327.88
381.958	325.88
382.184	314.88
382.409	324.88
382.634	323.88
382.86	319.88
383.085	303.88
383.31	324.88
383.535	320.88
383.761	316.88
383.986	304.88
384.211	330.88
384.436	311.88
384.662	327.88
384.887	342.88
385.112	332.88
385.337	326.88
385.562	324.88
385.787	356.88
386.013	350.88
386.238	345.88
386.463	349.88
386.688	332.88
386.913	326.88
387.138	338.88
387.363	324.88
387.588	340.88
387.813	338.88
388.038	329.88
388.263	339.88
388.488	354.88
388.713	331.88
388.938	328.88
389.163	344.88
389.387	342.88
389.612	345.88
389.837	325.88
390.062	340.88
390.287	329.88
390.512	351.88
390.736	342.88
390.961	334.88
391.186	336.88
391.411	340.88
391.636	330.88
391.86	342.88
392.085	349.88
392.31	333.88
392.534	356.88
392.759	347.88
392.984	343.88
393.208	340.88
393.433	340.88
393.658	341.88
393.882	348.88
394.107	347.88
394.331	315.88
394.556	350.88
394.78	340.88
395.005	341.88
395.229	333.88
395.454	347.88
395.678	346.88
395.903	351.88
396.127	362.88
396.352	372.88
396.576	353.88
396.801	340.88
397.025	339.88
397.249	338.88
397.474	355.88
397.698	368.88
397.922	371.88
398.147	376.88
398.371	373.88
398.595	380.88
398.82	389.88
399.044	393.88
399.268	391.88
399.492	407.88
399.717	432.88
399.941	437.88
400.165	436.88
400.389	459.88
400.613	436.88
400.837	404.88
401.062	383.88
401.286	382.88
401.51	384.88
401.734	387.88
401.958	387.88
402.182	358.88
402.406	386.88
402.63	384.88
402.854	372.88
403.078	387.88
403.302	382.88
403.526	384.88
403.75	403.88
403.974	385.88
404.198	381.88
404.422	390.88
404.645	391.88
404.869	392.88
405.093	420.88
405.317	429.88
405.541	474.88
405.765	422.88
405.988	427.88
406.212	434.88
406.436	419.88
406.66	431.88
406.883	419.88
407.107	439.88
407.331	467.88
407.555	503.88
407.778	490.88
408.002	468.88
408.226	444.88
408.449	408.88
408.673	418.88
408.896	441.88
409.12	475.88
409.344	444.88
409.567	410.88
409.791	375.88
410.014	405.88
410.238	413.88
410.461	411.88
410.685	378.88
410.908	415.88
411.132	442.88
411.355	456.88
411.578	426.88
411.802	390.88
412.025	384.88
412.249	390.88
412.472	415.88
412.695	429.88
412.919	413.88
413.142	396.88
413.365	370.88
413.589	388.88
413.812	380.88
414.035	371.88
414.258	371.88
414.482	374.88
414.705	389.88
414.928	377.88
415.151	387.88
415.374	353.88
415.597	378.88
415.821	344.88
416.044	364.88
416.267	359.88
416.49	386.88
416.713	379.88
416.936	372.88
417.159	375.88
417.382	345.88
417.605	372.88
417.828	376.88
418.051	389.88
418.274	388.88
418.497	375.88
418.72	369.88
418.943	379.88
419.166	372.88
419.389	399.88
419.611	378.88
419.834	375.88
420.057	402.88
420.28	386.88
420.503	379.88
420.726	392.88
420.948	385.88
421.171	412.88
421.394	443.88
421.617	399.88
421.839	384.88
422.062	363.88
422.285	398.88
422.507	438.88
422.73	478.88
422.953	463.88
423.175	430.88
423.398	393.88
423.621	401.88
423.843	420.88
424.066	402.88
424.288	415.88
424.511	417.88
424.733	474.88
424.956	508.88
425.178	494.88
425.401	486.88
425.623	496.88
425.846	443.88
426.068	427.88
426.291	413.88
426.513	404.88
426.735	426.88
426.958	434.88
427.18	515.88
427.402	600.88
427.625	666.88
427.847	563.88
428.069	492.88
428.292	432.88
428.514	407.88
428.736	400.88
428.958	392.88
429.181	394.88
429.403	383.88
429.625	384.88
429.847	411.88
430.069	470.88
430.292	459.88
430.514	395.88
430.736	396.88
430.958	394.88
431.18	366.88
431.402	371.88
431.624	368.88
431.846	361.88
432.068	375.88
432.29	386.88
432.512	379.88
432.734	374.88
432.956	380.88
433.178	406.88
433.4	384.88
433.622	386.88
433.844	365.88
434.066	372.88
434.287	386.88
434.509	372.88
434.731	379.88
434.953	380.88
435.175	378.88
435.397	410.88
435.618	412.88
435.84	458.88
436.062	514.88
436.284	562.88
436.505	447.88
436.727	418.88
436.949	408.88
437.17	379.88
437.392	386.88
437.614	408.88
437.835	439.88
438.057	488.88
438.278	556.88
438.5	567.88
438.721	610.88
438.943	575.88
439.165	466.88
439.386	431.88
439.608	411.88
439.829	426.88
440.05	446.88
440.272	450.88
440.493	451.88
440.715	409.88
440.936	396.88
441.158	404.88
441.379	399.88
441.6	407.88
441.822	417.88
442.043	440.88
442.264	522.88
442.486	546.88
442.707	463.88
442.928	413.88
443.149	426.88
443.371	423.88
443.592	480.88
443.813	534.88
444.034	580.88
444.255	464.88
444.476	434.88
444.698	427.88
444.919	420.88
445.14	502.88
445.361	458.88
445.582	444.88
445.803	500.88
446.024	556.88
446.245	591.88
446.466	514.88
446.687	445.88
446.908	419.88
447.129	386.88
447.35	400.88
447.571	387.88
447.792	383.88
448.013	385.88
448.234	408.88
448.455	434.88
448.675	542.88
448.896	586.88
449.117	520.88
449.338	483.88
449.559	566.88
449.779	622.88
450	493.88
450.221	425.88
450.442	395.88
450.662	399.88
450.883	397.88
451.104	387.88
451.324	392.88
451.545	364.88
451.766	362.88
451.986	361.88
452.207	355.88
452.428	355.88
452.648	355.88
452.869	354.88
453.089	343.88
453.31	386.88
453.53	352.88
453.751	344.88
453.971	353.88
454.192	386.88
454.412	376.88
454.633	332.88
454.853	328.88
455.073	340.88
455.294	372.88
455.514	412.88
455.734	410.88
455.955	355.88
456.175	334.88
456.395	332.88
456.616	328.88
456.836	357.88
457.056	317.88
457.276	337.88
457.497	331.88
457.717	344.88
457.937	329.88
458.157	326.88
458.377	346.88
458.598	342.88
458.818	407.88
459.038	471.88
459.258	462.88
459.478	389.88
459.698	375.88
459.918	382.88
460.138	368.88
460.358	386.88
460.578	358.88
460.798	380.88
461.018	386.88
461.238	386.88
461.458	377.88
461.678	382.88
461.898	392.88
462.118	402.88
462.338	392.88
462.558	382.88
462.777	387.88
462.997	383.88
463.217	398.88
463.437	398.88
463.657	400.88
463.876	409.88
464.096	392.88
464.316	386.88
464.536	407.88
464.755	397.88
464.975	415.88
465.195	425.88
465.414	479.88
465.634	408.88
465.854	406.88
466.073	379.88
466.293	372.88
466.512	380.88
466.732	380.88
466.951	373.88
467.171	366.88
467.391	385.88
467.61	390.88
467.829	370.88
468.049	374.88
468.268	351.88
468.488	347.88
468.707	365.88
468.927	351.88
469.146	348.88
469.365	353.88
469.585	354.88
469.804	365.88
470.023	360.88
470.243	378.88
470.462	375.88
470.681	405.88
470.901	386.88
471.12	381.88
471.339	364.88
471.558	353.88
471.777	354.88
471.997	362.88
472.216	381.88
472.435	386.88
472.654	381.88
472.873	372.88
473.092	366.88
473.311	367.88
473.53	356.88
473.749	373.88
473.968	405.88
474.187	486.88
474.406	486.88
474.625	410.88
474.844	387.88
475.063	376.88
475.282	376.88
475.501	383.88
475.72	392.88
475.939	385.88
476.158	369.88
476.377	398.88
476.596	380.88
476.814	372.88
477.033	392.88
477.252	398.88
477.471	396.88
477.69	391.88
477.908	395.88
478.127	400.88
478.346	389.88
478.564	398.88
478.783	394.88
479.002	401.88
479.22	422.88
479.439	428.88
479.658	433.88
479.876	452.88
480.095	432.88
480.313	454.88
480.532	451.88
480.751	450.88
480.969	466.88
481.188	509.88
481.406	524.88
481.624	472.88
481.843	450.88
482.061	445.88
482.28	450.88
482.498	440.88
482.717	454.88
482.935	420.88
483.153	438.88
483.372	416.88
483.59	428.88
483.808	437.88
484.027	438.88
484.245	425.88
484.463	442.88
484.681	454.88
484.9	464.88
485.118	447.88
485.336	457.88
485.554	444.88
485.772	447.88
485.99	448.88
486.209	448.88
486.427	442.88
486.645	483.88
486.863	453.88
487.081	476.88
487.299	470.88
487.517	455.88
487.735	464.88
487.953	480.88
488.171	496.88
488.389	471.88
488.607	451.88
488.825	465.88
489.043	455.88
489.261	491.88
489.479	459.88
489.696	464.88
489.914	470.88
490.132	477.88
490.35	484.88
490.568	491.88
490.786	483.88
491.003	506.88
491.221	514.88
491.439	495.88
491.657	518.88
491.874	504.88
492.092	507.88
492.31	516.88
492.527	523.88
492.745	494.88
492.963	530.88
493.18	498.88
493.398	527.88
493.615	544.88
493.833	521.88
494.05	500.88
494.268	521.88
494.485	532.88
494.703	544.88
494.92	536.88
495.138	542.88
495.355	546.88
495.573	542.88
495.79	528.88
496.008	542.88
496.225	558.88
496.442	545.88
496.66	551.88
496.877	542.88
497.094	552.88
497.312	556.88
497.529	563.88
497.746	562.88
497.963	551.88
498.181	578.88
498.398	572.88
498.615	563.88
498.832	609.88
499.049	577.88
499.267	605.88
499.484	624.88
499.701	655.88
499.918	664.88
500.135	682.88
500.352	700.88
500.569	703.88
500.786	718.88
501.003	710.88
501.22	695.88
501.437	664.88
501.654	652.88
501.871	658.88
502.088	646.88
502.305	634.88
502.522	588.88
502.739	580.88
502.956	571.88
503.172	574.88
503.389	586.88
503.606	590.88
503.823	534.88
504.04	553.88
504.256	553.88
504.473	518.88
504.69	548.88
504.907	514.88
505.123	555.88
505.34	526.88
505.557	522.88
505.773	520.88
505.99	504.88
506.207	512.88
506.423	523.88
506.64	516.88
506.856	514.88
507.073	510.88
507.289	528.88
507.506	502.88
507.722	516.88
507.939	545.88
508.155	513.88
508.372	496.88
508.588	498.88
508.805	502.88
509.021	475.88
509.238	489.88
509.454	520.88
509.67	490.88
509.887	504.88
510.103	492.88
510.319	510.88
510.536	594.88
510.752	970.88
510.968	755.88
511.184	512.88
511.401	477.88
511.617	470.88
511.833	469.88
512.049	489.88
512.265	458.88
512.481	477.88
512.698	464.88
512.914	456.88
513.13	476.88
513.346	463.88
513.562	474.88
513.778	490.88
513.994	461.88
514.21	464.88
514.426	530.88
514.642	520.88
514.858	560.88
515.074	574.88
515.29	698.88
515.506	1026.88
515.721	852.88
515.937	574.88
516.153	532.88
516.369	520.88
516.585	495.88
516.801	502.88
517.016	491.88
517.232	475.88
517.448	476.88
517.664	496.88
517.879	478.88
518.095	480.88
518.311	469.88
518.527	471.88
518.742	487.88
518.958	463.88
519.173	476.88
519.389	465.88
519.605	449.88
519.82	470.88
520.036	491.88
520.251	503.88
520.467	491.88
520.682	505.88
520.898	522.88
521.113	530.88
521.329	568.88
521.544	636.88
521.76	824.88
521.975	1322.88
522.19	1300.88
522.406	714.88
522.621	540.88
522.836	462.88
523.052	452.88
523.267	461.88
523.482	474.88
523.698	448.88
523.913	463.88
524.128	438.88
524.343	443.88
524.559	439.88
524.774	434.88
524.989	426.88
525.204	423.88
525.419	414.88
525.634	424.88
525.849	409.88
526.064	397.88
526.28	404.88
526.495	402.88
526.71	399.88
526.925	403.88
527.14	402.88
527.355	387.88
527.57	398.88
527.785	400.88
527.999	386.88
528.214	395.88
528.429	392.88
528.644	398.88
528.859	406.88
529.074	384.88
529.289	402.88
529.503	464.88
529.718	463.88
529.933	416.88
530.148	406.88
530.363	410.88
530.577	414.88
530.792	377.88
531.007	396.88
531.221	389.88
531.436	396.88
531.651	372.88
531.865	379.88
532.08	379.88
532.295	384.88
532.509	363.88
532.724	355.88
532.938	375.88
533.153	372.88
533.367	388.88
533.582	386.88
533.796	366.88
534.011	361.88
534.225	370.88
534.44	374.88
534.654	374.88
534.868	375.88
535.083	379.88
535.297	364.88
535.511	370.88
535.726	392.88
535.94	358.88
536.154	365.88
536.369	354.88
536.583	347.88
536.797	375.88
537.011	378.88
537.225	357.88
537.44	366.88
537.654	370.88
537.868	351.88
538.082	340.88
538.296	359.88
538.51	365.88
538.724	391.88
538.938	357.88
539.153	382.88
539.367	382.88
539.581	375.88
539.795	366.88
540.009	366.88
540.222	344.88
540.436	380.88
540.65	355.88
540.864	358.88
541.078	359.88
541.292	367.88
541.506	358.88
541.72	342.88
541.934	381.88
542.147	333.88
542.361	365.88
542.575	343.88
542.789	362.88
543.002	359.88
543.216	358.88
543.43	355.88
543.644	367.88
543.857	357.88
544.071	329.88
544.285	369.88
544.498	349.88
544.712	360.88
544.925	355.88
545.139	333.88
545.352	331.88
545.566	320.88
545.779	349.88
545.993	345.88
546.206	339.88
546.42	348.88
546.633	358.88
546.847	349.88
547.06	338.88
547.274	351.88
547.487	328.88
547.7	337.88
547.914	361.88
548.127	348.88
548.34	351.88
548.554	326.88
548.767	344.88
548.98	343.88
549.193	345.88
549.407	332.88
549.62	336.88
549.833	326.88
550.046	323.88
550.259	342.88
550.473	314.88
550.686	343.88
550.899	340.88
551.112	333.88
551.325	342.88
551.538	328.88
551.751	338.88
551.964	334.88
552.177	324.88
552.39	334.88
552.603	344.88
552.816	361.88
553.029	347.88
553.242	353.88
553.455	355.88
553.667	335.88
553.88	353.88
554.093	346.88
554.306	351.88
554.519	336.88
554.732	347.88
554.944	329.88
555.157	324.88
555.37	317.88
555.583	318.88
555.795	305.88
556.008	330.88
556.221	316.88
556.433	332.88
556.646	323.88
556.859	322.88
557.071	319.88
557.284	326.88
557.496	312.88
557.709	302.88
557.921	302.88
558.134	298.88
558.346	303.88
558.559	323.88
558.771	322.88
558.984	324.88
559.196	300.88
559.409	305.88
559.621	300.88
559.833	303.88
560.046	306.88
560.258	314.88
560.47	308.88
560.683	306.88
560.895	341.88
561.107	306.88
561.32	299.88
561.532	295.88
561.744	304.88
561.956	300.88
562.168	285.88
562.381	306.88
562.593	308.88
562.805	318.88
563.017	289.88
563.229	302.88
563.441	301.88
563.653	301.88
563.865	297.88
564.077	317.88
564.289	308.88
564.501	319.88
564.713	314.88
564.925	318.88
565.137	341.88
565.349	330.88
565.561	333.88
565.773	348.88
565.985	326.88
566.197	329.88
566.408	338.88
566.62	365.88
566.832	332.88
567.044	346.88
567.255	354.88
567.467	368.88
567.679	372.88
567.891	367.88
568.102	359.88
568.314	340.88
568.526	373.88
568.737	330.88
568.949	332.88
569.161	323.88
569.372	330.88
569.584	292.88
569.795	308.88
570.007	317.88
570.218	343.88
570.43	321.88
570.641	306.88
570.853	310.88
571.064	308.88
571.276	306.88
571.487	299.88
571.698	303.88
571.91	295.88
572.121	290.88
572.333	278.88
572.544	290.88
572.755	281.88
572.966	296.88
573.178	295.88
573.389	268.88
573.6	280.88
573.811	277.88
574.023	272.88
574.234	273.88
574.445	260.88
574.656	252.88
574.867	254.88
575.078	280.88
575.289	259.88
575.501	273.88
575.712	262.88
575.923	269.88
576.134	262.88
576.345	255.88
576.556	261.88
576.767	269.88
576.978	250.88
577.188	268.88
577.399	268.88
577.61	275.88
577.821	246.88
578.032	254.88
578.243	277.88
578.454	465.88
578.665	349.88
578.875	268.88
579.086	254.88
579.297	239.88
579.508	248.88
579.718	248.88
579.929	244.88
580.14	251.88
580.35	249.88
580.561	248.88
580.772	245.88
580.982	260.88
581.193	246.88
581.403	254.88
581.614	252.88
581.825	229.88
582.035	248.88
582.246	224.88
582.456	246.88
582.667	249.88
582.877	236.88
583.087	244.88
583.298	245.88
583.508	258.88
583.719	235.88
583.929	239.88
584.139	236.88
584.35	256.88
584.56	243.88
584.77	242.88
584.981	225.88
585.191	242.88
585.401	230.88
585.611	235.88
585.821	258.88
586.032	238.88
586.242	243.88
586.452	224.88
586.662	235.88
586.872	227.88
587.082	237.88
587.292	234.88
587.502	250.88
587.713	237.88
587.923	232.88
588.133	227.88
588.343	237.88
588.553	240.88
588.762	243.88
588.972	247.88
589.182	341.88
589.392	331.88
589.602	263.88
589.812	330.88
590.022	290.88
590.232	230.88
590.441	240.88
590.651	240.88
590.861	233.88
591.071	234.88
591.281	238.88
591.49	235.88
591.7	215.88
591.91	233.88
592.119	229.88
592.329	247.88
592.539	220.88
592.748	228.88
592.958	245.88
593.167	245.88
593.377	237.88
593.587	258.88
593.796	240.88
594.006	254.88
594.215	249.88
594.424	239.88
594.634	258.88
594.843	230.88
595.053	246.88
595.262	222.88
595.472	228.88
595.681	234.88
595.89	214.88
596.1	220.88
596.309	230.88
596.518	215.88
596.727	229.88
596.937	229.88
597.146	209.88
597.355	228.88
597.564	229.88
597.774	215.88
597.983	220.88
598.192	216.88
598.401	213.88
598.61	205.88
598.819	211.88
599.028	206.88
599.237	216.88
599.446	200.88
599.655	224.88
599.864	208.88
600.073	208.88
600.282	220.88
600.491	214.88
600.7	219.88
600.909	206.88
601.118	208.88
601.327	209.88
601.536	199.88
601.745	209.88
601.953	207.88
602.162	203.88
602.371	190.88
602.58	205.88
602.789	215.88
602.997	199.88
603.206	207.88
603.415	198.88
603.623	198.88
603.832	186.88
604.041	208.88
604.249	199.88
604.458	199.88
604.666	210.88
604.875	215.88
605.084	186.88
605.292	192.88
605.501	190.88
605.709	201.88
605.918	206.88
606.126	216.88
606.334	207.88
606.543	202.88
606.751	188.88
606.96	197.88
607.168	208.88
607.376	204.88
607.585	189.88
607.793	209.88
608.001	197.88
608.21	190.88
608.418	203.88
608.626	180.88
608.834	195.88
609.043	205.88
609.251	191.88
609.459	191.88
609.667	184.88
609.875	191.88
610.083	194.88
610.291	194.88
610.499	195.88
610.707	178.88
610.916	198.88
611.124	190.88
611.332	197.88
611.54	199.88
611.748	208.88
611.955	204.88
612.163	198.88
612.371	206.88
612.579	204.88
612.787	181.88
612.995	199.88
613.203	221.88
613.411	206.88
613.618	192.88
613.826	197.88
614.034	206.88
614.242	205.88
614.449	192.88
614.657	183.88
614.865	174.88
615.072	198.88
615.28	192.88
615.488	174.88
615.695	181.88
615.903	194.88
616.111	192.88
616.318	191.88
616.526	183.88
616.733	204.88
616.941	188.88
617.148	203.88
617.356	202.88
617.563	182.88
617.771	216.88
617.978	212.88
618.185	182.88
618.393	200.88
618.6	195.88
618.807	198.88
619.015	202.88
619.222	186.88
619.429	190.88
619.637	193.88
619.844	186.88
620.051	182.88
620.258	204.88
620.466	176.88
620.673	181.88
620.88	182.88
621.087	199.88
621.294	198.88
621.501	178.88
621.708	186.88
621.915	184.88
622.122	157.88
622.329	176.88
622.536	187.88
622.743	196.88
622.95	192.88
623.157	189.88
623.364	198.88
623.571	183.88
623.778	178.88
623.985	200.88
624.192	186.88
624.399	171.88
624.606	178.88
624.812	174.88
625.019	177.88
625.226	184.88
625.433	170.88
625.639	165.88
625.846	150.88
626.053	175.88
626.259	159.88
626.466	175.88
626.673	174.88
626.879	184.88
627.086	175.88
627.293	179.88
627.499	159.88
627.706	172.88
627.912	149.88
628.119	164.88
628.325	167.88
628.532	162.88
628.738	160.88
628.945	167.88
629.151	176.88
629.357	155.88
629.564	172.88
629.77	157.88
629.976	164.88
630.183	168.88
630.389	159.88
630.595	178.88
630.802	165.88
631.008	169.88
631.214	167.88
631.42	167.88
631.627	183.88
631.833	171.88
632.039	175.88
632.245	169.88
632.451	158.88
632.657	171.88
632.863	154.88
633.069	151.88
633.275	159.88
633.481	150.88
633.688	168.88
633.893	175.88
634.099	165.88
634.305	160.88
634.511	156.88
634.717	167.88
634.923	152.88
635.129	154.88
635.335	152.88
635.541	168.88
635.747	153.88
635.952	150.88
636.158	172.88
636.364	164.88
636.57	148.88
636.775	158.88
636.981	166.88
637.187	182.88
637.392	152.88
637.598	138.88
637.804	156.88
638.009	154.88
638.215	160.88
638.421	157.88
638.626	139.88
638.832	152.88
639.037	148.88
639.243	153.88
639.448	135.88
639.654	156.88
639.859	149.88
640.065	144.88
640.27	153.88
640.475	150.88
640.681	147.88
640.886	148.88
641.091	148.88
641.297	160.88
641.502	142.88
641.707	136.88
641.913	152.88
642.118	145.88
642.323	140.88
642.528	138.88
642.733	146.88
642.939	150.88
643.144	145.88
643.349	141.88
643.554	149.88
643.759	143.88
643.964	132.88
644.169	149.88
644.374	146.88
644.579	141.88
644.784	148.88
644.989	146.88
645.194	148.88
645.399	159.88
645.604	146.88
645.809	158.88
646.014	146.88
646.219	150.88
646.423	140.88
646.628	131.88
646.833	156.88
647.038	154.88
647.243	143.88
647.447	143.88
647.652	164.88
647.857	148.88
648.062	140.88
648.266	131.88
648.471	144.88
648.676	141.88
648.88	158.88
649.085	153.88
649.289	131.88
649.494	150.88
649.698	166.88
649.903	167.88
650.107	142.88
650.312	150.88
650.516	142.88
650.721	134.88
650.925	149.88
651.13	144.88
651.334	132.88
651.539	134.88
651.743	129.88
651.947	136.88
652.152	137.88
652.356	143.88
652.56	140.88
652.764	137.88
652.969	118.88
653.173	127.88
653.377	126.88
653.581	139.88
653.785	127.88
653.99	131.88
654.194	128.88
654.398	118.88
654.602	130.88
654.806	126.88
655.01	136.88
655.214	120.88
655.418	131.88
655.622	128.88
655.826	116.88
656.03	146.88
656.234	128.88
656.438	135.88
656.642	125.88
656.846	141.88
657.049	127.88
657.253	121.88
657.457	125.88
657.661	114.88
657.865	117.88
658.068	109.88
658.272	107.88
658.476	98.88
658.68	106.88
658.883	109.88
659.087	109.88
659.291	96.88
659.494	90.88
659.698	104.88
659.901	103.88
660.105	102.88
660.309	81.88
660.512	89.88
660.716	92.88
660.919	68.88
661.123	96.88
661.326	86.88
661.53	90.88
661.733	99.88
661.936	86.88
662.14	92.88
662.343	88.88
662.546	86.88
662.75	74.88
662.953	88.88
663.156	74.88
663.36	96.88
663.563	84.88
663.766	94.88
663.969	80.88
664.173	76.88
664.376	76.88
664.579	85.88
664.782	84.88
664.985	82.88
665.188	86.88
665.391	90.88
665.594	79.88
665.797	69.88
666	73.88
666.203	88.88
666.406	67.88
666.609	74.88
666.812	96.88
667.015	87.88
667.218	92.88
667.421	85.88
667.624	89.88
667.827	79.88
668.03	76.88
668.232	80.88
668.435	74.88
668.638	73.88
668.841	87.88
669.043	100.88
669.246	85.88
669.449	76.88
669.651	85.88
669.854	87.88
670.057	89.88
670.259	86.88
670.462	91.88
670.665	70.88
670.867	94.88
671.07	79.88
671.272	92.88
671.475	86.88
671.677	96.88
671.88	88.88
672.082	90.88
672.284	92.88
672.487	75.88
672.689	82.88
672.892	84.88
