Data from 1965.PennyLincolnUp.Lamp.En5.5.200Scan.071719.P1._HRD10591_14-08-51-911.txt Node
Date: Thu Jul 18 14:08:51 EDT 2019
User: cochatt
Spectrometer: HR+D1059
Trigger mode: 1
Integration Time (sec): 1.000000E-1
Scans to average: 1
Electric dark correction enabled: true
Nonlinearity correction enabled: false
Boxcar width: 0
XAxis mode: Wavelengths
Number of Pixels in Spectrum: 2048
>>>>>Begin Spectral Data<<<<<
223.165	-7.62
223.4	-7.62
223.635	-7.62
223.869	1.38
224.104	-18.62
224.338	-18.62
224.573	-19.62
224.808	-13.62
225.042	-13.62
225.277	-8.62
225.511	-1.62
225.746	-2.62
225.98	12.38
226.215	19.38
226.449	1.38
226.683	9.38
226.918	29.38
227.152	31.38
227.387	35.38
227.621	33.38
227.856	44.38
228.09	44.38
228.324	38.38
228.559	73.38
228.793	48.38
229.027	98.38
229.262	101.38
229.496	109.38
229.73	119.38
229.964	132.38
230.199	134.38
230.433	105.38
230.667	106.38
230.901	103.38
231.136	106.38
231.37	103.38
231.604	89.38
231.838	107.38
232.072	89.38
232.306	100.38
232.541	87.38
232.775	99.38
233.009	106.38
233.243	99.38
233.477	101.38
233.711	102.38
233.945	98.38
234.179	97.38
234.413	103.38
234.647	112.38
234.881	97.38
235.115	107.38
235.349	107.38
235.583	105.38
235.817	101.38
236.051	110.38
236.285	112.38
236.519	94.38
236.753	105.38
236.987	132.38
237.221	138.38
237.455	183.38
237.689	156.38
237.922	143.38
238.156	117.38
238.39	117.38
238.624	116.38
238.858	99.38
239.091	108.38
239.325	113.38
239.559	112.38
239.793	117.38
240.027	120.38
240.26	113.38
240.494	142.38
240.728	143.38
240.961	124.38
241.195	120.38
241.429	112.38
241.662	125.38
241.896	111.38
242.13	120.38
242.363	126.38
242.597	118.38
242.83	131.38
243.064	113.38
243.298	109.38
243.531	121.38
243.765	122.38
243.998	134.38
244.232	116.38
244.465	130.38
244.699	119.38
244.932	123.38
245.166	128.38
245.399	120.38
245.633	132.38
245.866	137.38
246.099	130.38
246.333	123.38
246.566	120.38
246.8	137.38
247.033	145.38
247.266	143.38
247.5	125.38
247.733	148.38
247.966	131.38
248.2	155.38
248.433	120.38
248.666	130.38
248.899	157.38
249.133	177.38
249.366	170.38
249.599	166.38
249.832	169.38
250.066	177.38
250.299	162.38
250.532	167.38
250.765	180.38
250.998	167.38
251.231	192.38
251.465	185.38
251.698	179.38
251.931	182.38
252.164	149.38
252.397	174.38
252.63	158.38
252.863	172.38
253.096	176.38
253.329	186.38
253.562	184.38
253.795	174.38
254.028	182.38
254.261	179.38
254.494	196.38
254.727	212.38
254.96	234.38
255.193	227.38
255.426	218.38
255.659	216.38
255.892	199.38
256.124	192.38
256.357	193.38
256.59	198.38
256.823	183.38
257.056	176.38
257.289	181.38
257.521	170.38
257.754	180.38
257.987	174.38
258.22	174.38
258.452	190.38
258.685	190.38
258.918	170.38
259.151	178.38
259.383	185.38
259.616	189.38
259.849	193.38
260.081	199.38
260.314	214.38
260.547	217.38
260.779	210.38
261.012	208.38
261.244	185.38
261.477	200.38
261.71	197.38
261.942	194.38
262.175	209.38
262.407	191.38
262.64	187.38
262.872	177.38
263.105	188.38
263.337	196.38
263.57	183.38
263.802	181.38
264.035	187.38
264.267	174.38
264.499	176.38
264.732	194.38
264.964	188.38
265.197	180.38
265.429	180.38
265.661	187.38
265.894	189.38
266.126	177.38
266.358	190.38
266.591	184.38
266.823	188.38
267.055	204.38
267.287	204.38
267.52	166.38
267.752	190.38
267.984	188.38
268.216	172.38
268.448	189.38
268.681	192.38
268.913	208.38
269.145	213.38
269.377	211.38
269.609	233.38
269.841	235.38
270.073	232.38
270.306	237.38
270.538	255.38
270.77	250.38
271.002	243.38
271.234	245.38
271.466	252.38
271.698	274.38
271.93	264.38
272.162	258.38
272.394	249.38
272.626	265.38
272.858	247.38
273.09	232.38
273.322	243.38
273.553	200.38
273.785	220.38
274.017	240.38
274.249	231.38
274.481	215.38
274.713	219.38
274.945	226.38
275.176	229.38
275.408	222.38
275.64	237.38
275.872	217.38
276.104	233.38
276.335	227.38
276.567	216.38
276.799	247.38
277.031	249.38
277.262	263.38
277.494	265.38
277.726	277.38
277.957	244.38
278.189	236.38
278.421	237.38
278.652	232.38
278.884	219.38
279.115	221.38
279.347	241.38
279.579	226.38
279.81	225.38
280.042	200.38
280.273	211.38
280.505	226.38
280.736	218.38
280.968	211.38
281.199	240.38
281.431	216.38
281.662	223.38
281.894	226.38
282.125	216.38
282.356	246.38
282.588	250.38
282.819	244.38
283.051	221.38
283.282	220.38
283.513	220.38
283.745	205.38
283.976	232.38
284.207	225.38
284.439	230.38
284.67	248.38
284.901	225.38
285.132	225.38
285.364	226.38
285.595	245.38
285.826	226.38
286.057	233.38
286.288	237.38
286.52	233.38
286.751	220.38
286.982	225.38
287.213	227.38
287.444	242.38
287.675	240.38
287.906	230.38
288.138	224.38
288.369	235.38
288.6	236.38
288.831	254.38
289.062	245.38
289.293	260.38
289.524	236.38
289.755	233.38
289.986	229.38
290.217	241.38
290.448	245.38
290.679	241.38
290.91	215.38
291.141	241.38
291.371	222.38
291.602	235.38
291.833	217.38
292.064	219.38
292.295	238.38
292.526	248.38
292.757	244.38
292.987	249.38
293.218	249.38
293.449	232.38
293.68	244.38
293.91	240.38
294.141	245.38
294.372	226.38
294.603	248.38
294.833	227.38
295.064	224.38
295.295	235.38
295.525	245.38
295.756	262.38
295.987	264.38
296.217	269.38
296.448	270.38
296.679	234.38
296.909	251.38
297.14	232.38
297.37	272.38
297.601	232.38
297.831	257.38
298.062	229.38
298.292	233.38
298.523	240.38
298.753	229.38
298.984	237.38
299.214	238.38
299.445	248.38
299.675	257.38
299.905	263.38
300.136	263.38
300.366	261.38
300.597	269.38
300.827	277.38
301.057	270.38
301.288	253.38
301.518	264.38
301.748	266.38
301.979	271.38
302.209	276.38
302.439	277.38
302.669	263.38
302.9	262.38
303.13	253.38
303.36	259.38
303.59	270.38
303.82	269.38
304.051	285.38
304.281	266.38
304.511	269.38
304.741	267.38
304.971	274.38
305.201	266.38
305.431	263.38
305.661	290.38
305.891	274.38
306.121	265.38
306.352	252.38
306.582	276.38
306.812	273.38
307.042	268.38
307.272	268.38
307.502	270.38
307.731	257.38
307.961	256.38
308.191	269.38
308.421	249.38
308.651	285.38
308.881	287.38
309.111	278.38
309.341	274.38
309.571	298.38
309.8	306.38
310.03	286.38
310.26	308.38
310.49	304.38
310.72	314.38
310.949	336.38
311.179	348.38
311.409	324.38
311.639	316.38
311.868	311.38
312.098	322.38
312.328	314.38
312.557	339.38
312.787	325.38
313.017	356.38
313.246	326.38
313.476	309.38
313.706	317.38
313.935	318.38
314.165	343.38
314.394	340.38
314.624	324.38
314.853	346.38
315.083	327.38
315.312	315.38
315.542	321.38
315.771	312.38
316.001	326.38
316.23	325.38
316.46	322.38
316.689	313.38
316.919	327.38
317.148	329.38
317.377	325.38
317.607	331.38
317.836	327.38
318.065	332.38
318.295	324.38
318.524	312.38
318.753	316.38
318.983	321.38
319.212	321.38
319.441	345.38
319.67	322.38
319.9	317.38
320.129	340.38
320.358	319.38
320.587	306.38
320.816	335.38
321.046	326.38
321.275	330.38
321.504	344.38
321.733	338.38
321.962	347.38
322.191	356.38
322.42	368.38
322.649	362.38
322.878	394.38
323.108	405.38
323.337	411.38
323.566	437.38
323.795	460.38
324.024	506.38
324.253	636.38
324.482	903.38
324.71	1365.38
324.939	1849.38
325.168	1575.38
325.397	858.38
325.626	572.38
325.855	500.38
326.084	458.38
326.313	446.38
326.542	454.38
326.77	483.38
326.999	574.38
327.228	797.38
327.457	1186.38
327.686	1386.38
327.914	944.38
328.143	602.38
328.372	578.38
328.6	562.38
328.829	495.38
329.058	493.38
329.287	522.38
329.515	484.38
329.744	459.38
329.972	438.38
330.201	457.38
330.43	491.38
330.658	496.38
330.887	534.38
331.115	525.38
331.344	440.38
331.572	409.38
331.801	404.38
332.03	411.38
332.258	411.38
332.486	404.38
332.715	379.38
332.943	377.38
333.172	366.38
333.4	380.38
333.629	406.38
333.857	396.38
334.085	403.38
334.314	418.38
334.542	468.38
334.771	463.38
334.999	412.38
335.227	402.38
335.455	376.38
335.684	382.38
335.912	376.38
336.14	370.38
336.369	371.38
336.597	380.38
336.825	372.38
337.053	362.38
337.281	340.38
337.51	350.38
337.738	361.38
337.966	358.38
338.194	371.38
338.422	375.38
338.65	356.38
338.878	356.38
339.106	342.38
339.334	375.38
339.562	356.38
339.79	347.38
340.018	358.38
340.246	349.38
340.474	355.38
340.702	363.38
340.93	351.38
341.158	361.38
341.386	359.38
341.614	350.38
341.842	353.38
342.07	349.38
342.298	341.38
342.526	339.38
342.754	336.38
342.981	337.38
343.209	340.38
343.437	355.38
343.665	332.38
343.893	357.38
344.12	348.38
344.348	370.38
344.576	371.38
344.804	364.38
345.031	350.38
345.259	389.38
345.487	358.38
345.714	359.38
345.942	338.38
346.17	350.38
346.397	354.38
346.625	355.38
346.853	348.38
347.08	332.38
347.308	346.38
347.535	366.38
347.763	370.38
347.99	362.38
348.218	351.38
348.445	352.38
348.673	351.38
348.9	338.38
349.128	338.38
349.355	321.38
349.583	339.38
349.81	346.38
350.037	344.38
350.265	326.38
350.492	346.38
350.72	345.38
350.947	334.38
351.174	360.38
351.402	362.38
351.629	347.38
351.856	353.38
352.083	340.38
352.311	366.38
352.538	376.38
352.765	368.38
352.992	376.38
353.22	346.38
353.447	347.38
353.674	352.38
353.901	321.38
354.128	333.38
354.355	325.38
354.583	321.38
354.81	333.38
355.037	325.38
355.264	309.38
355.491	323.38
355.718	306.38
355.945	317.38
356.172	320.38
356.399	332.38
356.626	314.38
356.853	316.38
357.08	329.38
357.307	341.38
357.534	309.38
357.761	320.38
357.988	310.38
358.215	305.38
358.441	321.38
358.668	332.38
358.895	315.38
359.122	328.38
359.349	317.38
359.576	349.38
359.802	364.38
360.029	386.38
360.256	390.38
360.483	370.38
360.709	359.38
360.936	349.38
361.163	321.38
361.39	357.38
361.616	336.38
361.843	342.38
362.07	349.38
362.296	343.38
362.523	334.38
362.749	333.38
362.976	338.38
363.203	338.38
363.429	341.38
363.656	343.38
363.882	338.38
364.109	328.38
364.335	322.38
364.562	342.38
364.788	324.38
365.015	347.38
365.241	321.38
365.468	332.38
365.694	350.38
365.92	350.38
366.147	328.38
366.373	332.38
366.599	319.38
366.826	316.38
367.052	321.38
367.278	320.38
367.505	322.38
367.731	352.38
367.957	329.38
368.184	318.38
368.41	329.38
368.636	331.38
368.862	339.38
369.089	341.38
369.315	337.38
369.541	329.38
369.767	342.38
369.993	327.38
370.219	329.38
370.445	331.38
370.672	333.38
370.898	330.38
371.124	322.38
371.35	322.38
371.576	314.38
371.802	320.38
372.028	325.38
372.254	314.38
372.48	301.38
372.706	300.38
372.932	330.38
373.158	323.38
373.384	325.38
373.61	330.38
373.835	318.38
374.061	321.38
374.287	323.38
374.513	342.38
374.739	315.38
374.965	329.38
375.191	337.38
375.416	331.38
375.642	334.38
375.868	340.38
376.094	330.38
376.319	316.38
376.545	327.38
376.771	328.38
376.997	320.38
377.222	321.38
377.448	313.38
377.674	311.38
377.899	317.38
378.125	298.38
378.35	310.38
378.576	307.38
378.802	328.38
379.027	316.38
379.253	318.38
379.478	323.38
379.704	325.38
379.929	331.38
380.155	312.38
380.38	320.38
380.606	320.38
380.831	316.38
381.057	333.38
381.282	318.38
381.507	322.38
381.733	322.38
381.958	325.38
382.184	317.38
382.409	317.38
382.634	316.38
382.86	341.38
383.085	323.38
383.31	325.38
383.535	334.38
383.761	342.38
383.986	331.38
384.211	344.38
384.436	341.38
384.662	335.38
384.887	343.38
385.112	307.38
385.337	344.38
385.562	337.38
385.787	348.38
386.013	353.38
386.238	349.38
386.463	346.38
386.688	346.38
386.913	352.38
387.138	334.38
387.363	332.38
387.588	349.38
387.813	334.38
388.038	336.38
388.263	330.38
388.488	337.38
388.713	339.38
388.938	341.38
389.163	362.38
389.387	338.38
389.612	336.38
389.837	337.38
390.062	341.38
390.287	332.38
390.512	330.38
390.736	341.38
390.961	345.38
391.186	326.38
391.411	346.38
391.636	339.38
391.86	355.38
392.085	350.38
392.31	342.38
392.534	360.38
392.759	364.38
392.984	338.38
393.208	374.38
393.433	370.38
393.658	347.38
393.882	356.38
394.107	341.38
394.331	329.38
394.556	346.38
394.78	354.38
395.005	350.38
395.229	339.38
395.454	346.38
395.678	349.38
395.903	348.38
396.127	372.38
396.352	373.38
396.576	350.38
396.801	361.38
397.025	346.38
397.249	348.38
397.474	365.38
397.698	369.38
397.922	371.38
398.147	377.38
398.371	392.38
398.595	386.38
398.82	383.38
399.044	379.38
399.268	405.38
399.492	416.38
399.717	422.38
399.941	460.38
400.165	458.38
400.389	514.38
400.613	456.38
400.837	417.38
401.062	420.38
401.286	418.38
401.51	389.38
401.734	387.38
401.958	389.38
402.182	384.38
402.406	396.38
402.63	396.38
402.854	391.38
403.078	388.38
403.302	406.38
403.526	424.38
403.75	420.38
403.974	413.38
404.198	404.38
404.422	401.38
404.645	426.38
404.869	417.38
405.093	441.38
405.317	460.38
405.541	491.38
405.765	459.38
405.988	426.38
406.212	436.38
406.436	475.38
406.66	470.38
406.883	436.38
407.107	458.38
407.331	472.38
407.555	534.38
407.778	518.38
408.002	498.38
408.226	459.38
408.449	420.38
408.673	440.38
408.896	442.38
409.12	479.38
409.344	480.38
409.567	449.38
409.791	404.38
410.014	424.38
410.238	398.38
410.461	405.38
410.685	403.38
410.908	415.38
411.132	418.38
411.355	455.38
411.578	472.38
411.802	415.38
412.025	399.38
412.249	433.38
412.472	438.38
412.695	460.38
412.919	432.38
413.142	429.38
413.365	392.38
413.589	385.38
413.812	393.38
414.035	380.38
414.258	374.38
414.482	372.38
414.705	381.38
414.928	392.38
415.151	382.38
415.374	384.38
415.597	382.38
415.821	380.38
416.044	375.38
416.267	395.38
416.49	375.38
416.713	372.38
416.936	378.38
417.159	374.38
417.382	393.38
417.605	382.38
417.828	378.38
418.051	410.38
418.274	399.38
418.497	368.38
418.72	392.38
418.943	388.38
419.166	399.38
419.389	398.38
419.611	410.38
419.834	402.38
420.057	414.38
420.28	396.38
420.503	401.38
420.726	379.38
420.948	416.38
421.171	446.38
421.394	464.38
421.617	416.38
421.839	404.38
422.062	392.38
422.285	419.38
422.507	451.38
422.73	503.38
422.953	492.38
423.175	422.38
423.398	420.38
423.621	427.38
423.843	419.38
424.066	419.38
424.288	422.38
424.511	449.38
424.733	487.38
424.956	544.38
425.178	536.38
425.401	534.38
425.623	551.38
425.846	473.38
426.068	444.38
426.291	433.38
426.513	440.38
426.735	454.38
426.958	493.38
427.18	542.38
427.402	643.38
427.625	698.38
427.847	629.38
428.069	545.38
428.292	490.38
428.514	446.38
428.736	402.38
428.958	427.38
429.181	403.38
429.403	421.38
429.625	412.38
429.847	448.38
430.069	497.38
430.292	490.38
430.514	418.38
430.736	395.38
430.958	417.38
431.18	391.38
431.402	393.38
431.624	380.38
431.846	390.38
432.068	367.38
432.29	398.38
432.512	402.38
432.734	389.38
432.956	367.38
433.178	380.38
433.4	380.38
433.622	387.38
433.844	389.38
434.066	392.38
434.287	382.38
434.509	383.38
434.731	389.38
434.953	401.38
435.175	409.38
435.397	454.38
435.618	466.38
435.84	492.38
436.062	554.38
436.284	556.38
436.505	480.38
436.727	473.38
436.949	433.38
437.17	402.38
437.392	411.38
437.614	428.38
437.835	446.38
438.057	558.38
438.278	601.38
438.5	584.38
438.721	626.38
438.943	598.38
439.165	513.38
439.386	468.38
439.608	470.38
439.829	461.38
440.05	475.38
440.272	510.38
440.493	479.38
440.715	448.38
440.936	416.38
441.158	435.38
441.379	394.38
441.6	410.38
441.822	421.38
442.043	471.38
442.264	533.38
442.486	575.38
442.707	489.38
442.928	462.38
443.149	458.38
443.371	491.38
443.592	516.38
443.813	573.38
444.034	613.38
444.255	489.38
444.476	445.38
444.698	436.38
444.919	440.38
445.14	532.38
445.361	484.38
445.582	471.38
445.803	526.38
446.024	597.38
446.245	613.38
446.466	542.38
446.687	477.38
446.908	476.38
447.129	419.38
447.35	412.38
447.571	423.38
447.792	386.38
448.013	392.38
448.234	439.38
448.455	470.38
448.675	576.38
448.896	614.38
449.117	538.38
449.338	536.38
449.559	598.38
449.779	650.38
450	532.38
450.221	465.38
450.442	425.38
450.662	407.38
450.883	433.38
451.104	430.38
451.324	419.38
451.545	397.38
451.766	377.38
451.986	383.38
452.207	353.38
452.428	362.38
452.648	382.38
452.869	378.38
453.089	381.38
453.31	383.38
453.53	386.38
453.751	373.38
453.971	371.38
454.192	388.38
454.412	403.38
454.633	379.38
454.853	360.38
455.073	353.38
455.294	391.38
455.514	452.38
455.734	422.38
455.955	372.38
456.175	363.38
456.395	364.38
456.616	363.38
456.836	344.38
457.056	364.38
457.276	358.38
457.497	353.38
457.717	360.38
457.937	371.38
458.157	369.38
458.377	365.38
458.598	388.38
458.818	436.38
459.038	508.38
459.258	498.38
459.478	423.38
459.698	393.38
459.918	377.38
460.138	376.38
460.358	391.38
460.578	362.38
460.798	394.38
461.018	380.38
461.238	384.38
461.458	402.38
461.678	396.38
461.898	397.38
462.118	404.38
462.338	408.38
462.558	395.38
462.777	395.38
462.997	407.38
463.217	407.38
463.437	404.38
463.657	432.38
463.876	404.38
464.096	421.38
464.316	398.38
464.536	419.38
464.755	421.38
464.975	415.38
465.195	456.38
465.414	521.38
465.634	464.38
465.854	426.38
466.073	408.38
466.293	389.38
466.512	370.38
466.732	380.38
466.951	337.38
467.171	380.38
467.391	353.38
467.61	396.38
467.829	386.38
468.049	383.38
468.268	390.38
468.488	362.38
468.707	362.38
468.927	356.38
469.146	365.38
469.365	356.38
469.585	366.38
469.804	398.38
470.023	369.38
470.243	420.38
470.462	396.38
470.681	405.38
470.901	398.38
471.12	376.38
471.339	378.38
471.558	381.38
471.777	389.38
471.997	376.38
472.216	407.38
472.435	425.38
472.654	427.38
472.873	390.38
473.092	395.38
473.311	392.38
473.53	364.38
473.749	392.38
473.968	441.38
474.187	512.38
474.406	511.38
474.625	427.38
474.844	402.38
475.063	396.38
475.282	382.38
475.501	395.38
475.72	410.38
475.939	392.38
476.158	411.38
476.377	409.38
476.596	404.38
476.814	413.38
477.033	419.38
477.252	431.38
477.471	412.38
477.69	399.38
477.908	416.38
478.127	411.38
478.346	411.38
478.564	445.38
478.783	425.38
479.002	420.38
479.22	427.38
479.439	445.38
479.658	471.38
479.876	458.38
480.095	464.38
480.313	505.38
480.532	490.38
480.751	481.38
480.969	480.38
481.188	525.38
481.406	566.38
481.624	514.38
481.843	492.38
482.061	473.38
482.28	446.38
482.498	466.38
482.717	450.38
482.935	456.38
483.153	444.38
483.372	461.38
483.59	437.38
483.808	452.38
484.027	458.38
484.245	459.38
484.463	440.38
484.681	486.38
484.9	454.38
485.118	446.38
485.336	471.38
485.554	471.38
485.772	468.38
485.99	476.38
486.209	480.38
486.427	451.38
486.645	484.38
486.863	520.38
487.081	472.38
487.299	480.38
487.517	490.38
487.735	509.38
487.953	500.38
488.171	473.38
488.389	488.38
488.607	491.38
488.825	486.38
489.043	476.38
489.261	491.38
489.479	483.38
489.696	495.38
489.914	491.38
490.132	498.38
490.35	489.38
490.568	496.38
490.786	502.38
491.003	532.38
491.221	528.38
491.439	510.38
491.657	516.38
491.874	554.38
492.092	556.38
492.31	562.38
492.527	546.38
492.745	564.38
492.963	548.38
493.18	549.38
493.398	551.38
493.615	577.38
493.833	573.38
494.05	538.38
494.268	569.38
494.485	572.38
494.703	578.38
494.92	563.38
495.138	547.38
495.355	572.38
495.573	570.38
495.79	571.38
496.008	574.38
496.225	561.38
496.442	580.38
496.66	583.38
496.877	552.38
497.094	560.38
497.312	602.38
497.529	581.38
497.746	575.38
497.963	596.38
498.181	606.38
498.398	617.38
498.615	654.38
498.832	634.38
499.049	644.38
499.267	632.38
499.484	633.38
499.701	663.38
499.918	666.38
500.135	688.38
500.352	730.38
500.569	729.38
500.786	730.38
501.003	756.38
501.22	732.38
501.437	698.38
501.654	678.38
501.871	700.38
502.088	674.38
502.305	678.38
502.522	624.38
502.739	632.38
502.956	589.38
503.172	626.38
503.389	608.38
503.606	617.38
503.823	594.38
504.04	596.38
504.256	592.38
504.473	560.38
504.69	572.38
504.907	566.38
505.123	584.38
505.34	556.38
505.557	569.38
505.773	554.38
505.99	558.38
506.207	549.38
506.423	561.38
506.64	546.38
506.856	534.38
507.073	525.38
507.289	528.38
507.506	548.38
507.722	548.38
507.939	568.38
508.155	556.38
508.372	545.38
508.588	552.38
508.805	530.38
509.021	528.38
509.238	531.38
509.454	522.38
509.67	536.38
509.887	552.38
510.103	524.38
510.319	562.38
510.536	621.38
510.752	1093.38
510.968	875.38
511.184	567.38
511.401	535.38
511.617	521.38
511.833	499.38
512.049	490.38
512.265	527.38
512.481	506.38
512.698	509.38
512.914	496.38
513.13	526.38
513.346	509.38
513.562	518.38
513.778	520.38
513.994	519.38
514.21	547.38
514.426	564.38
514.642	577.38
514.858	637.38
515.074	666.38
515.29	811.38
515.506	1234.38
515.721	980.38
515.937	636.38
516.153	568.38
516.369	549.38
516.585	550.38
516.801	526.38
517.016	510.38
517.232	532.38
517.448	500.38
517.664	537.38
517.879	499.38
518.095	501.38
518.311	504.38
518.527	516.38
518.742	518.38
518.958	500.38
519.173	516.38
519.389	514.38
519.605	515.38
519.82	513.38
520.036	513.38
520.251	541.38
520.467	578.38
520.682	570.38
520.898	573.38
521.113	584.38
521.329	620.38
521.544	740.38
521.76	978.38
521.975	1651.38
522.19	1629.38
522.406	836.38
522.621	618.38
522.836	551.38
523.052	504.38
523.267	512.38
523.482	482.38
523.698	470.38
523.913	480.38
524.128	484.38
524.343	484.38
524.559	473.38
524.774	447.38
524.989	458.38
525.204	460.38
525.419	438.38
525.634	424.38
525.849	427.38
526.064	440.38
526.28	428.38
526.495	410.38
526.71	410.38
526.925	420.38
527.14	422.38
527.355	418.38
527.57	409.38
527.785	416.38
527.999	404.38
528.214	390.38
528.429	410.38
528.644	420.38
528.859	416.38
529.074	436.38
529.289	436.38
529.503	530.38
529.718	501.38
529.933	443.38
530.148	423.38
530.363	441.38
530.577	420.38
530.792	425.38
531.007	402.38
531.221	413.38
531.436	390.38
531.651	402.38
531.865	393.38
532.08	399.38
532.295	389.38
532.509	393.38
532.724	383.38
532.938	397.38
533.153	366.38
533.367	395.38
533.582	405.38
533.796	372.38
534.011	387.38
534.225	390.38
534.44	394.38
534.654	372.38
534.868	386.38
535.083	367.38
535.297	376.38
535.511	389.38
535.726	392.38
535.94	407.38
536.154	409.38
536.369	401.38
536.583	379.38
536.797	395.38
537.011	382.38
537.225	361.38
537.44	376.38
537.654	376.38
537.868	379.38
538.082	390.38
538.296	373.38
538.51	378.38
538.724	365.38
538.938	398.38
539.153	376.38
539.367	395.38
539.581	397.38
539.795	360.38
540.009	388.38
540.222	366.38
540.436	392.38
540.65	375.38
540.864	374.38
541.078	389.38
541.292	380.38
541.506	368.38
541.72	374.38
541.934	404.38
542.147	365.38
542.361	355.38
542.575	378.38
542.789	341.38
543.002	362.38
543.216	373.38
543.43	373.38
543.644	390.38
543.857	375.38
544.071	370.38
544.285	391.38
544.498	360.38
544.712	363.38
544.925	358.38
545.139	356.38
545.352	344.38
545.566	349.38
545.779	373.38
545.993	354.38
546.206	356.38
546.42	381.38
546.633	354.38
546.847	338.38
547.06	355.38
547.274	351.38
547.487	356.38
547.7	362.38
547.914	352.38
548.127	350.38
548.34	348.38
548.554	357.38
548.767	351.38
548.98	346.38
549.193	355.38
549.407	343.38
549.62	349.38
549.833	334.38
550.046	342.38
550.259	345.38
550.473	347.38
550.686	347.38
550.899	339.38
551.112	333.38
551.325	327.38
551.538	335.38
551.751	339.38
551.964	355.38
552.177	344.38
552.39	343.38
552.603	329.38
552.816	356.38
553.029	357.38
553.242	347.38
553.455	364.38
553.667	355.38
553.88	379.38
554.093	349.38
554.306	355.38
554.519	341.38
554.732	338.38
554.944	326.38
555.157	317.38
555.37	333.38
555.583	337.38
555.795	352.38
556.008	346.38
556.221	332.38
556.433	328.38
556.646	330.38
556.859	331.38
557.071	332.38
557.284	320.38
557.496	320.38
557.709	339.38
557.921	318.38
558.134	308.38
558.346	310.38
558.559	307.38
558.771	308.38
558.984	307.38
559.196	300.38
559.409	317.38
559.621	296.38
559.833	304.38
560.046	314.38
560.258	313.38
560.47	299.38
560.683	325.38
560.895	302.38
561.107	310.38
561.32	302.38
561.532	298.38
561.744	328.38
561.956	299.38
562.168	308.38
562.381	316.38
562.593	308.38
562.805	339.38
563.017	317.38
563.229	315.38
563.441	328.38
563.653	307.38
563.865	320.38
564.077	329.38
564.289	317.38
564.501	326.38
564.713	320.38
564.925	327.38
565.137	333.38
565.349	334.38
565.561	333.38
565.773	343.38
565.985	339.38
566.197	349.38
566.408	349.38
566.62	339.38
566.832	361.38
567.044	357.38
567.255	353.38
567.467	357.38
567.679	361.38
567.891	375.38
568.102	374.38
568.314	356.38
568.526	352.38
568.737	342.38
568.949	344.38
569.161	335.38
569.372	324.38
569.584	308.38
569.795	320.38
570.007	328.38
570.218	361.38
570.43	331.38
570.641	312.38
570.853	298.38
571.064	298.38
571.276	307.38
571.487	308.38
571.698	284.38
571.91	295.38
572.121	271.38
572.333	283.38
572.544	282.38
572.755	290.38
572.966	289.38
573.178	278.38
573.389	273.38
573.6	284.38
573.811	270.38
574.023	276.38
574.234	292.38
574.445	267.38
574.656	280.38
574.867	282.38
575.078	280.38
575.289	267.38
575.501	278.38
575.712	268.38
575.923	267.38
576.134	269.38
576.345	269.38
576.556	260.38
576.767	261.38
576.978	254.38
577.188	276.38
577.399	255.38
577.61	275.38
577.821	256.38
578.032	276.38
578.243	299.38
578.454	541.38
578.665	381.38
578.875	292.38
579.086	274.38
579.297	256.38
579.508	262.38
579.718	264.38
579.929	256.38
580.14	258.38
580.35	247.38
580.561	247.38
580.772	242.38
580.982	241.38
581.193	241.38
581.403	253.38
581.614	227.38
581.825	243.38
582.035	264.38
582.246	260.38
582.456	244.38
582.667	245.38
582.877	235.38
583.087	248.38
583.298	230.38
583.508	254.38
583.719	230.38
583.929	258.38
584.139	250.38
584.35	256.38
584.56	247.38
584.77	246.38
584.981	243.38
585.191	249.38
585.401	240.38
585.611	237.38
585.821	267.38
586.032	229.38
586.242	249.38
586.452	231.38
586.662	225.38
586.872	222.38
587.082	248.38
587.292	224.38
587.502	233.38
587.713	232.38
587.923	245.38
588.133	237.38
588.343	244.38
588.553	229.38
588.762	248.38
588.972	228.38
589.182	294.38
589.392	286.38
589.602	252.38
589.812	284.38
590.022	264.38
590.232	250.38
590.441	236.38
590.651	236.38
590.861	257.38
591.071	225.38
591.281	220.38
591.49	232.38
591.7	231.38
591.91	250.38
592.119	236.38
592.329	249.38
592.539	248.38
592.748	243.38
592.958	256.38
593.167	235.38
593.377	236.38
593.587	234.38
593.796	249.38
594.006	240.38
594.215	241.38
594.424	252.38
594.634	256.38
594.843	229.38
595.053	244.38
595.262	235.38
595.472	240.38
595.681	229.38
595.89	215.38
596.1	218.38
596.309	219.38
596.518	225.38
596.727	229.38
596.937	237.38
597.146	242.38
597.355	210.38
597.564	219.38
597.774	213.38
597.983	209.38
598.192	227.38
598.401	196.38
598.61	208.38
598.819	218.38
599.028	228.38
599.237	216.38
599.446	223.38
599.655	228.38
599.864	214.38
600.073	208.38
600.282	209.38
600.491	198.38
600.7	199.38
600.909	205.38
601.118	202.38
601.327	213.38
601.536	203.38
601.745	216.38
601.953	209.38
602.162	230.38
602.371	196.38
602.58	205.38
602.789	199.38
602.997	217.38
603.206	208.38
603.415	203.38
603.623	210.38
603.832	210.38
604.041	211.38
604.249	198.38
604.458	198.38
604.666	216.38
604.875	180.38
605.084	189.38
605.292	191.38
605.501	230.38
605.709	211.38
605.918	193.38
606.126	194.38
606.334	194.38
606.543	203.38
606.751	205.38
606.96	217.38
607.168	209.38
607.376	196.38
607.585	186.38
607.793	193.38
608.001	206.38
608.21	201.38
608.418	200.38
608.626	208.38
608.834	197.38
609.043	188.38
609.251	196.38
609.459	188.38
609.667	197.38
609.875	207.38
610.083	211.38
610.291	206.38
610.499	202.38
610.707	202.38
610.916	199.38
611.124	205.38
611.332	189.38
611.54	209.38
611.748	201.38
611.955	217.38
612.163	197.38
612.371	195.38
612.579	204.38
612.787	201.38
612.995	196.38
613.203	205.38
613.411	201.38
613.618	200.38
613.826	201.38
614.034	217.38
614.242	208.38
614.449	180.38
614.657	211.38
614.865	208.38
615.072	194.38
615.28	211.38
615.488	174.38
615.695	190.38
615.903	192.38
616.111	193.38
616.318	182.38
616.526	205.38
616.733	197.38
616.941	208.38
617.148	195.38
617.356	183.38
617.563	189.38
617.771	177.38
617.978	193.38
618.185	184.38
618.393	185.38
618.6	181.38
618.807	182.38
619.015	189.38
619.222	195.38
619.429	188.38
619.637	179.38
619.844	195.38
620.051	196.38
620.258	182.38
620.466	181.38
620.673	193.38
620.88	184.38
621.087	198.38
621.294	173.38
621.501	171.38
621.708	178.38
621.915	196.38
622.122	183.38
622.329	181.38
622.536	188.38
622.743	200.38
622.95	195.38
623.157	177.38
623.364	192.38
623.571	182.38
623.778	166.38
623.985	183.38
624.192	180.38
624.399	188.38
624.606	162.38
624.812	167.38
625.019	174.38
625.226	175.38
625.433	190.38
625.639	177.38
625.846	162.38
626.053	173.38
626.259	168.38
626.466	184.38
626.673	183.38
626.879	170.38
627.086	167.38
627.293	156.38
627.499	176.38
627.706	191.38
627.912	177.38
628.119	166.38
628.325	161.38
628.532	142.38
628.738	166.38
628.945	162.38
629.151	161.38
629.357	167.38
629.564	173.38
629.77	175.38
629.976	164.38
630.183	150.38
630.389	154.38
630.595	176.38
630.802	153.38
631.008	165.38
631.214	164.38
631.42	157.38
631.627	184.38
631.833	154.38
632.039	158.38
632.245	172.38
632.451	173.38
632.657	158.38
632.863	166.38
633.069	158.38
633.275	160.38
633.481	153.38
633.688	148.38
633.893	166.38
634.099	159.38
634.305	149.38
634.511	147.38
634.717	152.38
634.923	163.38
635.129	151.38
635.335	159.38
635.541	152.38
635.747	160.38
635.952	162.38
636.158	162.38
636.364	151.38
636.57	164.38
636.775	163.38
636.981	162.38
637.187	170.38
637.392	146.38
637.598	155.38
637.804	162.38
638.009	159.38
638.215	157.38
638.421	152.38
638.626	137.38
638.832	154.38
639.037	145.38
639.243	125.38
639.448	152.38
639.654	157.38
639.859	148.38
640.065	140.38
640.27	157.38
640.475	149.38
640.681	147.38
640.886	134.38
641.091	147.38
641.297	156.38
641.502	156.38
641.707	141.38
641.913	141.38
642.118	137.38
642.323	159.38
642.528	140.38
642.733	159.38
642.939	156.38
643.144	157.38
643.349	145.38
643.554	157.38
643.759	154.38
643.964	144.38
644.169	138.38
644.374	145.38
644.579	144.38
644.784	148.38
644.989	137.38
645.194	146.38
645.399	150.38
645.604	131.38
645.809	148.38
646.014	162.38
646.219	139.38
646.423	150.38
646.628	140.38
646.833	152.38
647.038	150.38
647.243	146.38
647.447	150.38
647.652	130.38
647.857	144.38
648.062	143.38
648.266	159.38
648.471	142.38
648.676	156.38
648.88	157.38
649.085	149.38
649.289	125.38
649.494	150.38
649.698	158.38
649.903	161.38
650.107	147.38
650.312	132.38
650.516	146.38
650.721	132.38
650.925	130.38
651.13	136.38
651.334	137.38
651.539	141.38
651.743	131.38
651.947	129.38
652.152	128.38
652.356	131.38
652.56	128.38
652.764	119.38
652.969	125.38
653.173	125.38
653.377	131.38
653.581	120.38
653.785	109.38
653.99	116.38
654.194	114.38
654.398	121.38
654.602	125.38
654.806	122.38
655.01	142.38
655.214	137.38
655.418	131.38
655.622	124.38
655.826	113.38
656.03	122.38
656.234	124.38
656.438	130.38
656.642	142.38
656.846	128.38
657.049	116.38
657.253	125.38
657.457	113.38
657.661	107.38
657.865	106.38
658.068	107.38
658.272	102.38
658.476	112.38
658.68	106.38
658.883	106.38
659.087	116.38
659.291	115.38
659.494	89.38
659.698	112.38
659.901	97.38
660.105	91.38
660.309	76.38
660.512	105.38
660.716	93.38
660.919	93.38
661.123	96.38
661.326	95.38
661.53	97.38
661.733	98.38
661.936	96.38
662.14	91.38
662.343	96.38
662.546	72.38
662.75	94.38
662.953	84.38
663.156	90.38
663.36	89.38
663.563	84.38
663.766	92.38
663.969	84.38
664.173	80.38
664.376	74.38
664.579	90.38
664.782	78.38
664.985	85.38
665.188	69.38
665.391	79.38
665.594	73.38
665.797	96.38
666	83.38
666.203	88.38
666.406	81.38
666.609	83.38
666.812	71.38
667.015	73.38
667.218	74.38
667.421	68.38
667.624	61.38
667.827	74.38
668.03	67.38
668.232	81.38
668.435	70.38
668.638	82.38
668.841	75.38
669.043	81.38
669.246	83.38
669.449	90.38
669.651	76.38
669.854	89.38
670.057	87.38
670.259	74.38
670.462	77.38
670.665	63.38
670.867	72.38
671.07	87.38
671.272	84.38
671.475	87.38
671.677	86.38
671.88	76.38
672.082	97.38
672.284	86.38
672.487	66.38
672.689	90.38
672.892	86.38
