Data from 1965.PennyLincolnUp.Lamp.En5.5.200Scan.071719.P1._HRD10591_14-09-31-912.txt Node
Date: Thu Jul 18 14:09:31 EDT 2019
User: cochatt
Spectrometer: HR+D1059
Trigger mode: 1
Integration Time (sec): 1.000000E-1
Scans to average: 1
Electric dark correction enabled: true
Nonlinearity correction enabled: false
Boxcar width: 0
XAxis mode: Wavelengths
Number of Pixels in Spectrum: 2048
>>>>>Begin Spectral Data<<<<<
223.165	-18.12
223.4	-18.12
223.635	-18.12
223.869	-10.12
224.104	-23.12
224.338	-20.12
224.573	1.88
224.808	-16.12
225.042	-8.12
225.277	-8.12
225.511	-5.12
225.746	4.88
225.98	19.88
226.215	11.88
226.449	6.88
226.683	18.88
226.918	11.88
227.152	32.88
227.387	30.88
227.621	45.88
227.856	32.88
228.09	37.88
228.324	38.88
228.559	48.88
228.793	58.88
229.027	83.88
229.262	97.88
229.496	110.88
229.73	133.88
229.964	135.88
230.199	123.88
230.433	117.88
230.667	105.88
230.901	103.88
231.136	113.88
231.37	102.88
231.604	115.88
231.838	95.88
232.072	105.88
232.306	119.88
232.541	107.88
232.775	98.88
233.009	115.88
233.243	112.88
233.477	104.88
233.711	106.88
233.945	109.88
234.179	99.88
234.413	113.88
234.647	120.88
234.881	108.88
235.115	119.88
235.349	119.88
235.583	121.88
235.817	120.88
236.051	90.88
236.285	121.88
236.519	121.88
236.753	141.88
236.987	123.88
237.221	176.88
237.455	214.88
237.689	159.88
237.922	129.88
238.156	138.88
238.39	121.88
238.624	120.88
238.858	117.88
239.091	116.88
239.325	105.88
239.559	114.88
239.793	114.88
240.027	126.88
240.26	127.88
240.494	131.88
240.728	164.88
240.961	139.88
241.195	132.88
241.429	133.88
241.662	133.88
241.896	125.88
242.13	123.88
242.363	131.88
242.597	118.88
242.83	124.88
243.064	129.88
243.298	119.88
243.531	129.88
243.765	139.88
243.998	119.88
244.232	123.88
244.465	127.88
244.699	136.88
244.932	127.88
245.166	125.88
245.399	126.88
245.633	137.88
245.866	127.88
246.099	136.88
246.333	162.88
246.566	128.88
246.8	131.88
247.033	120.88
247.266	133.88
247.5	140.88
247.733	143.88
247.966	157.88
248.2	159.88
248.433	148.88
248.666	155.88
248.899	166.88
249.133	187.88
249.366	193.88
249.599	186.88
249.832	171.88
250.066	170.88
250.299	149.88
250.532	189.88
250.765	181.88
250.998	185.88
251.231	202.88
251.465	209.88
251.698	192.88
251.931	183.88
252.164	174.88
252.397	167.88
252.63	192.88
252.863	179.88
253.096	195.88
253.329	193.88
253.562	200.88
253.795	192.88
254.028	208.88
254.261	188.88
254.494	206.88
254.727	211.88
254.96	227.88
255.193	227.88
255.426	217.88
255.659	211.88
255.892	213.88
256.124	213.88
256.357	211.88
256.59	201.88
256.823	182.88
257.056	198.88
257.289	189.88
257.521	180.88
257.754	175.88
257.987	188.88
258.22	191.88
258.452	185.88
258.685	190.88
258.918	200.88
259.151	207.88
259.383	207.88
259.616	185.88
259.849	211.88
260.081	232.88
260.314	231.88
260.547	230.88
260.779	211.88
261.012	223.88
261.244	207.88
261.477	189.88
261.71	188.88
261.942	220.88
262.175	191.88
262.407	223.88
262.64	188.88
262.872	192.88
263.105	193.88
263.337	182.88
263.57	189.88
263.802	187.88
264.035	183.88
264.267	186.88
264.499	192.88
264.732	197.88
264.964	195.88
265.197	190.88
265.429	189.88
265.661	197.88
265.894	183.88
266.126	192.88
266.358	197.88
266.591	183.88
266.823	212.88
267.055	204.88
267.287	198.88
267.52	205.88
267.752	210.88
267.984	205.88
268.216	187.88
268.448	215.88
268.681	197.88
268.913	215.88
269.145	245.88
269.377	232.88
269.609	220.88
269.841	236.88
270.073	258.88
270.306	269.88
270.538	275.88
270.77	269.88
271.002	265.88
271.234	262.88
271.466	281.88
271.698	263.88
271.93	282.88
272.162	270.88
272.394	281.88
272.626	259.88
272.858	277.88
273.09	240.88
273.322	255.88
273.553	248.88
273.785	235.88
274.017	231.88
274.249	235.88
274.481	231.88
274.713	254.88
274.945	243.88
275.176	240.88
275.408	228.88
275.64	244.88
275.872	222.88
276.104	227.88
276.335	253.88
276.567	251.88
276.799	237.88
277.031	270.88
277.262	291.88
277.494	281.88
277.726	260.88
277.957	267.88
278.189	264.88
278.421	236.88
278.652	254.88
278.884	250.88
279.115	244.88
279.347	234.88
279.579	234.88
279.81	228.88
280.042	231.88
280.273	243.88
280.505	229.88
280.736	246.88
280.968	230.88
281.199	243.88
281.431	218.88
281.662	238.88
281.894	231.88
282.125	239.88
282.356	265.88
282.588	290.88
282.819	275.88
283.051	247.88
283.282	238.88
283.513	233.88
283.745	234.88
283.976	230.88
284.207	248.88
284.439	260.88
284.67	254.88
284.901	238.88
285.132	248.88
285.364	235.88
285.595	231.88
285.826	246.88
286.057	257.88
286.288	237.88
286.52	232.88
286.751	249.88
286.982	241.88
287.213	240.88
287.444	246.88
287.675	235.88
287.906	261.88
288.138	233.88
288.369	261.88
288.6	269.88
288.831	282.88
289.062	259.88
289.293	249.88
289.524	245.88
289.755	267.88
289.986	248.88
290.217	251.88
290.448	266.88
290.679	249.88
290.91	269.88
291.141	250.88
291.371	245.88
291.602	247.88
291.833	243.88
292.064	243.88
292.295	260.88
292.526	264.88
292.757	250.88
292.987	252.88
293.218	233.88
293.449	263.88
293.68	274.88
293.91	273.88
294.141	257.88
294.372	247.88
294.603	249.88
294.833	263.88
295.064	260.88
295.295	259.88
295.525	266.88
295.756	266.88
295.987	280.88
296.217	293.88
296.448	296.88
296.679	261.88
296.909	261.88
297.14	273.88
297.37	258.88
297.601	239.88
297.831	256.88
298.062	258.88
298.292	269.88
298.523	262.88
298.753	262.88
298.984	263.88
299.214	281.88
299.445	279.88
299.675	263.88
299.905	259.88
300.136	297.88
300.366	263.88
300.597	273.88
300.827	274.88
301.057	287.88
301.288	279.88
301.518	275.88
301.748	287.88
301.979	268.88
302.209	288.88
302.439	284.88
302.669	297.88
302.9	285.88
303.13	290.88
303.36	295.88
303.59	304.88
303.82	291.88
304.051	307.88
304.281	279.88
304.511	281.88
304.741	279.88
304.971	284.88
305.201	293.88
305.431	272.88
305.661	285.88
305.891	296.88
306.121	305.88
306.352	299.88
306.582	287.88
306.812	297.88
307.042	281.88
307.272	302.88
307.502	289.88
307.731	299.88
307.961	295.88
308.191	284.88
308.421	265.88
308.651	296.88
308.881	309.88
309.111	295.88
309.341	300.88
309.571	307.88
309.8	295.88
310.03	332.88
310.26	340.88
310.49	333.88
310.72	341.88
310.949	364.88
311.179	349.88
311.409	359.88
311.639	341.88
311.868	335.88
312.098	351.88
312.328	348.88
312.557	333.88
312.787	372.88
313.017	367.88
313.246	357.88
313.476	331.88
313.706	327.88
313.935	334.88
314.165	343.88
314.394	382.88
314.624	343.88
314.853	351.88
315.083	336.88
315.312	326.88
315.542	331.88
315.771	335.88
316.001	333.88
316.23	350.88
316.46	328.88
316.689	344.88
316.919	339.88
317.148	362.88
317.377	355.88
317.607	350.88
317.836	355.88
318.065	339.88
318.295	323.88
318.524	315.88
318.753	328.88
318.983	349.88
319.212	328.88
319.441	347.88
319.67	362.88
319.9	356.88
320.129	355.88
320.358	337.88
320.587	351.88
320.816	349.88
321.046	360.88
321.275	346.88
321.504	357.88
321.733	347.88
321.962	359.88
322.191	378.88
322.42	397.88
322.649	403.88
322.878	415.88
323.108	428.88
323.337	441.88
323.566	462.88
323.795	517.88
324.024	556.88
324.253	671.88
324.482	1000.88
324.71	1493.88
324.939	2066.88
325.168	1665.88
325.397	914.88
325.626	598.88
325.855	493.88
326.084	487.88
326.313	482.88
326.542	517.88
326.77	535.88
326.999	624.88
327.228	878.88
327.457	1312.88
327.686	1535.88
327.914	1012.88
328.143	691.88
328.372	627.88
328.6	552.88
328.829	528.88
329.058	535.88
329.287	560.88
329.515	534.88
329.744	480.88
329.972	483.88
330.201	505.88
330.43	555.88
330.658	574.88
330.887	600.88
331.115	548.88
331.344	466.88
331.572	454.88
331.801	451.88
332.03	441.88
332.258	448.88
332.486	412.88
332.715	394.88
332.943	394.88
333.172	381.88
333.4	397.88
333.629	409.88
333.857	433.88
334.085	420.88
334.314	456.88
334.542	486.88
334.771	479.88
334.999	451.88
335.227	436.88
335.455	423.88
335.684	398.88
335.912	384.88
336.14	387.88
336.369	402.88
336.597	395.88
336.825	391.88
337.053	388.88
337.281	379.88
337.51	396.88
337.738	378.88
337.966	415.88
338.194	387.88
338.422	390.88
338.65	377.88
338.878	381.88
339.106	385.88
339.334	367.88
339.562	371.88
339.79	395.88
340.018	373.88
340.246	383.88
340.474	387.88
340.702	379.88
340.93	383.88
341.158	368.88
341.386	354.88
341.614	395.88
341.842	394.88
342.07	374.88
342.298	381.88
342.526	374.88
342.754	374.88
342.981	361.88
343.209	369.88
343.437	359.88
343.665	375.88
343.893	370.88
344.12	382.88
344.348	373.88
344.576	390.88
344.804	379.88
345.031	381.88
345.259	400.88
345.487	398.88
345.714	363.88
345.942	363.88
346.17	361.88
346.397	371.88
346.625	346.88
346.853	381.88
347.08	351.88
347.308	373.88
347.535	385.88
347.763	391.88
347.99	392.88
348.218	392.88
348.445	398.88
348.673	397.88
348.9	398.88
349.128	375.88
349.355	346.88
349.583	363.88
349.81	355.88
350.037	355.88
350.265	350.88
350.492	370.88
350.72	349.88
350.947	381.88
351.174	393.88
351.402	399.88
351.629	368.88
351.856	397.88
352.083	377.88
352.311	400.88
352.538	367.88
352.765	395.88
352.992	385.88
353.22	383.88
353.447	357.88
353.674	367.88
353.901	341.88
354.128	332.88
354.355	359.88
354.583	352.88
354.81	351.88
355.037	333.88
355.264	346.88
355.491	362.88
355.718	333.88
355.945	351.88
356.172	342.88
356.399	344.88
356.626	349.88
356.853	369.88
357.08	349.88
357.307	335.88
357.534	351.88
357.761	340.88
357.988	338.88
358.215	353.88
358.441	344.88
358.668	344.88
358.895	329.88
359.122	358.88
359.349	359.88
359.576	363.88
359.802	384.88
360.029	423.88
360.256	423.88
360.483	418.88
360.709	397.88
360.936	372.88
361.163	373.88
361.39	383.88
361.616	382.88
361.843	335.88
362.07	372.88
362.296	375.88
362.523	372.88
362.749	379.88
362.976	367.88
363.203	368.88
363.429	364.88
363.656	356.88
363.882	365.88
364.109	358.88
364.335	373.88
364.562	367.88
364.788	340.88
365.015	343.88
365.241	352.88
365.468	347.88
365.694	361.88
365.92	383.88
366.147	360.88
366.373	339.88
366.599	351.88
366.826	346.88
367.052	339.88
367.278	349.88
367.505	348.88
367.731	350.88
367.957	340.88
368.184	349.88
368.41	365.88
368.636	353.88
368.862	371.88
369.089	357.88
369.315	344.88
369.541	357.88
369.767	363.88
369.993	352.88
370.219	330.88
370.445	351.88
370.672	349.88
370.898	374.88
371.124	353.88
371.35	352.88
371.576	329.88
371.802	319.88
372.028	315.88
372.254	350.88
372.48	342.88
372.706	330.88
372.932	355.88
373.158	355.88
373.384	378.88
373.61	354.88
373.835	356.88
374.061	354.88
374.287	377.88
374.513	350.88
374.739	336.88
374.965	351.88
375.191	333.88
375.416	340.88
375.642	345.88
375.868	341.88
376.094	352.88
376.319	353.88
376.545	350.88
376.771	338.88
376.997	343.88
377.222	333.88
377.448	341.88
377.674	345.88
377.899	342.88
378.125	348.88
378.35	339.88
378.576	351.88
378.802	341.88
379.027	334.88
379.253	350.88
379.478	364.88
379.704	342.88
379.929	332.88
380.155	352.88
380.38	335.88
380.606	348.88
380.831	342.88
381.057	352.88
381.282	337.88
381.507	350.88
381.733	343.88
381.958	351.88
382.184	347.88
382.409	364.88
382.634	351.88
382.86	349.88
383.085	353.88
383.31	349.88
383.535	367.88
383.761	332.88
383.986	337.88
384.211	355.88
384.436	343.88
384.662	362.88
384.887	355.88
385.112	355.88
385.337	368.88
385.562	347.88
385.787	349.88
386.013	381.88
386.238	374.88
386.463	370.88
386.688	370.88
386.913	362.88
387.138	381.88
387.363	353.88
387.588	361.88
387.813	366.88
388.038	376.88
388.263	371.88
388.488	380.88
388.713	382.88
388.938	385.88
389.163	387.88
389.387	376.88
389.612	378.88
389.837	376.88
390.062	366.88
390.287	365.88
390.512	368.88
390.736	378.88
390.961	368.88
391.186	362.88
391.411	376.88
391.636	384.88
391.86	385.88
392.085	396.88
392.31	385.88
392.534	377.88
392.759	383.88
392.984	373.88
393.208	373.88
393.433	358.88
393.658	384.88
393.882	396.88
394.107	366.88
394.331	371.88
394.556	383.88
394.78	381.88
395.005	368.88
395.229	359.88
395.454	368.88
395.678	382.88
395.903	385.88
396.127	393.88
396.352	405.88
396.576	399.88
396.801	367.88
397.025	370.88
397.249	390.88
397.474	392.88
397.698	383.88
397.922	415.88
398.147	414.88
398.371	428.88
398.595	425.88
398.82	421.88
399.044	412.88
399.268	432.88
399.492	433.88
399.717	467.88
399.941	514.88
400.165	505.88
400.389	505.88
400.613	466.88
400.837	464.88
401.062	425.88
401.286	433.88
401.51	430.88
401.734	417.88
401.958	421.88
402.182	435.88
402.406	447.88
402.63	428.88
402.854	441.88
403.078	410.88
403.302	423.88
403.526	441.88
403.75	429.88
403.974	414.88
404.198	431.88
404.422	436.88
404.645	462.88
404.869	439.88
405.093	472.88
405.317	496.88
405.541	521.88
405.765	480.88
405.988	460.88
406.212	458.88
406.436	506.88
406.66	520.88
406.883	468.88
407.107	488.88
407.331	537.88
407.555	551.88
407.778	566.88
408.002	520.88
408.226	477.88
408.449	492.88
408.673	475.88
408.896	492.88
409.12	524.88
409.344	535.88
409.567	467.88
409.791	452.88
410.014	454.88
410.238	430.88
410.461	456.88
410.685	411.88
410.908	451.88
411.132	505.88
411.355	511.88
411.578	479.88
411.802	443.88
412.025	416.88
412.249	439.88
412.472	442.88
412.695	511.88
412.919	495.88
413.142	429.88
413.365	416.88
413.589	435.88
413.812	415.88
414.035	406.88
414.258	418.88
414.482	405.88
414.705	411.88
414.928	409.88
415.151	412.88
415.374	423.88
415.597	399.88
415.821	407.88
416.044	405.88
416.267	410.88
416.49	431.88
416.713	418.88
416.936	411.88
417.159	418.88
417.382	404.88
417.605	414.88
417.828	438.88
418.051	449.88
418.274	432.88
418.497	426.88
418.72	414.88
418.943	425.88
419.166	426.88
419.389	435.88
419.611	444.88
419.834	451.88
420.057	440.88
420.28	441.88
420.503	447.88
420.726	437.88
420.948	428.88
421.171	468.88
421.394	504.88
421.617	440.88
421.839	440.88
422.062	450.88
422.285	456.88
422.507	496.88
422.73	549.88
422.953	558.88
423.175	474.88
423.398	446.88
423.621	441.88
423.843	479.88
424.066	458.88
424.288	471.88
424.511	497.88
424.733	510.88
424.956	619.88
425.178	565.88
425.401	552.88
425.623	587.88
425.846	503.88
426.068	464.88
426.291	480.88
426.513	463.88
426.735	459.88
426.958	524.88
427.18	585.88
427.402	692.88
427.625	754.88
427.847	691.88
428.069	579.88
428.292	537.88
428.514	495.88
428.736	467.88
428.958	452.88
429.181	437.88
429.403	435.88
429.625	433.88
429.847	472.88
430.069	540.88
430.292	507.88
430.514	459.88
430.736	447.88
430.958	452.88
431.18	443.88
431.402	424.88
431.624	406.88
431.846	411.88
432.068	402.88
432.29	417.88
432.512	417.88
432.734	423.88
432.956	406.88
433.178	402.88
433.4	436.88
433.622	431.88
433.844	414.88
434.066	412.88
434.287	405.88
434.509	400.88
434.731	412.88
434.953	416.88
435.175	440.88
435.397	476.88
435.618	460.88
435.84	503.88
436.062	583.88
436.284	636.88
436.505	548.88
436.727	481.88
436.949	458.88
437.17	440.88
437.392	431.88
437.614	475.88
437.835	483.88
438.057	554.88
438.278	679.88
438.5	653.88
438.721	699.88
438.943	681.88
439.165	541.88
439.386	484.88
439.608	505.88
439.829	492.88
440.05	508.88
440.272	563.88
440.493	505.88
440.715	478.88
440.936	435.88
441.158	447.88
441.379	444.88
441.6	429.88
441.822	467.88
442.043	513.88
442.264	588.88
442.486	622.88
442.707	516.88
442.928	496.88
443.149	492.88
443.371	503.88
443.592	541.88
443.813	607.88
444.034	658.88
444.255	537.88
444.476	479.88
444.698	464.88
444.919	491.88
445.14	602.88
445.361	536.88
445.582	521.88
445.803	571.88
446.024	659.88
446.245	647.88
446.466	599.88
446.687	505.88
446.908	477.88
447.129	457.88
447.35	445.88
447.571	419.88
447.792	425.88
448.013	455.88
448.234	446.88
448.455	510.88
448.675	601.88
448.896	687.88
449.117	591.88
449.338	576.88
449.559	661.88
449.779	720.88
450	601.88
450.221	494.88
450.442	455.88
450.662	432.88
450.883	457.88
451.104	445.88
451.324	441.88
451.545	426.88
451.766	401.88
451.986	408.88
452.207	373.88
452.428	385.88
452.648	379.88
452.869	400.88
453.089	411.88
453.31	411.88
453.53	402.88
453.751	398.88
453.971	408.88
454.192	412.88
454.412	423.88
454.633	398.88
454.853	404.88
455.073	393.88
455.294	428.88
455.514	471.88
455.734	465.88
455.955	412.88
456.175	371.88
456.395	384.88
456.616	381.88
456.836	374.88
457.056	366.88
457.276	373.88
457.497	375.88
457.717	361.88
457.937	381.88
458.157	393.88
458.377	385.88
458.598	419.88
458.818	473.88
459.038	547.88
459.258	546.88
459.478	478.88
459.698	430.88
459.918	437.88
460.138	426.88
460.358	405.88
460.578	413.88
460.798	406.88
461.018	423.88
461.238	410.88
461.458	409.88
461.678	418.88
461.898	430.88
462.118	417.88
462.338	407.88
462.558	425.88
462.777	436.88
462.997	430.88
463.217	435.88
463.437	429.88
463.657	451.88
463.876	440.88
464.096	430.88
464.316	428.88
464.536	452.88
464.755	471.88
464.975	459.88
465.195	495.88
465.414	590.88
465.634	497.88
465.854	483.88
466.073	425.88
466.293	431.88
466.512	416.88
466.732	407.88
466.951	395.88
467.171	399.88
467.391	409.88
467.61	411.88
467.829	433.88
468.049	423.88
468.268	427.88
468.488	408.88
468.707	417.88
468.927	401.88
469.146	412.88
469.365	402.88
469.585	381.88
469.804	401.88
470.023	401.88
470.243	415.88
470.462	421.88
470.681	442.88
470.901	413.88
471.12	398.88
471.339	400.88
471.558	425.88
471.777	401.88
471.997	424.88
472.216	435.88
472.435	474.88
472.654	427.88
472.873	422.88
473.092	415.88
473.311	421.88
473.53	418.88
473.749	409.88
473.968	445.88
474.187	534.88
474.406	543.88
474.625	482.88
474.844	435.88
475.063	422.88
475.282	421.88
475.501	411.88
475.72	413.88
475.939	420.88
476.158	419.88
476.377	425.88
476.596	450.88
476.814	453.88
477.033	444.88
477.252	452.88
477.471	440.88
477.69	436.88
477.908	463.88
478.127	444.88
478.346	429.88
478.564	448.88
478.783	445.88
479.002	460.88
479.22	464.88
479.439	465.88
479.658	484.88
479.876	514.88
480.095	496.88
480.313	537.88
480.532	519.88
480.751	490.88
480.969	516.88
481.188	594.88
481.406	629.88
481.624	538.88
481.843	515.88
482.061	492.88
482.28	474.88
482.498	485.88
482.717	485.88
482.935	484.88
483.153	504.88
483.372	474.88
483.59	488.88
483.808	484.88
484.027	503.88
484.245	486.88
484.463	478.88
484.681	501.88
484.9	503.88
485.118	484.88
485.336	487.88
485.554	508.88
485.772	503.88
485.99	507.88
486.209	509.88
486.427	527.88
486.645	537.88
486.863	535.88
487.081	530.88
487.299	526.88
487.517	552.88
487.735	501.88
487.953	508.88
488.171	531.88
488.389	552.88
488.607	527.88
488.825	534.88
489.043	500.88
489.261	538.88
489.479	510.88
489.696	530.88
489.914	506.88
490.132	542.88
490.35	533.88
490.568	544.88
490.786	543.88
491.003	572.88
491.221	561.88
491.439	590.88
491.657	575.88
491.874	576.88
492.092	593.88
492.31	615.88
492.527	573.88
492.745	593.88
492.963	620.88
493.18	614.88
493.398	609.88
493.615	592.88
493.833	621.88
494.05	607.88
494.268	631.88
494.485	614.88
494.703	603.88
494.92	624.88
495.138	624.88
495.355	606.88
495.573	601.88
495.79	593.88
496.008	594.88
496.225	611.88
496.442	593.88
496.66	612.88
496.877	597.88
497.094	625.88
497.312	624.88
497.529	623.88
497.746	619.88
497.963	645.88
498.181	653.88
498.398	656.88
498.615	665.88
498.832	673.88
499.049	685.88
499.267	688.88
499.484	697.88
499.701	727.88
499.918	735.88
500.135	756.88
500.352	789.88
500.569	789.88
500.786	781.88
501.003	769.88
501.22	791.88
501.437	780.88
501.654	761.88
501.871	749.88
502.088	731.88
502.305	696.88
502.522	664.88
502.739	650.88
502.956	672.88
503.172	655.88
503.389	681.88
503.606	657.88
503.823	617.88
504.04	641.88
504.256	631.88
504.473	617.88
504.69	622.88
504.907	637.88
505.123	586.88
505.34	603.88
505.557	625.88
505.773	586.88
505.99	623.88
506.207	592.88
506.423	592.88
506.64	584.88
506.856	583.88
507.073	568.88
507.289	573.88
507.506	599.88
507.722	635.88
507.939	611.88
508.155	562.88
508.372	577.88
508.588	563.88
508.805	580.88
509.021	570.88
509.238	543.88
509.454	593.88
509.67	581.88
509.887	563.88
510.103	573.88
510.319	595.88
510.536	706.88
510.752	1196.88
510.968	933.88
511.184	601.88
511.401	579.88
511.617	563.88
511.833	565.88
512.049	565.88
512.265	568.88
512.481	556.88
512.698	544.88
512.914	552.88
513.13	532.88
513.346	562.88
513.562	537.88
513.778	544.88
513.994	547.88
514.21	560.88
514.426	603.88
514.642	617.88
514.858	631.88
515.074	693.88
515.29	843.88
515.506	1332.88
515.721	1025.88
515.937	670.88
516.153	612.88
516.369	599.88
516.585	565.88
516.801	575.88
517.016	563.88
517.232	571.88
517.448	548.88
517.664	549.88
517.879	547.88
518.095	535.88
518.311	558.88
518.527	543.88
518.742	546.88
518.958	544.88
519.173	521.88
519.389	543.88
519.605	535.88
519.82	544.88
520.036	583.88
520.251	594.88
520.467	634.88
520.682	609.88
520.898	623.88
521.113	637.88
521.329	721.88
521.544	805.88
521.76	1047.88
521.975	1773.88
522.19	1707.88
522.406	894.88
522.621	657.88
522.836	592.88
523.052	571.88
523.267	544.88
523.482	536.88
523.698	503.88
523.913	509.88
524.128	500.88
524.343	511.88
524.559	474.88
524.774	475.88
524.989	478.88
525.204	470.88
525.419	465.88
525.634	479.88
525.849	453.88
526.064	475.88
526.28	449.88
526.495	458.88
526.71	443.88
526.925	442.88
527.14	435.88
527.355	452.88
527.57	437.88
527.785	458.88
527.999	445.88
528.214	456.88
528.429	454.88
528.644	438.88
528.859	443.88
529.074	455.88
529.289	469.88
529.503	553.88
529.718	515.88
529.933	488.88
530.148	452.88
530.363	428.88
530.577	436.88
530.792	434.88
531.007	446.88
531.221	430.88
531.436	417.88
531.651	420.88
531.865	436.88
532.08	414.88
532.295	413.88
532.509	416.88
532.724	423.88
532.938	435.88
533.153	418.88
533.367	409.88
533.582	421.88
533.796	422.88
534.011	398.88
534.225	416.88
534.44	405.88
534.654	407.88
534.868	415.88
535.083	412.88
535.297	415.88
535.511	422.88
535.726	440.88
535.94	407.88
536.154	407.88
536.369	412.88
536.583	411.88
536.797	414.88
537.011	391.88
537.225	412.88
537.44	415.88
537.654	389.88
537.868	428.88
538.082	428.88
538.296	417.88
538.51	394.88
538.724	399.88
538.938	419.88
539.153	397.88
539.367	419.88
539.581	405.88
539.795	392.88
540.009	393.88
540.222	383.88
540.436	407.88
540.65	404.88
540.864	393.88
541.078	405.88
541.292	431.88
541.506	392.88
541.72	393.88
541.934	383.88
542.147	397.88
542.361	376.88
542.575	393.88
542.789	371.88
543.002	385.88
543.216	397.88
543.43	401.88
543.644	385.88
543.857	380.88
544.071	387.88
544.285	385.88
544.498	393.88
544.712	401.88
544.925	400.88
545.139	381.88
545.352	390.88
545.566	407.88
545.779	388.88
545.993	375.88
546.206	391.88
546.42	391.88
546.633	392.88
546.847	375.88
547.06	389.88
547.274	385.88
547.487	375.88
547.7	386.88
547.914	360.88
548.127	366.88
548.34	385.88
548.554	393.88
548.767	369.88
548.98	373.88
549.193	382.88
549.407	391.88
549.62	366.88
549.833	358.88
550.046	361.88
550.259	370.88
550.473	383.88
550.686	369.88
550.899	385.88
551.112	383.88
551.325	349.88
551.538	383.88
551.751	366.88
551.964	383.88
552.177	377.88
552.39	374.88
552.603	369.88
552.816	381.88
553.029	357.88
553.242	379.88
553.455	373.88
553.667	369.88
553.88	384.88
554.093	381.88
554.306	370.88
554.519	365.88
554.732	387.88
554.944	334.88
555.157	348.88
555.37	361.88
555.583	359.88
555.795	352.88
556.008	335.88
556.221	347.88
556.433	337.88
556.646	360.88
556.859	361.88
557.071	351.88
557.284	321.88
557.496	339.88
557.709	344.88
557.921	333.88
558.134	349.88
558.346	330.88
558.559	328.88
558.771	341.88
558.984	338.88
559.196	331.88
559.409	332.88
559.621	340.88
559.833	325.88
560.046	344.88
560.258	355.88
560.47	345.88
560.683	333.88
560.895	327.88
561.107	328.88
561.32	318.88
561.532	319.88
561.744	318.88
561.956	355.88
562.168	327.88
562.381	340.88
562.593	328.88
562.805	339.88
563.017	333.88
563.229	343.88
563.441	339.88
563.653	338.88
563.865	328.88
564.077	340.88
564.289	352.88
564.501	353.88
564.713	353.88
564.925	348.88
565.137	355.88
565.349	358.88
565.561	359.88
565.773	361.88
565.985	358.88
566.197	347.88
566.408	351.88
566.62	364.88
566.832	385.88
567.044	369.88
567.255	382.88
567.467	391.88
567.679	375.88
567.891	400.88
568.102	368.88
568.314	390.88
568.526	373.88
568.737	352.88
568.949	350.88
569.161	353.88
569.372	333.88
569.584	354.88
569.795	336.88
570.007	327.88
570.218	403.88
570.43	379.88
570.641	310.88
570.853	316.88
571.064	311.88
571.276	303.88
571.487	315.88
571.698	313.88
571.91	304.88
572.121	313.88
572.333	309.88
572.544	317.88
572.755	311.88
572.966	321.88
573.178	306.88
573.389	295.88
573.6	295.88
573.811	283.88
574.023	296.88
574.234	283.88
574.445	295.88
574.656	281.88
574.867	285.88
575.078	293.88
575.289	298.88
575.501	265.88
575.712	277.88
575.923	273.88
576.134	279.88
576.345	285.88
576.556	285.88
576.767	271.88
576.978	284.88
577.188	284.88
577.399	274.88
577.61	287.88
577.821	295.88
578.032	286.88
578.243	302.88
578.454	570.88
578.665	396.88
578.875	280.88
579.086	287.88
579.297	280.88
579.508	283.88
579.718	279.88
579.929	259.88
580.14	253.88
580.35	260.88
580.561	259.88
580.772	267.88
580.982	284.88
581.193	271.88
581.403	268.88
581.614	264.88
581.825	243.88
582.035	269.88
582.246	276.88
582.456	255.88
582.667	251.88
582.877	272.88
583.087	261.88
583.298	264.88
583.508	251.88
583.719	263.88
583.929	266.88
584.139	271.88
584.35	248.88
584.56	248.88
584.77	267.88
584.981	255.88
585.191	261.88
585.401	251.88
585.611	267.88
585.821	267.88
586.032	248.88
586.242	239.88
586.452	267.88
586.662	256.88
586.872	253.88
587.082	243.88
587.292	264.88
587.502	240.88
587.713	250.88
587.923	257.88
588.133	260.88
588.343	250.88
588.553	260.88
588.762	260.88
588.972	270.88
589.182	312.88
589.392	291.88
589.602	273.88
589.812	288.88
590.022	288.88
590.232	256.88
590.441	265.88
590.651	243.88
590.861	244.88
591.071	260.88
591.281	254.88
591.49	255.88
591.7	261.88
591.91	240.88
592.119	260.88
592.329	253.88
592.539	245.88
592.748	254.88
592.958	252.88
593.167	265.88
593.377	247.88
593.587	242.88
593.796	246.88
594.006	245.88
594.215	265.88
594.424	249.88
594.634	258.88
594.843	261.88
595.053	251.88
595.262	271.88
595.472	255.88
595.681	260.88
595.89	248.88
596.1	230.88
596.309	243.88
596.518	237.88
596.727	227.88
596.937	243.88
597.146	243.88
597.355	245.88
597.564	240.88
597.774	217.88
597.983	230.88
598.192	222.88
598.401	247.88
598.61	240.88
598.819	199.88
599.028	218.88
599.237	240.88
599.446	240.88
599.655	229.88
599.864	236.88
600.073	236.88
600.282	236.88
600.491	217.88
600.7	235.88
600.909	217.88
601.118	222.88
601.327	219.88
601.536	208.88
601.745	228.88
601.953	230.88
602.162	221.88
602.371	213.88
602.58	212.88
602.789	224.88
602.997	218.88
603.206	211.88
603.415	221.88
603.623	220.88
603.832	228.88
604.041	235.88
604.249	229.88
604.458	202.88
604.666	223.88
604.875	225.88
605.084	208.88
605.292	215.88
605.501	208.88
605.709	208.88
605.918	212.88
606.126	210.88
606.334	216.88
606.543	218.88
606.751	224.88
606.96	201.88
607.168	210.88
607.376	208.88
607.585	209.88
607.793	227.88
608.001	208.88
608.21	216.88
608.418	209.88
608.626	224.88
608.834	197.88
609.043	221.88
609.251	208.88
609.459	215.88
609.667	204.88
609.875	215.88
610.083	206.88
610.291	218.88
610.499	209.88
610.707	202.88
610.916	209.88
611.124	210.88
611.332	198.88
611.54	221.88
611.748	205.88
611.955	199.88
612.163	213.88
612.371	205.88
612.579	211.88
612.787	217.88
612.995	201.88
613.203	207.88
613.411	205.88
613.618	203.88
613.826	203.88
614.034	191.88
614.242	204.88
614.449	216.88
614.657	202.88
614.865	198.88
615.072	200.88
615.28	194.88
615.488	204.88
615.695	203.88
615.903	222.88
616.111	209.88
616.318	200.88
616.526	208.88
616.733	212.88
616.941	204.88
617.148	202.88
617.356	209.88
617.563	195.88
617.771	197.88
617.978	184.88
618.185	197.88
618.393	201.88
618.6	210.88
618.807	195.88
619.015	203.88
619.222	211.88
619.429	201.88
619.637	203.88
619.844	197.88
620.051	183.88
620.258	192.88
620.466	196.88
620.673	193.88
620.88	191.88
621.087	199.88
621.294	195.88
621.501	205.88
621.708	204.88
621.915	201.88
622.122	187.88
622.329	205.88
622.536	196.88
622.743	206.88
622.95	188.88
623.157	191.88
623.364	190.88
623.571	185.88
623.778	202.88
623.985	203.88
624.192	201.88
624.399	198.88
624.606	185.88
624.812	180.88
625.019	194.88
625.226	183.88
625.433	181.88
625.639	181.88
625.846	175.88
626.053	174.88
626.259	176.88
626.466	179.88
626.673	173.88
626.879	179.88
627.086	192.88
627.293	170.88
627.499	185.88
627.706	189.88
627.912	176.88
628.119	188.88
628.325	159.88
628.532	165.88
628.738	185.88
628.945	171.88
629.151	186.88
629.357	197.88
629.564	162.88
629.77	197.88
629.976	189.88
630.183	176.88
630.389	175.88
630.595	171.88
630.802	186.88
631.008	181.88
631.214	167.88
631.42	170.88
631.627	169.88
631.833	172.88
632.039	159.88
632.245	172.88
632.451	163.88
632.657	161.88
632.863	160.88
633.069	176.88
633.275	168.88
633.481	172.88
633.688	167.88
633.893	168.88
634.099	161.88
634.305	156.88
634.511	160.88
634.717	175.88
634.923	165.88
635.129	159.88
635.335	145.88
635.541	161.88
635.747	170.88
635.952	156.88
636.158	167.88
636.364	167.88
636.57	169.88
636.775	162.88
636.981	160.88
637.187	165.88
637.392	174.88
637.598	165.88
637.804	144.88
638.009	165.88
638.215	153.88
638.421	171.88
638.626	169.88
638.832	160.88
639.037	160.88
639.243	155.88
639.448	154.88
639.654	164.88
639.859	177.88
640.065	160.88
640.27	176.88
640.475	159.88
640.681	148.88
640.886	155.88
641.091	179.88
641.297	155.88
641.502	155.88
641.707	177.88
641.913	145.88
642.118	160.88
642.323	153.88
642.528	160.88
642.733	153.88
642.939	156.88
643.144	143.88
643.349	159.88
643.554	163.88
643.759	150.88
643.964	144.88
644.169	152.88
644.374	151.88
644.579	141.88
644.784	156.88
644.989	148.88
645.194	142.88
645.399	151.88
645.604	149.88
645.809	140.88
646.014	137.88
646.219	135.88
646.423	139.88
646.628	167.88
646.833	149.88
647.038	142.88
647.243	145.88
647.447	171.88
647.652	147.88
647.857	144.88
648.062	146.88
648.266	136.88
648.471	161.88
648.676	151.88
648.88	147.88
649.085	144.88
649.289	161.88
649.494	148.88
649.698	176.88
649.903	176.88
650.107	157.88
650.312	147.88
650.516	155.88
650.721	155.88
650.925	141.88
651.13	143.88
651.334	136.88
651.539	138.88
651.743	149.88
651.947	113.88
652.152	125.88
652.356	132.88
652.56	120.88
652.764	128.88
652.969	132.88
653.173	117.88
653.377	121.88
653.581	129.88
653.785	142.88
653.99	119.88
654.194	125.88
654.398	133.88
654.602	122.88
654.806	135.88
655.01	135.88
655.214	124.88
655.418	126.88
655.622	131.88
655.826	137.88
656.03	139.88
656.234	128.88
656.438	143.88
656.642	143.88
656.846	123.88
657.049	118.88
657.253	128.88
657.457	133.88
657.661	109.88
657.865	110.88
658.068	102.88
658.272	99.88
658.476	89.88
658.68	115.88
658.883	95.88
659.087	105.88
659.291	88.88
659.494	102.88
659.698	111.88
659.901	100.88
660.105	86.88
660.309	76.88
660.512	96.88
660.716	98.88
660.919	88.88
661.123	79.88
661.326	99.88
661.53	103.88
661.733	93.88
661.936	91.88
662.14	78.88
662.343	75.88
662.546	84.88
662.75	95.88
662.953	87.88
663.156	81.88
663.36	89.88
663.563	73.88
663.766	86.88
663.969	96.88
664.173	87.88
664.376	86.88
664.579	83.88
664.782	81.88
664.985	86.88
665.188	93.88
665.391	92.88
665.594	95.88
665.797	82.88
666	79.88
666.203	83.88
666.406	78.88
666.609	94.88
666.812	83.88
667.015	72.88
667.218	75.88
667.421	71.88
667.624	85.88
667.827	92.88
668.03	90.88
668.232	89.88
668.435	86.88
668.638	89.88
668.841	87.88
669.043	88.88
669.246	84.88
669.449	80.88
669.651	87.88
669.854	71.88
670.057	76.88
670.259	85.88
670.462	80.88
670.665	82.88
670.867	82.88
671.07	91.88
671.272	88.88
671.475	83.88
671.677	80.88
671.88	70.88
672.082	81.88
672.284	80.88
672.487	84.88
672.689	81.88
672.892	71.88
