Data from 1965.PennyLincolnUp.Lamp.En5.5.200Scan.071719.P1._HRD10591_14-08-28-911.txt Node
Date: Thu Jul 18 14:08:28 EDT 2019
User: cochatt
Spectrometer: HR+D1059
Trigger mode: 1
Integration Time (sec): 1.000000E-1
Scans to average: 1
Electric dark correction enabled: true
Nonlinearity correction enabled: false
Boxcar width: 0
XAxis mode: Wavelengths
Number of Pixels in Spectrum: 2048
>>>>>Begin Spectral Data<<<<<
223.165	-22.31
223.4	-22.31
223.635	-22.31
223.869	11.69
224.104	-12.31
224.338	-33.31
224.573	-23.31
224.808	-24.31
225.042	4.69
225.277	-2.31
225.511	-1.31
225.746	8.69
225.98	3.69
226.215	21.69
226.449	16.69
226.683	13.69
226.918	8.69
227.152	29.69
227.387	34.69
227.621	34.69
227.856	42.69
228.09	43.69
228.324	50.69
228.559	40.69
228.793	73.69
229.027	94.69
229.262	104.69
229.496	105.69
229.73	115.69
229.964	134.69
230.199	113.69
230.433	124.69
230.667	112.69
230.901	97.69
231.136	98.69
231.37	121.69
231.604	113.69
231.838	107.69
232.072	101.69
232.306	92.69
232.541	105.69
232.775	97.69
233.009	98.69
233.243	108.69
233.477	120.69
233.711	107.69
233.945	108.69
234.179	103.69
234.413	104.69
234.647	103.69
234.881	98.69
235.115	107.69
235.349	110.69
235.583	93.69
235.817	120.69
236.051	120.69
236.285	112.69
236.519	124.69
236.753	120.69
236.987	138.69
237.221	156.69
237.455	201.69
237.689	151.69
237.922	125.69
238.156	113.69
238.39	117.69
238.624	108.69
238.858	112.69
239.091	121.69
239.325	119.69
239.559	122.69
239.793	103.69
240.027	132.69
240.26	121.69
240.494	141.69
240.728	137.69
240.961	136.69
241.195	122.69
241.429	134.69
241.662	138.69
241.896	110.69
242.13	119.69
242.363	118.69
242.597	115.69
242.83	129.69
243.064	117.69
243.298	109.69
243.531	121.69
243.765	131.69
243.998	120.69
244.232	124.69
244.465	125.69
244.699	128.69
244.932	130.69
245.166	110.69
245.399	134.69
245.633	134.69
245.866	142.69
246.099	134.69
246.333	137.69
246.566	127.69
246.8	130.69
247.033	141.69
247.266	135.69
247.5	146.69
247.733	144.69
247.966	144.69
248.2	135.69
248.433	143.69
248.666	152.69
248.899	163.69
249.133	186.69
249.366	190.69
249.599	179.69
249.832	165.69
250.066	161.69
250.299	150.69
250.532	182.69
250.765	185.69
250.998	190.69
251.231	181.69
251.465	192.69
251.698	179.69
251.931	185.69
252.164	171.69
252.397	157.69
252.63	172.69
252.863	177.69
253.096	169.69
253.329	203.69
253.562	198.69
253.795	195.69
254.028	183.69
254.261	185.69
254.494	187.69
254.727	226.69
254.96	237.69
255.193	222.69
255.426	211.69
255.659	201.69
255.892	200.69
256.124	204.69
256.357	205.69
256.59	189.69
256.823	173.69
257.056	188.69
257.289	188.69
257.521	194.69
257.754	178.69
257.987	176.69
258.22	191.69
258.452	183.69
258.685	175.69
258.918	192.69
259.151	172.69
259.383	181.69
259.616	185.69
259.849	183.69
260.081	213.69
260.314	225.69
260.547	221.69
260.779	211.69
261.012	197.69
261.244	187.69
261.477	203.69
261.71	190.69
261.942	192.69
262.175	215.69
262.407	202.69
262.64	189.69
262.872	193.69
263.105	202.69
263.337	186.69
263.57	174.69
263.802	174.69
264.035	184.69
264.267	193.69
264.499	177.69
264.732	203.69
264.964	168.69
265.197	190.69
265.429	181.69
265.661	191.69
265.894	166.69
266.126	184.69
266.358	192.69
266.591	186.69
266.823	189.69
267.055	212.69
267.287	209.69
267.52	191.69
267.752	211.69
267.984	180.69
268.216	187.69
268.448	213.69
268.681	197.69
268.913	218.69
269.145	219.69
269.377	222.69
269.609	215.69
269.841	236.69
270.073	227.69
270.306	257.69
270.538	276.69
270.77	274.69
271.002	250.69
271.234	238.69
271.466	262.69
271.698	263.69
271.93	267.69
272.162	277.69
272.394	259.69
272.626	260.69
272.858	238.69
273.09	241.69
273.322	235.69
273.553	247.69
273.785	219.69
274.017	229.69
274.249	223.69
274.481	235.69
274.713	220.69
274.945	220.69
275.176	225.69
275.408	221.69
275.64	238.69
275.872	216.69
276.104	220.69
276.335	215.69
276.567	233.69
276.799	244.69
277.031	272.69
277.262	261.69
277.494	263.69
277.726	260.69
277.957	243.69
278.189	253.69
278.421	230.69
278.652	218.69
278.884	231.69
279.115	214.69
279.347	227.69
279.579	233.69
279.81	225.69
280.042	230.69
280.273	222.69
280.505	214.69
280.736	237.69
280.968	228.69
281.199	229.69
281.431	229.69
281.662	221.69
281.894	230.69
282.125	237.69
282.356	231.69
282.588	272.69
282.819	281.69
283.051	231.69
283.282	241.69
283.513	249.69
283.745	241.69
283.976	239.69
284.207	247.69
284.439	236.69
284.67	248.69
284.901	226.69
285.132	241.69
285.364	233.69
285.595	247.69
285.826	252.69
286.057	228.69
286.288	235.69
286.52	227.69
286.751	235.69
286.982	244.69
287.213	220.69
287.444	242.69
287.675	263.69
287.906	235.69
288.138	253.69
288.369	246.69
288.6	242.69
288.831	244.69
289.062	242.69
289.293	248.69
289.524	245.69
289.755	251.69
289.986	242.69
290.217	263.69
290.448	248.69
290.679	253.69
290.91	243.69
291.141	260.69
291.371	244.69
291.602	232.69
291.833	231.69
292.064	253.69
292.295	234.69
292.526	254.69
292.757	238.69
292.987	264.69
293.218	224.69
293.449	251.69
293.68	252.69
293.91	246.69
294.141	227.69
294.372	230.69
294.603	249.69
294.833	256.69
295.064	257.69
295.295	236.69
295.525	256.69
295.756	263.69
295.987	247.69
296.217	274.69
296.448	264.69
296.679	262.69
296.909	256.69
297.14	255.69
297.37	265.69
297.601	248.69
297.831	266.69
298.062	261.69
298.292	256.69
298.523	273.69
298.753	285.69
298.984	265.69
299.214	258.69
299.445	271.69
299.675	279.69
299.905	282.69
300.136	272.69
300.366	271.69
300.597	258.69
300.827	262.69
301.057	281.69
301.288	285.69
301.518	281.69
301.748	265.69
301.979	279.69
302.209	273.69
302.439	254.69
302.669	291.69
302.9	280.69
303.13	275.69
303.36	280.69
303.59	293.69
303.82	291.69
304.051	260.69
304.281	272.69
304.511	282.69
304.741	269.69
304.971	266.69
305.201	276.69
305.431	276.69
305.661	279.69
305.891	263.69
306.121	275.69
306.352	288.69
306.582	299.69
306.812	290.69
307.042	276.69
307.272	280.69
307.502	265.69
307.731	292.69
307.961	277.69
308.191	292.69
308.421	303.69
308.651	296.69
308.881	296.69
309.111	299.69
309.341	306.69
309.571	321.69
309.8	315.69
310.03	321.69
310.26	334.69
310.49	325.69
310.72	324.69
310.949	359.69
311.179	349.69
311.409	330.69
311.639	318.69
311.868	331.69
312.098	340.69
312.328	317.69
312.557	338.69
312.787	355.69
313.017	333.69
313.246	326.69
313.476	313.69
313.706	318.69
313.935	327.69
314.165	342.69
314.394	341.69
314.624	352.69
314.853	319.69
315.083	330.69
315.312	327.69
315.542	314.69
315.771	307.69
316.001	303.69
316.23	326.69
316.46	317.69
316.689	319.69
316.919	318.69
317.148	328.69
317.377	354.69
317.607	321.69
317.836	312.69
318.065	319.69
318.295	319.69
318.524	339.69
318.753	307.69
318.983	334.69
319.212	325.69
319.441	346.69
319.67	342.69
319.9	339.69
320.129	334.69
320.358	340.69
320.587	314.69
320.816	334.69
321.046	353.69
321.275	344.69
321.504	331.69
321.733	347.69
321.962	361.69
322.191	374.69
322.42	369.69
322.649	373.69
322.878	377.69
323.108	389.69
323.337	410.69
323.566	437.69
323.795	455.69
324.024	541.69
324.253	639.69
324.482	917.69
324.71	1377.69
324.939	1874.69
325.168	1571.69
325.397	827.69
325.626	573.69
325.855	490.69
326.084	465.69
326.313	454.69
326.542	462.69
326.77	496.69
326.999	575.69
327.228	803.69
327.457	1162.69
327.686	1393.69
327.914	925.69
328.143	629.69
328.372	563.69
328.6	537.69
328.829	505.69
329.058	522.69
329.287	507.69
329.515	476.69
329.744	460.69
329.972	414.69
330.201	455.69
330.43	491.69
330.658	536.69
330.887	540.69
331.115	514.69
331.344	445.69
331.572	403.69
331.801	415.69
332.03	405.69
332.258	414.69
332.486	391.69
332.715	384.69
332.943	383.69
333.172	384.69
333.4	379.69
333.629	377.69
333.857	404.69
334.085	413.69
334.314	421.69
334.542	446.69
334.771	464.69
334.999	414.69
335.227	396.69
335.455	405.69
335.684	394.69
335.912	367.69
336.14	385.69
336.369	379.69
336.597	396.69
336.825	396.69
337.053	370.69
337.281	355.69
337.51	351.69
337.738	395.69
337.966	367.69
338.194	367.69
338.422	386.69
338.65	352.69
338.878	376.69
339.106	356.69
339.334	354.69
339.562	375.69
339.79	360.69
340.018	346.69
340.246	380.69
340.474	363.69
340.702	353.69
340.93	373.69
341.158	364.69
341.386	358.69
341.614	385.69
341.842	362.69
342.07	332.69
342.298	349.69
342.526	349.69
342.754	330.69
342.981	333.69
343.209	363.69
343.437	345.69
343.665	346.69
343.893	349.69
344.12	360.69
344.348	377.69
344.576	364.69
344.804	382.69
345.031	374.69
345.259	381.69
345.487	373.69
345.714	366.69
345.942	361.69
346.17	361.69
346.397	361.69
346.625	371.69
346.853	354.69
347.08	341.69
347.308	342.69
347.535	359.69
347.763	349.69
347.99	365.69
348.218	365.69
348.445	363.69
348.673	367.69
348.9	362.69
349.128	351.69
349.355	335.69
349.583	338.69
349.81	326.69
350.037	346.69
350.265	362.69
350.492	357.69
350.72	358.69
350.947	341.69
351.174	361.69
351.402	378.69
351.629	348.69
351.856	362.69
352.083	359.69
352.311	363.69
352.538	369.69
352.765	360.69
352.992	349.69
353.22	359.69
353.447	343.69
353.674	350.69
353.901	351.69
354.128	345.69
354.355	340.69
354.583	322.69
354.81	337.69
355.037	350.69
355.264	341.69
355.491	313.69
355.718	329.69
355.945	317.69
356.172	336.69
356.399	336.69
356.626	338.69
356.853	328.69
357.08	348.69
357.307	347.69
357.534	328.69
357.761	328.69
357.988	332.69
358.215	327.69
358.441	329.69
358.668	317.69
358.895	343.69
359.122	359.69
359.349	340.69
359.576	362.69
359.802	366.69
360.029	404.69
360.256	415.69
360.483	384.69
360.709	387.69
360.936	345.69
361.163	353.69
361.39	378.69
361.616	369.69
361.843	356.69
362.07	373.69
362.296	355.69
362.523	359.69
362.749	358.69
362.976	347.69
363.203	342.69
363.429	351.69
363.656	353.69
363.882	343.69
364.109	331.69
364.335	348.69
364.562	320.69
364.788	337.69
365.015	353.69
365.241	342.69
365.468	332.69
365.694	344.69
365.92	366.69
366.147	347.69
366.373	338.69
366.599	340.69
366.826	342.69
367.052	323.69
367.278	334.69
367.505	346.69
367.731	345.69
367.957	349.69
368.184	356.69
368.41	355.69
368.636	346.69
368.862	338.69
369.089	325.69
369.315	337.69
369.541	338.69
369.767	332.69
369.993	330.69
370.219	329.69
370.445	352.69
370.672	330.69
370.898	334.69
371.124	320.69
371.35	324.69
371.576	318.69
371.802	313.69
372.028	333.69
372.254	342.69
372.48	321.69
372.706	336.69
372.932	322.69
373.158	330.69
373.384	325.69
373.61	358.69
373.835	328.69
374.061	339.69
374.287	350.69
374.513	334.69
374.739	326.69
374.965	329.69
375.191	334.69
375.416	350.69
375.642	325.69
375.868	341.69
376.094	349.69
376.319	328.69
376.545	334.69
376.771	337.69
376.997	342.69
377.222	325.69
377.448	327.69
377.674	315.69
377.899	325.69
378.125	322.69
378.35	309.69
378.576	340.69
378.802	316.69
379.027	319.69
379.253	342.69
379.478	314.69
379.704	334.69
379.929	330.69
380.155	327.69
380.38	332.69
380.606	330.69
380.831	339.69
381.057	335.69
381.282	341.69
381.507	327.69
381.733	343.69
381.958	319.69
382.184	323.69
382.409	336.69
382.634	343.69
382.86	338.69
383.085	337.69
383.31	341.69
383.535	346.69
383.761	346.69
383.986	341.69
384.211	359.69
384.436	359.69
384.662	354.69
384.887	342.69
385.112	346.69
385.337	364.69
385.562	369.69
385.787	347.69
386.013	359.69
386.238	381.69
386.463	385.69
386.688	375.69
386.913	358.69
387.138	354.69
387.363	359.69
387.588	333.69
387.813	348.69
388.038	348.69
388.263	360.69
388.488	380.69
388.713	351.69
388.938	347.69
389.163	368.69
389.387	354.69
389.612	353.69
389.837	363.69
390.062	352.69
390.287	356.69
390.512	352.69
390.736	353.69
390.961	359.69
391.186	361.69
391.411	381.69
391.636	362.69
391.86	360.69
392.085	373.69
392.31	350.69
392.534	358.69
392.759	355.69
392.984	343.69
393.208	354.69
393.433	379.69
393.658	364.69
393.882	356.69
394.107	370.69
394.331	353.69
394.556	355.69
394.78	370.69
395.005	345.69
395.229	353.69
395.454	375.69
395.678	387.69
395.903	382.69
396.127	406.69
396.352	396.69
396.576	380.69
396.801	395.69
397.025	395.69
397.249	375.69
397.474	364.69
397.698	382.69
397.922	393.69
398.147	390.69
398.371	403.69
398.595	405.69
398.82	406.69
399.044	404.69
399.268	428.69
399.492	437.69
399.717	449.69
399.941	472.69
400.165	476.69
400.389	506.69
400.613	467.69
400.837	443.69
401.062	408.69
401.286	423.69
401.51	414.69
401.734	402.69
401.958	397.69
402.182	415.69
402.406	419.69
402.63	411.69
402.854	400.69
403.078	424.69
403.302	413.69
403.526	427.69
403.75	428.69
403.974	422.69
404.198	417.69
404.422	423.69
404.645	435.69
404.869	450.69
405.093	456.69
405.317	492.69
405.541	489.69
405.765	458.69
405.988	417.69
406.212	455.69
406.436	474.69
406.66	488.69
406.883	453.69
407.107	475.69
407.331	517.69
407.555	547.69
407.778	540.69
408.002	487.69
408.226	457.69
408.449	457.69
408.673	479.69
408.896	483.69
409.12	521.69
409.344	497.69
409.567	441.69
409.791	426.69
410.014	420.69
410.238	421.69
410.461	430.69
410.685	437.69
410.908	431.69
411.132	462.69
411.355	470.69
411.578	460.69
411.802	433.69
412.025	433.69
412.249	439.69
412.472	461.69
412.695	468.69
412.919	474.69
413.142	410.69
413.365	423.69
413.589	407.69
413.812	412.69
414.035	413.69
414.258	408.69
414.482	408.69
414.705	403.69
414.928	398.69
415.151	393.69
415.374	385.69
415.597	422.69
415.821	411.69
416.044	389.69
416.267	389.69
416.49	392.69
416.713	402.69
416.936	378.69
417.159	403.69
417.382	401.69
417.605	385.69
417.828	405.69
418.051	426.69
418.274	407.69
418.497	417.69
418.72	419.69
418.943	386.69
419.166	425.69
419.389	415.69
419.611	429.69
419.834	402.69
420.057	422.69
420.28	412.69
420.503	403.69
420.726	417.69
420.948	421.69
421.171	452.69
421.394	474.69
421.617	431.69
421.839	435.69
422.062	442.69
422.285	422.69
422.507	468.69
422.73	525.69
422.953	505.69
423.175	442.69
423.398	462.69
423.621	424.69
423.843	457.69
424.066	437.69
424.288	436.69
424.511	453.69
424.733	524.69
424.956	581.69
425.178	546.69
425.401	540.69
425.623	547.69
425.846	506.69
426.068	433.69
426.291	457.69
426.513	451.69
426.735	458.69
426.958	525.69
427.18	574.69
427.402	661.69
427.625	748.69
427.847	645.69
428.069	536.69
428.292	486.69
428.514	465.69
428.736	441.69
428.958	445.69
429.181	427.69
429.403	433.69
429.625	433.69
429.847	449.69
430.069	526.69
430.292	493.69
430.514	430.69
430.736	424.69
430.958	419.69
431.18	410.69
431.402	420.69
431.624	377.69
431.846	385.69
432.068	388.69
432.29	399.69
432.512	407.69
432.734	397.69
432.956	406.69
433.178	405.69
433.4	409.69
433.622	401.69
433.844	389.69
434.066	395.69
434.287	405.69
434.509	397.69
434.731	401.69
434.953	409.69
435.175	431.69
435.397	441.69
435.618	460.69
435.84	484.69
436.062	550.69
436.284	600.69
436.505	501.69
436.727	470.69
436.949	447.69
437.17	446.69
437.392	423.69
437.614	441.69
437.835	467.69
438.057	546.69
438.278	630.69
438.5	605.69
438.721	656.69
438.943	634.69
439.165	484.69
439.386	487.69
439.608	460.69
439.829	458.69
440.05	488.69
440.272	521.69
440.493	487.69
440.715	442.69
440.936	434.69
441.158	437.69
441.379	435.69
441.6	445.69
441.822	446.69
442.043	493.69
442.264	576.69
442.486	597.69
442.707	533.69
442.928	484.69
443.149	474.69
443.371	482.69
443.592	535.69
443.813	588.69
444.034	610.69
444.255	540.69
444.476	475.69
444.698	454.69
444.919	450.69
445.14	533.69
445.361	494.69
445.582	482.69
445.803	552.69
446.024	607.69
446.245	620.69
446.466	575.69
446.687	488.69
446.908	462.69
447.129	437.69
447.35	437.69
447.571	434.69
447.792	407.69
448.013	409.69
448.234	437.69
448.455	493.69
448.675	556.69
448.896	656.69
449.117	559.69
449.338	543.69
449.559	626.69
449.779	689.69
450	563.69
450.221	476.69
450.442	421.69
450.662	417.69
450.883	452.69
451.104	453.69
451.324	430.69
451.545	412.69
451.766	410.69
451.986	380.69
452.207	381.69
452.428	381.69
452.648	382.69
452.869	369.69
453.089	378.69
453.31	388.69
453.53	383.69
453.751	404.69
453.971	404.69
454.192	412.69
454.412	383.69
454.633	367.69
454.853	372.69
455.073	373.69
455.294	402.69
455.514	463.69
455.734	439.69
455.955	395.69
456.175	369.69
456.395	377.69
456.616	358.69
456.836	360.69
457.056	352.69
457.276	349.69
457.497	361.69
457.717	372.69
457.937	377.69
458.157	377.69
458.377	374.69
458.598	385.69
458.818	437.69
459.038	497.69
459.258	515.69
459.478	434.69
459.698	423.69
459.918	397.69
460.138	387.69
460.358	407.69
460.578	410.69
460.798	393.69
461.018	400.69
461.238	436.69
461.458	402.69
461.678	411.69
461.898	391.69
462.118	397.69
462.338	403.69
462.558	418.69
462.777	412.69
462.997	438.69
463.217	424.69
463.437	407.69
463.657	415.69
463.876	447.69
464.096	423.69
464.316	415.69
464.536	442.69
464.755	437.69
464.975	435.69
465.195	471.69
465.414	549.69
465.634	489.69
465.854	452.69
466.073	409.69
466.293	421.69
466.512	394.69
466.732	407.69
466.951	393.69
467.171	399.69
467.391	388.69
467.61	404.69
467.829	414.69
468.049	411.69
468.268	406.69
468.488	394.69
468.707	385.69
468.927	383.69
469.146	365.69
469.365	381.69
469.585	390.69
469.804	391.69
470.023	403.69
470.243	404.69
470.462	429.69
470.681	412.69
470.901	415.69
471.12	369.69
471.339	383.69
471.558	387.69
471.777	390.69
471.997	392.69
472.216	397.69
472.435	434.69
472.654	416.69
472.873	389.69
473.092	401.69
473.311	398.69
473.53	414.69
473.749	411.69
473.968	455.69
474.187	515.69
474.406	530.69
474.625	462.69
474.844	437.69
475.063	411.69
475.282	399.69
475.501	419.69
475.72	403.69
475.939	424.69
476.158	395.69
476.377	397.69
476.596	396.69
476.814	399.69
477.033	423.69
477.252	418.69
477.471	413.69
477.69	421.69
477.908	439.69
478.127	406.69
478.346	442.69
478.564	443.69
478.783	410.69
479.002	451.69
479.22	457.69
479.439	472.69
479.658	474.69
479.876	483.69
480.095	478.69
480.313	504.69
480.532	494.69
480.751	497.69
480.969	497.69
481.188	533.69
481.406	581.69
481.624	527.69
481.843	488.69
482.061	476.69
482.28	456.69
482.498	459.69
482.717	470.69
482.935	469.69
483.153	477.69
483.372	470.69
483.59	478.69
483.808	468.69
484.027	465.69
484.245	462.69
484.463	486.69
484.681	499.69
484.9	468.69
485.118	476.69
485.336	480.69
485.554	486.69
485.772	483.69
485.99	495.69
486.209	495.69
486.427	502.69
486.645	503.69
486.863	522.69
487.081	503.69
487.299	478.69
487.517	517.69
487.735	499.69
487.953	490.69
488.171	515.69
488.389	505.69
488.607	505.69
488.825	501.69
489.043	478.69
489.261	491.69
489.479	505.69
489.696	515.69
489.914	511.69
490.132	519.69
490.35	521.69
490.568	509.69
490.786	531.69
491.003	537.69
491.221	545.69
491.439	562.69
491.657	562.69
491.874	562.69
492.092	590.69
492.31	585.69
492.527	561.69
492.745	583.69
492.963	582.69
493.18	575.69
493.398	586.69
493.615	565.69
493.833	577.69
494.05	582.69
494.268	581.69
494.485	586.69
494.703	597.69
494.92	557.69
495.138	573.69
495.355	586.69
495.573	576.69
495.79	574.69
496.008	583.69
496.225	595.69
496.442	604.69
496.66	579.69
496.877	605.69
497.094	603.69
497.312	597.69
497.529	612.69
497.746	612.69
497.963	608.69
498.181	636.69
498.398	633.69
498.615	636.69
498.832	685.69
499.049	647.69
499.267	663.69
499.484	693.69
499.701	684.69
499.918	703.69
500.135	724.69
500.352	760.69
500.569	760.69
500.786	770.69
501.003	735.69
501.22	743.69
501.437	735.69
501.654	726.69
501.871	711.69
502.088	681.69
502.305	685.69
502.522	646.69
502.739	645.69
502.956	624.69
503.172	627.69
503.389	635.69
503.606	615.69
503.823	630.69
504.04	612.69
504.256	589.69
504.473	608.69
504.69	592.69
504.907	593.69
505.123	581.69
505.34	579.69
505.557	577.69
505.773	570.69
505.99	577.69
506.207	568.69
506.423	561.69
506.64	575.69
506.856	553.69
507.073	560.69
507.289	561.69
507.506	551.69
507.722	566.69
507.939	596.69
508.155	561.69
508.372	542.69
508.588	555.69
508.805	544.69
509.021	558.69
509.238	547.69
509.454	551.69
509.67	554.69
509.887	533.69
510.103	541.69
510.319	565.69
510.536	623.69
510.752	1111.69
510.968	894.69
511.184	608.69
511.401	537.69
511.617	538.69
511.833	501.69
512.049	535.69
512.265	535.69
512.481	550.69
512.698	526.69
512.914	525.69
513.13	520.69
513.346	518.69
513.562	519.69
513.778	521.69
513.994	535.69
514.21	569.69
514.426	569.69
514.642	593.69
514.858	623.69
515.074	658.69
515.29	825.69
515.506	1209.69
515.721	974.69
515.937	637.69
516.153	602.69
516.369	554.69
516.585	551.69
516.801	537.69
517.016	561.69
517.232	532.69
517.448	533.69
517.664	520.69
517.879	546.69
518.095	526.69
518.311	522.69
518.527	534.69
518.742	514.69
518.958	515.69
519.173	527.69
519.389	517.69
519.605	509.69
519.82	519.69
520.036	565.69
520.251	563.69
520.467	595.69
520.682	598.69
520.898	574.69
521.113	600.69
521.329	670.69
521.544	721.69
521.76	935.69
521.975	1592.69
522.19	1593.69
522.406	852.69
522.621	637.69
522.836	541.69
523.052	539.69
523.267	513.69
523.482	508.69
523.698	505.69
523.913	481.69
524.128	475.69
524.343	464.69
524.559	462.69
524.774	452.69
524.989	455.69
525.204	488.69
525.419	463.69
525.634	454.69
525.849	459.69
526.064	433.69
526.28	451.69
526.495	450.69
526.71	462.69
526.925	422.69
527.14	416.69
527.355	424.69
527.57	432.69
527.785	417.69
527.999	425.69
528.214	416.69
528.429	422.69
528.644	427.69
528.859	411.69
529.074	420.69
529.289	443.69
529.503	538.69
529.718	516.69
529.933	449.69
530.148	457.69
530.363	422.69
530.577	436.69
530.792	414.69
531.007	418.69
531.221	402.69
531.436	413.69
531.651	421.69
531.865	386.69
532.08	410.69
532.295	412.69
532.509	406.69
532.724	400.69
532.938	391.69
533.153	409.69
533.367	397.69
533.582	408.69
533.796	392.69
534.011	395.69
534.225	396.69
534.44	383.69
534.654	405.69
534.868	399.69
535.083	395.69
535.297	393.69
535.511	410.69
535.726	433.69
535.94	419.69
536.154	411.69
536.369	413.69
536.583	407.69
536.797	413.69
537.011	400.69
537.225	387.69
537.44	395.69
537.654	365.69
537.868	399.69
538.082	397.69
538.296	385.69
538.51	393.69
538.724	381.69
538.938	382.69
539.153	365.69
539.367	417.69
539.581	435.69
539.795	408.69
540.009	394.69
540.222	387.69
540.436	387.69
540.65	383.69
540.864	381.69
541.078	379.69
541.292	407.69
541.506	387.69
541.72	387.69
541.934	382.69
542.147	395.69
542.361	379.69
542.575	362.69
542.789	391.69
543.002	376.69
543.216	383.69
543.43	389.69
543.644	380.69
543.857	383.69
544.071	407.69
544.285	374.69
544.498	380.69
544.712	384.69
544.925	369.69
545.139	371.69
545.352	377.69
545.566	375.69
545.779	374.69
545.993	390.69
546.206	382.69
546.42	355.69
546.633	373.69
546.847	350.69
547.06	366.69
547.274	376.69
547.487	362.69
547.7	348.69
547.914	358.69
548.127	359.69
548.34	346.69
548.554	376.69
548.767	367.69
548.98	358.69
549.193	351.69
549.407	366.69
549.62	383.69
549.833	386.69
550.046	369.69
550.259	366.69
550.473	348.69
550.686	373.69
550.899	362.69
551.112	351.69
551.325	369.69
551.538	357.69
551.751	369.69
551.964	364.69
552.177	363.69
552.39	357.69
552.603	354.69
552.816	362.69
553.029	351.69
553.242	357.69
553.455	377.69
553.667	359.69
553.88	364.69
554.093	377.69
554.306	372.69
554.519	370.69
554.732	356.69
554.944	373.69
555.157	350.69
555.37	371.69
555.583	368.69
555.795	361.69
556.008	339.69
556.221	338.69
556.433	342.69
556.646	324.69
556.859	332.69
557.071	329.69
557.284	329.69
557.496	344.69
557.709	338.69
557.921	331.69
558.134	362.69
558.346	328.69
558.559	307.69
558.771	341.69
558.984	341.69
559.196	312.69
559.409	310.69
559.621	331.69
559.833	321.69
560.046	324.69
560.258	318.69
560.47	316.69
560.683	313.69
560.895	323.69
561.107	326.69
561.32	311.69
561.532	321.69
561.744	311.69
561.956	323.69
562.168	312.69
562.381	331.69
562.593	327.69
562.805	330.69
563.017	339.69
563.229	342.69
563.441	327.69
563.653	344.69
563.865	343.69
564.077	322.69
564.289	339.69
564.501	341.69
564.713	339.69
564.925	332.69
565.137	343.69
565.349	356.69
565.561	347.69
565.773	353.69
565.985	345.69
566.197	349.69
566.408	343.69
566.62	362.69
566.832	371.69
567.044	381.69
567.255	374.69
567.467	394.69
567.679	374.69
567.891	384.69
568.102	370.69
568.314	378.69
568.526	370.69
568.737	383.69
568.949	342.69
569.161	337.69
569.372	331.69
569.584	340.69
569.795	342.69
570.007	339.69
570.218	374.69
570.43	377.69
570.641	333.69
570.853	310.69
571.064	318.69
571.276	314.69
571.487	316.69
571.698	296.69
571.91	314.69
572.121	292.69
572.333	293.69
572.544	302.69
572.755	294.69
572.966	309.69
573.178	291.69
573.389	294.69
573.6	296.69
573.811	301.69
574.023	295.69
574.234	299.69
574.445	281.69
574.656	296.69
574.867	295.69
575.078	281.69
575.289	279.69
575.501	269.69
575.712	269.69
575.923	251.69
576.134	273.69
576.345	275.69
576.556	289.69
576.767	285.69
576.978	271.69
577.188	280.69
577.399	294.69
577.61	294.69
577.821	280.69
578.032	266.69
578.243	314.69
578.454	554.69
578.665	381.69
578.875	302.69
579.086	281.69
579.297	263.69
579.508	268.69
579.718	264.69
579.929	255.69
580.14	263.69
580.35	275.69
580.561	255.69
580.772	266.69
580.982	253.69
581.193	242.69
581.403	268.69
581.614	259.69
581.825	251.69
582.035	261.69
582.246	261.69
582.456	261.69
582.667	271.69
582.877	259.69
583.087	253.69
583.298	249.69
583.508	254.69
583.719	252.69
583.929	277.69
584.139	249.69
584.35	244.69
584.56	265.69
584.77	259.69
584.981	234.69
585.191	244.69
585.401	259.69
585.611	264.69
585.821	262.69
586.032	253.69
586.242	262.69
586.452	263.69
586.662	230.69
586.872	248.69
587.082	242.69
587.292	257.69
587.502	249.69
587.713	270.69
587.923	232.69
588.133	247.69
588.343	233.69
588.553	261.69
588.762	249.69
588.972	259.69
589.182	322.69
589.392	309.69
589.602	250.69
589.812	321.69
590.022	280.69
590.232	236.69
590.441	243.69
590.651	259.69
590.861	241.69
591.071	263.69
591.281	252.69
591.49	261.69
591.7	259.69
591.91	264.69
592.119	241.69
592.329	246.69
592.539	258.69
592.748	250.69
592.958	246.69
593.167	247.69
593.377	253.69
593.587	264.69
593.796	246.69
594.006	269.69
594.215	273.69
594.424	268.69
594.634	270.69
594.843	260.69
595.053	245.69
595.262	245.69
595.472	228.69
595.681	230.69
595.89	219.69
596.1	227.69
596.309	234.69
596.518	225.69
596.727	245.69
596.937	238.69
597.146	229.69
597.355	237.69
597.564	222.69
597.774	221.69
597.983	231.69
598.192	211.69
598.401	216.69
598.61	233.69
598.819	225.69
599.028	219.69
599.237	215.69
599.446	233.69
599.655	231.69
599.864	229.69
600.073	224.69
600.282	229.69
600.491	230.69
600.7	237.69
600.909	218.69
601.118	213.69
601.327	210.69
601.536	225.69
601.745	234.69
601.953	213.69
602.162	213.69
602.371	203.69
602.58	213.69
602.789	217.69
602.997	201.69
603.206	216.69
603.415	220.69
603.623	224.69
603.832	209.69
604.041	213.69
604.249	219.69
604.458	223.69
604.666	207.69
604.875	205.69
605.084	210.69
605.292	201.69
605.501	211.69
605.709	206.69
605.918	201.69
606.126	224.69
606.334	210.69
606.543	220.69
606.751	225.69
606.96	206.69
607.168	191.69
607.376	216.69
607.585	218.69
607.793	201.69
608.001	218.69
608.21	218.69
608.418	202.69
608.626	207.69
608.834	215.69
609.043	212.69
609.251	198.69
609.459	199.69
609.667	215.69
609.875	206.69
610.083	188.69
610.291	208.69
610.499	209.69
610.707	199.69
610.916	194.69
611.124	222.69
611.332	219.69
611.54	205.69
611.748	214.69
611.955	221.69
612.163	204.69
612.371	196.69
612.579	198.69
612.787	211.69
612.995	213.69
613.203	211.69
613.411	196.69
613.618	195.69
613.826	207.69
614.034	197.69
614.242	193.69
614.449	200.69
614.657	209.69
614.865	211.69
615.072	206.69
615.28	209.69
615.488	207.69
615.695	182.69
615.903	211.69
616.111	200.69
616.318	219.69
616.526	204.69
616.733	199.69
616.941	189.69
617.148	195.69
617.356	198.69
617.563	205.69
617.771	189.69
617.978	204.69
618.185	223.69
618.393	196.69
618.6	211.69
618.807	199.69
619.015	201.69
619.222	182.69
619.429	187.69
619.637	191.69
619.844	208.69
620.051	198.69
620.258	173.69
620.466	188.69
620.673	193.69
620.88	182.69
621.087	182.69
621.294	184.69
621.501	188.69
621.708	188.69
621.915	184.69
622.122	202.69
622.329	210.69
622.536	193.69
622.743	179.69
622.95	190.69
623.157	185.69
623.364	197.69
623.571	195.69
623.778	185.69
623.985	187.69
624.192	187.69
624.399	184.69
624.606	184.69
624.812	181.69
625.019	179.69
625.226	190.69
625.433	173.69
625.639	168.69
625.846	163.69
626.053	179.69
626.259	186.69
626.466	187.69
626.673	180.69
626.879	170.69
627.086	180.69
627.293	191.69
627.499	165.69
627.706	182.69
627.912	165.69
628.119	193.69
628.325	167.69
628.532	174.69
628.738	182.69
628.945	169.69
629.151	180.69
629.357	177.69
629.564	168.69
629.77	185.69
629.976	167.69
630.183	174.69
630.389	200.69
630.595	183.69
630.802	170.69
631.008	174.69
631.214	189.69
631.42	163.69
631.627	201.69
631.833	162.69
632.039	182.69
632.245	171.69
632.451	153.69
632.657	156.69
632.863	174.69
633.069	174.69
633.275	178.69
633.481	159.69
633.688	155.69
633.893	161.69
634.099	161.69
634.305	148.69
634.511	162.69
634.717	169.69
634.923	163.69
635.129	164.69
635.335	166.69
635.541	160.69
635.747	148.69
635.952	166.69
636.158	163.69
636.364	170.69
636.57	165.69
636.775	152.69
636.981	164.69
637.187	155.69
637.392	173.69
637.598	154.69
637.804	166.69
638.009	142.69
638.215	173.69
638.421	163.69
638.626	154.69
638.832	141.69
639.037	170.69
639.243	159.69
639.448	153.69
639.654	166.69
639.859	153.69
640.065	165.69
640.27	171.69
640.475	160.69
640.681	158.69
640.886	143.69
641.091	147.69
641.297	141.69
641.502	154.69
641.707	157.69
641.913	147.69
642.118	154.69
642.323	149.69
642.528	137.69
642.733	163.69
642.939	155.69
643.144	139.69
643.349	160.69
643.554	147.69
643.759	157.69
643.964	147.69
644.169	144.69
644.374	147.69
644.579	154.69
644.784	159.69
644.989	143.69
645.194	155.69
645.399	161.69
645.604	144.69
645.809	161.69
646.014	158.69
646.219	141.69
646.423	151.69
646.628	146.69
646.833	165.69
647.038	155.69
647.243	169.69
647.447	140.69
647.652	166.69
647.857	154.69
648.062	147.69
648.266	142.69
648.471	159.69
648.676	151.69
648.88	161.69
649.085	147.69
649.289	154.69
649.494	157.69
649.698	164.69
649.903	170.69
650.107	154.69
650.312	140.69
650.516	152.69
650.721	148.69
650.925	135.69
651.13	147.69
651.334	137.69
651.539	144.69
651.743	133.69
651.947	145.69
652.152	135.69
652.356	133.69
652.56	127.69
652.764	117.69
652.969	132.69
653.173	111.69
653.377	131.69
653.581	118.69
653.785	126.69
653.99	133.69
654.194	129.69
654.398	114.69
654.602	128.69
654.806	129.69
655.01	130.69
655.214	129.69
655.418	127.69
655.622	134.69
655.826	129.69
656.03	133.69
656.234	131.69
656.438	139.69
656.642	125.69
656.846	125.69
657.049	126.69
657.253	121.69
657.457	114.69
657.661	113.69
657.865	104.69
658.068	120.69
658.272	107.69
658.476	120.69
658.68	103.69
658.883	95.69
659.087	105.69
659.291	74.69
659.494	102.69
659.698	101.69
659.901	103.69
660.105	98.69
660.309	87.69
660.512	92.69
660.716	91.69
660.919	94.69
661.123	95.69
661.326	75.69
661.53	90.69
661.733	78.69
661.936	88.69
662.14	79.69
662.343	79.69
662.546	84.69
662.75	95.69
662.953	89.69
663.156	90.69
663.36	97.69
663.563	82.69
663.766	90.69
663.969	82.69
664.173	79.69
664.376	86.69
664.579	75.69
664.782	89.69
664.985	87.69
665.188	83.69
665.391	88.69
665.594	85.69
665.797	80.69
666	76.69
666.203	83.69
666.406	93.69
666.609	87.69
666.812	78.69
667.015	82.69
667.218	95.69
667.421	84.69
667.624	86.69
667.827	77.69
668.03	85.69
668.232	65.69
668.435	92.69
668.638	81.69
668.841	73.69
669.043	82.69
669.246	91.69
669.449	82.69
669.651	78.69
669.854	84.69
670.057	100.69
670.259	75.69
670.462	69.69
670.665	78.69
670.867	74.69
671.07	81.69
671.272	83.69
671.475	94.69
671.677	92.69
671.88	69.69
672.082	64.69
672.284	90.69
672.487	83.69
672.689	81.69
672.892	92.69
