Data from 1965.PennyLincolnUp.Lamp.En5.5.200Scan.071719.P1._HRD10591_14-10-45-913.txt Node
Date: Thu Jul 18 14:10:45 EDT 2019
User: cochatt
Spectrometer: HR+D1059
Trigger mode: 1
Integration Time (sec): 1.000000E-1
Scans to average: 1
Electric dark correction enabled: true
Nonlinearity correction enabled: false
Boxcar width: 0
XAxis mode: Wavelengths
Number of Pixels in Spectrum: 2048
>>>>>Begin Spectral Data<<<<<
223.165	-7.94
223.4	-7.94
223.635	-7.94
223.869	-6.94
224.104	-21.94
224.338	-29.94
224.573	-13.94
224.808	-19.94
225.042	-0.94
225.277	-9.94
225.511	7.06
225.746	7.06
225.98	-11.94
226.215	8.06
226.449	13.06
226.683	25.06
226.918	30.06
227.152	33.06
227.387	36.06
227.621	39.06
227.856	65.06
228.09	50.06
228.324	44.06
228.559	58.06
228.793	77.06
229.027	91.06
229.262	101.06
229.496	123.06
229.73	122.06
229.964	155.06
230.199	131.06
230.433	111.06
230.667	132.06
230.901	114.06
231.136	105.06
231.37	102.06
231.604	112.06
231.838	102.06
232.072	102.06
232.306	107.06
232.541	105.06
232.775	132.06
233.009	110.06
233.243	128.06
233.477	115.06
233.711	100.06
233.945	131.06
234.179	114.06
234.413	97.06
234.647	99.06
234.881	110.06
235.115	106.06
235.349	111.06
235.583	126.06
235.817	119.06
236.051	109.06
236.285	112.06
236.519	104.06
236.753	120.06
236.987	151.06
237.221	180.06
237.455	220.06
237.689	181.06
237.922	132.06
238.156	142.06
238.39	118.06
238.624	119.06
238.858	122.06
239.091	110.06
239.325	108.06
239.559	122.06
239.793	127.06
240.027	131.06
240.26	146.06
240.494	135.06
240.728	139.06
240.961	131.06
241.195	152.06
241.429	128.06
241.662	131.06
241.896	117.06
242.13	121.06
242.363	131.06
242.597	125.06
242.83	129.06
243.064	127.06
243.298	127.06
243.531	145.06
243.765	118.06
243.998	131.06
244.232	127.06
244.465	137.06
244.699	136.06
244.932	125.06
245.166	134.06
245.399	138.06
245.633	136.06
245.866	138.06
246.099	155.06
246.333	147.06
246.566	149.06
246.8	149.06
247.033	129.06
247.266	146.06
247.5	149.06
247.733	142.06
247.966	152.06
248.2	159.06
248.433	164.06
248.666	160.06
248.899	177.06
249.133	161.06
249.366	193.06
249.599	193.06
249.832	174.06
250.066	161.06
250.299	165.06
250.532	184.06
250.765	186.06
250.998	186.06
251.231	220.06
251.465	184.06
251.698	182.06
251.931	185.06
252.164	190.06
252.397	179.06
252.63	186.06
252.863	188.06
253.096	206.06
253.329	213.06
253.562	193.06
253.795	198.06
254.028	203.06
254.261	212.06
254.494	205.06
254.727	235.06
254.96	251.06
255.193	245.06
255.426	231.06
255.659	232.06
255.892	214.06
256.124	217.06
256.357	201.06
256.59	212.06
256.823	200.06
257.056	202.06
257.289	202.06
257.521	202.06
257.754	189.06
257.987	184.06
258.22	199.06
258.452	169.06
258.685	185.06
258.918	195.06
259.151	179.06
259.383	207.06
259.616	198.06
259.849	206.06
260.081	224.06
260.314	220.06
260.547	218.06
260.779	222.06
261.012	212.06
261.244	211.06
261.477	198.06
261.71	211.06
261.942	219.06
262.175	214.06
262.407	211.06
262.64	199.06
262.872	201.06
263.105	187.06
263.337	192.06
263.57	186.06
263.802	201.06
264.035	206.06
264.267	190.06
264.499	188.06
264.732	204.06
264.964	190.06
265.197	195.06
265.429	194.06
265.661	195.06
265.894	196.06
266.126	205.06
266.358	176.06
266.591	190.06
266.823	207.06
267.055	215.06
267.287	212.06
267.52	218.06
267.752	188.06
267.984	223.06
268.216	203.06
268.448	211.06
268.681	222.06
268.913	219.06
269.145	241.06
269.377	274.06
269.609	257.06
269.841	239.06
270.073	247.06
270.306	272.06
270.538	300.06
270.77	295.06
271.002	277.06
271.234	274.06
271.466	270.06
271.698	294.06
271.93	284.06
272.162	275.06
272.394	268.06
272.626	270.06
272.858	240.06
273.09	268.06
273.322	259.06
273.553	235.06
273.785	238.06
274.017	228.06
274.249	230.06
274.481	237.06
274.713	236.06
274.945	250.06
275.176	238.06
275.408	268.06
275.64	260.06
275.872	247.06
276.104	228.06
276.335	231.06
276.567	233.06
276.799	266.06
277.031	280.06
277.262	284.06
277.494	317.06
277.726	268.06
277.957	262.06
278.189	270.06
278.421	258.06
278.652	242.06
278.884	256.06
279.115	228.06
279.347	232.06
279.579	258.06
279.81	235.06
280.042	241.06
280.273	235.06
280.505	239.06
280.736	237.06
280.968	222.06
281.199	255.06
281.431	227.06
281.662	233.06
281.894	242.06
282.125	244.06
282.356	259.06
282.588	278.06
282.819	274.06
283.051	240.06
283.282	241.06
283.513	248.06
283.745	252.06
283.976	260.06
284.207	257.06
284.439	253.06
284.67	234.06
284.901	252.06
285.132	259.06
285.364	246.06
285.595	240.06
285.826	232.06
286.057	236.06
286.288	242.06
286.52	256.06
286.751	262.06
286.982	256.06
287.213	259.06
287.444	247.06
287.675	272.06
287.906	258.06
288.138	283.06
288.369	281.06
288.6	280.06
288.831	256.06
289.062	282.06
289.293	259.06
289.524	251.06
289.755	261.06
289.986	256.06
290.217	257.06
290.448	250.06
290.679	259.06
290.91	266.06
291.141	247.06
291.371	258.06
291.602	235.06
291.833	253.06
292.064	257.06
292.295	261.06
292.526	263.06
292.757	250.06
292.987	252.06
293.218	242.06
293.449	278.06
293.68	241.06
293.91	255.06
294.141	264.06
294.372	244.06
294.603	249.06
294.833	251.06
295.064	247.06
295.295	267.06
295.525	250.06
295.756	265.06
295.987	291.06
296.217	302.06
296.448	303.06
296.679	274.06
296.909	256.06
297.14	252.06
297.37	262.06
297.601	257.06
297.831	279.06
298.062	268.06
298.292	266.06
298.523	263.06
298.753	275.06
298.984	270.06
299.214	249.06
299.445	270.06
299.675	277.06
299.905	279.06
300.136	280.06
300.366	286.06
300.597	271.06
300.827	272.06
301.057	283.06
301.288	290.06
301.518	283.06
301.748	276.06
301.979	296.06
302.209	314.06
302.439	312.06
302.669	294.06
302.9	278.06
303.13	290.06
303.36	287.06
303.59	284.06
303.82	302.06
304.051	315.06
304.281	279.06
304.511	280.06
304.741	295.06
304.971	306.06
305.201	307.06
305.431	282.06
305.661	298.06
305.891	311.06
306.121	276.06
306.352	313.06
306.582	296.06
306.812	288.06
307.042	294.06
307.272	307.06
307.502	301.06
307.731	306.06
307.961	292.06
308.191	294.06
308.421	307.06
308.651	303.06
308.881	312.06
309.111	301.06
309.341	303.06
309.571	315.06
309.8	339.06
310.03	362.06
310.26	353.06
310.49	336.06
310.72	340.06
310.949	364.06
311.179	370.06
311.409	324.06
311.639	328.06
311.868	352.06
312.098	358.06
312.328	369.06
312.557	376.06
312.787	394.06
313.017	363.06
313.246	352.06
313.476	337.06
313.706	338.06
313.935	345.06
314.165	343.06
314.394	364.06
314.624	358.06
314.853	337.06
315.083	332.06
315.312	339.06
315.542	311.06
315.771	339.06
316.001	332.06
316.23	345.06
316.46	320.06
316.689	333.06
316.919	347.06
317.148	354.06
317.377	357.06
317.607	344.06
317.836	340.06
318.065	333.06
318.295	347.06
318.524	326.06
318.753	324.06
318.983	326.06
319.212	347.06
319.441	346.06
319.67	344.06
319.9	350.06
320.129	348.06
320.358	328.06
320.587	346.06
320.816	335.06
321.046	358.06
321.275	378.06
321.504	349.06
321.733	359.06
321.962	354.06
322.191	392.06
322.42	394.06
322.649	430.06
322.878	410.06
323.108	436.06
323.337	451.06
323.566	469.06
323.795	529.06
324.024	566.06
324.253	706.06
324.482	1057.06
324.71	1586.06
324.939	2186.06
325.168	1848.06
325.397	952.06
325.626	646.06
325.855	547.06
326.084	501.06
326.313	490.06
326.542	490.06
326.77	550.06
326.999	681.06
327.228	909.06
327.457	1392.06
327.686	1594.06
327.914	1096.06
328.143	706.06
328.372	650.06
328.6	584.06
328.829	578.06
329.058	562.06
329.287	570.06
329.515	534.06
329.744	497.06
329.972	495.06
330.201	532.06
330.43	555.06
330.658	579.06
330.887	609.06
331.115	590.06
331.344	497.06
331.572	463.06
331.801	468.06
332.03	443.06
332.258	454.06
332.486	404.06
332.715	414.06
332.943	402.06
333.172	388.06
333.4	421.06
333.629	422.06
333.857	449.06
334.085	450.06
334.314	473.06
334.542	504.06
334.771	530.06
334.999	442.06
335.227	423.06
335.455	404.06
335.684	410.06
335.912	396.06
336.14	392.06
336.369	403.06
336.597	410.06
336.825	386.06
337.053	409.06
337.281	400.06
337.51	396.06
337.738	388.06
337.966	384.06
338.194	402.06
338.422	391.06
338.65	412.06
338.878	378.06
339.106	364.06
339.334	390.06
339.562	372.06
339.79	374.06
340.018	389.06
340.246	397.06
340.474	374.06
340.702	394.06
340.93	380.06
341.158	380.06
341.386	375.06
341.614	419.06
341.842	398.06
342.07	403.06
342.298	393.06
342.526	386.06
342.754	389.06
342.981	366.06
343.209	370.06
343.437	376.06
343.665	380.06
343.893	379.06
344.12	405.06
344.348	382.06
344.576	384.06
344.804	412.06
345.031	394.06
345.259	381.06
345.487	399.06
345.714	382.06
345.942	390.06
346.17	388.06
346.397	385.06
346.625	401.06
346.853	381.06
347.08	382.06
347.308	391.06
347.535	398.06
347.763	390.06
347.99	386.06
348.218	383.06
348.445	393.06
348.673	390.06
348.9	378.06
349.128	367.06
349.355	348.06
349.583	351.06
349.81	353.06
350.037	358.06
350.265	383.06
350.492	354.06
350.72	376.06
350.947	367.06
351.174	376.06
351.402	386.06
351.629	364.06
351.856	366.06
352.083	389.06
352.311	404.06
352.538	386.06
352.765	383.06
352.992	386.06
353.22	386.06
353.447	389.06
353.674	369.06
353.901	363.06
354.128	343.06
354.355	339.06
354.583	351.06
354.81	339.06
355.037	341.06
355.264	340.06
355.491	349.06
355.718	327.06
355.945	329.06
356.172	370.06
356.399	363.06
356.626	334.06
356.853	359.06
357.08	330.06
357.307	347.06
357.534	350.06
357.761	347.06
357.988	350.06
358.215	356.06
358.441	333.06
358.668	326.06
358.895	335.06
359.122	325.06
359.349	345.06
359.576	369.06
359.802	404.06
360.029	448.06
360.256	449.06
360.483	418.06
360.709	398.06
360.936	392.06
361.163	391.06
361.39	399.06
361.616	383.06
361.843	382.06
362.07	382.06
362.296	391.06
362.523	378.06
362.749	369.06
362.976	377.06
363.203	364.06
363.429	352.06
363.656	340.06
363.882	362.06
364.109	369.06
364.335	370.06
364.562	366.06
364.788	349.06
365.015	362.06
365.241	370.06
365.468	372.06
365.694	373.06
365.92	374.06
366.147	364.06
366.373	362.06
366.599	353.06
366.826	359.06
367.052	337.06
367.278	347.06
367.505	354.06
367.731	344.06
367.957	351.06
368.184	354.06
368.41	359.06
368.636	362.06
368.862	386.06
369.089	357.06
369.315	339.06
369.541	352.06
369.767	369.06
369.993	361.06
370.219	349.06
370.445	358.06
370.672	361.06
370.898	349.06
371.124	341.06
371.35	355.06
371.576	357.06
371.802	352.06
372.028	337.06
372.254	346.06
372.48	329.06
372.706	339.06
372.932	328.06
373.158	333.06
373.384	345.06
373.61	345.06
373.835	346.06
374.061	350.06
374.287	349.06
374.513	336.06
374.739	350.06
374.965	339.06
375.191	345.06
375.416	340.06
375.642	344.06
375.868	348.06
376.094	346.06
376.319	331.06
376.545	373.06
376.771	368.06
376.997	330.06
377.222	347.06
377.448	350.06
377.674	347.06
377.899	330.06
378.125	346.06
378.35	338.06
378.576	334.06
378.802	342.06
379.027	337.06
379.253	332.06
379.478	335.06
379.704	359.06
379.929	351.06
380.155	353.06
380.38	344.06
380.606	339.06
380.831	350.06
381.057	344.06
381.282	350.06
381.507	334.06
381.733	363.06
381.958	360.06
382.184	358.06
382.409	340.06
382.634	351.06
382.86	356.06
383.085	338.06
383.31	355.06
383.535	368.06
383.761	344.06
383.986	362.06
384.211	368.06
384.436	356.06
384.662	366.06
384.887	351.06
385.112	362.06
385.337	363.06
385.562	342.06
385.787	356.06
386.013	369.06
386.238	370.06
386.463	393.06
386.688	383.06
386.913	383.06
387.138	381.06
387.363	383.06
387.588	375.06
387.813	367.06
388.038	386.06
388.263	388.06
388.488	375.06
388.713	382.06
388.938	355.06
389.163	395.06
389.387	371.06
389.612	371.06
389.837	375.06
390.062	373.06
390.287	378.06
390.512	367.06
390.736	356.06
390.961	375.06
391.186	366.06
391.411	372.06
391.636	357.06
391.86	375.06
392.085	376.06
392.31	354.06
392.534	369.06
392.759	380.06
392.984	378.06
393.208	369.06
393.433	363.06
393.658	371.06
393.882	366.06
394.107	358.06
394.331	371.06
394.556	383.06
394.78	385.06
395.005	370.06
395.229	374.06
395.454	383.06
395.678	384.06
395.903	389.06
396.127	402.06
396.352	404.06
396.576	390.06
396.801	394.06
397.025	383.06
397.249	371.06
397.474	398.06
397.698	376.06
397.922	388.06
398.147	408.06
398.371	409.06
398.595	411.06
398.82	417.06
399.044	420.06
399.268	424.06
399.492	444.06
399.717	465.06
399.941	479.06
400.165	494.06
400.389	523.06
400.613	452.06
400.837	434.06
401.062	435.06
401.286	426.06
401.51	403.06
401.734	408.06
401.958	420.06
402.182	414.06
402.406	442.06
402.63	419.06
402.854	438.06
403.078	439.06
403.302	398.06
403.526	431.06
403.75	426.06
403.974	419.06
404.198	450.06
404.422	434.06
404.645	426.06
404.869	454.06
405.093	480.06
405.317	500.06
405.541	515.06
405.765	487.06
405.988	474.06
406.212	469.06
406.436	488.06
406.66	491.06
406.883	450.06
407.107	483.06
407.331	532.06
407.555	566.06
407.778	563.06
408.002	524.06
408.226	481.06
408.449	465.06
408.673	467.06
408.896	483.06
409.12	518.06
409.344	502.06
409.567	440.06
409.791	439.06
410.014	438.06
410.238	434.06
410.461	428.06
410.685	449.06
410.908	446.06
411.132	473.06
411.355	522.06
411.578	491.06
411.802	440.06
412.025	443.06
412.249	447.06
412.472	469.06
412.695	506.06
412.919	474.06
413.142	433.06
413.365	429.06
413.589	432.06
413.812	422.06
414.035	403.06
414.258	410.06
414.482	399.06
414.705	394.06
414.928	394.06
415.151	400.06
415.374	412.06
415.597	417.06
415.821	394.06
416.044	402.06
416.267	388.06
416.49	403.06
416.713	394.06
416.936	395.06
417.159	411.06
417.382	442.06
417.605	428.06
417.828	443.06
418.051	434.06
418.274	410.06
418.497	398.06
418.72	427.06
418.943	396.06
419.166	432.06
419.389	434.06
419.611	428.06
419.834	437.06
420.057	433.06
420.28	451.06
420.503	423.06
420.726	433.06
420.948	420.06
421.171	460.06
421.394	500.06
421.617	431.06
421.839	443.06
422.062	433.06
422.285	466.06
422.507	506.06
422.73	568.06
422.953	506.06
423.175	472.06
423.398	454.06
423.621	435.06
423.843	451.06
424.066	473.06
424.288	478.06
424.511	494.06
424.733	525.06
424.956	585.06
425.178	583.06
425.401	574.06
425.623	596.06
425.846	514.06
426.068	481.06
426.291	461.06
426.513	472.06
426.735	496.06
426.958	522.06
427.18	595.06
427.402	694.06
427.625	743.06
427.847	696.06
428.069	580.06
428.292	540.06
428.514	488.06
428.736	461.06
428.958	445.06
429.181	449.06
429.403	432.06
429.625	440.06
429.847	497.06
430.069	520.06
430.292	524.06
430.514	454.06
430.736	437.06
430.958	420.06
431.18	413.06
431.402	433.06
431.624	402.06
431.846	414.06
432.068	419.06
432.29	407.06
432.512	387.06
432.734	435.06
432.956	422.06
433.178	431.06
433.4	428.06
433.622	432.06
433.844	424.06
434.066	410.06
434.287	408.06
434.509	393.06
434.731	411.06
434.953	420.06
435.175	430.06
435.397	458.06
435.618	486.06
435.84	498.06
436.062	572.06
436.284	632.06
436.505	532.06
436.727	484.06
436.949	446.06
437.17	448.06
437.392	468.06
437.614	448.06
437.835	497.06
438.057	583.06
438.278	650.06
438.5	678.06
438.721	701.06
438.943	673.06
439.165	531.06
439.386	510.06
439.608	493.06
439.829	480.06
440.05	532.06
440.272	572.06
440.493	524.06
440.715	481.06
440.936	455.06
441.158	448.06
441.379	457.06
441.6	459.06
441.822	475.06
442.043	535.06
442.264	600.06
442.486	586.06
442.707	515.06
442.928	478.06
443.149	482.06
443.371	525.06
443.592	570.06
443.813	640.06
444.034	656.06
444.255	563.06
444.476	494.06
444.698	472.06
444.919	466.06
445.14	564.06
445.361	518.06
445.582	522.06
445.803	575.06
446.024	666.06
446.245	650.06
446.466	591.06
446.687	522.06
446.908	470.06
447.129	451.06
447.35	447.06
447.571	439.06
447.792	428.06
448.013	456.06
448.234	484.06
448.455	487.06
448.675	628.06
448.896	675.06
449.117	608.06
449.338	562.06
449.559	666.06
449.779	692.06
450	572.06
450.221	496.06
450.442	474.06
450.662	451.06
450.883	452.06
451.104	453.06
451.324	456.06
451.545	418.06
451.766	398.06
451.986	408.06
452.207	393.06
452.428	395.06
452.648	393.06
452.869	391.06
453.089	420.06
453.31	440.06
453.53	406.06
453.751	408.06
453.971	418.06
454.192	434.06
454.412	444.06
454.633	408.06
454.853	399.06
455.073	408.06
455.294	433.06
455.514	483.06
455.734	467.06
455.955	412.06
456.175	390.06
456.395	376.06
456.616	386.06
456.836	360.06
457.056	374.06
457.276	380.06
457.497	390.06
457.717	380.06
457.937	377.06
458.157	395.06
458.377	385.06
458.598	413.06
458.818	482.06
459.038	562.06
459.258	562.06
459.478	463.06
459.698	432.06
459.918	408.06
460.138	433.06
460.358	401.06
460.578	394.06
460.798	394.06
461.018	397.06
461.238	402.06
461.458	416.06
461.678	409.06
461.898	405.06
462.118	404.06
462.338	419.06
462.558	420.06
462.777	425.06
462.997	446.06
463.217	435.06
463.437	440.06
463.657	429.06
463.876	420.06
464.096	432.06
464.316	424.06
464.536	440.06
464.755	443.06
464.975	458.06
465.195	496.06
465.414	568.06
465.634	530.06
465.854	456.06
466.073	458.06
466.293	442.06
466.512	406.06
466.732	400.06
466.951	390.06
467.171	410.06
467.391	420.06
467.61	428.06
467.829	429.06
468.049	408.06
468.268	420.06
468.488	412.06
468.707	413.06
468.927	404.06
469.146	379.06
469.365	396.06
469.585	400.06
469.804	407.06
470.023	416.06
470.243	411.06
470.462	442.06
470.681	457.06
470.901	436.06
471.12	415.06
471.339	416.06
471.558	400.06
471.777	434.06
471.997	415.06
472.216	434.06
472.435	465.06
472.654	427.06
472.873	408.06
473.092	401.06
473.311	398.06
473.53	408.06
473.749	420.06
473.968	465.06
474.187	559.06
474.406	568.06
474.625	460.06
474.844	442.06
475.063	432.06
475.282	412.06
475.501	401.06
475.72	435.06
475.939	428.06
476.158	422.06
476.377	425.06
476.596	418.06
476.814	429.06
477.033	432.06
477.252	463.06
477.471	452.06
477.69	450.06
477.908	454.06
478.127	453.06
478.346	422.06
478.564	428.06
478.783	428.06
479.002	462.06
479.22	476.06
479.439	490.06
479.658	483.06
479.876	489.06
480.095	503.06
480.313	532.06
480.532	508.06
480.751	506.06
480.969	525.06
481.188	612.06
481.406	656.06
481.624	557.06
481.843	549.06
482.061	502.06
482.28	496.06
482.498	494.06
482.717	487.06
482.935	504.06
483.153	482.06
483.372	467.06
483.59	504.06
483.808	489.06
484.027	486.06
484.245	480.06
484.463	507.06
484.681	486.06
484.9	491.06
485.118	504.06
485.336	482.06
485.554	518.06
485.772	502.06
485.99	508.06
486.209	502.06
486.427	493.06
486.645	496.06
486.863	524.06
487.081	532.06
487.299	545.06
487.517	527.06
487.735	526.06
487.953	531.06
488.171	525.06
488.389	502.06
488.607	507.06
488.825	512.06
489.043	525.06
489.261	522.06
489.479	531.06
489.696	528.06
489.914	531.06
490.132	540.06
490.35	538.06
490.568	535.06
490.786	542.06
491.003	567.06
491.221	574.06
491.439	563.06
491.657	554.06
491.874	585.06
492.092	589.06
492.31	614.06
492.527	587.06
492.745	605.06
492.963	610.06
493.18	594.06
493.398	622.06
493.615	630.06
493.833	618.06
494.05	622.06
494.268	628.06
494.485	613.06
494.703	604.06
494.92	619.06
495.138	593.06
495.355	599.06
495.573	595.06
495.79	627.06
496.008	614.06
496.225	630.06
496.442	620.06
496.66	595.06
496.877	615.06
497.094	611.06
497.312	632.06
497.529	624.06
497.746	630.06
497.963	654.06
498.181	652.06
498.398	668.06
498.615	680.06
498.832	678.06
499.049	665.06
499.267	670.06
499.484	681.06
499.701	720.06
499.918	730.06
500.135	752.06
500.352	763.06
500.569	760.06
500.786	767.06
501.003	713.06
501.22	786.06
501.437	740.06
501.654	718.06
501.871	758.06
502.088	709.06
502.305	677.06
502.522	695.06
502.739	659.06
502.956	647.06
503.172	639.06
503.389	627.06
503.606	638.06
503.823	646.06
504.04	645.06
504.256	635.06
504.473	602.06
504.69	609.06
504.907	610.06
505.123	617.06
505.34	594.06
505.557	592.06
505.773	590.06
505.99	595.06
506.207	596.06
506.423	590.06
506.64	586.06
506.856	587.06
507.073	576.06
507.289	555.06
507.506	583.06
507.722	582.06
507.939	610.06
508.155	600.06
508.372	571.06
508.588	585.06
508.805	578.06
509.021	563.06
509.238	589.06
509.454	582.06
509.67	594.06
509.887	593.06
510.103	574.06
510.319	598.06
510.536	701.06
510.752	1207.06
510.968	969.06
511.184	616.06
511.401	564.06
511.617	568.06
511.833	558.06
512.049	550.06
512.265	539.06
512.481	546.06
512.698	565.06
512.914	536.06
513.13	531.06
513.346	552.06
513.562	545.06
513.778	562.06
513.994	555.06
514.21	573.06
514.426	609.06
514.642	648.06
514.858	681.06
515.074	738.06
515.29	888.06
515.506	1354.06
515.721	1047.06
515.937	699.06
516.153	632.06
516.369	615.06
516.585	579.06
516.801	554.06
517.016	564.06
517.232	556.06
517.448	544.06
517.664	560.06
517.879	551.06
518.095	553.06
518.311	528.06
518.527	536.06
518.742	514.06
518.958	538.06
519.173	531.06
519.389	548.06
519.605	569.06
519.82	562.06
520.036	563.06
520.251	581.06
520.467	614.06
520.682	630.06
520.898	626.06
521.113	654.06
521.329	700.06
521.544	811.06
521.76	1038.06
521.975	1844.06
522.19	1758.06
522.406	901.06
522.621	674.06
522.836	594.06
523.052	564.06
523.267	562.06
523.482	528.06
523.698	518.06
523.913	508.06
524.128	515.06
524.343	491.06
524.559	485.06
524.774	492.06
524.989	477.06
525.204	494.06
525.419	479.06
525.634	475.06
525.849	461.06
526.064	460.06
526.28	467.06
526.495	442.06
526.71	456.06
526.925	462.06
527.14	448.06
527.355	453.06
527.57	453.06
527.785	443.06
527.999	450.06
528.214	468.06
528.429	450.06
528.644	436.06
528.859	440.06
529.074	435.06
529.289	461.06
529.503	568.06
529.718	531.06
529.933	489.06
530.148	468.06
530.363	439.06
530.577	441.06
530.792	443.06
531.007	423.06
531.221	423.06
531.436	440.06
531.651	422.06
531.865	406.06
532.08	421.06
532.295	433.06
532.509	436.06
532.724	429.06
532.938	415.06
533.153	421.06
533.367	422.06
533.582	418.06
533.796	415.06
534.011	388.06
534.225	424.06
534.44	396.06
534.654	417.06
534.868	419.06
535.083	420.06
535.297	394.06
535.511	423.06
535.726	418.06
535.94	424.06
536.154	419.06
536.369	422.06
536.583	406.06
536.797	416.06
537.011	408.06
537.225	397.06
537.44	411.06
537.654	410.06
537.868	402.06
538.082	396.06
538.296	394.06
538.51	412.06
538.724	403.06
538.938	403.06
539.153	411.06
539.367	426.06
539.581	418.06
539.795	412.06
540.009	395.06
540.222	389.06
540.436	396.06
540.65	419.06
540.864	392.06
541.078	427.06
541.292	412.06
541.506	423.06
541.72	413.06
541.934	382.06
542.147	397.06
542.361	403.06
542.575	384.06
542.789	381.06
543.002	376.06
543.216	401.06
543.43	402.06
543.644	387.06
543.857	384.06
544.071	368.06
544.285	386.06
544.498	375.06
544.712	381.06
544.925	377.06
545.139	379.06
545.352	383.06
545.566	387.06
545.779	377.06
545.993	378.06
546.206	380.06
546.42	370.06
546.633	383.06
546.847	378.06
547.06	369.06
547.274	363.06
547.487	364.06
547.7	367.06
547.914	368.06
548.127	365.06
548.34	378.06
548.554	386.06
548.767	368.06
548.98	376.06
549.193	369.06
549.407	382.06
549.62	366.06
549.833	390.06
550.046	364.06
550.259	365.06
550.473	376.06
550.686	356.06
550.899	367.06
551.112	356.06
551.325	385.06
551.538	368.06
551.751	352.06
551.964	385.06
552.177	363.06
552.39	365.06
552.603	357.06
552.816	374.06
553.029	379.06
553.242	370.06
553.455	374.06
553.667	370.06
553.88	388.06
554.093	363.06
554.306	374.06
554.519	382.06
554.732	347.06
554.944	346.06
555.157	343.06
555.37	362.06
555.583	369.06
555.795	377.06
556.008	360.06
556.221	337.06
556.433	354.06
556.646	343.06
556.859	359.06
557.071	345.06
557.284	323.06
557.496	333.06
557.709	326.06
557.921	348.06
558.134	334.06
558.346	328.06
558.559	336.06
558.771	325.06
558.984	335.06
559.196	314.06
559.409	337.06
559.621	330.06
559.833	323.06
560.046	329.06
560.258	314.06
560.47	331.06
560.683	322.06
560.895	345.06
561.107	312.06
561.32	336.06
561.532	336.06
561.744	340.06
561.956	336.06
562.168	319.06
562.381	333.06
562.593	336.06
562.805	333.06
563.017	328.06
563.229	334.06
563.441	327.06
563.653	342.06
563.865	342.06
564.077	334.06
564.289	328.06
564.501	331.06
564.713	335.06
564.925	345.06
565.137	332.06
565.349	351.06
565.561	354.06
565.773	346.06
565.985	359.06
566.197	368.06
566.408	356.06
566.62	380.06
566.832	372.06
567.044	365.06
567.255	372.06
567.467	375.06
567.679	396.06
567.891	384.06
568.102	404.06
568.314	385.06
568.526	354.06
568.737	363.06
568.949	352.06
569.161	352.06
569.372	336.06
569.584	327.06
569.795	347.06
570.007	350.06
570.218	369.06
570.43	355.06
570.641	332.06
570.853	319.06
571.064	333.06
571.276	330.06
571.487	299.06
571.698	315.06
571.91	302.06
572.121	299.06
572.333	309.06
572.544	290.06
572.755	318.06
572.966	295.06
573.178	310.06
573.389	282.06
573.6	298.06
573.811	310.06
574.023	292.06
574.234	301.06
574.445	305.06
574.656	284.06
574.867	300.06
575.078	284.06
575.289	299.06
575.501	308.06
575.712	293.06
575.923	281.06
576.134	270.06
576.345	280.06
576.556	270.06
576.767	278.06
576.978	270.06
577.188	272.06
577.399	288.06
577.61	268.06
577.821	307.06
578.032	284.06
578.243	320.06
578.454	583.06
578.665	411.06
578.875	293.06
579.086	268.06
579.297	261.06
579.508	288.06
579.718	274.06
579.929	270.06
580.14	259.06
580.35	265.06
580.561	269.06
580.772	267.06
580.982	267.06
581.193	276.06
581.403	253.06
581.614	258.06
581.825	269.06
582.035	275.06
582.246	257.06
582.456	255.06
582.667	275.06
582.877	257.06
583.087	257.06
583.298	267.06
583.508	258.06
583.719	246.06
583.929	246.06
584.139	259.06
584.35	251.06
584.56	260.06
584.77	262.06
584.981	263.06
585.191	282.06
585.401	242.06
585.611	254.06
585.821	253.06
586.032	252.06
586.242	265.06
586.452	250.06
586.662	253.06
586.872	240.06
587.082	242.06
587.292	260.06
587.502	245.06
587.713	240.06
587.923	252.06
588.133	251.06
588.343	253.06
588.553	252.06
588.762	266.06
588.972	252.06
589.182	270.06
589.392	293.06
589.602	277.06
589.812	271.06
590.022	269.06
590.232	241.06
590.441	260.06
590.651	241.06
590.861	249.06
591.071	254.06
591.281	238.06
591.49	253.06
591.7	250.06
591.91	238.06
592.119	256.06
592.329	237.06
592.539	262.06
592.748	265.06
592.958	256.06
593.167	253.06
593.377	280.06
593.587	273.06
593.796	276.06
594.006	252.06
594.215	248.06
594.424	249.06
594.634	253.06
594.843	259.06
595.053	270.06
595.262	272.06
595.472	257.06
595.681	272.06
595.89	244.06
596.1	241.06
596.309	258.06
596.518	230.06
596.727	238.06
596.937	230.06
597.146	222.06
597.355	234.06
597.564	234.06
597.774	223.06
597.983	241.06
598.192	240.06
598.401	235.06
598.61	233.06
598.819	228.06
599.028	228.06
599.237	225.06
599.446	247.06
599.655	240.06
599.864	221.06
600.073	218.06
600.282	221.06
600.491	215.06
600.7	236.06
600.909	227.06
601.118	232.06
601.327	231.06
601.536	225.06
601.745	205.06
601.953	216.06
602.162	216.06
602.371	232.06
602.58	215.06
602.789	227.06
602.997	222.06
603.206	226.06
603.415	216.06
603.623	224.06
603.832	213.06
604.041	224.06
604.249	215.06
604.458	213.06
604.666	212.06
604.875	224.06
605.084	211.06
605.292	211.06
605.501	222.06
605.709	217.06
605.918	199.06
606.126	230.06
606.334	213.06
606.543	220.06
606.751	211.06
606.96	221.06
607.168	217.06
607.376	188.06
607.585	213.06
607.793	200.06
608.001	215.06
608.21	207.06
608.418	204.06
608.626	193.06
608.834	209.06
609.043	206.06
609.251	211.06
609.459	201.06
609.667	214.06
609.875	215.06
610.083	220.06
610.291	210.06
610.499	207.06
610.707	203.06
610.916	208.06
611.124	219.06
611.332	199.06
611.54	217.06
611.748	206.06
611.955	213.06
612.163	207.06
612.371	210.06
612.579	219.06
612.787	181.06
612.995	202.06
613.203	211.06
613.411	195.06
613.618	193.06
613.826	221.06
614.034	209.06
614.242	187.06
614.449	208.06
614.657	213.06
614.865	207.06
615.072	209.06
615.28	194.06
615.488	194.06
615.695	199.06
615.903	208.06
616.111	222.06
616.318	202.06
616.526	196.06
616.733	202.06
616.941	194.06
617.148	186.06
617.356	204.06
617.563	223.06
617.771	210.06
617.978	208.06
618.185	192.06
618.393	189.06
618.6	204.06
618.807	194.06
619.015	192.06
619.222	207.06
619.429	204.06
619.637	205.06
619.844	199.06
620.051	203.06
620.258	192.06
620.466	208.06
620.673	188.06
620.88	191.06
621.087	195.06
621.294	208.06
621.501	194.06
621.708	196.06
621.915	208.06
622.122	188.06
622.329	190.06
622.536	189.06
622.743	196.06
622.95	203.06
623.157	201.06
623.364	206.06
623.571	205.06
623.778	198.06
623.985	183.06
624.192	176.06
624.399	190.06
624.606	191.06
624.812	190.06
625.019	186.06
625.226	183.06
625.433	202.06
625.639	184.06
625.846	190.06
626.053	198.06
626.259	191.06
626.466	191.06
626.673	201.06
626.879	192.06
627.086	180.06
627.293	178.06
627.499	177.06
627.706	175.06
627.912	168.06
628.119	197.06
628.325	180.06
628.532	183.06
628.738	188.06
628.945	177.06
629.151	170.06
629.357	175.06
629.564	170.06
629.77	189.06
629.976	187.06
630.183	178.06
630.389	179.06
630.595	188.06
630.802	180.06
631.008	182.06
631.214	179.06
631.42	172.06
631.627	180.06
631.833	161.06
632.039	170.06
632.245	172.06
632.451	173.06
632.657	179.06
632.863	164.06
633.069	172.06
633.275	156.06
633.481	146.06
633.688	166.06
633.893	160.06
634.099	172.06
634.305	175.06
634.511	169.06
634.717	175.06
634.923	161.06
635.129	163.06
635.335	160.06
635.541	165.06
635.747	182.06
635.952	162.06
636.158	168.06
636.364	178.06
636.57	179.06
636.775	182.06
636.981	172.06
637.187	163.06
637.392	170.06
637.598	154.06
637.804	155.06
638.009	187.06
638.215	175.06
638.421	161.06
638.626	171.06
638.832	166.06
639.037	143.06
639.243	159.06
639.448	156.06
639.654	160.06
639.859	162.06
640.065	152.06
640.27	166.06
640.475	176.06
640.681	152.06
640.886	169.06
641.091	154.06
641.297	163.06
641.502	153.06
641.707	165.06
641.913	153.06
642.118	158.06
642.323	166.06
642.528	162.06
642.733	142.06
642.939	151.06
643.144	156.06
643.349	166.06
643.554	152.06
643.759	156.06
643.964	133.06
644.169	151.06
644.374	143.06
644.579	168.06
644.784	154.06
644.989	144.06
645.194	172.06
645.399	156.06
645.604	145.06
645.809	150.06
646.014	150.06
646.219	150.06
646.423	154.06
646.628	144.06
646.833	170.06
647.038	148.06
647.243	149.06
647.447	152.06
647.652	145.06
647.857	140.06
648.062	146.06
648.266	156.06
648.471	139.06
648.676	176.06
648.88	152.06
649.085	149.06
649.289	160.06
649.494	158.06
649.698	169.06
649.903	151.06
650.107	154.06
650.312	148.06
650.516	139.06
650.721	146.06
650.925	130.06
651.13	131.06
651.334	159.06
651.539	136.06
651.743	127.06
651.947	133.06
652.152	148.06
652.356	142.06
652.56	133.06
652.764	132.06
652.969	138.06
653.173	144.06
653.377	146.06
653.581	126.06
653.785	146.06
653.99	136.06
654.194	122.06
654.398	123.06
654.602	146.06
654.806	150.06
655.01	133.06
655.214	127.06
655.418	136.06
655.622	122.06
655.826	120.06
656.03	136.06
656.234	130.06
656.438	134.06
656.642	128.06
656.846	134.06
657.049	134.06
657.253	130.06
657.457	120.06
657.661	112.06
657.865	110.06
658.068	114.06
658.272	111.06
658.476	104.06
658.68	111.06
658.883	105.06
659.087	94.06
659.291	107.06
659.494	104.06
659.698	113.06
659.901	104.06
660.105	96.06
660.309	108.06
660.512	86.06
660.716	100.06
660.919	100.06
661.123	107.06
661.326	90.06
661.53	104.06
661.733	98.06
661.936	97.06
662.14	111.06
662.343	104.06
662.546	86.06
662.75	86.06
662.953	91.06
663.156	98.06
663.36	97.06
663.563	88.06
663.766	109.06
663.969	88.06
664.173	76.06
664.376	85.06
664.579	80.06
664.782	90.06
664.985	97.06
665.188	90.06
665.391	82.06
665.594	93.06
665.797	94.06
666	80.06
666.203	78.06
666.406	90.06
666.609	85.06
666.812	71.06
667.015	81.06
667.218	80.06
667.421	84.06
667.624	83.06
667.827	83.06
668.03	83.06
668.232	88.06
668.435	90.06
668.638	85.06
668.841	84.06
669.043	98.06
669.246	87.06
669.449	83.06
669.651	82.06
669.854	92.06
670.057	96.06
670.259	93.06
670.462	75.06
670.665	93.06
670.867	106.06
671.07	89.06
671.272	90.06
671.475	90.06
671.677	80.06
671.88	90.06
672.082	80.06
672.284	94.06
672.487	82.06
672.689	96.06
672.892	92.06
