Data from 1965.PennyLincolnUp.Lamp.En5.5.200Scan.071719.P1._HRD10591_14-08-11-910.txt Node
Date: Thu Jul 18 14:08:11 EDT 2019
User: cochatt
Spectrometer: HR+D1059
Trigger mode: 1
Integration Time (sec): 1.000000E-1
Scans to average: 1
Electric dark correction enabled: true
Nonlinearity correction enabled: false
Boxcar width: 0
XAxis mode: Wavelengths
Number of Pixels in Spectrum: 2048
>>>>>Begin Spectral Data<<<<<
223.165	-10.25
223.4	-10.25
223.635	-10.25
223.869	-23.25
224.104	-22.25
224.338	-5.25
224.573	-9.25
224.808	-0.25
225.042	-6.25
225.277	-5.25
225.511	-5.25
225.746	0.75
225.98	9.75
226.215	5.75
226.449	5.75
226.683	1.75
226.918	19.75
227.152	43.75
227.387	26.75
227.621	30.75
227.856	52.75
228.09	43.75
228.324	55.75
228.559	53.75
228.793	55.75
229.027	98.75
229.262	86.75
229.496	105.75
229.73	113.75
229.964	133.75
230.199	105.75
230.433	99.75
230.667	95.75
230.901	108.75
231.136	96.75
231.37	103.75
231.604	93.75
231.838	106.75
232.072	94.75
232.306	94.75
232.541	112.75
232.775	111.75
233.009	99.75
233.243	100.75
233.477	96.75
233.711	109.75
233.945	112.75
234.179	117.75
234.413	106.75
234.647	112.75
234.881	99.75
235.115	93.75
235.349	95.75
235.583	107.75
235.817	118.75
236.051	115.75
236.285	119.75
236.519	111.75
236.753	126.75
236.987	128.75
237.221	150.75
237.455	198.75
237.689	169.75
237.922	136.75
238.156	120.75
238.39	129.75
238.624	116.75
238.858	115.75
239.091	99.75
239.325	117.75
239.559	127.75
239.793	127.75
240.027	123.75
240.26	113.75
240.494	135.75
240.728	138.75
240.961	137.75
241.195	128.75
241.429	125.75
241.662	127.75
241.896	122.75
242.13	132.75
242.363	96.75
242.597	118.75
242.83	125.75
243.064	106.75
243.298	119.75
243.531	127.75
243.765	124.75
243.998	126.75
244.232	128.75
244.465	136.75
244.699	122.75
244.932	121.75
245.166	140.75
245.399	127.75
245.633	128.75
245.866	127.75
246.099	127.75
246.333	134.75
246.566	132.75
246.8	123.75
247.033	128.75
247.266	129.75
247.5	143.75
247.733	144.75
247.966	156.75
248.2	151.75
248.433	147.75
248.666	137.75
248.899	161.75
249.133	156.75
249.366	187.75
249.599	171.75
249.832	163.75
250.066	171.75
250.299	157.75
250.532	172.75
250.765	183.75
250.998	179.75
251.231	194.75
251.465	185.75
251.698	183.75
251.931	167.75
252.164	175.75
252.397	171.75
252.63	168.75
252.863	185.75
253.096	176.75
253.329	185.75
253.562	163.75
253.795	176.75
254.028	176.75
254.261	193.75
254.494	189.75
254.727	214.75
254.96	217.75
255.193	219.75
255.426	208.75
255.659	185.75
255.892	177.75
256.124	191.75
256.357	181.75
256.59	196.75
256.823	182.75
257.056	167.75
257.289	165.75
257.521	184.75
257.754	180.75
257.987	182.75
258.22	187.75
258.452	167.75
258.685	181.75
258.918	172.75
259.151	168.75
259.383	177.75
259.616	201.75
259.849	181.75
260.081	203.75
260.314	199.75
260.547	214.75
260.779	205.75
261.012	187.75
261.244	189.75
261.477	202.75
261.71	207.75
261.942	187.75
262.175	199.75
262.407	198.75
262.64	198.75
262.872	174.75
263.105	162.75
263.337	191.75
263.57	193.75
263.802	186.75
264.035	189.75
264.267	192.75
264.499	181.75
264.732	185.75
264.964	186.75
265.197	177.75
265.429	184.75
265.661	176.75
265.894	181.75
266.126	185.75
266.358	190.75
266.591	197.75
266.823	181.75
267.055	180.75
267.287	180.75
267.52	177.75
267.752	165.75
267.984	167.75
268.216	197.75
268.448	190.75
268.681	200.75
268.913	206.75
269.145	213.75
269.377	224.75
269.609	197.75
269.841	215.75
270.073	222.75
270.306	245.75
270.538	248.75
270.77	253.75
271.002	277.75
271.234	229.75
271.466	239.75
271.698	266.75
271.93	269.75
272.162	256.75
272.394	271.75
272.626	263.75
272.858	230.75
273.09	240.75
273.322	213.75
273.553	219.75
273.785	216.75
274.017	217.75
274.249	221.75
274.481	199.75
274.713	204.75
274.945	245.75
275.176	213.75
275.408	209.75
275.64	220.75
275.872	200.75
276.104	230.75
276.335	212.75
276.567	226.75
276.799	231.75
277.031	237.75
277.262	254.75
277.494	249.75
277.726	235.75
277.957	237.75
278.189	233.75
278.421	212.75
278.652	227.75
278.884	222.75
279.115	209.75
279.347	213.75
279.579	207.75
279.81	226.75
280.042	229.75
280.273	213.75
280.505	228.75
280.736	216.75
280.968	217.75
281.199	221.75
281.431	227.75
281.662	208.75
281.894	221.75
282.125	225.75
282.356	233.75
282.588	243.75
282.819	247.75
283.051	231.75
283.282	215.75
283.513	209.75
283.745	203.75
283.976	239.75
284.207	234.75
284.439	230.75
284.67	235.75
284.901	221.75
285.132	214.75
285.364	225.75
285.595	228.75
285.826	230.75
286.057	225.75
286.288	211.75
286.52	234.75
286.751	239.75
286.982	234.75
287.213	219.75
287.444	247.75
287.675	233.75
287.906	238.75
288.138	245.75
288.369	241.75
288.6	238.75
288.831	245.75
289.062	252.75
289.293	253.75
289.524	219.75
289.755	216.75
289.986	229.75
290.217	223.75
290.448	231.75
290.679	232.75
290.91	211.75
291.141	234.75
291.371	233.75
291.602	237.75
291.833	230.75
292.064	244.75
292.295	233.75
292.526	237.75
292.757	240.75
292.987	223.75
293.218	233.75
293.449	235.75
293.68	235.75
293.91	241.75
294.141	231.75
294.372	224.75
294.603	232.75
294.833	228.75
295.064	244.75
295.295	230.75
295.525	233.75
295.756	245.75
295.987	257.75
296.217	276.75
296.448	267.75
296.679	259.75
296.909	232.75
297.14	239.75
297.37	244.75
297.601	238.75
297.831	253.75
298.062	247.75
298.292	254.75
298.523	264.75
298.753	261.75
298.984	236.75
299.214	249.75
299.445	239.75
299.675	249.75
299.905	265.75
300.136	238.75
300.366	253.75
300.597	268.75
300.827	249.75
301.057	250.75
301.288	254.75
301.518	270.75
301.748	255.75
301.979	244.75
302.209	243.75
302.439	264.75
302.669	267.75
302.9	269.75
303.13	263.75
303.36	271.75
303.59	281.75
303.82	290.75
304.051	295.75
304.281	288.75
304.511	282.75
304.741	259.75
304.971	272.75
305.201	273.75
305.431	261.75
305.661	253.75
305.891	268.75
306.121	273.75
306.352	262.75
306.582	265.75
306.812	271.75
307.042	259.75
307.272	277.75
307.502	258.75
307.731	260.75
307.961	271.75
308.191	277.75
308.421	259.75
308.651	286.75
308.881	264.75
309.111	275.75
309.341	281.75
309.571	281.75
309.8	292.75
310.03	305.75
310.26	297.75
310.49	310.75
310.72	291.75
310.949	344.75
311.179	331.75
311.409	300.75
311.639	308.75
311.868	305.75
312.098	312.75
312.328	327.75
312.557	328.75
312.787	328.75
313.017	334.75
313.246	334.75
313.476	300.75
313.706	303.75
313.935	307.75
314.165	318.75
314.394	345.75
314.624	311.75
314.853	311.75
315.083	310.75
315.312	297.75
315.542	302.75
315.771	310.75
316.001	299.75
316.23	315.75
316.46	313.75
316.689	304.75
316.919	313.75
317.148	319.75
317.377	329.75
317.607	300.75
317.836	319.75
318.065	295.75
318.295	293.75
318.524	310.75
318.753	305.75
318.983	310.75
319.212	289.75
319.441	303.75
319.67	320.75
319.9	326.75
320.129	317.75
320.358	304.75
320.587	325.75
320.816	320.75
321.046	316.75
321.275	320.75
321.504	324.75
321.733	327.75
321.962	345.75
322.191	329.75
322.42	362.75
322.649	375.75
322.878	367.75
323.108	383.75
323.337	395.75
323.566	409.75
323.795	446.75
324.024	471.75
324.253	580.75
324.482	842.75
324.71	1297.75
324.939	1791.75
325.168	1467.75
325.397	768.75
325.626	535.75
325.855	449.75
326.084	449.75
326.313	411.75
326.542	422.75
326.77	466.75
326.999	565.75
327.228	743.75
327.457	1133.75
327.686	1327.75
327.914	898.75
328.143	618.75
328.372	524.75
328.6	485.75
328.829	469.75
329.058	455.75
329.287	491.75
329.515	447.75
329.744	418.75
329.972	413.75
330.201	439.75
330.43	461.75
330.658	478.75
330.887	492.75
331.115	500.75
331.344	413.75
331.572	422.75
331.801	381.75
332.03	397.75
332.258	378.75
332.486	392.75
332.715	365.75
332.943	380.75
333.172	379.75
333.4	379.75
333.629	382.75
333.857	386.75
334.085	384.75
334.314	403.75
334.542	447.75
334.771	431.75
334.999	401.75
335.227	380.75
335.455	387.75
335.684	367.75
335.912	350.75
336.14	344.75
336.369	358.75
336.597	368.75
336.825	365.75
337.053	361.75
337.281	364.75
337.51	346.75
337.738	344.75
337.966	350.75
338.194	365.75
338.422	379.75
338.65	359.75
338.878	381.75
339.106	364.75
339.334	382.75
339.562	330.75
339.79	337.75
340.018	345.75
340.246	347.75
340.474	345.75
340.702	356.75
340.93	352.75
341.158	339.75
341.386	365.75
341.614	360.75
341.842	359.75
342.07	346.75
342.298	348.75
342.526	332.75
342.754	331.75
342.981	320.75
343.209	339.75
343.437	364.75
343.665	350.75
343.893	349.75
344.12	358.75
344.348	342.75
344.576	351.75
344.804	335.75
345.031	359.75
345.259	368.75
345.487	357.75
345.714	352.75
345.942	341.75
346.17	338.75
346.397	330.75
346.625	342.75
346.853	333.75
347.08	328.75
347.308	349.75
347.535	337.75
347.763	365.75
347.99	380.75
348.218	381.75
348.445	372.75
348.673	367.75
348.9	341.75
349.128	332.75
349.355	324.75
349.583	334.75
349.81	319.75
350.037	337.75
350.265	354.75
350.492	340.75
350.72	324.75
350.947	333.75
351.174	348.75
351.402	332.75
351.629	336.75
351.856	347.75
352.083	355.75
352.311	359.75
352.538	354.75
352.765	350.75
352.992	347.75
353.22	342.75
353.447	339.75
353.674	343.75
353.901	337.75
354.128	327.75
354.355	318.75
354.583	333.75
354.81	321.75
355.037	311.75
355.264	329.75
355.491	318.75
355.718	305.75
355.945	309.75
356.172	315.75
356.399	328.75
356.626	318.75
356.853	313.75
357.08	324.75
357.307	313.75
357.534	305.75
357.761	304.75
357.988	304.75
358.215	324.75
358.441	313.75
358.668	321.75
358.895	325.75
359.122	325.75
359.349	352.75
359.576	342.75
359.802	371.75
360.029	364.75
360.256	401.75
360.483	362.75
360.709	361.75
360.936	337.75
361.163	358.75
361.39	343.75
361.616	337.75
361.843	346.75
362.07	352.75
362.296	361.75
362.523	343.75
362.749	342.75
362.976	334.75
363.203	341.75
363.429	325.75
363.656	324.75
363.882	322.75
364.109	331.75
364.335	327.75
364.562	308.75
364.788	323.75
365.015	327.75
365.241	337.75
365.468	346.75
365.694	341.75
365.92	327.75
366.147	340.75
366.373	334.75
366.599	320.75
366.826	323.75
367.052	330.75
367.278	334.75
367.505	322.75
367.731	319.75
367.957	313.75
368.184	321.75
368.41	340.75
368.636	353.75
368.862	350.75
369.089	344.75
369.315	345.75
369.541	311.75
369.767	316.75
369.993	321.75
370.219	313.75
370.445	330.75
370.672	331.75
370.898	325.75
371.124	325.75
371.35	310.75
371.576	332.75
371.802	322.75
372.028	319.75
372.254	319.75
372.48	343.75
372.706	315.75
372.932	326.75
373.158	334.75
373.384	324.75
373.61	319.75
373.835	314.75
374.061	325.75
374.287	319.75
374.513	336.75
374.739	323.75
374.965	321.75
375.191	329.75
375.416	334.75
375.642	334.75
375.868	331.75
376.094	335.75
376.319	323.75
376.545	329.75
376.771	328.75
376.997	318.75
377.222	312.75
377.448	330.75
377.674	335.75
377.899	337.75
378.125	308.75
378.35	313.75
378.576	327.75
378.802	328.75
379.027	333.75
379.253	317.75
379.478	347.75
379.704	309.75
379.929	307.75
380.155	324.75
380.38	318.75
380.606	315.75
380.831	318.75
381.057	329.75
381.282	321.75
381.507	320.75
381.733	324.75
381.958	332.75
382.184	327.75
382.409	333.75
382.634	345.75
382.86	330.75
383.085	322.75
383.31	320.75
383.535	333.75
383.761	324.75
383.986	345.75
384.211	342.75
384.436	321.75
384.662	323.75
384.887	356.75
385.112	325.75
385.337	349.75
385.562	347.75
385.787	352.75
386.013	328.75
386.238	356.75
386.463	363.75
386.688	347.75
386.913	346.75
387.138	335.75
387.363	348.75
387.588	337.75
387.813	330.75
388.038	332.75
388.263	351.75
388.488	339.75
388.713	344.75
388.938	353.75
389.163	353.75
389.387	341.75
389.612	347.75
389.837	352.75
390.062	340.75
390.287	348.75
390.512	333.75
390.736	345.75
390.961	350.75
391.186	369.75
391.411	354.75
391.636	344.75
391.86	360.75
392.085	368.75
392.31	360.75
392.534	349.75
392.759	356.75
392.984	352.75
393.208	358.75
393.433	348.75
393.658	347.75
393.882	344.75
394.107	358.75
394.331	370.75
394.556	362.75
394.78	333.75
395.005	350.75
395.229	340.75
395.454	351.75
395.678	365.75
395.903	363.75
396.127	368.75
396.352	377.75
396.576	345.75
396.801	344.75
397.025	354.75
397.249	380.75
397.474	366.75
397.698	375.75
397.922	391.75
398.147	390.75
398.371	386.75
398.595	395.75
398.82	379.75
399.044	394.75
399.268	384.75
399.492	415.75
399.717	430.75
399.941	440.75
400.165	451.75
400.389	449.75
400.613	425.75
400.837	420.75
401.062	405.75
401.286	400.75
401.51	384.75
401.734	379.75
401.958	393.75
402.182	406.75
402.406	399.75
402.63	397.75
402.854	392.75
403.078	395.75
403.302	390.75
403.526	415.75
403.75	405.75
403.974	409.75
404.198	387.75
404.422	417.75
404.645	416.75
404.869	409.75
405.093	430.75
405.317	468.75
405.541	489.75
405.765	435.75
405.988	422.75
406.212	437.75
406.436	455.75
406.66	464.75
406.883	435.75
407.107	445.75
407.331	487.75
407.555	537.75
407.778	512.75
408.002	483.75
408.226	465.75
408.449	443.75
408.673	430.75
408.896	482.75
409.12	484.75
409.344	463.75
409.567	441.75
409.791	437.75
410.014	412.75
410.238	406.75
410.461	395.75
410.685	410.75
410.908	424.75
411.132	441.75
411.355	461.75
411.578	437.75
411.802	396.75
412.025	421.75
412.249	405.75
412.472	435.75
412.695	454.75
412.919	437.75
413.142	418.75
413.365	430.75
413.589	397.75
413.812	399.75
414.035	390.75
414.258	373.75
414.482	388.75
414.705	392.75
414.928	386.75
415.151	388.75
415.374	367.75
415.597	365.75
415.821	399.75
416.044	381.75
416.267	385.75
416.49	396.75
416.713	375.75
416.936	383.75
417.159	385.75
417.382	379.75
417.605	383.75
417.828	423.75
418.051	416.75
418.274	401.75
418.497	402.75
418.72	400.75
418.943	387.75
419.166	397.75
419.389	405.75
419.611	398.75
419.834	407.75
420.057	423.75
420.28	391.75
420.503	380.75
420.726	394.75
420.948	396.75
421.171	448.75
421.394	473.75
421.617	425.75
421.839	409.75
422.062	415.75
422.285	414.75
422.507	457.75
422.73	484.75
422.953	465.75
423.175	427.75
423.398	413.75
423.621	412.75
423.843	447.75
424.066	429.75
424.288	426.75
424.511	456.75
424.733	517.75
424.956	527.75
425.178	498.75
425.401	525.75
425.623	533.75
425.846	469.75
426.068	433.75
426.291	433.75
426.513	431.75
426.735	439.75
426.958	465.75
427.18	544.75
427.402	603.75
427.625	686.75
427.847	607.75
428.069	526.75
428.292	469.75
428.514	441.75
428.736	425.75
428.958	424.75
429.181	400.75
429.403	398.75
429.625	400.75
429.847	450.75
430.069	469.75
430.292	476.75
430.514	411.75
430.736	415.75
430.958	412.75
431.18	365.75
431.402	381.75
431.624	391.75
431.846	372.75
432.068	379.75
432.29	368.75
432.512	373.75
432.734	379.75
432.956	379.75
433.178	388.75
433.4	367.75
433.622	390.75
433.844	391.75
434.066	393.75
434.287	384.75
434.509	367.75
434.731	399.75
434.953	400.75
435.175	412.75
435.397	438.75
435.618	435.75
435.84	475.75
436.062	551.75
436.284	569.75
436.505	477.75
436.727	447.75
436.949	416.75
437.17	402.75
437.392	411.75
437.614	410.75
437.835	434.75
438.057	509.75
438.278	583.75
438.5	585.75
438.721	639.75
438.943	607.75
439.165	502.75
439.386	447.75
439.608	450.75
439.829	455.75
440.05	472.75
440.272	499.75
440.493	493.75
440.715	440.75
440.936	414.75
441.158	402.75
441.379	393.75
441.6	431.75
441.822	442.75
442.043	479.75
442.264	513.75
442.486	529.75
442.707	462.75
442.928	455.75
443.149	458.75
443.371	469.75
443.592	500.75
443.813	557.75
444.034	607.75
444.255	505.75
444.476	446.75
444.698	445.75
444.919	423.75
445.14	519.75
445.361	464.75
445.582	467.75
445.803	527.75
446.024	605.75
446.245	601.75
446.466	557.75
446.687	463.75
446.908	428.75
447.129	416.75
447.35	410.75
447.571	397.75
447.792	398.75
448.013	402.75
448.234	415.75
448.455	458.75
448.675	533.75
448.896	636.75
449.117	525.75
449.338	511.75
449.559	602.75
449.779	647.75
450	533.75
450.221	449.75
450.442	423.75
450.662	409.75
450.883	405.75
451.104	438.75
451.324	403.75
451.545	391.75
451.766	394.75
451.986	365.75
452.207	361.75
452.428	362.75
452.648	369.75
452.869	385.75
453.089	381.75
453.31	377.75
453.53	389.75
453.751	368.75
453.971	401.75
454.192	380.75
454.412	376.75
454.633	392.75
454.853	372.75
455.073	365.75
455.294	380.75
455.514	429.75
455.734	407.75
455.955	363.75
456.175	341.75
456.395	346.75
456.616	354.75
456.836	333.75
457.056	337.75
457.276	329.75
457.497	335.75
457.717	352.75
457.937	356.75
458.157	370.75
458.377	366.75
458.598	397.75
458.818	419.75
459.038	495.75
459.258	512.75
459.478	428.75
459.698	396.75
459.918	387.75
460.138	381.75
460.358	401.75
460.578	379.75
460.798	383.75
461.018	376.75
461.238	412.75
461.458	391.75
461.678	381.75
461.898	388.75
462.118	400.75
462.338	400.75
462.558	389.75
462.777	387.75
462.997	400.75
463.217	424.75
463.437	414.75
463.657	413.75
463.876	405.75
464.096	421.75
464.316	402.75
464.536	431.75
464.755	433.75
464.975	421.75
465.195	476.75
465.414	544.75
465.634	462.75
465.854	419.75
466.073	412.75
466.293	391.75
466.512	378.75
466.732	376.75
466.951	373.75
467.171	379.75
467.391	381.75
467.61	388.75
467.829	394.75
468.049	383.75
468.268	385.75
468.488	376.75
468.707	384.75
468.927	363.75
469.146	351.75
469.365	372.75
469.585	357.75
469.804	386.75
470.023	380.75
470.243	384.75
470.462	390.75
470.681	423.75
470.901	404.75
471.12	397.75
471.339	386.75
471.558	380.75
471.777	379.75
471.997	364.75
472.216	389.75
472.435	416.75
472.654	430.75
472.873	388.75
473.092	389.75
473.311	375.75
473.53	378.75
473.749	393.75
473.968	431.75
474.187	509.75
474.406	515.75
474.625	431.75
474.844	400.75
475.063	387.75
475.282	403.75
475.501	382.75
475.72	396.75
475.939	370.75
476.158	383.75
476.377	395.75
476.596	387.75
476.814	383.75
477.033	418.75
477.252	419.75
477.471	402.75
477.69	406.75
477.908	388.75
478.127	393.75
478.346	396.75
478.564	439.75
478.783	414.75
479.002	420.75
479.22	427.75
479.439	448.75
479.658	439.75
479.876	461.75
480.095	478.75
480.313	492.75
480.532	471.75
480.751	462.75
480.969	476.75
481.188	522.75
481.406	574.75
481.624	470.75
481.843	457.75
482.061	458.75
482.28	447.75
482.498	435.75
482.717	442.75
482.935	435.75
483.153	444.75
483.372	457.75
483.59	454.75
483.808	440.75
484.027	446.75
484.245	454.75
484.463	451.75
484.681	450.75
484.9	463.75
485.118	475.75
485.336	472.75
485.554	475.75
485.772	463.75
485.99	476.75
486.209	462.75
486.427	455.75
486.645	481.75
486.863	485.75
487.081	520.75
487.299	515.75
487.517	514.75
487.735	480.75
487.953	472.75
488.171	489.75
488.389	480.75
488.607	474.75
488.825	466.75
489.043	502.75
489.261	475.75
489.479	470.75
489.696	479.75
489.914	508.75
490.132	493.75
490.35	478.75
490.568	510.75
490.786	515.75
491.003	526.75
491.221	519.75
491.439	533.75
491.657	506.75
491.874	537.75
492.092	537.75
492.31	536.75
492.527	543.75
492.745	543.75
492.963	545.75
493.18	548.75
493.398	529.75
493.615	554.75
493.833	542.75
494.05	553.75
494.268	571.75
494.485	565.75
494.703	547.75
494.92	540.75
495.138	566.75
495.355	569.75
495.573	555.75
495.79	569.75
496.008	583.75
496.225	548.75
496.442	573.75
496.66	564.75
496.877	564.75
497.094	552.75
497.312	575.75
497.529	579.75
497.746	582.75
497.963	573.75
498.181	594.75
498.398	600.75
498.615	638.75
498.832	611.75
499.049	620.75
499.267	636.75
499.484	631.75
499.701	667.75
499.918	697.75
500.135	702.75
500.352	725.75
500.569	723.75
500.786	730.75
501.003	697.75
501.22	715.75
501.437	685.75
501.654	711.75
501.871	669.75
502.088	688.75
502.305	656.75
502.522	644.75
502.739	648.75
502.956	628.75
503.172	584.75
503.389	590.75
503.606	587.75
503.823	586.75
504.04	561.75
504.256	590.75
504.473	569.75
504.69	561.75
504.907	551.75
505.123	559.75
505.34	573.75
505.557	559.75
505.773	527.75
505.99	547.75
506.207	543.75
506.423	543.75
506.64	552.75
506.856	544.75
507.073	551.75
507.289	542.75
507.506	545.75
507.722	528.75
507.939	532.75
508.155	509.75
508.372	503.75
508.588	536.75
508.805	518.75
509.021	523.75
509.238	537.75
509.454	535.75
509.67	523.75
509.887	519.75
510.103	524.75
510.319	547.75
510.536	620.75
510.752	1061.75
510.968	870.75
511.184	545.75
511.401	511.75
511.617	517.75
511.833	509.75
512.049	499.75
512.265	495.75
512.481	474.75
512.698	492.75
512.914	519.75
513.13	494.75
513.346	487.75
513.562	503.75
513.778	507.75
513.994	517.75
514.21	512.75
514.426	512.75
514.642	595.75
514.858	625.75
515.074	627.75
515.29	764.75
515.506	1159.75
515.721	933.75
515.937	632.75
516.153	557.75
516.369	540.75
516.585	528.75
516.801	528.75
517.016	508.75
517.232	521.75
517.448	519.75
517.664	496.75
517.879	509.75
518.095	501.75
518.311	510.75
518.527	499.75
518.742	506.75
518.958	495.75
519.173	491.75
519.389	505.75
519.605	481.75
519.82	507.75
520.036	521.75
520.251	531.75
520.467	552.75
520.682	557.75
520.898	557.75
521.113	557.75
521.329	639.75
521.544	685.75
521.76	921.75
521.975	1545.75
522.19	1491.75
522.406	794.75
522.621	589.75
522.836	528.75
523.052	493.75
523.267	476.75
523.482	463.75
523.698	472.75
523.913	477.75
524.128	484.75
524.343	464.75
524.559	452.75
524.774	443.75
524.989	444.75
525.204	449.75
525.419	463.75
525.634	427.75
525.849	439.75
526.064	422.75
526.28	411.75
526.495	425.75
526.71	399.75
526.925	414.75
527.14	415.75
527.355	413.75
527.57	404.75
527.785	402.75
527.999	401.75
528.214	381.75
528.429	406.75
528.644	416.75
528.859	413.75
529.074	426.75
529.289	428.75
529.503	497.75
529.718	509.75
529.933	439.75
530.148	432.75
530.363	419.75
530.577	407.75
530.792	411.75
531.007	421.75
531.221	405.75
531.436	419.75
531.651	387.75
531.865	397.75
532.08	397.75
532.295	405.75
532.509	396.75
532.724	392.75
532.938	400.75
533.153	402.75
533.367	392.75
533.582	387.75
533.796	390.75
534.011	384.75
534.225	386.75
534.44	393.75
534.654	381.75
534.868	356.75
535.083	379.75
535.297	371.75
535.511	388.75
535.726	407.75
535.94	379.75
536.154	409.75
536.369	390.75
536.583	389.75
536.797	369.75
537.011	390.75
537.225	376.75
537.44	371.75
537.654	377.75
537.868	388.75
538.082	361.75
538.296	369.75
538.51	368.75
538.724	362.75
538.938	385.75
539.153	380.75
539.367	404.75
539.581	385.75
539.795	373.75
540.009	371.75
540.222	384.75
540.436	373.75
540.65	380.75
540.864	382.75
541.078	376.75
541.292	422.75
541.506	379.75
541.72	385.75
541.934	367.75
542.147	383.75
542.361	368.75
542.575	375.75
542.789	368.75
543.002	359.75
543.216	385.75
543.43	376.75
543.644	372.75
543.857	346.75
544.071	379.75
544.285	378.75
544.498	372.75
544.712	378.75
544.925	360.75
545.139	379.75
545.352	366.75
545.566	364.75
545.779	359.75
545.993	357.75
546.206	377.75
546.42	361.75
546.633	344.75
546.847	368.75
547.06	355.75
547.274	337.75
547.487	361.75
547.7	381.75
547.914	371.75
548.127	348.75
548.34	339.75
548.554	358.75
548.767	347.75
548.98	357.75
549.193	358.75
549.407	362.75
549.62	367.75
549.833	356.75
550.046	351.75
550.259	352.75
550.473	338.75
550.686	353.75
550.899	353.75
551.112	348.75
551.325	352.75
551.538	356.75
551.751	347.75
551.964	340.75
552.177	336.75
552.39	353.75
552.603	340.75
552.816	349.75
553.029	342.75
553.242	347.75
553.455	350.75
553.667	355.75
553.88	364.75
554.093	350.75
554.306	355.75
554.519	352.75
554.732	344.75
554.944	346.75
555.157	332.75
555.37	321.75
555.583	335.75
555.795	332.75
556.008	336.75
556.221	331.75
556.433	340.75
556.646	342.75
556.859	308.75
557.071	312.75
557.284	325.75
557.496	323.75
557.709	315.75
557.921	319.75
558.134	313.75
558.346	322.75
558.559	300.75
558.771	328.75
558.984	328.75
559.196	319.75
559.409	307.75
559.621	298.75
559.833	321.75
560.046	324.75
560.258	325.75
560.47	324.75
560.683	317.75
560.895	319.75
561.107	308.75
561.32	292.75
561.532	311.75
561.744	301.75
561.956	323.75
562.168	324.75
562.381	319.75
562.593	320.75
562.805	304.75
563.017	311.75
563.229	318.75
563.441	297.75
563.653	307.75
563.865	316.75
564.077	323.75
564.289	327.75
564.501	331.75
564.713	339.75
564.925	319.75
565.137	339.75
565.349	334.75
565.561	337.75
565.773	343.75
565.985	348.75
566.197	350.75
566.408	345.75
566.62	347.75
566.832	352.75
567.044	359.75
567.255	375.75
567.467	358.75
567.679	392.75
567.891	371.75
568.102	378.75
568.314	364.75
568.526	355.75
568.737	350.75
568.949	336.75
569.161	335.75
569.372	335.75
569.584	318.75
569.795	330.75
570.007	328.75
570.218	369.75
570.43	347.75
570.641	307.75
570.853	311.75
571.064	315.75
571.276	290.75
571.487	287.75
571.698	288.75
571.91	304.75
572.121	294.75
572.333	302.75
572.544	284.75
572.755	283.75
572.966	293.75
573.178	287.75
573.389	291.75
573.6	285.75
573.811	281.75
574.023	291.75
574.234	288.75
574.445	284.75
574.656	269.75
574.867	285.75
575.078	281.75
575.289	282.75
575.501	300.75
575.712	272.75
575.923	270.75
576.134	270.75
576.345	266.75
576.556	275.75
576.767	265.75
576.978	277.75
577.188	272.75
577.399	277.75
577.61	292.75
577.821	272.75
578.032	255.75
578.243	307.75
578.454	509.75
578.665	361.75
578.875	267.75
579.086	267.75
579.297	283.75
579.508	282.75
579.718	252.75
579.929	234.75
580.14	258.75
580.35	264.75
580.561	256.75
580.772	258.75
580.982	270.75
581.193	253.75
581.403	259.75
581.614	266.75
581.825	273.75
582.035	259.75
582.246	253.75
582.456	257.75
582.667	247.75
582.877	247.75
583.087	260.75
583.298	269.75
583.508	255.75
583.719	256.75
583.929	248.75
584.139	244.75
584.35	248.75
584.56	266.75
584.77	259.75
584.981	248.75
585.191	246.75
585.401	268.75
585.611	245.75
585.821	239.75
586.032	240.75
586.242	239.75
586.452	249.75
586.662	255.75
586.872	246.75
587.082	232.75
587.292	237.75
587.502	230.75
587.713	238.75
587.923	235.75
588.133	243.75
588.343	239.75
588.553	238.75
588.762	258.75
588.972	245.75
589.182	344.75
589.392	348.75
589.602	271.75
589.812	309.75
590.022	269.75
590.232	236.75
590.441	228.75
590.651	239.75
590.861	239.75
591.071	233.75
591.281	261.75
591.49	250.75
591.7	231.75
591.91	231.75
592.119	244.75
592.329	240.75
592.539	248.75
592.748	243.75
592.958	271.75
593.167	239.75
593.377	243.75
593.587	262.75
593.796	247.75
594.006	243.75
594.215	261.75
594.424	223.75
594.634	267.75
594.843	238.75
595.053	230.75
595.262	240.75
595.472	235.75
595.681	232.75
595.89	242.75
596.1	231.75
596.309	229.75
596.518	230.75
596.727	234.75
596.937	231.75
597.146	225.75
597.355	222.75
597.564	198.75
597.774	223.75
597.983	214.75
598.192	215.75
598.401	223.75
598.61	230.75
598.819	232.75
599.028	230.75
599.237	220.75
599.446	235.75
599.655	233.75
599.864	228.75
600.073	217.75
600.282	216.75
600.491	208.75
600.7	226.75
600.909	204.75
601.118	224.75
601.327	220.75
601.536	204.75
601.745	209.75
601.953	216.75
602.162	225.75
602.371	212.75
602.58	223.75
602.789	203.75
602.997	211.75
603.206	235.75
603.415	212.75
603.623	197.75
603.832	211.75
604.041	206.75
604.249	213.75
604.458	222.75
604.666	207.75
604.875	217.75
605.084	193.75
605.292	183.75
605.501	207.75
605.709	197.75
605.918	187.75
606.126	207.75
606.334	200.75
606.543	212.75
606.751	199.75
606.96	214.75
607.168	206.75
607.376	197.75
607.585	187.75
607.793	196.75
608.001	204.75
608.21	207.75
608.418	210.75
608.626	197.75
608.834	192.75
609.043	190.75
609.251	213.75
609.459	196.75
609.667	225.75
609.875	210.75
610.083	196.75
610.291	202.75
610.499	223.75
610.707	200.75
610.916	213.75
611.124	208.75
611.332	217.75
611.54	195.75
611.748	204.75
611.955	209.75
612.163	192.75
612.371	209.75
612.579	200.75
612.787	209.75
612.995	215.75
613.203	206.75
613.411	207.75
613.618	204.75
613.826	193.75
614.034	204.75
614.242	195.75
614.449	226.75
614.657	186.75
614.865	195.75
615.072	205.75
615.28	195.75
615.488	200.75
615.695	213.75
615.903	181.75
616.111	195.75
616.318	203.75
616.526	182.75
616.733	192.75
616.941	208.75
617.148	209.75
617.356	184.75
617.563	181.75
617.771	190.75
617.978	184.75
618.185	189.75
618.393	181.75
618.6	187.75
618.807	198.75
619.015	212.75
619.222	173.75
619.429	176.75
619.637	185.75
619.844	201.75
620.051	192.75
620.258	191.75
620.466	187.75
620.673	200.75
620.88	189.75
621.087	194.75
621.294	168.75
621.501	179.75
621.708	176.75
621.915	193.75
622.122	176.75
622.329	181.75
622.536	175.75
622.743	173.75
622.95	176.75
623.157	168.75
623.364	183.75
623.571	171.75
623.778	172.75
623.985	188.75
624.192	194.75
624.399	187.75
624.606	173.75
624.812	184.75
625.019	190.75
625.226	170.75
625.433	174.75
625.639	173.75
625.846	168.75
626.053	168.75
626.259	189.75
626.466	171.75
626.673	165.75
626.879	184.75
627.086	169.75
627.293	174.75
627.499	177.75
627.706	182.75
627.912	169.75
628.119	175.75
628.325	181.75
628.532	174.75
628.738	153.75
628.945	183.75
629.151	157.75
629.357	160.75
629.564	161.75
629.77	173.75
629.976	187.75
630.183	148.75
630.389	166.75
630.595	161.75
630.802	132.75
631.008	168.75
631.214	171.75
631.42	170.75
631.627	172.75
631.833	163.75
632.039	153.75
632.245	153.75
632.451	162.75
632.657	188.75
632.863	163.75
633.069	161.75
633.275	157.75
633.481	165.75
633.688	146.75
633.893	159.75
634.099	171.75
634.305	165.75
634.511	160.75
634.717	175.75
634.923	170.75
635.129	151.75
635.335	147.75
635.541	158.75
635.747	169.75
635.952	155.75
636.158	174.75
636.364	156.75
636.57	160.75
636.775	168.75
636.981	159.75
637.187	167.75
637.392	161.75
637.598	153.75
637.804	148.75
638.009	156.75
638.215	155.75
638.421	159.75
638.626	143.75
638.832	156.75
639.037	149.75
639.243	171.75
639.448	175.75
639.654	161.75
639.859	147.75
640.065	151.75
640.27	151.75
640.475	149.75
640.681	157.75
640.886	159.75
641.091	159.75
641.297	144.75
641.502	165.75
641.707	164.75
641.913	155.75
642.118	145.75
642.323	147.75
642.528	161.75
642.733	144.75
642.939	146.75
643.144	146.75
643.349	160.75
643.554	136.75
643.759	152.75
643.964	146.75
644.169	151.75
644.374	145.75
644.579	139.75
644.784	151.75
644.989	153.75
645.194	153.75
645.399	147.75
645.604	151.75
645.809	134.75
646.014	151.75
646.219	152.75
646.423	138.75
646.628	138.75
646.833	145.75
647.038	142.75
647.243	146.75
647.447	151.75
647.652	146.75
647.857	150.75
648.062	136.75
648.266	143.75
648.471	152.75
648.676	156.75
648.88	145.75
649.085	153.75
649.289	154.75
649.494	145.75
649.698	155.75
649.903	160.75
650.107	142.75
650.312	151.75
650.516	140.75
650.721	153.75
650.925	155.75
651.13	142.75
651.334	152.75
651.539	158.75
651.743	145.75
651.947	131.75
652.152	139.75
652.356	122.75
652.56	135.75
652.764	131.75
652.969	151.75
653.173	153.75
653.377	134.75
653.581	133.75
653.785	108.75
653.99	139.75
654.194	135.75
654.398	117.75
654.602	131.75
654.806	137.75
655.01	138.75
655.214	127.75
655.418	134.75
655.622	119.75
655.826	136.75
656.03	121.75
656.234	128.75
656.438	135.75
656.642	127.75
656.846	129.75
657.049	125.75
657.253	122.75
657.457	116.75
657.661	116.75
657.865	113.75
658.068	111.75
658.272	100.75
658.476	108.75
658.68	94.75
658.883	98.75
659.087	96.75
659.291	91.75
659.494	105.75
659.698	106.75
659.901	91.75
660.105	88.75
660.309	87.75
660.512	96.75
660.716	83.75
660.919	91.75
661.123	97.75
661.326	109.75
661.53	91.75
661.733	93.75
661.936	88.75
662.14	84.75
662.343	91.75
662.546	89.75
662.75	86.75
662.953	85.75
663.156	79.75
663.36	88.75
663.563	85.75
663.766	94.75
663.969	84.75
664.173	84.75
664.376	87.75
664.579	92.75
664.782	83.75
664.985	91.75
665.188	93.75
665.391	81.75
665.594	95.75
665.797	89.75
666	81.75
666.203	77.75
666.406	89.75
666.609	72.75
666.812	91.75
667.015	90.75
667.218	94.75
667.421	100.75
667.624	77.75
667.827	83.75
668.03	80.75
668.232	95.75
668.435	80.75
668.638	87.75
668.841	81.75
669.043	78.75
669.246	100.75
669.449	84.75
669.651	77.75
669.854	85.75
670.057	88.75
670.259	85.75
670.462	81.75
670.665	86.75
670.867	104.75
671.07	97.75
671.272	91.75
671.475	88.75
671.677	98.75
671.88	82.75
672.082	88.75
672.284	87.75
672.487	81.75
672.689	86.75
672.892	88.75
