Data from 1965.PennyLincolnUp.Lamp.En5.5.200Scan.071719.P1._HRD10591_14-10-27-912.txt Node
Date: Thu Jul 18 14:10:27 EDT 2019
User: cochatt
Spectrometer: HR+D1059
Trigger mode: 1
Integration Time (sec): 1.000000E-1
Scans to average: 1
Electric dark correction enabled: true
Nonlinearity correction enabled: false
Boxcar width: 0
XAxis mode: Wavelengths
Number of Pixels in Spectrum: 2048
>>>>>Begin Spectral Data<<<<<
223.165	-24.12
223.4	-24.12
223.635	-24.12
223.869	-24.12
224.104	-18.12
224.338	-24.12
224.573	-8.12
224.808	-1.12
225.042	-6.12
225.277	-9.12
225.511	0.88
225.746	0.88
225.98	16.88
226.215	5.88
226.449	27.88
226.683	13.88
226.918	28.88
227.152	19.88
227.387	36.88
227.621	24.88
227.856	41.88
228.09	32.88
228.324	43.88
228.559	41.88
228.793	68.88
229.027	75.88
229.262	105.88
229.496	95.88
229.73	117.88
229.964	148.88
230.199	124.88
230.433	102.88
230.667	103.88
230.901	100.88
231.136	110.88
231.37	97.88
231.604	99.88
231.838	110.88
232.072	103.88
232.306	90.88
232.541	105.88
232.775	112.88
233.009	103.88
233.243	110.88
233.477	99.88
233.711	102.88
233.945	130.88
234.179	101.88
234.413	98.88
234.647	99.88
234.881	96.88
235.115	113.88
235.349	109.88
235.583	122.88
235.817	102.88
236.051	113.88
236.285	138.88
236.519	123.88
236.753	116.88
236.987	141.88
237.221	184.88
237.455	216.88
237.689	179.88
237.922	140.88
238.156	131.88
238.39	120.88
238.624	112.88
238.858	107.88
239.091	122.88
239.325	123.88
239.559	114.88
239.793	120.88
240.027	118.88
240.26	130.88
240.494	147.88
240.728	147.88
240.961	140.88
241.195	158.88
241.429	131.88
241.662	116.88
241.896	120.88
242.13	122.88
242.363	115.88
242.597	147.88
242.83	128.88
243.064	122.88
243.298	110.88
243.531	119.88
243.765	130.88
243.998	116.88
244.232	113.88
244.465	129.88
244.699	138.88
244.932	140.88
245.166	133.88
245.399	134.88
245.633	122.88
245.866	148.88
246.099	131.88
246.333	146.88
246.566	143.88
246.8	128.88
247.033	145.88
247.266	136.88
247.5	145.88
247.733	148.88
247.966	157.88
248.2	148.88
248.433	130.88
248.666	153.88
248.899	180.88
249.133	187.88
249.366	195.88
249.599	190.88
249.832	166.88
250.066	174.88
250.299	157.88
250.532	166.88
250.765	180.88
250.998	195.88
251.231	195.88
251.465	185.88
251.698	179.88
251.931	191.88
252.164	185.88
252.397	180.88
252.63	184.88
252.863	188.88
253.096	181.88
253.329	210.88
253.562	204.88
253.795	176.88
254.028	214.88
254.261	212.88
254.494	218.88
254.727	238.88
254.96	245.88
255.193	221.88
255.426	217.88
255.659	211.88
255.892	205.88
256.124	186.88
256.357	194.88
256.59	200.88
256.823	193.88
257.056	201.88
257.289	188.88
257.521	179.88
257.754	199.88
257.987	178.88
258.22	187.88
258.452	198.88
258.685	184.88
258.918	178.88
259.151	188.88
259.383	200.88
259.616	186.88
259.849	201.88
260.081	189.88
260.314	212.88
260.547	220.88
260.779	197.88
261.012	196.88
261.244	201.88
261.477	214.88
261.71	208.88
261.942	201.88
262.175	207.88
262.407	185.88
262.64	182.88
262.872	191.88
263.105	173.88
263.337	185.88
263.57	189.88
263.802	190.88
264.035	199.88
264.267	172.88
264.499	185.88
264.732	183.88
264.964	184.88
265.197	186.88
265.429	182.88
265.661	180.88
265.894	183.88
266.126	211.88
266.358	192.88
266.591	194.88
266.823	201.88
267.055	191.88
267.287	198.88
267.52	202.88
267.752	200.88
267.984	191.88
268.216	189.88
268.448	189.88
268.681	199.88
268.913	209.88
269.145	228.88
269.377	231.88
269.609	248.88
269.841	238.88
270.073	230.88
270.306	258.88
270.538	268.88
270.77	295.88
271.002	272.88
271.234	257.88
271.466	263.88
271.698	295.88
271.93	290.88
272.162	269.88
272.394	283.88
272.626	274.88
272.858	266.88
273.09	263.88
273.322	248.88
273.553	229.88
273.785	226.88
274.017	243.88
274.249	238.88
274.481	223.88
274.713	222.88
274.945	229.88
275.176	235.88
275.408	250.88
275.64	232.88
275.872	248.88
276.104	241.88
276.335	233.88
276.567	247.88
276.799	268.88
277.031	282.88
277.262	291.88
277.494	274.88
277.726	262.88
277.957	250.88
278.189	248.88
278.421	238.88
278.652	258.88
278.884	243.88
279.115	240.88
279.347	255.88
279.579	230.88
279.81	223.88
280.042	231.88
280.273	237.88
280.505	240.88
280.736	247.88
280.968	222.88
281.199	220.88
281.431	234.88
281.662	219.88
281.894	239.88
282.125	247.88
282.356	258.88
282.588	283.88
282.819	285.88
283.051	259.88
283.282	252.88
283.513	242.88
283.745	227.88
283.976	247.88
284.207	244.88
284.439	251.88
284.67	252.88
284.901	255.88
285.132	247.88
285.364	251.88
285.595	233.88
285.826	213.88
286.057	256.88
286.288	234.88
286.52	241.88
286.751	235.88
286.982	246.88
287.213	252.88
287.444	240.88
287.675	240.88
287.906	267.88
288.138	268.88
288.369	259.88
288.6	255.88
288.831	261.88
289.062	251.88
289.293	252.88
289.524	243.88
289.755	280.88
289.986	249.88
290.217	240.88
290.448	249.88
290.679	262.88
290.91	259.88
291.141	255.88
291.371	268.88
291.602	244.88
291.833	244.88
292.064	258.88
292.295	235.88
292.526	248.88
292.757	247.88
292.987	266.88
293.218	258.88
293.449	260.88
293.68	232.88
293.91	261.88
294.141	250.88
294.372	258.88
294.603	252.88
294.833	239.88
295.064	266.88
295.295	267.88
295.525	254.88
295.756	258.88
295.987	267.88
296.217	283.88
296.448	302.88
296.679	264.88
296.909	248.88
297.14	274.88
297.37	267.88
297.601	261.88
297.831	274.88
298.062	271.88
298.292	255.88
298.523	283.88
298.753	280.88
298.984	268.88
299.214	283.88
299.445	266.88
299.675	279.88
299.905	272.88
300.136	262.88
300.366	265.88
300.597	280.88
300.827	289.88
301.057	302.88
301.288	288.88
301.518	264.88
301.748	262.88
301.979	294.88
302.209	289.88
302.439	288.88
302.669	284.88
302.9	281.88
303.13	280.88
303.36	280.88
303.59	298.88
303.82	285.88
304.051	294.88
304.281	289.88
304.511	281.88
304.741	291.88
304.971	292.88
305.201	291.88
305.431	288.88
305.661	294.88
305.891	275.88
306.121	269.88
306.352	300.88
306.582	306.88
306.812	294.88
307.042	287.88
307.272	297.88
307.502	297.88
307.731	286.88
307.961	293.88
308.191	283.88
308.421	281.88
308.651	283.88
308.881	292.88
309.111	293.88
309.341	296.88
309.571	307.88
309.8	310.88
310.03	319.88
310.26	314.88
310.49	343.88
310.72	332.88
310.949	376.88
311.179	352.88
311.409	335.88
311.639	332.88
311.868	326.88
312.098	334.88
312.328	342.88
312.557	362.88
312.787	366.88
313.017	350.88
313.246	342.88
313.476	336.88
313.706	341.88
313.935	336.88
314.165	351.88
314.394	360.88
314.624	373.88
314.853	360.88
315.083	363.88
315.312	342.88
315.542	311.88
315.771	326.88
316.001	319.88
316.23	331.88
316.46	326.88
316.689	339.88
316.919	358.88
317.148	352.88
317.377	327.88
317.607	344.88
317.836	336.88
318.065	332.88
318.295	349.88
318.524	324.88
318.753	325.88
318.983	342.88
319.212	342.88
319.441	337.88
319.67	326.88
319.9	357.88
320.129	338.88
320.358	353.88
320.587	347.88
320.816	356.88
321.046	360.88
321.275	367.88
321.504	338.88
321.733	366.88
321.962	380.88
322.191	390.88
322.42	390.88
322.649	390.88
322.878	430.88
323.108	418.88
323.337	457.88
323.566	465.88
323.795	487.88
324.024	565.88
324.253	690.88
324.482	998.88
324.71	1558.88
324.939	2072.88
325.168	1751.88
325.397	918.88
325.626	642.88
325.855	537.88
326.084	482.88
326.313	448.88
326.542	468.88
326.77	530.88
326.999	648.88
327.228	895.88
327.457	1310.88
327.686	1499.88
327.914	1022.88
328.143	696.88
328.372	610.88
328.6	570.88
328.829	531.88
329.058	574.88
329.287	553.88
329.515	505.88
329.744	485.88
329.972	463.88
330.201	507.88
330.43	542.88
330.658	550.88
330.887	598.88
331.115	552.88
331.344	479.88
331.572	432.88
331.801	443.88
332.03	447.88
332.258	435.88
332.486	400.88
332.715	397.88
332.943	397.88
333.172	413.88
333.4	404.88
333.629	404.88
333.857	441.88
334.085	450.88
334.314	450.88
334.542	482.88
334.771	508.88
334.999	453.88
335.227	434.88
335.455	424.88
335.684	376.88
335.912	387.88
336.14	359.88
336.369	377.88
336.597	390.88
336.825	384.88
337.053	382.88
337.281	395.88
337.51	400.88
337.738	400.88
337.966	376.88
338.194	401.88
338.422	390.88
338.65	388.88
338.878	358.88
339.106	378.88
339.334	398.88
339.562	341.88
339.79	377.88
340.018	376.88
340.246	366.88
340.474	395.88
340.702	375.88
340.93	379.88
341.158	375.88
341.386	374.88
341.614	391.88
341.842	369.88
342.07	365.88
342.298	354.88
342.526	356.88
342.754	351.88
342.981	355.88
343.209	355.88
343.437	348.88
343.665	371.88
343.893	367.88
344.12	386.88
344.348	363.88
344.576	382.88
344.804	376.88
345.031	389.88
345.259	385.88
345.487	376.88
345.714	395.88
345.942	381.88
346.17	366.88
346.397	368.88
346.625	392.88
346.853	378.88
347.08	353.88
347.308	372.88
347.535	376.88
347.763	391.88
347.99	384.88
348.218	400.88
348.445	377.88
348.673	406.88
348.9	361.88
349.128	368.88
349.355	357.88
349.583	346.88
349.81	345.88
350.037	339.88
350.265	336.88
350.492	367.88
350.72	353.88
350.947	370.88
351.174	369.88
351.402	363.88
351.629	375.88
351.856	374.88
352.083	368.88
352.311	376.88
352.538	394.88
352.765	384.88
352.992	372.88
353.22	361.88
353.447	356.88
353.674	352.88
353.901	376.88
354.128	347.88
354.355	363.88
354.583	355.88
354.81	338.88
355.037	342.88
355.264	339.88
355.491	342.88
355.718	342.88
355.945	333.88
356.172	347.88
356.399	330.88
356.626	344.88
356.853	334.88
357.08	341.88
357.307	344.88
357.534	346.88
357.761	334.88
357.988	325.88
358.215	332.88
358.441	329.88
358.668	313.88
358.895	357.88
359.122	369.88
359.349	371.88
359.576	371.88
359.802	401.88
360.029	406.88
360.256	425.88
360.483	403.88
360.709	377.88
360.936	359.88
361.163	379.88
361.39	379.88
361.616	371.88
361.843	377.88
362.07	388.88
362.296	372.88
362.523	358.88
362.749	368.88
362.976	361.88
363.203	342.88
363.429	361.88
363.656	350.88
363.882	335.88
364.109	344.88
364.335	345.88
364.562	345.88
364.788	343.88
365.015	350.88
365.241	347.88
365.468	350.88
365.694	354.88
365.92	357.88
366.147	353.88
366.373	344.88
366.599	361.88
366.826	336.88
367.052	373.88
367.278	330.88
367.505	346.88
367.731	336.88
367.957	360.88
368.184	356.88
368.41	363.88
368.636	361.88
368.862	377.88
369.089	363.88
369.315	366.88
369.541	328.88
369.767	344.88
369.993	341.88
370.219	337.88
370.445	357.88
370.672	340.88
370.898	341.88
371.124	340.88
371.35	343.88
371.576	338.88
371.802	324.88
372.028	337.88
372.254	337.88
372.48	367.88
372.706	326.88
372.932	350.88
373.158	353.88
373.384	343.88
373.61	340.88
373.835	340.88
374.061	350.88
374.287	343.88
374.513	348.88
374.739	339.88
374.965	321.88
375.191	352.88
375.416	341.88
375.642	339.88
375.868	337.88
376.094	329.88
376.319	344.88
376.545	330.88
376.771	338.88
376.997	341.88
377.222	346.88
377.448	351.88
377.674	338.88
377.899	330.88
378.125	326.88
378.35	333.88
378.576	317.88
378.802	331.88
379.027	335.88
379.253	340.88
379.478	335.88
379.704	350.88
379.929	333.88
380.155	339.88
380.38	348.88
380.606	354.88
380.831	355.88
381.057	351.88
381.282	332.88
381.507	347.88
381.733	350.88
381.958	342.88
382.184	359.88
382.409	336.88
382.634	336.88
382.86	344.88
383.085	374.88
383.31	352.88
383.535	362.88
383.761	338.88
383.986	357.88
384.211	339.88
384.436	370.88
384.662	360.88
384.887	350.88
385.112	343.88
385.337	366.88
385.562	367.88
385.787	372.88
386.013	382.88
386.238	356.88
386.463	372.88
386.688	364.88
386.913	352.88
387.138	343.88
387.363	362.88
387.588	367.88
387.813	360.88
388.038	350.88
388.263	368.88
388.488	366.88
388.713	371.88
388.938	338.88
389.163	366.88
389.387	356.88
389.612	352.88
389.837	359.88
390.062	349.88
390.287	375.88
390.512	372.88
390.736	362.88
390.961	359.88
391.186	349.88
391.411	361.88
391.636	369.88
391.86	372.88
392.085	371.88
392.31	364.88
392.534	363.88
392.759	372.88
392.984	356.88
393.208	373.88
393.433	372.88
393.658	340.88
393.882	374.88
394.107	370.88
394.331	351.88
394.556	363.88
394.78	368.88
395.005	376.88
395.229	376.88
395.454	353.88
395.678	378.88
395.903	378.88
396.127	416.88
396.352	383.88
396.576	371.88
396.801	369.88
397.025	370.88
397.249	383.88
397.474	398.88
397.698	383.88
397.922	394.88
398.147	397.88
398.371	412.88
398.595	407.88
398.82	409.88
399.044	407.88
399.268	410.88
399.492	455.88
399.717	467.88
399.941	456.88
400.165	512.88
400.389	481.88
400.613	448.88
400.837	437.88
401.062	432.88
401.286	433.88
401.51	401.88
401.734	412.88
401.958	420.88
402.182	418.88
402.406	420.88
402.63	405.88
402.854	420.88
403.078	432.88
403.302	406.88
403.526	434.88
403.75	419.88
403.974	421.88
404.198	421.88
404.422	432.88
404.645	426.88
404.869	421.88
405.093	445.88
405.317	489.88
405.541	521.88
405.765	453.88
405.988	450.88
406.212	471.88
406.436	485.88
406.66	512.88
406.883	471.88
407.107	464.88
407.331	515.88
407.555	553.88
407.778	551.88
408.002	523.88
408.226	477.88
408.449	449.88
408.673	473.88
408.896	515.88
409.12	515.88
409.344	491.88
409.567	432.88
409.791	429.88
410.014	424.88
410.238	428.88
410.461	445.88
410.685	430.88
410.908	434.88
411.132	494.88
411.355	498.88
411.578	481.88
411.802	460.88
412.025	434.88
412.249	444.88
412.472	459.88
412.695	480.88
412.919	467.88
413.142	443.88
413.365	442.88
413.589	423.88
413.812	424.88
414.035	401.88
414.258	409.88
414.482	416.88
414.705	415.88
414.928	382.88
415.151	396.88
415.374	381.88
415.597	401.88
415.821	406.88
416.044	409.88
416.267	417.88
416.49	431.88
416.713	413.88
416.936	402.88
417.159	391.88
417.382	426.88
417.605	407.88
417.828	419.88
418.051	428.88
418.274	431.88
418.497	408.88
418.72	410.88
418.943	402.88
419.166	419.88
419.389	456.88
419.611	425.88
419.834	424.88
420.057	432.88
420.28	435.88
420.503	414.88
420.726	407.88
420.948	445.88
421.171	484.88
421.394	493.88
421.617	455.88
421.839	434.88
422.062	433.88
422.285	436.88
422.507	476.88
422.73	544.88
422.953	545.88
423.175	475.88
423.398	435.88
423.621	460.88
423.843	457.88
424.066	439.88
424.288	451.88
424.511	480.88
424.733	535.88
424.956	574.88
425.178	543.88
425.401	564.88
425.623	567.88
425.846	519.88
426.068	478.88
426.291	478.88
426.513	468.88
426.735	484.88
426.958	512.88
427.18	599.88
427.402	668.88
427.625	770.88
427.847	686.88
428.069	608.88
428.292	522.88
428.514	473.88
428.736	442.88
428.958	448.88
429.181	435.88
429.403	438.88
429.625	448.88
429.847	460.88
430.069	520.88
430.292	527.88
430.514	458.88
430.736	421.88
430.958	431.88
431.18	420.88
431.402	410.88
431.624	417.88
431.846	391.88
432.068	397.88
432.29	411.88
432.512	409.88
432.734	422.88
432.956	408.88
433.178	421.88
433.4	420.88
433.622	404.88
433.844	393.88
434.066	402.88
434.287	399.88
434.509	408.88
434.731	430.88
434.953	416.88
435.175	425.88
435.397	463.88
435.618	477.88
435.84	504.88
436.062	583.88
436.284	624.88
436.505	551.88
436.727	487.88
436.949	467.88
437.17	443.88
437.392	461.88
437.614	434.88
437.835	474.88
438.057	552.88
438.278	658.88
438.5	619.88
438.721	716.88
438.943	666.88
439.165	531.88
439.386	497.88
439.608	485.88
439.829	487.88
440.05	518.88
440.272	554.88
440.493	499.88
440.715	487.88
440.936	437.88
441.158	446.88
441.379	421.88
441.6	448.88
441.822	482.88
442.043	498.88
442.264	554.88
442.486	581.88
442.707	520.88
442.928	495.88
443.149	482.88
443.371	516.88
443.592	552.88
443.813	617.88
444.034	647.88
444.255	535.88
444.476	494.88
444.698	467.88
444.919	453.88
445.14	582.88
445.361	541.88
445.582	508.88
445.803	565.88
446.024	665.88
446.245	664.88
446.466	582.88
446.687	509.88
446.908	483.88
447.129	441.88
447.35	435.88
447.571	421.88
447.792	431.88
448.013	450.88
448.234	478.88
448.455	516.88
448.675	616.88
448.896	680.88
449.117	564.88
449.338	564.88
449.559	640.88
449.779	724.88
450	567.88
450.221	499.88
450.442	460.88
450.662	420.88
450.883	433.88
451.104	444.88
451.324	439.88
451.545	424.88
451.766	423.88
451.986	391.88
452.207	382.88
452.428	380.88
452.648	400.88
452.869	402.88
453.089	400.88
453.31	423.88
453.53	403.88
453.751	400.88
453.971	404.88
454.192	414.88
454.412	419.88
454.633	403.88
454.853	398.88
455.073	398.88
455.294	415.88
455.514	469.88
455.734	471.88
455.955	389.88
456.175	386.88
456.395	391.88
456.616	353.88
456.836	366.88
457.056	376.88
457.276	375.88
457.497	379.88
457.717	367.88
457.937	369.88
458.157	372.88
458.377	392.88
458.598	400.88
458.818	459.88
459.038	533.88
459.258	549.88
459.478	479.88
459.698	434.88
459.918	406.88
460.138	400.88
460.358	396.88
460.578	418.88
460.798	431.88
461.018	422.88
461.238	386.88
461.458	420.88
461.678	405.88
461.898	394.88
462.118	406.88
462.338	402.88
462.558	432.88
462.777	430.88
462.997	425.88
463.217	442.88
463.437	430.88
463.657	432.88
463.876	447.88
464.096	420.88
464.316	414.88
464.536	438.88
464.755	441.88
464.975	464.88
465.195	485.88
465.414	549.88
465.634	511.88
465.854	452.88
466.073	438.88
466.293	414.88
466.512	378.88
466.732	416.88
466.951	391.88
467.171	393.88
467.391	419.88
467.61	411.88
467.829	424.88
468.049	422.88
468.268	436.88
468.488	404.88
468.707	397.88
468.927	400.88
469.146	398.88
469.365	380.88
469.585	395.88
469.804	418.88
470.023	416.88
470.243	425.88
470.462	395.88
470.681	431.88
470.901	435.88
471.12	405.88
471.339	414.88
471.558	414.88
471.777	409.88
471.997	392.88
472.216	416.88
472.435	447.88
472.654	435.88
472.873	401.88
473.092	397.88
473.311	411.88
473.53	393.88
473.749	416.88
473.968	440.88
474.187	552.88
474.406	554.88
474.625	451.88
474.844	424.88
475.063	419.88
475.282	395.88
475.501	418.88
475.72	436.88
475.939	420.88
476.158	415.88
476.377	450.88
476.596	422.88
476.814	446.88
477.033	427.88
477.252	431.88
477.471	425.88
477.69	428.88
477.908	448.88
478.127	420.88
478.346	419.88
478.564	464.88
478.783	452.88
479.002	467.88
479.22	479.88
479.439	463.88
479.658	492.88
479.876	492.88
480.095	508.88
480.313	525.88
480.532	513.88
480.751	494.88
480.969	537.88
481.188	595.88
481.406	618.88
481.624	561.88
481.843	524.88
482.061	490.88
482.28	499.88
482.498	503.88
482.717	496.88
482.935	490.88
483.153	491.88
483.372	494.88
483.59	484.88
483.808	475.88
484.027	492.88
484.245	482.88
484.463	496.88
484.681	492.88
484.9	489.88
485.118	496.88
485.336	500.88
485.554	509.88
485.772	484.88
485.99	486.88
486.209	503.88
486.427	506.88
486.645	523.88
486.863	530.88
487.081	524.88
487.299	539.88
487.517	503.88
487.735	497.88
487.953	520.88
488.171	500.88
488.389	517.88
488.607	538.88
488.825	533.88
489.043	535.88
489.261	532.88
489.479	517.88
489.696	510.88
489.914	534.88
490.132	542.88
490.35	518.88
490.568	543.88
490.786	558.88
491.003	563.88
491.221	558.88
491.439	578.88
491.657	581.88
491.874	600.88
492.092	578.88
492.31	608.88
492.527	594.88
492.745	609.88
492.963	615.88
493.18	583.88
493.398	596.88
493.615	599.88
493.833	602.88
494.05	601.88
494.268	600.88
494.485	617.88
494.703	587.88
494.92	633.88
495.138	620.88
495.355	604.88
495.573	601.88
495.79	622.88
496.008	620.88
496.225	600.88
496.442	625.88
496.66	616.88
496.877	609.88
497.094	600.88
497.312	646.88
497.529	593.88
497.746	628.88
497.963	625.88
498.181	644.88
498.398	659.88
498.615	663.88
498.832	689.88
499.049	684.88
499.267	692.88
499.484	693.88
499.701	741.88
499.918	743.88
500.135	734.88
500.352	766.88
500.569	754.88
500.786	764.88
501.003	770.88
501.22	760.88
501.437	747.88
501.654	743.88
501.871	724.88
502.088	727.88
502.305	687.88
502.522	667.88
502.739	660.88
502.956	651.88
503.172	631.88
503.389	629.88
503.606	629.88
503.823	635.88
504.04	627.88
504.256	610.88
504.473	619.88
504.69	607.88
504.907	603.88
505.123	592.88
505.34	580.88
505.557	591.88
505.773	576.88
505.99	584.88
506.207	598.88
506.423	619.88
506.64	572.88
506.856	578.88
507.073	574.88
507.289	587.88
507.506	583.88
507.722	582.88
507.939	603.88
508.155	584.88
508.372	593.88
508.588	571.88
508.805	568.88
509.021	554.88
509.238	574.88
509.454	591.88
509.67	583.88
509.887	567.88
510.103	549.88
510.319	581.88
510.536	702.88
510.752	1179.88
510.968	918.88
511.184	604.88
511.401	551.88
511.617	546.88
511.833	544.88
512.049	553.88
512.265	550.88
512.481	522.88
512.698	520.88
512.914	549.88
513.13	538.88
513.346	533.88
513.562	529.88
513.778	538.88
513.994	559.88
514.21	569.88
514.426	576.88
514.642	620.88
514.858	676.88
515.074	671.88
515.29	851.88
515.506	1253.88
515.721	1037.88
515.937	685.88
516.153	607.88
516.369	585.88
516.585	568.88
516.801	568.88
517.016	560.88
517.232	553.88
517.448	533.88
517.664	535.88
517.879	532.88
518.095	537.88
518.311	543.88
518.527	523.88
518.742	541.88
518.958	546.88
519.173	550.88
519.389	531.88
519.605	559.88
519.82	538.88
520.036	548.88
520.251	596.88
520.467	601.88
520.682	601.88
520.898	632.88
521.113	633.88
521.329	675.88
521.544	778.88
521.76	994.88
521.975	1712.88
522.19	1648.88
522.406	878.88
522.621	656.88
522.836	562.88
523.052	531.88
523.267	528.88
523.482	504.88
523.698	520.88
523.913	515.88
524.128	502.88
524.343	478.88
524.559	474.88
524.774	452.88
524.989	479.88
525.204	452.88
525.419	479.88
525.634	456.88
525.849	456.88
526.064	438.88
526.28	440.88
526.495	442.88
526.71	434.88
526.925	456.88
527.14	452.88
527.355	439.88
527.57	440.88
527.785	437.88
527.999	428.88
528.214	431.88
528.429	433.88
528.644	434.88
528.859	456.88
529.074	451.88
529.289	467.88
529.503	530.88
529.718	525.88
529.933	474.88
530.148	466.88
530.363	446.88
530.577	424.88
530.792	426.88
531.007	407.88
531.221	423.88
531.436	425.88
531.651	424.88
531.865	426.88
532.08	406.88
532.295	415.88
532.509	418.88
532.724	440.88
532.938	410.88
533.153	408.88
533.367	408.88
533.582	426.88
533.796	426.88
534.011	393.88
534.225	380.88
534.44	411.88
534.654	402.88
534.868	407.88
535.083	408.88
535.297	402.88
535.511	395.88
535.726	410.88
535.94	395.88
536.154	402.88
536.369	393.88
536.583	386.88
536.797	391.88
537.011	410.88
537.225	392.88
537.44	390.88
537.654	392.88
537.868	406.88
538.082	382.88
538.296	400.88
538.51	394.88
538.724	383.88
538.938	405.88
539.153	392.88
539.367	409.88
539.581	424.88
539.795	407.88
540.009	408.88
540.222	403.88
540.436	394.88
540.65	402.88
540.864	397.88
541.078	414.88
541.292	411.88
541.506	388.88
541.72	390.88
541.934	396.88
542.147	401.88
542.361	394.88
542.575	397.88
542.789	380.88
543.002	386.88
543.216	393.88
543.43	402.88
543.644	376.88
543.857	382.88
544.071	395.88
544.285	400.88
544.498	404.88
544.712	400.88
544.925	374.88
545.139	393.88
545.352	375.88
545.566	387.88
545.779	368.88
545.993	372.88
546.206	372.88
546.42	374.88
546.633	374.88
546.847	384.88
547.06	376.88
547.274	360.88
547.487	370.88
547.7	355.88
547.914	359.88
548.127	354.88
548.34	372.88
548.554	363.88
548.767	378.88
548.98	383.88
549.193	368.88
549.407	353.88
549.62	376.88
549.833	370.88
550.046	357.88
550.259	371.88
550.473	367.88
550.686	359.88
550.899	368.88
551.112	374.88
551.325	343.88
551.538	384.88
551.751	354.88
551.964	365.88
552.177	355.88
552.39	363.88
552.603	361.88
552.816	355.88
553.029	362.88
553.242	359.88
553.455	372.88
553.667	384.88
553.88	370.88
554.093	389.88
554.306	377.88
554.519	361.88
554.732	386.88
554.944	350.88
555.157	350.88
555.37	342.88
555.583	358.88
555.795	360.88
556.008	351.88
556.221	337.88
556.433	343.88
556.646	335.88
556.859	346.88
557.071	327.88
557.284	336.88
557.496	327.88
557.709	356.88
557.921	341.88
558.134	338.88
558.346	331.88
558.559	339.88
558.771	330.88
558.984	330.88
559.196	340.88
559.409	339.88
559.621	328.88
559.833	323.88
560.046	333.88
560.258	342.88
560.47	328.88
560.683	334.88
560.895	336.88
561.107	315.88
561.32	335.88
561.532	331.88
561.744	315.88
561.956	333.88
562.168	322.88
562.381	331.88
562.593	328.88
562.805	332.88
563.017	335.88
563.229	340.88
563.441	335.88
563.653	342.88
563.865	335.88
564.077	325.88
564.289	331.88
564.501	339.88
564.713	334.88
564.925	351.88
565.137	330.88
565.349	339.88
565.561	370.88
565.773	334.88
565.985	364.88
566.197	335.88
566.408	360.88
566.62	348.88
566.832	355.88
567.044	369.88
567.255	367.88
567.467	374.88
567.679	384.88
567.891	357.88
568.102	370.88
568.314	359.88
568.526	368.88
568.737	362.88
568.949	358.88
569.161	358.88
569.372	350.88
569.584	330.88
569.795	322.88
570.007	339.88
570.218	380.88
570.43	366.88
570.641	319.88
570.853	300.88
571.064	307.88
571.276	312.88
571.487	308.88
571.698	321.88
571.91	317.88
572.121	278.88
572.333	287.88
572.544	300.88
572.755	273.88
572.966	289.88
573.178	299.88
573.389	305.88
573.6	286.88
573.811	275.88
574.023	283.88
574.234	272.88
574.445	272.88
574.656	281.88
574.867	278.88
575.078	274.88
575.289	298.88
575.501	300.88
575.712	280.88
575.923	284.88
576.134	290.88
576.345	292.88
576.556	287.88
576.767	288.88
576.978	275.88
577.188	284.88
577.399	263.88
577.61	277.88
577.821	294.88
578.032	291.88
578.243	307.88
578.454	572.88
578.665	390.88
578.875	283.88
579.086	274.88
579.297	264.88
579.508	270.88
579.718	248.88
579.929	250.88
580.14	260.88
580.35	275.88
580.561	254.88
580.772	275.88
580.982	262.88
581.193	252.88
581.403	266.88
581.614	257.88
581.825	253.88
582.035	256.88
582.246	252.88
582.456	264.88
582.667	240.88
582.877	259.88
583.087	281.88
583.298	242.88
583.508	268.88
583.719	259.88
583.929	247.88
584.139	250.88
584.35	264.88
584.56	254.88
584.77	265.88
584.981	250.88
585.191	273.88
585.401	261.88
585.611	255.88
585.821	242.88
586.032	247.88
586.242	234.88
586.452	240.88
586.662	254.88
586.872	242.88
587.082	264.88
587.292	242.88
587.502	246.88
587.713	217.88
587.923	247.88
588.133	247.88
588.343	227.88
588.553	252.88
588.762	259.88
588.972	245.88
589.182	272.88
589.392	284.88
589.602	248.88
589.812	265.88
590.022	278.88
590.232	256.88
590.441	258.88
590.651	245.88
590.861	242.88
591.071	248.88
591.281	241.88
591.49	218.88
591.7	236.88
591.91	234.88
592.119	253.88
592.329	248.88
592.539	260.88
592.748	255.88
592.958	246.88
593.167	243.88
593.377	249.88
593.587	248.88
593.796	250.88
594.006	248.88
594.215	236.88
594.424	258.88
594.634	244.88
594.843	242.88
595.053	257.88
595.262	238.88
595.472	235.88
595.681	258.88
595.89	241.88
596.1	228.88
596.309	251.88
596.518	232.88
596.727	238.88
596.937	234.88
597.146	238.88
597.355	218.88
597.564	229.88
597.774	239.88
597.983	218.88
598.192	221.88
598.401	208.88
598.61	228.88
598.819	229.88
599.028	238.88
599.237	232.88
599.446	221.88
599.655	219.88
599.864	212.88
600.073	224.88
600.282	216.88
600.491	220.88
600.7	221.88
600.909	230.88
601.118	216.88
601.327	206.88
601.536	224.88
601.745	207.88
601.953	225.88
602.162	205.88
602.371	209.88
602.58	230.88
602.789	210.88
602.997	209.88
603.206	225.88
603.415	201.88
603.623	211.88
603.832	204.88
604.041	205.88
604.249	198.88
604.458	214.88
604.666	204.88
604.875	210.88
605.084	205.88
605.292	210.88
605.501	213.88
605.709	226.88
605.918	208.88
606.126	219.88
606.334	187.88
606.543	217.88
606.751	222.88
606.96	201.88
607.168	196.88
607.376	196.88
607.585	210.88
607.793	217.88
608.001	215.88
608.21	216.88
608.418	196.88
608.626	195.88
608.834	210.88
609.043	208.88
609.251	211.88
609.459	197.88
609.667	206.88
609.875	189.88
610.083	200.88
610.291	198.88
610.499	192.88
610.707	211.88
610.916	206.88
611.124	214.88
611.332	218.88
611.54	212.88
611.748	210.88
611.955	201.88
612.163	208.88
612.371	199.88
612.579	216.88
612.787	201.88
612.995	199.88
613.203	200.88
613.411	195.88
613.618	214.88
613.826	204.88
614.034	213.88
614.242	186.88
614.449	199.88
614.657	196.88
614.865	211.88
615.072	196.88
615.28	213.88
615.488	193.88
615.695	182.88
615.903	198.88
616.111	204.88
616.318	215.88
616.526	186.88
616.733	190.88
616.941	200.88
617.148	206.88
617.356	181.88
617.563	202.88
617.771	181.88
617.978	190.88
618.185	184.88
618.393	198.88
618.6	199.88
618.807	204.88
619.015	199.88
619.222	188.88
619.429	200.88
619.637	196.88
619.844	201.88
620.051	194.88
620.258	215.88
620.466	198.88
620.673	193.88
620.88	179.88
621.087	203.88
621.294	193.88
621.501	204.88
621.708	179.88
621.915	187.88
622.122	203.88
622.329	195.88
622.536	201.88
622.743	192.88
622.95	190.88
623.157	184.88
623.364	196.88
623.571	196.88
623.778	183.88
623.985	193.88
624.192	176.88
624.399	169.88
624.606	178.88
624.812	152.88
625.019	158.88
625.226	163.88
625.433	184.88
625.639	173.88
625.846	191.88
626.053	171.88
626.259	178.88
626.466	193.88
626.673	190.88
626.879	179.88
627.086	190.88
627.293	178.88
627.499	182.88
627.706	182.88
627.912	180.88
628.119	169.88
628.325	175.88
628.532	164.88
628.738	160.88
628.945	193.88
629.151	168.88
629.357	179.88
629.564	169.88
629.77	166.88
629.976	169.88
630.183	172.88
630.389	175.88
630.595	175.88
630.802	156.88
631.008	171.88
631.214	147.88
631.42	168.88
631.627	167.88
631.833	171.88
632.039	165.88
632.245	182.88
632.451	162.88
632.657	165.88
632.863	161.88
633.069	167.88
633.275	159.88
633.481	151.88
633.688	159.88
633.893	178.88
634.099	155.88
634.305	151.88
634.511	154.88
634.717	166.88
634.923	153.88
635.129	163.88
635.335	166.88
635.541	147.88
635.747	158.88
635.952	145.88
636.158	166.88
636.364	169.88
636.57	169.88
636.775	154.88
636.981	154.88
637.187	154.88
637.392	155.88
637.598	163.88
637.804	162.88
638.009	171.88
638.215	167.88
638.421	138.88
638.626	153.88
638.832	150.88
639.037	143.88
639.243	160.88
639.448	138.88
639.654	150.88
639.859	141.88
640.065	146.88
640.27	150.88
640.475	150.88
640.681	165.88
640.886	148.88
641.091	153.88
641.297	136.88
641.502	154.88
641.707	160.88
641.913	146.88
642.118	158.88
642.323	141.88
642.528	146.88
642.733	141.88
642.939	152.88
643.144	143.88
643.349	163.88
643.554	155.88
643.759	156.88
643.964	137.88
644.169	154.88
644.374	142.88
644.579	146.88
644.784	145.88
644.989	134.88
645.194	147.88
645.399	141.88
645.604	154.88
645.809	143.88
646.014	148.88
646.219	145.88
646.423	144.88
646.628	149.88
646.833	121.88
647.038	132.88
647.243	140.88
647.447	147.88
647.652	155.88
647.857	146.88
648.062	139.88
648.266	142.88
648.471	153.88
648.676	163.88
648.88	146.88
649.085	163.88
649.289	146.88
649.494	143.88
649.698	156.88
649.903	150.88
650.107	137.88
650.312	138.88
650.516	151.88
650.721	127.88
650.925	144.88
651.13	138.88
651.334	133.88
651.539	123.88
651.743	140.88
651.947	143.88
652.152	140.88
652.356	140.88
652.56	133.88
652.764	118.88
652.969	129.88
653.173	127.88
653.377	108.88
653.581	123.88
653.785	121.88
653.99	124.88
654.194	139.88
654.398	117.88
654.602	130.88
654.806	103.88
655.01	116.88
655.214	140.88
655.418	115.88
655.622	120.88
655.826	117.88
656.03	134.88
656.234	123.88
656.438	116.88
656.642	116.88
656.846	122.88
657.049	114.88
657.253	112.88
657.457	106.88
657.661	101.88
657.865	107.88
658.068	118.88
658.272	100.88
658.476	114.88
658.68	93.88
658.883	95.88
659.087	104.88
659.291	89.88
659.494	100.88
659.698	100.88
659.901	103.88
660.105	87.88
660.309	89.88
660.512	89.88
660.716	92.88
660.919	89.88
661.123	94.88
661.326	85.88
661.53	85.88
661.733	80.88
661.936	92.88
662.14	68.88
662.343	80.88
662.546	83.88
662.75	77.88
662.953	78.88
663.156	79.88
663.36	86.88
663.563	85.88
663.766	76.88
663.969	87.88
664.173	80.88
664.376	75.88
664.579	80.88
664.782	80.88
664.985	68.88
665.188	79.88
665.391	87.88
665.594	73.88
665.797	83.88
666	78.88
666.203	69.88
666.406	85.88
666.609	83.88
666.812	90.88
667.015	72.88
667.218	76.88
667.421	85.88
667.624	89.88
667.827	90.88
668.03	83.88
668.232	71.88
668.435	76.88
668.638	94.88
668.841	76.88
669.043	69.88
669.246	75.88
669.449	76.88
669.651	103.88
669.854	74.88
670.057	73.88
670.259	82.88
670.462	93.88
670.665	84.88
670.867	76.88
671.07	83.88
671.272	85.88
671.475	81.88
671.677	84.88
671.88	88.88
672.082	94.88
672.284	83.88
672.487	79.88
672.689	99.88
672.892	87.88
