Data from 1965.PennyLincolnUp.Lamp.En5.5.200Scan.071719.P1._HRD10591_14-09-36-912.txt Node
Date: Thu Jul 18 14:09:36 EDT 2019
User: cochatt
Spectrometer: HR+D1059
Trigger mode: 1
Integration Time (sec): 1.000000E-1
Scans to average: 1
Electric dark correction enabled: true
Nonlinearity correction enabled: false
Boxcar width: 0
XAxis mode: Wavelengths
Number of Pixels in Spectrum: 2048
>>>>>Begin Spectral Data<<<<<
223.165	-12.12
223.4	-12.12
223.635	-12.12
223.869	-20.12
224.104	-26.12
224.338	-10.12
224.573	-18.12
224.808	-1.12
225.042	-14.12
225.277	-28.12
225.511	0.88
225.746	8.88
225.98	9.88
226.215	8.88
226.449	12.88
226.683	20.88
226.918	33.88
227.152	33.88
227.387	21.88
227.621	23.88
227.856	31.88
228.09	44.88
228.324	42.88
228.559	31.88
228.793	64.88
229.027	79.88
229.262	106.88
229.496	119.88
229.73	116.88
229.964	138.88
230.199	112.88
230.433	96.88
230.667	118.88
230.901	113.88
231.136	107.88
231.37	99.88
231.604	107.88
231.838	98.88
232.072	103.88
232.306	115.88
232.541	124.88
232.775	105.88
233.009	111.88
233.243	101.88
233.477	107.88
233.711	105.88
233.945	97.88
234.179	95.88
234.413	111.88
234.647	111.88
234.881	111.88
235.115	102.88
235.349	102.88
235.583	102.88
235.817	116.88
236.051	129.88
236.285	119.88
236.519	118.88
236.753	115.88
236.987	147.88
237.221	167.88
237.455	205.88
237.689	184.88
237.922	140.88
238.156	119.88
238.39	121.88
238.624	131.88
238.858	116.88
239.091	119.88
239.325	109.88
239.559	119.88
239.793	123.88
240.027	133.88
240.26	139.88
240.494	151.88
240.728	143.88
240.961	133.88
241.195	135.88
241.429	132.88
241.662	107.88
241.896	121.88
242.13	129.88
242.363	130.88
242.597	123.88
242.83	125.88
243.064	124.88
243.298	133.88
243.531	119.88
243.765	118.88
243.998	112.88
244.232	131.88
244.465	131.88
244.699	135.88
244.932	131.88
245.166	137.88
245.399	116.88
245.633	131.88
245.866	145.88
246.099	113.88
246.333	134.88
246.566	121.88
246.8	152.88
247.033	144.88
247.266	150.88
247.5	139.88
247.733	151.88
247.966	160.88
248.2	156.88
248.433	165.88
248.666	161.88
248.899	176.88
249.133	173.88
249.366	187.88
249.599	173.88
249.832	161.88
250.066	163.88
250.299	177.88
250.532	165.88
250.765	185.88
250.998	214.88
251.231	191.88
251.465	186.88
251.698	192.88
251.931	194.88
252.164	172.88
252.397	172.88
252.63	185.88
252.863	189.88
253.096	194.88
253.329	205.88
253.562	207.88
253.795	199.88
254.028	201.88
254.261	182.88
254.494	221.88
254.727	233.88
254.96	259.88
255.193	244.88
255.426	218.88
255.659	223.88
255.892	207.88
256.124	227.88
256.357	197.88
256.59	192.88
256.823	190.88
257.056	188.88
257.289	185.88
257.521	181.88
257.754	200.88
257.987	166.88
258.22	212.88
258.452	193.88
258.685	189.88
258.918	198.88
259.151	182.88
259.383	184.88
259.616	196.88
259.849	192.88
260.081	194.88
260.314	222.88
260.547	246.88
260.779	222.88
261.012	214.88
261.244	198.88
261.477	190.88
261.71	175.88
261.942	210.88
262.175	210.88
262.407	209.88
262.64	181.88
262.872	189.88
263.105	201.88
263.337	185.88
263.57	178.88
263.802	198.88
264.035	198.88
264.267	196.88
264.499	196.88
264.732	184.88
264.964	191.88
265.197	191.88
265.429	189.88
265.661	185.88
265.894	204.88
266.126	197.88
266.358	203.88
266.591	198.88
266.823	213.88
267.055	185.88
267.287	217.88
267.52	200.88
267.752	195.88
267.984	199.88
268.216	194.88
268.448	215.88
268.681	207.88
268.913	207.88
269.145	236.88
269.377	243.88
269.609	234.88
269.841	237.88
270.073	241.88
270.306	248.88
270.538	279.88
270.77	276.88
271.002	282.88
271.234	272.88
271.466	272.88
271.698	273.88
271.93	273.88
272.162	277.88
272.394	296.88
272.626	269.88
272.858	248.88
273.09	257.88
273.322	240.88
273.553	233.88
273.785	235.88
274.017	242.88
274.249	230.88
274.481	229.88
274.713	250.88
274.945	230.88
275.176	225.88
275.408	247.88
275.64	242.88
275.872	241.88
276.104	228.88
276.335	234.88
276.567	252.88
276.799	247.88
277.031	263.88
277.262	254.88
277.494	295.88
277.726	262.88
277.957	252.88
278.189	266.88
278.421	245.88
278.652	245.88
278.884	252.88
279.115	228.88
279.347	252.88
279.579	239.88
279.81	245.88
280.042	221.88
280.273	202.88
280.505	231.88
280.736	215.88
280.968	234.88
281.199	219.88
281.431	223.88
281.662	229.88
281.894	247.88
282.125	220.88
282.356	248.88
282.588	257.88
282.819	269.88
283.051	254.88
283.282	245.88
283.513	245.88
283.745	248.88
283.976	237.88
284.207	264.88
284.439	267.88
284.67	259.88
284.901	252.88
285.132	242.88
285.364	239.88
285.595	250.88
285.826	231.88
286.057	253.88
286.288	249.88
286.52	252.88
286.751	228.88
286.982	234.88
287.213	245.88
287.444	254.88
287.675	259.88
287.906	281.88
288.138	266.88
288.369	258.88
288.6	288.88
288.831	245.88
289.062	274.88
289.293	266.88
289.524	241.88
289.755	250.88
289.986	241.88
290.217	251.88
290.448	259.88
290.679	253.88
290.91	247.88
291.141	239.88
291.371	233.88
291.602	242.88
291.833	251.88
292.064	251.88
292.295	248.88
292.526	263.88
292.757	250.88
292.987	223.88
293.218	255.88
293.449	269.88
293.68	258.88
293.91	242.88
294.141	237.88
294.372	248.88
294.603	252.88
294.833	257.88
295.064	260.88
295.295	280.88
295.525	248.88
295.756	261.88
295.987	250.88
296.217	279.88
296.448	284.88
296.679	259.88
296.909	253.88
297.14	251.88
297.37	265.88
297.601	269.88
297.831	268.88
298.062	265.88
298.292	251.88
298.523	256.88
298.753	265.88
298.984	264.88
299.214	253.88
299.445	268.88
299.675	267.88
299.905	275.88
300.136	275.88
300.366	278.88
300.597	279.88
300.827	279.88
301.057	284.88
301.288	304.88
301.518	291.88
301.748	267.88
301.979	263.88
302.209	275.88
302.439	293.88
302.669	295.88
302.9	270.88
303.13	285.88
303.36	283.88
303.59	306.88
303.82	288.88
304.051	287.88
304.281	291.88
304.511	282.88
304.741	284.88
304.971	284.88
305.201	293.88
305.431	282.88
305.661	296.88
305.891	269.88
306.121	280.88
306.352	300.88
306.582	304.88
306.812	283.88
307.042	285.88
307.272	293.88
307.502	297.88
307.731	291.88
307.961	308.88
308.191	311.88
308.421	296.88
308.651	277.88
308.881	308.88
309.111	312.88
309.341	311.88
309.571	315.88
309.8	326.88
310.03	339.88
310.26	343.88
310.49	329.88
310.72	330.88
310.949	346.88
311.179	351.88
311.409	325.88
311.639	343.88
311.868	347.88
312.098	319.88
312.328	337.88
312.557	340.88
312.787	373.88
313.017	376.88
313.246	337.88
313.476	332.88
313.706	334.88
313.935	332.88
314.165	345.88
314.394	343.88
314.624	356.88
314.853	344.88
315.083	330.88
315.312	324.88
315.542	344.88
315.771	315.88
316.001	328.88
316.23	331.88
316.46	333.88
316.689	329.88
316.919	334.88
317.148	348.88
317.377	337.88
317.607	342.88
317.836	347.88
318.065	353.88
318.295	343.88
318.524	333.88
318.753	328.88
318.983	326.88
319.212	331.88
319.441	354.88
319.67	348.88
319.9	339.88
320.129	341.88
320.358	316.88
320.587	321.88
320.816	348.88
321.046	379.88
321.275	354.88
321.504	349.88
321.733	341.88
321.962	365.88
322.191	386.88
322.42	387.88
322.649	399.88
322.878	418.88
323.108	419.88
323.337	425.88
323.566	469.88
323.795	495.88
324.024	549.88
324.253	677.88
324.482	1008.88
324.71	1515.88
324.939	2045.88
325.168	1704.88
325.397	916.88
325.626	621.88
325.855	513.88
326.084	475.88
326.313	468.88
326.542	473.88
326.77	517.88
326.999	635.88
327.228	868.88
327.457	1323.88
327.686	1538.88
327.914	1032.88
328.143	700.88
328.372	587.88
328.6	563.88
328.829	513.88
329.058	556.88
329.287	546.88
329.515	524.88
329.744	472.88
329.972	470.88
330.201	495.88
330.43	531.88
330.658	541.88
330.887	590.88
331.115	545.88
331.344	482.88
331.572	469.88
331.801	447.88
332.03	446.88
332.258	414.88
332.486	400.88
332.715	389.88
332.943	389.88
333.172	402.88
333.4	410.88
333.629	400.88
333.857	409.88
334.085	435.88
334.314	463.88
334.542	464.88
334.771	507.88
334.999	458.88
335.227	408.88
335.455	410.88
335.684	372.88
335.912	405.88
336.14	374.88
336.369	388.88
336.597	408.88
336.825	407.88
337.053	391.88
337.281	385.88
337.51	377.88
337.738	379.88
337.966	380.88
338.194	381.88
338.422	387.88
338.65	378.88
338.878	380.88
339.106	377.88
339.334	365.88
339.562	379.88
339.79	389.88
340.018	374.88
340.246	380.88
340.474	386.88
340.702	380.88
340.93	358.88
341.158	375.88
341.386	371.88
341.614	363.88
341.842	375.88
342.07	359.88
342.298	368.88
342.526	362.88
342.754	362.88
342.981	353.88
343.209	352.88
343.437	368.88
343.665	375.88
343.893	374.88
344.12	364.88
344.348	381.88
344.576	363.88
344.804	396.88
345.031	390.88
345.259	415.88
345.487	399.88
345.714	391.88
345.942	377.88
346.17	362.88
346.397	361.88
346.625	355.88
346.853	363.88
347.08	360.88
347.308	357.88
347.535	379.88
347.763	382.88
347.99	391.88
348.218	387.88
348.445	376.88
348.673	388.88
348.9	383.88
349.128	369.88
349.355	358.88
349.583	350.88
349.81	346.88
350.037	356.88
350.265	345.88
350.492	345.88
350.72	341.88
350.947	374.88
351.174	374.88
351.402	390.88
351.629	396.88
351.856	377.88
352.083	383.88
352.311	378.88
352.538	379.88
352.765	381.88
352.992	372.88
353.22	363.88
353.447	367.88
353.674	357.88
353.901	353.88
354.128	344.88
354.355	333.88
354.583	343.88
354.81	331.88
355.037	337.88
355.264	334.88
355.491	332.88
355.718	344.88
355.945	348.88
356.172	339.88
356.399	333.88
356.626	343.88
356.853	353.88
357.08	327.88
357.307	330.88
357.534	344.88
357.761	347.88
357.988	354.88
358.215	338.88
358.441	351.88
358.668	346.88
358.895	361.88
359.122	345.88
359.349	353.88
359.576	365.88
359.802	397.88
360.029	409.88
360.256	407.88
360.483	385.88
360.709	379.88
360.936	377.88
361.163	355.88
361.39	377.88
361.616	357.88
361.843	367.88
362.07	373.88
362.296	359.88
362.523	374.88
362.749	362.88
362.976	362.88
363.203	380.88
363.429	362.88
363.656	357.88
363.882	338.88
364.109	341.88
364.335	331.88
364.562	346.88
364.788	368.88
365.015	354.88
365.241	359.88
365.468	367.88
365.694	369.88
365.92	374.88
366.147	360.88
366.373	355.88
366.599	353.88
366.826	334.88
367.052	338.88
367.278	336.88
367.505	335.88
367.731	370.88
367.957	360.88
368.184	347.88
368.41	379.88
368.636	360.88
368.862	347.88
369.089	381.88
369.315	352.88
369.541	345.88
369.767	354.88
369.993	363.88
370.219	344.88
370.445	337.88
370.672	367.88
370.898	343.88
371.124	345.88
371.35	342.88
371.576	353.88
371.802	357.88
372.028	352.88
372.254	343.88
372.48	353.88
372.706	336.88
372.932	331.88
373.158	343.88
373.384	310.88
373.61	351.88
373.835	347.88
374.061	352.88
374.287	357.88
374.513	368.88
374.739	354.88
374.965	345.88
375.191	349.88
375.416	336.88
375.642	359.88
375.868	340.88
376.094	337.88
376.319	327.88
376.545	351.88
376.771	335.88
376.997	327.88
377.222	335.88
377.448	341.88
377.674	359.88
377.899	316.88
378.125	325.88
378.35	341.88
378.576	342.88
378.802	339.88
379.027	332.88
379.253	328.88
379.478	330.88
379.704	346.88
379.929	347.88
380.155	346.88
380.38	333.88
380.606	323.88
380.831	347.88
381.057	350.88
381.282	334.88
381.507	328.88
381.733	353.88
381.958	350.88
382.184	350.88
382.409	332.88
382.634	345.88
382.86	339.88
383.085	350.88
383.31	352.88
383.535	356.88
383.761	343.88
383.986	365.88
384.211	342.88
384.436	358.88
384.662	343.88
384.887	340.88
385.112	335.88
385.337	367.88
385.562	373.88
385.787	360.88
386.013	364.88
386.238	388.88
386.463	355.88
386.688	371.88
386.913	349.88
387.138	362.88
387.363	367.88
387.588	363.88
387.813	365.88
388.038	345.88
388.263	354.88
388.488	360.88
388.713	364.88
388.938	387.88
389.163	370.88
389.387	378.88
389.612	347.88
389.837	370.88
390.062	356.88
390.287	369.88
390.512	377.88
390.736	373.88
390.961	347.88
391.186	356.88
391.411	367.88
391.636	377.88
391.86	361.88
392.085	391.88
392.31	370.88
392.534	371.88
392.759	361.88
392.984	372.88
393.208	369.88
393.433	352.88
393.658	365.88
393.882	359.88
394.107	352.88
394.331	376.88
394.556	358.88
394.78	362.88
395.005	380.88
395.229	371.88
395.454	379.88
395.678	369.88
395.903	396.88
396.127	379.88
396.352	397.88
396.576	378.88
396.801	378.88
397.025	374.88
397.249	390.88
397.474	391.88
397.698	375.88
397.922	406.88
398.147	396.88
398.371	409.88
398.595	405.88
398.82	416.88
399.044	428.88
399.268	417.88
399.492	447.88
399.717	450.88
399.941	466.88
400.165	517.88
400.389	503.88
400.613	479.88
400.837	452.88
401.062	427.88
401.286	423.88
401.51	416.88
401.734	405.88
401.958	427.88
402.182	421.88
402.406	412.88
402.63	444.88
402.854	423.88
403.078	415.88
403.302	426.88
403.526	443.88
403.75	428.88
403.974	424.88
404.198	437.88
404.422	427.88
404.645	463.88
404.869	440.88
405.093	453.88
405.317	498.88
405.541	533.88
405.765	488.88
405.988	464.88
406.212	455.88
406.436	488.88
406.66	497.88
406.883	471.88
407.107	447.88
407.331	537.88
407.555	547.88
407.778	552.88
408.002	512.88
408.226	488.88
408.449	459.88
408.673	465.88
408.896	485.88
409.12	506.88
409.344	496.88
409.567	469.88
409.791	457.88
410.014	431.88
410.238	422.88
410.461	443.88
410.685	440.88
410.908	453.88
411.132	471.88
411.355	495.88
411.578	466.88
411.802	439.88
412.025	424.88
412.249	454.88
412.472	472.88
412.695	482.88
412.919	471.88
413.142	435.88
413.365	435.88
413.589	428.88
413.812	415.88
414.035	389.88
414.258	405.88
414.482	396.88
414.705	393.88
414.928	411.88
415.151	402.88
415.374	396.88
415.597	388.88
415.821	388.88
416.044	415.88
416.267	399.88
416.49	387.88
416.713	388.88
416.936	388.88
417.159	409.88
417.382	397.88
417.605	416.88
417.828	415.88
418.051	409.88
418.274	409.88
418.497	408.88
418.72	408.88
418.943	398.88
419.166	409.88
419.389	441.88
419.611	434.88
419.834	450.88
420.057	449.88
420.28	435.88
420.503	427.88
420.726	431.88
420.948	441.88
421.171	489.88
421.394	497.88
421.617	462.88
421.839	449.88
422.062	444.88
422.285	413.88
422.507	484.88
422.73	555.88
422.953	524.88
423.175	473.88
423.398	451.88
423.621	446.88
423.843	464.88
424.066	467.88
424.288	483.88
424.511	456.88
424.733	537.88
424.956	596.88
425.178	567.88
425.401	578.88
425.623	579.88
425.846	515.88
426.068	500.88
426.291	473.88
426.513	462.88
426.735	489.88
426.958	516.88
427.18	590.88
427.402	677.88
427.625	754.88
427.847	681.88
428.069	568.88
428.292	509.88
428.514	473.88
428.736	438.88
428.958	457.88
429.181	427.88
429.403	434.88
429.625	440.88
429.847	465.88
430.069	511.88
430.292	516.88
430.514	442.88
430.736	416.88
430.958	423.88
431.18	416.88
431.402	406.88
431.624	401.88
431.846	415.88
432.068	393.88
432.29	414.88
432.512	419.88
432.734	399.88
432.956	403.88
433.178	450.88
433.4	417.88
433.622	405.88
433.844	402.88
434.066	406.88
434.287	410.88
434.509	415.88
434.731	411.88
434.953	433.88
435.175	415.88
435.397	460.88
435.618	484.88
435.84	495.88
436.062	611.88
436.284	641.88
436.505	561.88
436.727	497.88
436.949	433.88
437.17	432.88
437.392	451.88
437.614	445.88
437.835	474.88
438.057	565.88
438.278	639.88
438.5	663.88
438.721	696.88
438.943	669.88
439.165	544.88
439.386	500.88
439.608	476.88
439.829	489.88
440.05	516.88
440.272	542.88
440.493	500.88
440.715	455.88
440.936	447.88
441.158	437.88
441.379	456.88
441.6	457.88
441.822	452.88
442.043	492.88
442.264	581.88
442.486	598.88
442.707	520.88
442.928	491.88
443.149	501.88
443.371	525.88
443.592	579.88
443.813	640.88
444.034	630.88
444.255	549.88
444.476	486.88
444.698	467.88
444.919	466.88
445.14	596.88
445.361	550.88
445.582	522.88
445.803	566.88
446.024	643.88
446.245	655.88
446.466	563.88
446.687	511.88
446.908	475.88
447.129	445.88
447.35	425.88
447.571	449.88
447.792	450.88
448.013	424.88
448.234	464.88
448.455	502.88
448.675	592.88
448.896	668.88
449.117	594.88
449.338	547.88
449.559	650.88
449.779	730.88
450	582.88
450.221	482.88
450.442	469.88
450.662	447.88
450.883	425.88
451.104	443.88
451.324	454.88
451.545	426.88
451.766	397.88
451.986	402.88
452.207	381.88
452.428	412.88
452.648	389.88
452.869	413.88
453.089	407.88
453.31	427.88
453.53	408.88
453.751	386.88
453.971	397.88
454.192	434.88
454.412	410.88
454.633	385.88
454.853	395.88
455.073	395.88
455.294	404.88
455.514	473.88
455.734	456.88
455.955	401.88
456.175	374.88
456.395	379.88
456.616	371.88
456.836	376.88
457.056	357.88
457.276	377.88
457.497	374.88
457.717	381.88
457.937	365.88
458.157	374.88
458.377	395.88
458.598	416.88
458.818	484.88
459.038	527.88
459.258	539.88
459.478	460.88
459.698	429.88
459.918	407.88
460.138	407.88
460.358	382.88
460.578	403.88
460.798	409.88
461.018	405.88
461.238	401.88
461.458	419.88
461.678	404.88
461.898	405.88
462.118	406.88
462.338	413.88
462.558	405.88
462.777	405.88
462.997	421.88
463.217	442.88
463.437	441.88
463.657	400.88
463.876	431.88
464.096	422.88
464.316	436.88
464.536	437.88
464.755	451.88
464.975	447.88
465.195	509.88
465.414	583.88
465.634	493.88
465.854	427.88
466.073	426.88
466.293	404.88
466.512	396.88
466.732	391.88
466.951	396.88
467.171	399.88
467.391	401.88
467.61	421.88
467.829	424.88
468.049	423.88
468.268	422.88
468.488	415.88
468.707	394.88
468.927	389.88
469.146	406.88
469.365	393.88
469.585	387.88
469.804	395.88
470.023	409.88
470.243	417.88
470.462	411.88
470.681	433.88
470.901	426.88
471.12	420.88
471.339	417.88
471.558	408.88
471.777	413.88
471.997	411.88
472.216	415.88
472.435	447.88
472.654	435.88
472.873	419.88
473.092	420.88
473.311	402.88
473.53	402.88
473.749	410.88
473.968	476.88
474.187	542.88
474.406	561.88
474.625	459.88
474.844	428.88
475.063	413.88
475.282	397.88
475.501	407.88
475.72	436.88
475.939	401.88
476.158	398.88
476.377	403.88
476.596	418.88
476.814	427.88
477.033	431.88
477.252	447.88
477.471	420.88
477.69	440.88
477.908	427.88
478.127	440.88
478.346	424.88
478.564	437.88
478.783	441.88
479.002	480.88
479.22	450.88
479.439	489.88
479.658	484.88
479.876	500.88
480.095	510.88
480.313	519.88
480.532	514.88
480.751	490.88
480.969	515.88
481.188	583.88
481.406	621.88
481.624	552.88
481.843	501.88
482.061	500.88
482.28	459.88
482.498	503.88
482.717	479.88
482.935	468.88
483.153	464.88
483.372	455.88
483.59	464.88
483.808	462.88
484.027	474.88
484.245	480.88
484.463	459.88
484.681	488.88
484.9	483.88
485.118	490.88
485.336	495.88
485.554	515.88
485.772	484.88
485.99	498.88
486.209	499.88
486.427	488.88
486.645	489.88
486.863	521.88
487.081	507.88
487.299	515.88
487.517	508.88
487.735	523.88
487.953	511.88
488.171	514.88
488.389	528.88
488.607	521.88
488.825	525.88
489.043	475.88
489.261	509.88
489.479	539.88
489.696	536.88
489.914	520.88
490.132	533.88
490.35	548.88
490.568	538.88
490.786	536.88
491.003	574.88
491.221	563.88
491.439	571.88
491.657	589.88
491.874	583.88
492.092	589.88
492.31	579.88
492.527	599.88
492.745	578.88
492.963	604.88
493.18	615.88
493.398	597.88
493.615	621.88
493.833	628.88
494.05	590.88
494.268	617.88
494.485	616.88
494.703	596.88
494.92	607.88
495.138	605.88
495.355	608.88
495.573	603.88
495.79	617.88
496.008	583.88
496.225	612.88
496.442	608.88
496.66	631.88
496.877	626.88
497.094	606.88
497.312	595.88
497.529	644.88
497.746	650.88
497.963	654.88
498.181	685.88
498.398	637.88
498.615	631.88
498.832	645.88
499.049	662.88
499.267	669.88
499.484	700.88
499.701	695.88
499.918	732.88
500.135	735.88
500.352	740.88
500.569	767.88
500.786	779.88
501.003	772.88
501.22	748.88
501.437	742.88
501.654	723.88
501.871	731.88
502.088	699.88
502.305	697.88
502.522	675.88
502.739	663.88
502.956	641.88
503.172	649.88
503.389	638.88
503.606	631.88
503.823	643.88
504.04	633.88
504.256	617.88
504.473	596.88
504.69	604.88
504.907	585.88
505.123	599.88
505.34	583.88
505.557	601.88
505.773	584.88
505.99	582.88
506.207	588.88
506.423	580.88
506.64	588.88
506.856	591.88
507.073	590.88
507.289	566.88
507.506	571.88
507.722	606.88
507.939	614.88
508.155	578.88
508.372	565.88
508.588	559.88
508.805	564.88
509.021	560.88
509.238	561.88
509.454	573.88
509.67	575.88
509.887	570.88
510.103	583.88
510.319	586.88
510.536	703.88
510.752	1199.88
510.968	943.88
511.184	599.88
511.401	573.88
511.617	556.88
511.833	541.88
512.049	554.88
512.265	559.88
512.481	535.88
512.698	519.88
512.914	535.88
513.13	532.88
513.346	534.88
513.562	542.88
513.778	538.88
513.994	550.88
514.21	570.88
514.426	567.88
514.642	624.88
514.858	665.88
515.074	728.88
515.29	864.88
515.506	1350.88
515.721	1087.88
515.937	687.88
516.153	597.88
516.369	596.88
516.585	548.88
516.801	555.88
517.016	539.88
517.232	551.88
517.448	560.88
517.664	543.88
517.879	571.88
518.095	539.88
518.311	554.88
518.527	541.88
518.742	556.88
518.958	560.88
519.173	542.88
519.389	547.88
519.605	531.88
519.82	532.88
520.036	569.88
520.251	585.88
520.467	598.88
520.682	611.88
520.898	611.88
521.113	649.88
521.329	691.88
521.544	789.88
521.76	1037.88
521.975	1760.88
522.19	1696.88
522.406	899.88
522.621	650.88
522.836	585.88
523.052	551.88
523.267	528.88
523.482	519.88
523.698	512.88
523.913	486.88
524.128	515.88
524.343	504.88
524.559	471.88
524.774	462.88
524.989	487.88
525.204	486.88
525.419	475.88
525.634	469.88
525.849	475.88
526.064	457.88
526.28	464.88
526.495	427.88
526.71	439.88
526.925	444.88
527.14	443.88
527.355	432.88
527.57	429.88
527.785	427.88
527.999	424.88
528.214	452.88
528.429	456.88
528.644	450.88
528.859	436.88
529.074	431.88
529.289	484.88
529.503	550.88
529.718	517.88
529.933	478.88
530.148	468.88
530.363	442.88
530.577	437.88
530.792	424.88
531.007	432.88
531.221	423.88
531.436	409.88
531.651	419.88
531.865	408.88
532.08	416.88
532.295	416.88
532.509	405.88
532.724	420.88
532.938	420.88
533.153	410.88
533.367	407.88
533.582	421.88
533.796	427.88
534.011	408.88
534.225	408.88
534.44	395.88
534.654	418.88
534.868	384.88
535.083	406.88
535.297	409.88
535.511	401.88
535.726	423.88
535.94	415.88
536.154	427.88
536.369	421.88
536.583	393.88
536.797	400.88
537.011	391.88
537.225	384.88
537.44	388.88
537.654	396.88
537.868	380.88
538.082	400.88
538.296	391.88
538.51	386.88
538.724	417.88
538.938	395.88
539.153	399.88
539.367	408.88
539.581	417.88
539.795	400.88
540.009	394.88
540.222	417.88
540.436	388.88
540.65	391.88
540.864	402.88
541.078	393.88
541.292	382.88
541.506	373.88
541.72	389.88
541.934	417.88
542.147	408.88
542.361	387.88
542.575	393.88
542.789	392.88
543.002	372.88
543.216	387.88
543.43	395.88
543.644	400.88
543.857	383.88
544.071	388.88
544.285	399.88
544.498	389.88
544.712	403.88
544.925	390.88
545.139	385.88
545.352	376.88
545.566	381.88
545.779	369.88
545.993	375.88
546.206	382.88
546.42	360.88
546.633	390.88
546.847	365.88
547.06	369.88
547.274	358.88
547.487	372.88
547.7	379.88
547.914	379.88
548.127	373.88
548.34	362.88
548.554	355.88
548.767	377.88
548.98	377.88
549.193	378.88
549.407	373.88
549.62	368.88
549.833	380.88
550.046	378.88
550.259	355.88
550.473	368.88
550.686	371.88
550.899	365.88
551.112	354.88
551.325	375.88
551.538	370.88
551.751	353.88
551.964	369.88
552.177	356.88
552.39	378.88
552.603	369.88
552.816	360.88
553.029	379.88
553.242	383.88
553.455	370.88
553.667	367.88
553.88	407.88
554.093	360.88
554.306	367.88
554.519	367.88
554.732	356.88
554.944	367.88
555.157	343.88
555.37	354.88
555.583	361.88
555.795	350.88
556.008	342.88
556.221	344.88
556.433	359.88
556.646	337.88
556.859	343.88
557.071	351.88
557.284	340.88
557.496	343.88
557.709	340.88
557.921	324.88
558.134	326.88
558.346	339.88
558.559	334.88
558.771	323.88
558.984	325.88
559.196	321.88
559.409	328.88
559.621	335.88
559.833	342.88
560.046	312.88
560.258	343.88
560.47	327.88
560.683	323.88
560.895	323.88
561.107	305.88
561.32	307.88
561.532	317.88
561.744	330.88
561.956	346.88
562.168	322.88
562.381	321.88
562.593	327.88
562.805	329.88
563.017	325.88
563.229	327.88
563.441	338.88
563.653	333.88
563.865	340.88
564.077	307.88
564.289	314.88
564.501	333.88
564.713	348.88
564.925	343.88
565.137	350.88
565.349	339.88
565.561	349.88
565.773	351.88
565.985	337.88
566.197	340.88
566.408	357.88
566.62	367.88
566.832	379.88
567.044	371.88
567.255	387.88
567.467	376.88
567.679	351.88
567.891	371.88
568.102	370.88
568.314	377.88
568.526	364.88
568.737	344.88
568.949	347.88
569.161	329.88
569.372	324.88
569.584	350.88
569.795	335.88
570.007	342.88
570.218	384.88
570.43	373.88
570.641	315.88
570.853	315.88
571.064	317.88
571.276	294.88
571.487	317.88
571.698	308.88
571.91	296.88
572.121	309.88
572.333	307.88
572.544	284.88
572.755	299.88
572.966	289.88
573.178	308.88
573.389	274.88
573.6	288.88
573.811	280.88
574.023	314.88
574.234	294.88
574.445	278.88
574.656	268.88
574.867	280.88
575.078	304.88
575.289	290.88
575.501	270.88
575.712	272.88
575.923	256.88
576.134	272.88
576.345	275.88
576.556	268.88
576.767	261.88
576.978	288.88
577.188	283.88
577.399	281.88
577.61	281.88
577.821	281.88
578.032	276.88
578.243	321.88
578.454	555.88
578.665	385.88
578.875	300.88
579.086	264.88
579.297	261.88
579.508	261.88
579.718	264.88
579.929	279.88
580.14	255.88
580.35	267.88
580.561	260.88
580.772	267.88
580.982	263.88
581.193	262.88
581.403	251.88
581.614	275.88
581.825	260.88
582.035	254.88
582.246	268.88
582.456	266.88
582.667	278.88
582.877	256.88
583.087	261.88
583.298	248.88
583.508	234.88
583.719	247.88
583.929	266.88
584.139	279.88
584.35	256.88
584.56	244.88
584.77	259.88
584.981	247.88
585.191	252.88
585.401	239.88
585.611	252.88
585.821	253.88
586.032	269.88
586.242	251.88
586.452	264.88
586.662	256.88
586.872	259.88
587.082	251.88
587.292	241.88
587.502	248.88
587.713	244.88
587.923	236.88
588.133	234.88
588.343	253.88
588.553	245.88
588.762	242.88
588.972	247.88
589.182	277.88
589.392	294.88
589.602	258.88
589.812	283.88
590.022	258.88
590.232	227.88
590.441	249.88
590.651	241.88
590.861	255.88
591.071	254.88
591.281	260.88
591.49	261.88
591.7	232.88
591.91	240.88
592.119	241.88
592.329	257.88
592.539	249.88
592.748	251.88
592.958	233.88
593.167	230.88
593.377	277.88
593.587	249.88
593.796	255.88
594.006	251.88
594.215	258.88
594.424	266.88
594.634	243.88
594.843	236.88
595.053	243.88
595.262	253.88
595.472	251.88
595.681	230.88
595.89	229.88
596.1	230.88
596.309	243.88
596.518	239.88
596.727	229.88
596.937	233.88
597.146	223.88
597.355	230.88
597.564	227.88
597.774	220.88
597.983	247.88
598.192	227.88
598.401	209.88
598.61	229.88
598.819	227.88
599.028	236.88
599.237	229.88
599.446	231.88
599.655	203.88
599.864	214.88
600.073	219.88
600.282	231.88
600.491	225.88
600.7	212.88
600.909	214.88
601.118	227.88
601.327	214.88
601.536	210.88
601.745	203.88
601.953	212.88
602.162	203.88
602.371	203.88
602.58	223.88
602.789	203.88
602.997	216.88
603.206	231.88
603.415	217.88
603.623	211.88
603.832	203.88
604.041	208.88
604.249	200.88
604.458	223.88
604.666	205.88
604.875	195.88
605.084	217.88
605.292	200.88
605.501	216.88
605.709	202.88
605.918	217.88
606.126	208.88
606.334	187.88
606.543	210.88
606.751	207.88
606.96	205.88
607.168	212.88
607.376	207.88
607.585	212.88
607.793	211.88
608.001	200.88
608.21	206.88
608.418	202.88
608.626	198.88
608.834	207.88
609.043	200.88
609.251	213.88
609.459	208.88
609.667	197.88
609.875	211.88
610.083	207.88
610.291	205.88
610.499	220.88
610.707	211.88
610.916	219.88
611.124	205.88
611.332	212.88
611.54	221.88
611.748	215.88
611.955	203.88
612.163	195.88
612.371	196.88
612.579	189.88
612.787	198.88
612.995	186.88
613.203	215.88
613.411	193.88
613.618	202.88
613.826	204.88
614.034	202.88
614.242	197.88
614.449	192.88
614.657	205.88
614.865	210.88
615.072	199.88
615.28	198.88
615.488	188.88
615.695	191.88
615.903	209.88
616.111	187.88
616.318	202.88
616.526	209.88
616.733	208.88
616.941	209.88
617.148	203.88
617.356	181.88
617.563	196.88
617.771	193.88
617.978	204.88
618.185	189.88
618.393	183.88
618.6	194.88
618.807	191.88
619.015	200.88
619.222	196.88
619.429	198.88
619.637	196.88
619.844	198.88
620.051	178.88
620.258	189.88
620.466	187.88
620.673	169.88
620.88	174.88
621.087	189.88
621.294	195.88
621.501	184.88
621.708	193.88
621.915	194.88
622.122	192.88
622.329	201.88
622.536	204.88
622.743	175.88
622.95	195.88
623.157	183.88
623.364	176.88
623.571	185.88
623.778	191.88
623.985	188.88
624.192	181.88
624.399	187.88
624.606	179.88
624.812	184.88
625.019	184.88
625.226	164.88
625.433	187.88
625.639	179.88
625.846	180.88
626.053	183.88
626.259	187.88
626.466	185.88
626.673	173.88
626.879	180.88
627.086	184.88
627.293	179.88
627.499	175.88
627.706	177.88
627.912	182.88
628.119	173.88
628.325	167.88
628.532	165.88
628.738	156.88
628.945	162.88
629.151	169.88
629.357	183.88
629.564	168.88
629.77	175.88
629.976	176.88
630.183	177.88
630.389	167.88
630.595	162.88
630.802	147.88
631.008	160.88
631.214	160.88
631.42	154.88
631.627	170.88
631.833	186.88
632.039	155.88
632.245	183.88
632.451	174.88
632.657	178.88
632.863	158.88
633.069	165.88
633.275	169.88
633.481	153.88
633.688	144.88
633.893	155.88
634.099	176.88
634.305	160.88
634.511	133.88
634.717	163.88
634.923	160.88
635.129	159.88
635.335	165.88
635.541	144.88
635.747	167.88
635.952	149.88
636.158	151.88
636.364	156.88
636.57	158.88
636.775	167.88
636.981	165.88
637.187	152.88
637.392	139.88
637.598	142.88
637.804	147.88
638.009	156.88
638.215	157.88
638.421	168.88
638.626	164.88
638.832	151.88
639.037	158.88
639.243	143.88
639.448	155.88
639.654	147.88
639.859	140.88
640.065	153.88
640.27	159.88
640.475	148.88
640.681	155.88
640.886	162.88
641.091	152.88
641.297	154.88
641.502	152.88
641.707	172.88
641.913	149.88
642.118	155.88
642.323	156.88
642.528	151.88
642.733	142.88
642.939	140.88
643.144	141.88
643.349	140.88
643.554	138.88
643.759	155.88
643.964	152.88
644.169	144.88
644.374	151.88
644.579	155.88
644.784	136.88
644.989	151.88
645.194	143.88
645.399	131.88
645.604	164.88
645.809	143.88
646.014	150.88
646.219	157.88
646.423	158.88
646.628	154.88
646.833	144.88
647.038	140.88
647.243	155.88
647.447	162.88
647.652	149.88
647.857	147.88
648.062	167.88
648.266	167.88
648.471	145.88
648.676	139.88
648.88	141.88
649.085	133.88
649.289	150.88
649.494	143.88
649.698	153.88
649.903	135.88
650.107	130.88
650.312	151.88
650.516	124.88
650.721	136.88
650.925	148.88
651.13	133.88
651.334	142.88
651.539	131.88
651.743	139.88
651.947	148.88
652.152	135.88
652.356	119.88
652.56	129.88
652.764	141.88
652.969	132.88
653.173	135.88
653.377	129.88
653.581	116.88
653.785	120.88
653.99	140.88
654.194	123.88
654.398	136.88
654.602	125.88
654.806	133.88
655.01	122.88
655.214	131.88
655.418	137.88
655.622	106.88
655.826	115.88
656.03	125.88
656.234	128.88
656.438	120.88
656.642	131.88
656.846	106.88
657.049	120.88
657.253	105.88
657.457	108.88
657.661	101.88
657.865	104.88
658.068	99.88
658.272	104.88
658.476	110.88
658.68	103.88
658.883	113.88
659.087	109.88
659.291	95.88
659.494	98.88
659.698	94.88
659.901	101.88
660.105	111.88
660.309	103.88
660.512	92.88
660.716	83.88
660.919	91.88
661.123	85.88
661.326	80.88
661.53	87.88
661.733	91.88
661.936	91.88
662.14	75.88
662.343	83.88
662.546	83.88
662.75	90.88
662.953	90.88
663.156	73.88
663.36	87.88
663.563	81.88
663.766	85.88
663.969	87.88
664.173	88.88
664.376	88.88
664.579	84.88
664.782	92.88
664.985	69.88
665.188	83.88
665.391	67.88
665.594	75.88
665.797	90.88
666	91.88
666.203	75.88
666.406	76.88
666.609	77.88
666.812	73.88
667.015	73.88
667.218	76.88
667.421	70.88
667.624	91.88
667.827	78.88
668.03	90.88
668.232	90.88
668.435	69.88
668.638	74.88
668.841	86.88
669.043	68.88
669.246	73.88
669.449	84.88
669.651	78.88
669.854	74.88
670.057	79.88
670.259	86.88
670.462	90.88
670.665	87.88
670.867	78.88
671.07	84.88
671.272	92.88
671.475	84.88
671.677	72.88
671.88	72.88
672.082	82.88
672.284	72.88
672.487	83.88
672.689	66.88
672.892	80.88
