Data from 1965.PennyLincolnUp.Lamp.En5.5.200Scan.071719.P1._HRD10591_14-09-41-911.txt Node
Date: Thu Jul 18 14:09:41 EDT 2019
User: cochatt
Spectrometer: HR+D1059
Trigger mode: 1
Integration Time (sec): 1.000000E-1
Scans to average: 1
Electric dark correction enabled: true
Nonlinearity correction enabled: false
Boxcar width: 0
XAxis mode: Wavelengths
Number of Pixels in Spectrum: 2048
>>>>>Begin Spectral Data<<<<<
223.165	-6.31
223.4	-6.31
223.635	-6.31
223.869	-21.31
224.104	-17.31
224.338	-14.31
224.573	-25.31
224.808	-10.31
225.042	-10.31
225.277	-1.31
225.511	-1.31
225.746	-4.31
225.98	2.69
226.215	20.69
226.449	23.69
226.683	21.69
226.918	29.69
227.152	13.69
227.387	44.69
227.621	31.69
227.856	41.69
228.09	40.69
228.324	56.69
228.559	53.69
228.793	85.69
229.027	97.69
229.262	83.69
229.496	109.69
229.73	120.69
229.964	144.69
230.199	120.69
230.433	110.69
230.667	105.69
230.901	125.69
231.136	107.69
231.37	108.69
231.604	111.69
231.838	96.69
232.072	96.69
232.306	112.69
232.541	113.69
232.775	113.69
233.009	114.69
233.243	107.69
233.477	110.69
233.711	115.69
233.945	111.69
234.179	125.69
234.413	117.69
234.647	115.69
234.881	103.69
235.115	116.69
235.349	120.69
235.583	117.69
235.817	99.69
236.051	106.69
236.285	121.69
236.519	114.69
236.753	125.69
236.987	139.69
237.221	171.69
237.455	223.69
237.689	179.69
237.922	140.69
238.156	122.69
238.39	130.69
238.624	125.69
238.858	112.69
239.091	105.69
239.325	109.69
239.559	114.69
239.793	130.69
240.027	131.69
240.26	147.69
240.494	122.69
240.728	126.69
240.961	149.69
241.195	132.69
241.429	136.69
241.662	138.69
241.896	122.69
242.13	127.69
242.363	131.69
242.597	120.69
242.83	122.69
243.064	122.69
243.298	126.69
243.531	123.69
243.765	121.69
243.998	131.69
244.232	140.69
244.465	122.69
244.699	126.69
244.932	139.69
245.166	138.69
245.399	130.69
245.633	132.69
245.866	134.69
246.099	151.69
246.333	149.69
246.566	143.69
246.8	140.69
247.033	130.69
247.266	140.69
247.5	154.69
247.733	149.69
247.966	154.69
248.2	166.69
248.433	149.69
248.666	159.69
248.899	173.69
249.133	168.69
249.366	170.69
249.599	188.69
249.832	170.69
250.066	175.69
250.299	159.69
250.532	152.69
250.765	191.69
250.998	196.69
251.231	203.69
251.465	200.69
251.698	193.69
251.931	174.69
252.164	196.69
252.397	195.69
252.63	179.69
252.863	189.69
253.096	195.69
253.329	193.69
253.562	197.69
253.795	202.69
254.028	193.69
254.261	197.69
254.494	221.69
254.727	222.69
254.96	252.69
255.193	253.69
255.426	232.69
255.659	207.69
255.892	215.69
256.124	214.69
256.357	216.69
256.59	206.69
256.823	210.69
257.056	185.69
257.289	199.69
257.521	190.69
257.754	191.69
257.987	191.69
258.22	197.69
258.452	199.69
258.685	196.69
258.918	167.69
259.151	188.69
259.383	184.69
259.616	195.69
259.849	190.69
260.081	200.69
260.314	218.69
260.547	235.69
260.779	226.69
261.012	238.69
261.244	198.69
261.477	206.69
261.71	188.69
261.942	205.69
262.175	202.69
262.407	212.69
262.64	186.69
262.872	208.69
263.105	202.69
263.337	195.69
263.57	199.69
263.802	200.69
264.035	174.69
264.267	204.69
264.499	171.69
264.732	205.69
264.964	193.69
265.197	184.69
265.429	197.69
265.661	192.69
265.894	182.69
266.126	195.69
266.358	188.69
266.591	210.69
266.823	207.69
267.055	202.69
267.287	210.69
267.52	206.69
267.752	209.69
267.984	198.69
268.216	232.69
268.448	222.69
268.681	203.69
268.913	212.69
269.145	232.69
269.377	250.69
269.609	248.69
269.841	231.69
270.073	242.69
270.306	246.69
270.538	268.69
270.77	285.69
271.002	274.69
271.234	261.69
271.466	288.69
271.698	302.69
271.93	293.69
272.162	296.69
272.394	291.69
272.626	268.69
272.858	258.69
273.09	262.69
273.322	250.69
273.553	263.69
273.785	245.69
274.017	227.69
274.249	248.69
274.481	235.69
274.713	250.69
274.945	234.69
275.176	239.69
275.408	232.69
275.64	248.69
275.872	235.69
276.104	241.69
276.335	239.69
276.567	234.69
276.799	250.69
277.031	285.69
277.262	280.69
277.494	279.69
277.726	258.69
277.957	254.69
278.189	232.69
278.421	252.69
278.652	240.69
278.884	243.69
279.115	235.69
279.347	237.69
279.579	239.69
279.81	222.69
280.042	218.69
280.273	254.69
280.505	240.69
280.736	232.69
280.968	249.69
281.199	248.69
281.431	236.69
281.662	230.69
281.894	248.69
282.125	245.69
282.356	239.69
282.588	266.69
282.819	272.69
283.051	235.69
283.282	238.69
283.513	238.69
283.745	252.69
283.976	238.69
284.207	246.69
284.439	230.69
284.67	246.69
284.901	258.69
285.132	260.69
285.364	236.69
285.595	245.69
285.826	239.69
286.057	238.69
286.288	233.69
286.52	250.69
286.751	257.69
286.982	255.69
287.213	238.69
287.444	236.69
287.675	244.69
287.906	286.69
288.138	293.69
288.369	267.69
288.6	255.69
288.831	261.69
289.062	243.69
289.293	250.69
289.524	259.69
289.755	270.69
289.986	250.69
290.217	254.69
290.448	243.69
290.679	262.69
290.91	260.69
291.141	253.69
291.371	262.69
291.602	256.69
291.833	245.69
292.064	255.69
292.295	255.69
292.526	259.69
292.757	264.69
292.987	249.69
293.218	264.69
293.449	277.69
293.68	266.69
293.91	247.69
294.141	243.69
294.372	262.69
294.603	268.69
294.833	250.69
295.064	254.69
295.295	240.69
295.525	251.69
295.756	277.69
295.987	251.69
296.217	286.69
296.448	274.69
296.679	274.69
296.909	248.69
297.14	261.69
297.37	257.69
297.601	271.69
297.831	260.69
298.062	265.69
298.292	267.69
298.523	262.69
298.753	273.69
298.984	288.69
299.214	239.69
299.445	287.69
299.675	282.69
299.905	262.69
300.136	285.69
300.366	289.69
300.597	271.69
300.827	292.69
301.057	301.69
301.288	298.69
301.518	279.69
301.748	283.69
301.979	282.69
302.209	292.69
302.439	300.69
302.669	295.69
302.9	287.69
303.13	283.69
303.36	279.69
303.59	307.69
303.82	284.69
304.051	284.69
304.281	286.69
304.511	277.69
304.741	286.69
304.971	302.69
305.201	283.69
305.431	290.69
305.661	286.69
305.891	281.69
306.121	272.69
306.352	301.69
306.582	296.69
306.812	283.69
307.042	286.69
307.272	290.69
307.502	290.69
307.731	305.69
307.961	297.69
308.191	281.69
308.421	292.69
308.651	312.69
308.881	296.69
309.111	310.69
309.341	324.69
309.571	295.69
309.8	322.69
310.03	330.69
310.26	340.69
310.49	357.69
310.72	364.69
310.949	355.69
311.179	354.69
311.409	335.69
311.639	332.69
311.868	336.69
312.098	337.69
312.328	352.69
312.557	336.69
312.787	347.69
313.017	361.69
313.246	346.69
313.476	331.69
313.706	359.69
313.935	340.69
314.165	355.69
314.394	382.69
314.624	359.69
314.853	334.69
315.083	332.69
315.312	344.69
315.542	314.69
315.771	319.69
316.001	335.69
316.23	340.69
316.46	329.69
316.689	348.69
316.919	358.69
317.148	361.69
317.377	355.69
317.607	352.69
317.836	333.69
318.065	343.69
318.295	349.69
318.524	336.69
318.753	327.69
318.983	343.69
319.212	330.69
319.441	347.69
319.67	363.69
319.9	351.69
320.129	339.69
320.358	340.69
320.587	349.69
320.816	354.69
321.046	367.69
321.275	375.69
321.504	360.69
321.733	368.69
321.962	378.69
322.191	374.69
322.42	396.69
322.649	412.69
322.878	408.69
323.108	435.69
323.337	426.69
323.566	471.69
323.795	499.69
324.024	539.69
324.253	681.69
324.482	1004.69
324.71	1494.69
324.939	2025.69
325.168	1724.69
325.397	918.69
325.626	638.69
325.855	527.69
326.084	467.69
326.313	476.69
326.542	488.69
326.77	528.69
326.999	634.69
327.228	899.69
327.457	1306.69
327.686	1538.69
327.914	1015.69
328.143	699.69
328.372	614.69
328.6	550.69
328.829	532.69
329.058	551.69
329.287	554.69
329.515	505.69
329.744	485.69
329.972	468.69
330.201	486.69
330.43	535.69
330.658	544.69
330.887	583.69
331.115	566.69
331.344	478.69
331.572	457.69
331.801	450.69
332.03	424.69
332.258	416.69
332.486	391.69
332.715	388.69
332.943	414.69
333.172	392.69
333.4	415.69
333.629	408.69
333.857	398.69
334.085	447.69
334.314	463.69
334.542	494.69
334.771	503.69
334.999	441.69
335.227	399.69
335.455	391.69
335.684	416.69
335.912	372.69
336.14	379.69
336.369	394.69
336.597	399.69
336.825	396.69
337.053	408.69
337.281	379.69
337.51	359.69
337.738	396.69
337.966	388.69
338.194	394.69
338.422	412.69
338.65	398.69
338.878	382.69
339.106	384.69
339.334	387.69
339.562	376.69
339.79	382.69
340.018	372.69
340.246	372.69
340.474	378.69
340.702	382.69
340.93	363.69
341.158	380.69
341.386	375.69
341.614	386.69
341.842	375.69
342.07	388.69
342.298	375.69
342.526	362.69
342.754	373.69
342.981	374.69
343.209	366.69
343.437	368.69
343.665	378.69
343.893	360.69
344.12	355.69
344.348	379.69
344.576	364.69
344.804	380.69
345.031	407.69
345.259	411.69
345.487	399.69
345.714	393.69
345.942	375.69
346.17	359.69
346.397	359.69
346.625	381.69
346.853	355.69
347.08	359.69
347.308	377.69
347.535	383.69
347.763	373.69
347.99	394.69
348.218	376.69
348.445	379.69
348.673	380.69
348.9	385.69
349.128	361.69
349.355	370.69
349.583	339.69
349.81	355.69
350.037	382.69
350.265	350.69
350.492	373.69
350.72	367.69
350.947	346.69
351.174	389.69
351.402	396.69
351.629	359.69
351.856	384.69
352.083	371.69
352.311	407.69
352.538	387.69
352.765	390.69
352.992	367.69
353.22	374.69
353.447	357.69
353.674	374.69
353.901	364.69
354.128	344.69
354.355	344.69
354.583	353.69
354.81	328.69
355.037	336.69
355.264	330.69
355.491	342.69
355.718	341.69
355.945	326.69
356.172	335.69
356.399	331.69
356.626	340.69
356.853	335.69
357.08	348.69
357.307	332.69
357.534	331.69
357.761	342.69
357.988	344.69
358.215	336.69
358.441	360.69
358.668	341.69
358.895	342.69
359.122	371.69
359.349	347.69
359.576	363.69
359.802	382.69
360.029	397.69
360.256	435.69
360.483	392.69
360.709	381.69
360.936	384.69
361.163	358.69
361.39	371.69
361.616	354.69
361.843	358.69
362.07	338.69
362.296	367.69
362.523	359.69
362.749	348.69
362.976	351.69
363.203	354.69
363.429	349.69
363.656	352.69
363.882	350.69
364.109	359.69
364.335	339.69
364.562	348.69
364.788	376.69
365.015	342.69
365.241	355.69
365.468	374.69
365.694	346.69
365.92	337.69
366.147	343.69
366.373	342.69
366.599	342.69
366.826	348.69
367.052	352.69
367.278	321.69
367.505	338.69
367.731	350.69
367.957	336.69
368.184	338.69
368.41	354.69
368.636	345.69
368.862	367.69
369.089	337.69
369.315	344.69
369.541	358.69
369.767	371.69
369.993	328.69
370.219	350.69
370.445	339.69
370.672	344.69
370.898	334.69
371.124	330.69
371.35	347.69
371.576	344.69
371.802	316.69
372.028	352.69
372.254	342.69
372.48	342.69
372.706	332.69
372.932	346.69
373.158	348.69
373.384	328.69
373.61	357.69
373.835	327.69
374.061	338.69
374.287	355.69
374.513	335.69
374.739	342.69
374.965	354.69
375.191	336.69
375.416	341.69
375.642	357.69
375.868	349.69
376.094	341.69
376.319	343.69
376.545	308.69
376.771	326.69
376.997	360.69
377.222	351.69
377.448	356.69
377.674	351.69
377.899	324.69
378.125	330.69
378.35	331.69
378.576	340.69
378.802	333.69
379.027	335.69
379.253	351.69
379.478	345.69
379.704	347.69
379.929	328.69
380.155	323.69
380.38	325.69
380.606	340.69
380.831	346.69
381.057	346.69
381.282	342.69
381.507	333.69
381.733	340.69
381.958	349.69
382.184	343.69
382.409	338.69
382.634	336.69
382.86	358.69
383.085	332.69
383.31	338.69
383.535	362.69
383.761	349.69
383.986	354.69
384.211	351.69
384.436	357.69
384.662	342.69
384.887	351.69
385.112	350.69
385.337	365.69
385.562	373.69
385.787	345.69
386.013	364.69
386.238	376.69
386.463	374.69
386.688	360.69
386.913	355.69
387.138	371.69
387.363	354.69
387.588	370.69
387.813	374.69
388.038	366.69
388.263	350.69
388.488	375.69
388.713	362.69
388.938	366.69
389.163	368.69
389.387	378.69
389.612	350.69
389.837	358.69
390.062	376.69
390.287	379.69
390.512	375.69
390.736	371.69
390.961	364.69
391.186	372.69
391.411	365.69
391.636	368.69
391.86	374.69
392.085	362.69
392.31	372.69
392.534	370.69
392.759	362.69
392.984	392.69
393.208	350.69
393.433	347.69
393.658	362.69
393.882	383.69
394.107	376.69
394.331	368.69
394.556	353.69
394.78	363.69
395.005	364.69
395.229	363.69
395.454	381.69
395.678	374.69
395.903	390.69
396.127	388.69
396.352	394.69
396.576	388.69
396.801	380.69
397.025	387.69
397.249	367.69
397.474	396.69
397.698	394.69
397.922	395.69
398.147	414.69
398.371	410.69
398.595	412.69
398.82	407.69
399.044	422.69
399.268	406.69
399.492	434.69
399.717	446.69
399.941	490.69
400.165	493.69
400.389	521.69
400.613	447.69
400.837	436.69
401.062	416.69
401.286	424.69
401.51	438.69
401.734	401.69
401.958	418.69
402.182	415.69
402.406	430.69
402.63	416.69
402.854	436.69
403.078	420.69
403.302	439.69
403.526	431.69
403.75	429.69
403.974	425.69
404.198	427.69
404.422	422.69
404.645	442.69
404.869	450.69
405.093	463.69
405.317	482.69
405.541	528.69
405.765	470.69
405.988	455.69
406.212	484.69
406.436	466.69
406.66	502.69
406.883	485.69
407.107	507.69
407.331	498.69
407.555	549.69
407.778	553.69
408.002	523.69
408.226	482.69
408.449	488.69
408.673	476.69
408.896	489.69
409.12	536.69
409.344	507.69
409.567	455.69
409.791	472.69
410.014	439.69
410.238	439.69
410.461	431.69
410.685	439.69
410.908	445.69
411.132	465.69
411.355	523.69
411.578	480.69
411.802	455.69
412.025	434.69
412.249	421.69
412.472	452.69
412.695	510.69
412.919	484.69
413.142	431.69
413.365	435.69
413.589	417.69
413.812	403.69
414.035	404.69
414.258	417.69
414.482	403.69
414.705	422.69
414.928	406.69
415.151	396.69
415.374	404.69
415.597	409.69
415.821	397.69
416.044	404.69
416.267	410.69
416.49	386.69
416.713	385.69
416.936	430.69
417.159	415.69
417.382	424.69
417.605	396.69
417.828	421.69
418.051	424.69
418.274	428.69
418.497	398.69
418.72	415.69
418.943	426.69
419.166	429.69
419.389	423.69
419.611	443.69
419.834	431.69
420.057	430.69
420.28	434.69
420.503	430.69
420.726	436.69
420.948	452.69
421.171	473.69
421.394	495.69
421.617	442.69
421.839	416.69
422.062	434.69
422.285	462.69
422.507	479.69
422.73	531.69
422.953	548.69
423.175	487.69
423.398	456.69
423.621	447.69
423.843	455.69
424.066	478.69
424.288	468.69
424.511	471.69
424.733	517.69
424.956	598.69
425.178	554.69
425.401	563.69
425.623	585.69
425.846	494.69
426.068	443.69
426.291	460.69
426.513	460.69
426.735	471.69
426.958	491.69
427.18	579.69
427.402	672.69
427.625	752.69
427.847	658.69
428.069	572.69
428.292	528.69
428.514	482.69
428.736	453.69
428.958	452.69
429.181	428.69
429.403	445.69
429.625	453.69
429.847	463.69
430.069	516.69
430.292	508.69
430.514	469.69
430.736	424.69
430.958	429.69
431.18	411.69
431.402	409.69
431.624	415.69
431.846	412.69
432.068	407.69
432.29	409.69
432.512	404.69
432.734	422.69
432.956	416.69
433.178	406.69
433.4	429.69
433.622	399.69
433.844	420.69
434.066	384.69
434.287	406.69
434.509	398.69
434.731	408.69
434.953	437.69
435.175	438.69
435.397	450.69
435.618	464.69
435.84	525.69
436.062	590.69
436.284	649.69
436.505	537.69
436.727	486.69
436.949	464.69
437.17	438.69
437.392	458.69
437.614	470.69
437.835	488.69
438.057	578.69
438.278	642.69
438.5	627.69
438.721	679.69
438.943	675.69
439.165	537.69
439.386	482.69
439.608	489.69
439.829	489.69
440.05	514.69
440.272	542.69
440.493	516.69
440.715	458.69
440.936	476.69
441.158	451.69
441.379	436.69
441.6	460.69
441.822	473.69
442.043	508.69
442.264	582.69
442.486	612.69
442.707	524.69
442.928	498.69
443.149	476.69
443.371	507.69
443.592	557.69
443.813	622.69
444.034	658.69
444.255	529.69
444.476	507.69
444.698	465.69
444.919	462.69
445.14	580.69
445.361	541.69
445.582	524.69
445.803	578.69
446.024	651.69
446.245	658.69
446.466	592.69
446.687	522.69
446.908	476.69
447.129	457.69
447.35	463.69
447.571	453.69
447.792	446.69
448.013	440.69
448.234	458.69
448.455	518.69
448.675	605.69
448.896	679.69
449.117	572.69
449.338	570.69
449.559	638.69
449.779	716.69
450	589.69
450.221	481.69
450.442	440.69
450.662	429.69
450.883	463.69
451.104	450.69
451.324	455.69
451.545	437.69
451.766	423.69
451.986	412.69
452.207	382.69
452.428	411.69
452.648	406.69
452.869	388.69
453.089	411.69
453.31	425.69
453.53	395.69
453.751	399.69
453.971	421.69
454.192	414.69
454.412	423.69
454.633	402.69
454.853	408.69
455.073	404.69
455.294	423.69
455.514	481.69
455.734	475.69
455.955	401.69
456.175	386.69
456.395	390.69
456.616	370.69
456.836	379.69
457.056	384.69
457.276	362.69
457.497	360.69
457.717	376.69
457.937	367.69
458.157	384.69
458.377	386.69
458.598	402.69
458.818	453.69
459.038	538.69
459.258	540.69
459.478	428.69
459.698	447.69
459.918	406.69
460.138	420.69
460.358	398.69
460.578	396.69
460.798	413.69
461.018	415.69
461.238	412.69
461.458	411.69
461.678	412.69
461.898	409.69
462.118	430.69
462.338	419.69
462.558	425.69
462.777	418.69
462.997	447.69
463.217	440.69
463.437	455.69
463.657	436.69
463.876	448.69
464.096	420.69
464.316	446.69
464.536	445.69
464.755	463.69
464.975	454.69
465.195	494.69
465.414	554.69
465.634	516.69
465.854	462.69
466.073	436.69
466.293	411.69
466.512	416.69
466.732	383.69
466.951	407.69
467.171	408.69
467.391	411.69
467.61	423.69
467.829	422.69
468.049	405.69
468.268	404.69
468.488	373.69
468.707	390.69
468.927	413.69
469.146	394.69
469.365	399.69
469.585	382.69
469.804	415.69
470.023	423.69
470.243	404.69
470.462	425.69
470.681	429.69
470.901	416.69
471.12	408.69
471.339	410.69
471.558	401.69
471.777	400.69
471.997	415.69
472.216	424.69
472.435	451.69
472.654	438.69
472.873	413.69
473.092	419.69
473.311	388.69
473.53	415.69
473.749	424.69
473.968	467.69
474.187	545.69
474.406	570.69
474.625	452.69
474.844	416.69
475.063	407.69
475.282	427.69
475.501	433.69
475.72	434.69
475.939	421.69
476.158	440.69
476.377	431.69
476.596	413.69
476.814	434.69
477.033	445.69
477.252	434.69
477.471	429.69
477.69	448.69
477.908	447.69
478.127	447.69
478.346	434.69
478.564	463.69
478.783	479.69
479.002	457.69
479.22	448.69
479.439	459.69
479.658	512.69
479.876	501.69
480.095	512.69
480.313	510.69
480.532	500.69
480.751	506.69
480.969	511.69
481.188	584.69
481.406	590.69
481.624	540.69
481.843	498.69
482.061	499.69
482.28	474.69
482.498	477.69
482.717	464.69
482.935	471.69
483.153	489.69
483.372	469.69
483.59	476.69
483.808	499.69
484.027	487.69
484.245	484.69
484.463	485.69
484.681	472.69
484.9	478.69
485.118	490.69
485.336	480.69
485.554	488.69
485.772	517.69
485.99	485.69
486.209	519.69
486.427	482.69
486.645	496.69
486.863	542.69
487.081	521.69
487.299	526.69
487.517	516.69
487.735	505.69
487.953	511.69
488.171	544.69
488.389	511.69
488.607	520.69
488.825	520.69
489.043	519.69
489.261	520.69
489.479	538.69
489.696	506.69
489.914	527.69
490.132	528.69
490.35	538.69
490.568	560.69
490.786	526.69
491.003	566.69
491.221	583.69
491.439	586.69
491.657	572.69
491.874	587.69
492.092	569.69
492.31	581.69
492.527	602.69
492.745	592.69
492.963	598.69
493.18	589.69
493.398	600.69
493.615	618.69
493.833	633.69
494.05	609.69
494.268	618.69
494.485	609.69
494.703	600.69
494.92	605.69
495.138	598.69
495.355	634.69
495.573	621.69
495.79	596.69
496.008	613.69
496.225	622.69
496.442	614.69
496.66	605.69
496.877	605.69
497.094	611.69
497.312	636.69
497.529	637.69
497.746	659.69
497.963	640.69
498.181	671.69
498.398	686.69
498.615	650.69
498.832	660.69
499.049	671.69
499.267	707.69
499.484	686.69
499.701	706.69
499.918	732.69
500.135	732.69
500.352	766.69
500.569	792.69
500.786	781.69
501.003	756.69
501.22	777.69
501.437	736.69
501.654	743.69
501.871	754.69
502.088	696.69
502.305	692.69
502.522	674.69
502.739	675.69
502.956	636.69
503.172	646.69
503.389	628.69
503.606	638.69
503.823	628.69
504.04	626.69
504.256	627.69
504.473	604.69
504.69	586.69
504.907	620.69
505.123	598.69
505.34	584.69
505.557	573.69
505.773	605.69
505.99	583.69
506.207	554.69
506.423	586.69
506.64	576.69
506.856	596.69
507.073	594.69
507.289	567.69
507.506	574.69
507.722	586.69
507.939	582.69
508.155	599.69
508.372	580.69
508.588	576.69
508.805	583.69
509.021	551.69
509.238	582.69
509.454	564.69
509.67	558.69
509.887	573.69
510.103	582.69
510.319	593.69
510.536	696.69
510.752	1182.69
510.968	928.69
511.184	597.69
511.401	572.69
511.617	575.69
511.833	562.69
512.049	548.69
512.265	535.69
512.481	559.69
512.698	526.69
512.914	572.69
513.13	558.69
513.346	524.69
513.562	555.69
513.778	541.69
513.994	542.69
514.21	546.69
514.426	574.69
514.642	632.69
514.858	654.69
515.074	687.69
515.29	879.69
515.506	1306.69
515.721	1043.69
515.937	679.69
516.153	628.69
516.369	579.69
516.585	578.69
516.801	568.69
517.016	558.69
517.232	562.69
517.448	542.69
517.664	521.69
517.879	530.69
518.095	560.69
518.311	541.69
518.527	517.69
518.742	550.69
518.958	546.69
519.173	550.69
519.389	541.69
519.605	532.69
519.82	574.69
520.036	559.69
520.251	580.69
520.467	612.69
520.682	609.69
520.898	627.69
521.113	620.69
521.329	664.69
521.544	794.69
521.76	1039.69
521.975	1756.69
522.19	1692.69
522.406	882.69
522.621	648.69
522.836	604.69
523.052	572.69
523.267	534.69
523.482	509.69
523.698	513.69
523.913	495.69
524.128	491.69
524.343	495.69
524.559	481.69
524.774	469.69
524.989	467.69
525.204	491.69
525.419	472.69
525.634	471.69
525.849	464.69
526.064	456.69
526.28	461.69
526.495	439.69
526.71	446.69
526.925	439.69
527.14	441.69
527.355	447.69
527.57	440.69
527.785	446.69
527.999	414.69
528.214	425.69
528.429	458.69
528.644	438.69
528.859	415.69
529.074	440.69
529.289	451.69
529.503	556.69
529.718	545.69
529.933	464.69
530.148	442.69
530.363	444.69
530.577	422.69
530.792	427.69
531.007	438.69
531.221	424.69
531.436	436.69
531.651	420.69
531.865	429.69
532.08	417.69
532.295	405.69
532.509	399.69
532.724	450.69
532.938	424.69
533.153	415.69
533.367	410.69
533.582	438.69
533.796	422.69
534.011	402.69
534.225	412.69
534.44	392.69
534.654	411.69
534.868	400.69
535.083	408.69
535.297	418.69
535.511	398.69
535.726	452.69
535.94	434.69
536.154	409.69
536.369	424.69
536.583	394.69
536.797	396.69
537.011	413.69
537.225	414.69
537.44	404.69
537.654	386.69
537.868	391.69
538.082	411.69
538.296	390.69
538.51	386.69
538.724	408.69
538.938	398.69
539.153	407.69
539.367	429.69
539.581	417.69
539.795	388.69
540.009	398.69
540.222	385.69
540.436	383.69
540.65	390.69
540.864	393.69
541.078	419.69
541.292	412.69
541.506	381.69
541.72	386.69
541.934	395.69
542.147	402.69
542.361	402.69
542.575	399.69
542.789	378.69
543.002	396.69
543.216	401.69
543.43	381.69
543.644	392.69
543.857	396.69
544.071	393.69
544.285	396.69
544.498	395.69
544.712	412.69
544.925	388.69
545.139	384.69
545.352	372.69
545.566	406.69
545.779	396.69
545.993	383.69
546.206	401.69
546.42	384.69
546.633	404.69
546.847	380.69
547.06	386.69
547.274	383.69
547.487	376.69
547.7	373.69
547.914	377.69
548.127	380.69
548.34	362.69
548.554	381.69
548.767	362.69
548.98	374.69
549.193	371.69
549.407	348.69
549.62	390.69
549.833	374.69
550.046	359.69
550.259	368.69
550.473	358.69
550.686	380.69
550.899	354.69
551.112	372.69
551.325	378.69
551.538	350.69
551.751	356.69
551.964	366.69
552.177	365.69
552.39	355.69
552.603	353.69
552.816	372.69
553.029	397.69
553.242	366.69
553.455	375.69
553.667	362.69
553.88	388.69
554.093	363.69
554.306	394.69
554.519	378.69
554.732	357.69
554.944	360.69
555.157	370.69
555.37	358.69
555.583	360.69
555.795	369.69
556.008	365.69
556.221	353.69
556.433	342.69
556.646	336.69
556.859	337.69
557.071	346.69
557.284	354.69
557.496	355.69
557.709	359.69
557.921	353.69
558.134	341.69
558.346	333.69
558.559	336.69
558.771	345.69
558.984	338.69
559.196	330.69
559.409	319.69
559.621	320.69
559.833	347.69
560.046	342.69
560.258	338.69
560.47	318.69
560.683	353.69
560.895	316.69
561.107	329.69
561.32	329.69
561.532	341.69
561.744	339.69
561.956	323.69
562.168	336.69
562.381	321.69
562.593	318.69
562.805	320.69
563.017	324.69
563.229	296.69
563.441	320.69
563.653	328.69
563.865	343.69
564.077	326.69
564.289	332.69
564.501	338.69
564.713	343.69
564.925	360.69
565.137	360.69
565.349	338.69
565.561	358.69
565.773	350.69
565.985	351.69
566.197	344.69
566.408	350.69
566.62	359.69
566.832	384.69
567.044	379.69
567.255	364.69
567.467	392.69
567.679	367.69
567.891	378.69
568.102	372.69
568.314	364.69
568.526	369.69
568.737	358.69
568.949	367.69
569.161	345.69
569.372	335.69
569.584	346.69
569.795	334.69
570.007	340.69
570.218	383.69
570.43	350.69
570.641	336.69
570.853	331.69
571.064	318.69
571.276	324.69
571.487	308.69
571.698	315.69
571.91	319.69
572.121	303.69
572.333	314.69
572.544	289.69
572.755	286.69
572.966	300.69
573.178	293.69
573.389	308.69
573.6	304.69
573.811	287.69
574.023	281.69
574.234	281.69
574.445	288.69
574.656	268.69
574.867	293.69
575.078	279.69
575.289	299.69
575.501	292.69
575.712	301.69
575.923	277.69
576.134	285.69
576.345	254.69
576.556	288.69
576.767	282.69
576.978	288.69
577.188	266.69
577.399	280.69
577.61	276.69
577.821	265.69
578.032	290.69
578.243	326.69
578.454	549.69
578.665	404.69
578.875	294.69
579.086	279.69
579.297	264.69
579.508	270.69
579.718	283.69
579.929	274.69
580.14	266.69
580.35	270.69
580.561	275.69
580.772	269.69
580.982	246.69
581.193	254.69
581.403	244.69
581.614	262.69
581.825	272.69
582.035	256.69
582.246	278.69
582.456	263.69
582.667	267.69
582.877	263.69
583.087	256.69
583.298	254.69
583.508	247.69
583.719	251.69
583.929	268.69
584.139	232.69
584.35	258.69
584.56	250.69
584.77	255.69
584.981	259.69
585.191	239.69
585.401	241.69
585.611	260.69
585.821	282.69
586.032	261.69
586.242	239.69
586.452	262.69
586.662	242.69
586.872	269.69
587.082	252.69
587.292	244.69
587.502	237.69
587.713	239.69
587.923	250.69
588.133	236.69
588.343	253.69
588.553	261.69
588.762	262.69
588.972	263.69
589.182	289.69
589.392	293.69
589.602	254.69
589.812	278.69
590.022	274.69
590.232	258.69
590.441	250.69
590.651	258.69
590.861	250.69
591.071	256.69
591.281	254.69
591.49	241.69
591.7	272.69
591.91	268.69
592.119	251.69
592.329	257.69
592.539	242.69
592.748	246.69
592.958	242.69
593.167	271.69
593.377	252.69
593.587	255.69
593.796	268.69
594.006	239.69
594.215	238.69
594.424	246.69
594.634	238.69
594.843	247.69
595.053	244.69
595.262	247.69
595.472	245.69
595.681	241.69
595.89	231.69
596.1	219.69
596.309	239.69
596.518	251.69
596.727	232.69
596.937	246.69
597.146	243.69
597.355	256.69
597.564	231.69
597.774	244.69
597.983	229.69
598.192	237.69
598.401	233.69
598.61	223.69
598.819	233.69
599.028	224.69
599.237	221.69
599.446	224.69
599.655	230.69
599.864	223.69
600.073	214.69
600.282	221.69
600.491	205.69
600.7	238.69
600.909	238.69
601.118	212.69
601.327	222.69
601.536	219.69
601.745	226.69
601.953	223.69
602.162	233.69
602.371	235.69
602.58	214.69
602.789	215.69
602.997	220.69
603.206	223.69
603.415	228.69
603.623	206.69
603.832	211.69
604.041	218.69
604.249	195.69
604.458	207.69
604.666	207.69
604.875	205.69
605.084	198.69
605.292	221.69
605.501	204.69
605.709	208.69
605.918	197.69
606.126	213.69
606.334	215.69
606.543	213.69
606.751	202.69
606.96	205.69
607.168	220.69
607.376	196.69
607.585	199.69
607.793	205.69
608.001	212.69
608.21	207.69
608.418	206.69
608.626	217.69
608.834	202.69
609.043	192.69
609.251	205.69
609.459	214.69
609.667	187.69
609.875	204.69
610.083	216.69
610.291	209.69
610.499	218.69
610.707	198.69
610.916	204.69
611.124	215.69
611.332	197.69
611.54	206.69
611.748	215.69
611.955	205.69
612.163	201.69
612.371	210.69
612.579	201.69
612.787	189.69
612.995	206.69
613.203	207.69
613.411	218.69
613.618	192.69
613.826	204.69
614.034	212.69
614.242	214.69
614.449	203.69
614.657	201.69
614.865	207.69
615.072	214.69
615.28	198.69
615.488	187.69
615.695	207.69
615.903	198.69
616.111	183.69
616.318	222.69
616.526	196.69
616.733	203.69
616.941	182.69
617.148	216.69
617.356	194.69
617.563	195.69
617.771	196.69
617.978	198.69
618.185	198.69
618.393	180.69
618.6	209.69
618.807	184.69
619.015	196.69
619.222	196.69
619.429	207.69
619.637	198.69
619.844	207.69
620.051	214.69
620.258	171.69
620.466	196.69
620.673	182.69
620.88	182.69
621.087	184.69
621.294	202.69
621.501	195.69
621.708	189.69
621.915	201.69
622.122	181.69
622.329	204.69
622.536	194.69
622.743	188.69
622.95	173.69
623.157	190.69
623.364	191.69
623.571	181.69
623.778	191.69
623.985	186.69
624.192	178.69
624.399	187.69
624.606	196.69
624.812	196.69
625.019	173.69
625.226	196.69
625.433	201.69
625.639	174.69
625.846	182.69
626.053	178.69
626.259	179.69
626.466	175.69
626.673	180.69
626.879	166.69
627.086	182.69
627.293	169.69
627.499	193.69
627.706	196.69
627.912	189.69
628.119	169.69
628.325	188.69
628.532	164.69
628.738	186.69
628.945	175.69
629.151	166.69
629.357	167.69
629.564	186.69
629.77	155.69
629.976	185.69
630.183	176.69
630.389	169.69
630.595	181.69
630.802	172.69
631.008	160.69
631.214	178.69
631.42	163.69
631.627	170.69
631.833	168.69
632.039	160.69
632.245	164.69
632.451	178.69
632.657	172.69
632.863	157.69
633.069	170.69
633.275	175.69
633.481	168.69
633.688	169.69
633.893	178.69
634.099	148.69
634.305	148.69
634.511	161.69
634.717	159.69
634.923	165.69
635.129	151.69
635.335	149.69
635.541	164.69
635.747	170.69
635.952	152.69
636.158	170.69
636.364	166.69
636.57	170.69
636.775	159.69
636.981	162.69
637.187	154.69
637.392	167.69
637.598	154.69
637.804	157.69
638.009	161.69
638.215	160.69
638.421	157.69
638.626	159.69
638.832	162.69
639.037	152.69
639.243	155.69
639.448	156.69
639.654	149.69
639.859	139.69
640.065	163.69
640.27	156.69
640.475	154.69
640.681	148.69
640.886	163.69
641.091	159.69
641.297	156.69
641.502	178.69
641.707	157.69
641.913	143.69
642.118	158.69
642.323	154.69
642.528	151.69
642.733	152.69
642.939	148.69
643.144	153.69
643.349	137.69
643.554	144.69
643.759	154.69
643.964	146.69
644.169	154.69
644.374	139.69
644.579	155.69
644.784	156.69
644.989	165.69
645.194	152.69
645.399	150.69
645.604	136.69
645.809	132.69
646.014	153.69
646.219	163.69
646.423	142.69
646.628	148.69
646.833	170.69
647.038	166.69
647.243	155.69
647.447	146.69
647.652	167.69
647.857	153.69
648.062	158.69
648.266	153.69
648.471	157.69
648.676	156.69
648.88	155.69
649.085	139.69
649.289	133.69
649.494	154.69
649.698	180.69
649.903	162.69
650.107	148.69
650.312	138.69
650.516	150.69
650.721	136.69
650.925	138.69
651.13	130.69
651.334	136.69
651.539	138.69
651.743	140.69
651.947	137.69
652.152	127.69
652.356	156.69
652.56	136.69
652.764	120.69
652.969	130.69
653.173	128.69
653.377	115.69
653.581	122.69
653.785	115.69
653.99	126.69
654.194	125.69
654.398	140.69
654.602	118.69
654.806	122.69
655.01	136.69
655.214	135.69
655.418	131.69
655.622	119.69
655.826	125.69
656.03	124.69
656.234	118.69
656.438	133.69
656.642	122.69
656.846	120.69
657.049	116.69
657.253	114.69
657.457	128.69
657.661	112.69
657.865	115.69
658.068	112.69
658.272	110.69
658.476	100.69
658.68	118.69
658.883	126.69
659.087	104.69
659.291	87.69
659.494	85.69
659.698	101.69
659.901	88.69
660.105	105.69
660.309	106.69
660.512	90.69
660.716	98.69
660.919	102.69
661.123	79.69
661.326	86.69
661.53	81.69
661.733	81.69
661.936	87.69
662.14	92.69
662.343	87.69
662.546	82.69
662.75	86.69
662.953	95.69
663.156	91.69
663.36	75.69
663.563	90.69
663.766	84.69
663.969	70.69
664.173	88.69
664.376	90.69
664.579	91.69
664.782	78.69
664.985	73.69
665.188	91.69
665.391	85.69
665.594	91.69
665.797	67.69
666	81.69
666.203	69.69
666.406	90.69
666.609	86.69
666.812	63.69
667.015	88.69
667.218	77.69
667.421	84.69
667.624	80.69
667.827	88.69
668.03	87.69
668.232	86.69
668.435	84.69
668.638	84.69
668.841	75.69
669.043	87.69
669.246	81.69
669.449	75.69
669.651	74.69
669.854	88.69
670.057	92.69
670.259	80.69
670.462	88.69
670.665	101.69
670.867	87.69
671.07	90.69
671.272	80.69
671.475	85.69
671.677	79.69
671.88	81.69
672.082	83.69
672.284	81.69
672.487	76.69
672.689	77.69
672.892	83.69
