Data from 1965.PennyLincolnUp.Lamp.En5.5.200Scan.071719.P1._HRD10591_14-10-12-912.txt Node
Date: Thu Jul 18 14:10:12 EDT 2019
User: cochatt
Spectrometer: HR+D1059
Trigger mode: 1
Integration Time (sec): 1.000000E-1
Scans to average: 1
Electric dark correction enabled: true
Nonlinearity correction enabled: false
Boxcar width: 0
XAxis mode: Wavelengths
Number of Pixels in Spectrum: 2048
>>>>>Begin Spectral Data<<<<<
223.165	-17.94
223.4	-17.94
223.635	-17.94
223.869	-12.94
224.104	-6.94
224.338	-18.94
224.573	-11.94
224.808	1.06
225.042	-11.94
225.277	-3.94
225.511	-0.94
225.746	-6.94
225.98	1.06
226.215	19.06
226.449	23.06
226.683	14.06
226.918	27.06
227.152	7.06
227.387	37.06
227.621	45.06
227.856	32.06
228.09	43.06
228.324	71.06
228.559	60.06
228.793	80.06
229.027	103.06
229.262	108.06
229.496	109.06
229.73	126.06
229.964	144.06
230.199	127.06
230.433	113.06
230.667	97.06
230.901	119.06
231.136	111.06
231.37	110.06
231.604	88.06
231.838	119.06
232.072	98.06
232.306	101.06
232.541	102.06
232.775	100.06
233.009	115.06
233.243	107.06
233.477	113.06
233.711	103.06
233.945	99.06
234.179	108.06
234.413	97.06
234.647	99.06
234.881	110.06
235.115	110.06
235.349	108.06
235.583	111.06
235.817	113.06
236.051	121.06
236.285	116.06
236.519	134.06
236.753	123.06
236.987	153.06
237.221	188.06
237.455	221.06
237.689	203.06
237.922	144.06
238.156	139.06
238.39	126.06
238.624	135.06
238.858	119.06
239.091	137.06
239.325	116.06
239.559	121.06
239.793	124.06
240.027	115.06
240.26	125.06
240.494	155.06
240.728	146.06
240.961	152.06
241.195	153.06
241.429	134.06
241.662	130.06
241.896	125.06
242.13	131.06
242.363	128.06
242.597	115.06
242.83	124.06
243.064	138.06
243.298	145.06
243.531	144.06
243.765	142.06
243.998	140.06
244.232	135.06
244.465	131.06
244.699	148.06
244.932	139.06
245.166	131.06
245.399	148.06
245.633	143.06
245.866	135.06
246.099	121.06
246.333	129.06
246.566	132.06
246.8	145.06
247.033	135.06
247.266	141.06
247.5	138.06
247.733	157.06
247.966	149.06
248.2	151.06
248.433	169.06
248.666	165.06
248.899	167.06
249.133	185.06
249.366	197.06
249.599	189.06
249.832	173.06
250.066	167.06
250.299	176.06
250.532	184.06
250.765	191.06
250.998	208.06
251.231	204.06
251.465	193.06
251.698	200.06
251.931	181.06
252.164	173.06
252.397	194.06
252.63	176.06
252.863	185.06
253.096	199.06
253.329	213.06
253.562	213.06
253.795	208.06
254.028	189.06
254.261	211.06
254.494	208.06
254.727	224.06
254.96	257.06
255.193	257.06
255.426	228.06
255.659	214.06
255.892	216.06
256.124	208.06
256.357	208.06
256.59	217.06
256.823	203.06
257.056	197.06
257.289	192.06
257.521	205.06
257.754	188.06
257.987	201.06
258.22	185.06
258.452	181.06
258.685	194.06
258.918	188.06
259.151	197.06
259.383	199.06
259.616	183.06
259.849	208.06
260.081	209.06
260.314	239.06
260.547	231.06
260.779	233.06
261.012	238.06
261.244	219.06
261.477	201.06
261.71	207.06
261.942	203.06
262.175	225.06
262.407	208.06
262.64	198.06
262.872	188.06
263.105	198.06
263.337	195.06
263.57	193.06
263.802	207.06
264.035	215.06
264.267	202.06
264.499	175.06
264.732	202.06
264.964	192.06
265.197	195.06
265.429	187.06
265.661	180.06
265.894	208.06
266.126	185.06
266.358	224.06
266.591	207.06
266.823	217.06
267.055	219.06
267.287	188.06
267.52	216.06
267.752	214.06
267.984	194.06
268.216	203.06
268.448	224.06
268.681	217.06
268.913	230.06
269.145	245.06
269.377	259.06
269.609	243.06
269.841	230.06
270.073	242.06
270.306	275.06
270.538	283.06
270.77	293.06
271.002	297.06
271.234	261.06
271.466	279.06
271.698	284.06
271.93	281.06
272.162	279.06
272.394	288.06
272.626	288.06
272.858	260.06
273.09	247.06
273.322	266.06
273.553	260.06
273.785	234.06
274.017	241.06
274.249	250.06
274.481	256.06
274.713	270.06
274.945	243.06
275.176	237.06
275.408	254.06
275.64	238.06
275.872	231.06
276.104	232.06
276.335	244.06
276.567	238.06
276.799	257.06
277.031	283.06
277.262	288.06
277.494	289.06
277.726	279.06
277.957	246.06
278.189	261.06
278.421	245.06
278.652	233.06
278.884	232.06
279.115	265.06
279.347	227.06
279.579	239.06
279.81	226.06
280.042	241.06
280.273	253.06
280.505	235.06
280.736	237.06
280.968	238.06
281.199	250.06
281.431	232.06
281.662	245.06
281.894	248.06
282.125	247.06
282.356	292.06
282.588	263.06
282.819	277.06
283.051	240.06
283.282	238.06
283.513	247.06
283.745	243.06
283.976	263.06
284.207	265.06
284.439	254.06
284.67	247.06
284.901	252.06
285.132	266.06
285.364	240.06
285.595	248.06
285.826	249.06
286.057	264.06
286.288	289.06
286.52	260.06
286.751	247.06
286.982	268.06
287.213	251.06
287.444	259.06
287.675	281.06
287.906	259.06
288.138	259.06
288.369	264.06
288.6	260.06
288.831	249.06
289.062	274.06
289.293	247.06
289.524	265.06
289.755	263.06
289.986	251.06
290.217	267.06
290.448	264.06
290.679	283.06
290.91	270.06
291.141	244.06
291.371	258.06
291.602	264.06
291.833	240.06
292.064	264.06
292.295	271.06
292.526	267.06
292.757	251.06
292.987	264.06
293.218	269.06
293.449	250.06
293.68	266.06
293.91	284.06
294.141	274.06
294.372	280.06
294.603	261.06
294.833	279.06
295.064	248.06
295.295	252.06
295.525	281.06
295.756	268.06
295.987	265.06
296.217	299.06
296.448	309.06
296.679	292.06
296.909	272.06
297.14	263.06
297.37	264.06
297.601	268.06
297.831	260.06
298.062	254.06
298.292	256.06
298.523	272.06
298.753	285.06
298.984	277.06
299.214	288.06
299.445	277.06
299.675	269.06
299.905	282.06
300.136	264.06
300.366	300.06
300.597	272.06
300.827	282.06
301.057	274.06
301.288	293.06
301.518	298.06
301.748	280.06
301.979	301.06
302.209	298.06
302.439	299.06
302.669	289.06
302.9	308.06
303.13	289.06
303.36	305.06
303.59	305.06
303.82	315.06
304.051	307.06
304.281	296.06
304.511	273.06
304.741	303.06
304.971	292.06
305.201	299.06
305.431	291.06
305.661	307.06
305.891	291.06
306.121	297.06
306.352	298.06
306.582	310.06
306.812	307.06
307.042	294.06
307.272	291.06
307.502	293.06
307.731	317.06
307.961	317.06
308.191	296.06
308.421	300.06
308.651	302.06
308.881	314.06
309.111	296.06
309.341	295.06
309.571	337.06
309.8	336.06
310.03	328.06
310.26	340.06
310.49	349.06
310.72	363.06
310.949	383.06
311.179	358.06
311.409	345.06
311.639	334.06
311.868	331.06
312.098	346.06
312.328	347.06
312.557	369.06
312.787	386.06
313.017	368.06
313.246	346.06
313.476	327.06
313.706	333.06
313.935	358.06
314.165	371.06
314.394	383.06
314.624	365.06
314.853	364.06
315.083	347.06
315.312	337.06
315.542	338.06
315.771	334.06
316.001	329.06
316.23	335.06
316.46	349.06
316.689	351.06
316.919	339.06
317.148	373.06
317.377	355.06
317.607	348.06
317.836	355.06
318.065	339.06
318.295	348.06
318.524	349.06
318.753	345.06
318.983	342.06
319.212	349.06
319.441	361.06
319.67	355.06
319.9	332.06
320.129	335.06
320.358	374.06
320.587	379.06
320.816	363.06
321.046	357.06
321.275	372.06
321.504	370.06
321.733	384.06
321.962	378.06
322.191	385.06
322.42	386.06
322.649	437.06
322.878	420.06
323.108	431.06
323.337	472.06
323.566	501.06
323.795	513.06
324.024	568.06
324.253	718.06
324.482	1037.06
324.71	1594.06
324.939	2189.06
325.168	1838.06
325.397	974.06
325.626	618.06
325.855	551.06
326.084	497.06
326.313	497.06
326.542	504.06
326.77	544.06
326.999	652.06
327.228	940.06
327.457	1398.06
327.686	1649.06
327.914	1057.06
328.143	718.06
328.372	631.06
328.6	589.06
328.829	550.06
329.058	571.06
329.287	573.06
329.515	524.06
329.744	494.06
329.972	487.06
330.201	512.06
330.43	573.06
330.658	599.06
330.887	610.06
331.115	573.06
331.344	503.06
331.572	461.06
331.801	461.06
332.03	450.06
332.258	437.06
332.486	445.06
332.715	406.06
332.943	405.06
333.172	409.06
333.4	405.06
333.629	429.06
333.857	419.06
334.085	436.06
334.314	457.06
334.542	492.06
334.771	530.06
334.999	481.06
335.227	429.06
335.455	428.06
335.684	404.06
335.912	412.06
336.14	392.06
336.369	416.06
336.597	407.06
336.825	396.06
337.053	420.06
337.281	402.06
337.51	419.06
337.738	404.06
337.966	379.06
338.194	412.06
338.422	387.06
338.65	404.06
338.878	392.06
339.106	391.06
339.334	399.06
339.562	364.06
339.79	364.06
340.018	381.06
340.246	385.06
340.474	413.06
340.702	398.06
340.93	400.06
341.158	404.06
341.386	399.06
341.614	402.06
341.842	379.06
342.07	368.06
342.298	410.06
342.526	387.06
342.754	360.06
342.981	383.06
343.209	354.06
343.437	382.06
343.665	363.06
343.893	369.06
344.12	401.06
344.348	382.06
344.576	399.06
344.804	402.06
345.031	393.06
345.259	425.06
345.487	398.06
345.714	378.06
345.942	374.06
346.17	378.06
346.397	384.06
346.625	384.06
346.853	391.06
347.08	380.06
347.308	369.06
347.535	401.06
347.763	408.06
347.99	384.06
348.218	412.06
348.445	395.06
348.673	415.06
348.9	388.06
349.128	375.06
349.355	372.06
349.583	355.06
349.81	358.06
350.037	360.06
350.265	376.06
350.492	382.06
350.72	356.06
350.947	391.06
351.174	387.06
351.402	407.06
351.629	392.06
351.856	399.06
352.083	401.06
352.311	417.06
352.538	398.06
352.765	397.06
352.992	407.06
353.22	377.06
353.447	391.06
353.674	375.06
353.901	344.06
354.128	347.06
354.355	340.06
354.583	331.06
354.81	356.06
355.037	344.06
355.264	337.06
355.491	338.06
355.718	324.06
355.945	348.06
356.172	341.06
356.399	332.06
356.626	350.06
356.853	343.06
357.08	342.06
357.307	341.06
357.534	351.06
357.761	339.06
357.988	351.06
358.215	337.06
358.441	345.06
358.668	381.06
358.895	344.06
359.122	355.06
359.349	373.06
359.576	392.06
359.802	407.06
360.029	442.06
360.256	446.06
360.483	408.06
360.709	392.06
360.936	381.06
361.163	390.06
361.39	377.06
361.616	392.06
361.843	380.06
362.07	371.06
362.296	372.06
362.523	374.06
362.749	389.06
362.976	383.06
363.203	344.06
363.429	352.06
363.656	356.06
363.882	357.06
364.109	364.06
364.335	352.06
364.562	358.06
364.788	367.06
365.015	366.06
365.241	389.06
365.468	393.06
365.694	378.06
365.92	368.06
366.147	363.06
366.373	366.06
366.599	371.06
366.826	347.06
367.052	342.06
367.278	355.06
367.505	372.06
367.731	361.06
367.957	358.06
368.184	359.06
368.41	362.06
368.636	382.06
368.862	363.06
369.089	349.06
369.315	354.06
369.541	358.06
369.767	333.06
369.993	342.06
370.219	346.06
370.445	345.06
370.672	355.06
370.898	365.06
371.124	350.06
371.35	347.06
371.576	335.06
371.802	343.06
372.028	336.06
372.254	344.06
372.48	364.06
372.706	350.06
372.932	379.06
373.158	355.06
373.384	363.06
373.61	365.06
373.835	345.06
374.061	352.06
374.287	350.06
374.513	354.06
374.739	359.06
374.965	353.06
375.191	374.06
375.416	362.06
375.642	340.06
375.868	350.06
376.094	342.06
376.319	325.06
376.545	346.06
376.771	348.06
376.997	348.06
377.222	342.06
377.448	354.06
377.674	355.06
377.899	356.06
378.125	346.06
378.35	362.06
378.576	336.06
378.802	351.06
379.027	315.06
379.253	333.06
379.478	341.06
379.704	369.06
379.929	345.06
380.155	352.06
380.38	357.06
380.606	355.06
380.831	359.06
381.057	359.06
381.282	347.06
381.507	357.06
381.733	362.06
381.958	362.06
382.184	356.06
382.409	353.06
382.634	365.06
382.86	362.06
383.085	372.06
383.31	352.06
383.535	363.06
383.761	357.06
383.986	348.06
384.211	351.06
384.436	383.06
384.662	353.06
384.887	360.06
385.112	352.06
385.337	365.06
385.562	359.06
385.787	387.06
386.013	410.06
386.238	381.06
386.463	386.06
386.688	385.06
386.913	376.06
387.138	364.06
387.363	348.06
387.588	349.06
387.813	349.06
388.038	355.06
388.263	379.06
388.488	379.06
388.713	378.06
388.938	363.06
389.163	389.06
389.387	379.06
389.612	376.06
389.837	382.06
390.062	381.06
390.287	387.06
390.512	374.06
390.736	379.06
390.961	360.06
391.186	386.06
391.411	367.06
391.636	376.06
391.86	385.06
392.085	388.06
392.31	391.06
392.534	385.06
392.759	377.06
392.984	386.06
393.208	389.06
393.433	388.06
393.658	360.06
393.882	383.06
394.107	364.06
394.331	377.06
394.556	373.06
394.78	376.06
395.005	376.06
395.229	375.06
395.454	379.06
395.678	393.06
395.903	413.06
396.127	412.06
396.352	415.06
396.576	363.06
396.801	389.06
397.025	393.06
397.249	384.06
397.474	389.06
397.698	409.06
397.922	429.06
398.147	409.06
398.371	441.06
398.595	426.06
398.82	415.06
399.044	442.06
399.268	429.06
399.492	459.06
399.717	482.06
399.941	480.06
400.165	480.06
400.389	509.06
400.613	471.06
400.837	447.06
401.062	444.06
401.286	419.06
401.51	431.06
401.734	409.06
401.958	442.06
402.182	449.06
402.406	439.06
402.63	448.06
402.854	417.06
403.078	424.06
403.302	421.06
403.526	428.06
403.75	457.06
403.974	437.06
404.198	439.06
404.422	450.06
404.645	437.06
404.869	452.06
405.093	469.06
405.317	499.06
405.541	521.06
405.765	494.06
405.988	467.06
406.212	469.06
406.436	496.06
406.66	517.06
406.883	484.06
407.107	496.06
407.331	525.06
407.555	593.06
407.778	603.06
408.002	523.06
408.226	493.06
408.449	489.06
408.673	498.06
408.896	497.06
409.12	545.06
409.344	524.06
409.567	445.06
409.791	453.06
410.014	451.06
410.238	465.06
410.461	424.06
410.685	432.06
410.908	473.06
411.132	503.06
411.355	521.06
411.578	485.06
411.802	463.06
412.025	425.06
412.249	467.06
412.472	469.06
412.695	513.06
412.919	496.06
413.142	452.06
413.365	443.06
413.589	423.06
413.812	423.06
414.035	422.06
414.258	437.06
414.482	411.06
414.705	422.06
414.928	411.06
415.151	407.06
415.374	412.06
415.597	407.06
415.821	414.06
416.044	420.06
416.267	415.06
416.49	406.06
416.713	412.06
416.936	393.06
417.159	401.06
417.382	432.06
417.605	434.06
417.828	435.06
418.051	461.06
418.274	425.06
418.497	421.06
418.72	402.06
418.943	401.06
419.166	431.06
419.389	456.06
419.611	453.06
419.834	429.06
420.057	439.06
420.28	449.06
420.503	449.06
420.726	439.06
420.948	448.06
421.171	499.06
421.394	526.06
421.617	470.06
421.839	450.06
422.062	445.06
422.285	478.06
422.507	515.06
422.73	575.06
422.953	534.06
423.175	475.06
423.398	451.06
423.621	464.06
423.843	474.06
424.066	471.06
424.288	451.06
424.511	502.06
424.733	544.06
424.956	597.06
425.178	599.06
425.401	577.06
425.623	591.06
425.846	524.06
426.068	505.06
426.291	483.06
426.513	493.06
426.735	499.06
426.958	518.06
427.18	591.06
427.402	699.06
427.625	789.06
427.847	723.06
428.069	607.06
428.292	548.06
428.514	480.06
428.736	474.06
428.958	476.06
429.181	442.06
429.403	417.06
429.625	460.06
429.847	501.06
430.069	535.06
430.292	550.06
430.514	462.06
430.736	430.06
430.958	475.06
431.18	427.06
431.402	412.06
431.624	398.06
431.846	425.06
432.068	423.06
432.29	439.06
432.512	411.06
432.734	430.06
432.956	411.06
433.178	436.06
433.4	446.06
433.622	412.06
433.844	426.06
434.066	398.06
434.287	405.06
434.509	416.06
434.731	427.06
434.953	432.06
435.175	468.06
435.397	471.06
435.618	488.06
435.84	530.06
436.062	613.06
436.284	636.06
436.505	549.06
436.727	469.06
436.949	463.06
437.17	458.06
437.392	453.06
437.614	443.06
437.835	521.06
438.057	621.06
438.278	671.06
438.5	682.06
438.721	698.06
438.943	667.06
439.165	543.06
439.386	509.06
439.608	508.06
439.829	504.06
440.05	511.06
440.272	555.06
440.493	539.06
440.715	486.06
440.936	462.06
441.158	443.06
441.379	430.06
441.6	464.06
441.822	480.06
442.043	519.06
442.264	600.06
442.486	621.06
442.707	538.06
442.928	492.06
443.149	494.06
443.371	543.06
443.592	583.06
443.813	638.06
444.034	685.06
444.255	559.06
444.476	514.06
444.698	470.06
444.919	477.06
445.14	563.06
445.361	541.06
445.582	512.06
445.803	586.06
446.024	684.06
446.245	684.06
446.466	618.06
446.687	544.06
446.908	500.06
447.129	475.06
447.35	462.06
447.571	473.06
447.792	450.06
448.013	465.06
448.234	472.06
448.455	526.06
448.675	608.06
448.896	713.06
449.117	601.06
449.338	575.06
449.559	671.06
449.779	718.06
450	597.06
450.221	501.06
450.442	463.06
450.662	448.06
450.883	459.06
451.104	474.06
451.324	458.06
451.545	441.06
451.766	428.06
451.986	409.06
452.207	391.06
452.428	417.06
452.648	437.06
452.869	404.06
453.089	407.06
453.31	432.06
453.53	431.06
453.751	406.06
453.971	429.06
454.192	445.06
454.412	439.06
454.633	422.06
454.853	407.06
455.073	389.06
455.294	440.06
455.514	510.06
455.734	485.06
455.955	385.06
456.175	392.06
456.395	374.06
456.616	387.06
456.836	382.06
457.056	391.06
457.276	383.06
457.497	382.06
457.717	378.06
457.937	387.06
458.157	397.06
458.377	396.06
458.598	412.06
458.818	477.06
459.038	531.06
459.258	547.06
459.478	484.06
459.698	423.06
459.918	419.06
460.138	423.06
460.358	426.06
460.578	427.06
460.798	425.06
461.018	417.06
461.238	432.06
461.458	411.06
461.678	409.06
461.898	412.06
462.118	429.06
462.338	417.06
462.558	430.06
462.777	429.06
462.997	439.06
463.217	445.06
463.437	448.06
463.657	427.06
463.876	450.06
464.096	447.06
464.316	463.06
464.536	449.06
464.755	454.06
464.975	468.06
465.195	527.06
465.414	596.06
465.634	505.06
465.854	458.06
466.073	418.06
466.293	424.06
466.512	415.06
466.732	380.06
466.951	408.06
467.171	414.06
467.391	420.06
467.61	428.06
467.829	421.06
468.049	427.06
468.268	437.06
468.488	415.06
468.707	412.06
468.927	393.06
469.146	402.06
469.365	391.06
469.585	400.06
469.804	409.06
470.023	425.06
470.243	421.06
470.462	427.06
470.681	454.06
470.901	438.06
471.12	441.06
471.339	408.06
471.558	417.06
471.777	410.06
471.997	417.06
472.216	444.06
472.435	461.06
472.654	451.06
472.873	414.06
473.092	419.06
473.311	428.06
473.53	416.06
473.749	423.06
473.968	472.06
474.187	557.06
474.406	580.06
474.625	485.06
474.844	443.06
475.063	437.06
475.282	420.06
475.501	407.06
475.72	433.06
475.939	416.06
476.158	435.06
476.377	435.06
476.596	436.06
476.814	437.06
477.033	447.06
477.252	451.06
477.471	439.06
477.69	444.06
477.908	443.06
478.127	475.06
478.346	451.06
478.564	456.06
478.783	447.06
479.002	465.06
479.22	454.06
479.439	493.06
479.658	513.06
479.876	513.06
480.095	489.06
480.313	532.06
480.532	523.06
480.751	541.06
480.969	525.06
481.188	599.06
481.406	634.06
481.624	554.06
481.843	535.06
482.061	500.06
482.28	507.06
482.498	460.06
482.717	479.06
482.935	500.06
483.153	483.06
483.372	495.06
483.59	508.06
483.808	465.06
484.027	480.06
484.245	476.06
484.463	493.06
484.681	516.06
484.9	510.06
485.118	519.06
485.336	519.06
485.554	483.06
485.772	510.06
485.99	503.06
486.209	512.06
486.427	516.06
486.645	535.06
486.863	549.06
487.081	550.06
487.299	520.06
487.517	531.06
487.735	525.06
487.953	523.06
488.171	528.06
488.389	546.06
488.607	539.06
488.825	509.06
489.043	526.06
489.261	541.06
489.479	537.06
489.696	556.06
489.914	535.06
490.132	549.06
490.35	552.06
490.568	551.06
490.786	549.06
491.003	574.06
491.221	585.06
491.439	613.06
491.657	573.06
491.874	598.06
492.092	587.06
492.31	596.06
492.527	593.06
492.745	598.06
492.963	597.06
493.18	611.06
493.398	630.06
493.615	629.06
493.833	607.06
494.05	641.06
494.268	640.06
494.485	614.06
494.703	626.06
494.92	636.06
495.138	615.06
495.355	629.06
495.573	628.06
495.79	626.06
496.008	627.06
496.225	621.06
496.442	608.06
496.66	614.06
496.877	628.06
497.094	621.06
497.312	632.06
497.529	647.06
497.746	651.06
497.963	652.06
498.181	683.06
498.398	659.06
498.615	692.06
498.832	668.06
499.049	687.06
499.267	686.06
499.484	737.06
499.701	730.06
499.918	728.06
500.135	753.06
500.352	750.06
500.569	814.06
500.786	793.06
501.003	765.06
501.22	789.06
501.437	773.06
501.654	765.06
501.871	777.06
502.088	725.06
502.305	715.06
502.522	678.06
502.739	685.06
502.956	669.06
503.172	663.06
503.389	648.06
503.606	651.06
503.823	650.06
504.04	631.06
504.256	678.06
504.473	629.06
504.69	607.06
504.907	653.06
505.123	606.06
505.34	622.06
505.557	597.06
505.773	614.06
505.99	591.06
506.207	599.06
506.423	614.06
506.64	593.06
506.856	592.06
507.073	601.06
507.289	588.06
507.506	585.06
507.722	592.06
507.939	624.06
508.155	598.06
508.372	585.06
508.588	583.06
508.805	583.06
509.021	574.06
509.238	590.06
509.454	614.06
509.67	591.06
509.887	587.06
510.103	579.06
510.319	598.06
510.536	700.06
510.752	1248.06
510.968	981.06
511.184	630.06
511.401	579.06
511.617	551.06
511.833	565.06
512.049	570.06
512.265	571.06
512.481	566.06
512.698	550.06
512.914	566.06
513.13	536.06
513.346	560.06
513.562	567.06
513.778	555.06
513.994	580.06
514.21	588.06
514.426	619.06
514.642	644.06
514.858	679.06
515.074	741.06
515.29	887.06
515.506	1351.06
515.721	1085.06
515.937	718.06
516.153	635.06
516.369	589.06
516.585	588.06
516.801	573.06
517.016	556.06
517.232	567.06
517.448	553.06
517.664	589.06
517.879	547.06
518.095	557.06
518.311	557.06
518.527	567.06
518.742	553.06
518.958	549.06
519.173	556.06
519.389	548.06
519.605	535.06
519.82	553.06
520.036	575.06
520.251	612.06
520.467	619.06
520.682	637.06
520.898	631.06
521.113	644.06
521.329	722.06
521.544	819.06
521.76	1092.06
521.975	1891.06
522.19	1756.06
522.406	934.06
522.621	685.06
522.836	601.06
523.052	558.06
523.267	549.06
523.482	545.06
523.698	521.06
523.913	527.06
524.128	511.06
524.343	515.06
524.559	511.06
524.774	488.06
524.989	467.06
525.204	517.06
525.419	494.06
525.634	461.06
525.849	456.06
526.064	463.06
526.28	473.06
526.495	462.06
526.71	440.06
526.925	445.06
527.14	466.06
527.355	476.06
527.57	439.06
527.785	443.06
527.999	428.06
528.214	433.06
528.429	445.06
528.644	479.06
528.859	465.06
529.074	449.06
529.289	471.06
529.503	588.06
529.718	552.06
529.933	476.06
530.148	467.06
530.363	449.06
530.577	446.06
530.792	437.06
531.007	447.06
531.221	435.06
531.436	435.06
531.651	421.06
531.865	431.06
532.08	414.06
532.295	406.06
532.509	435.06
532.724	435.06
532.938	423.06
533.153	431.06
533.367	426.06
533.582	408.06
533.796	414.06
534.011	413.06
534.225	427.06
534.44	411.06
534.654	416.06
534.868	406.06
535.083	423.06
535.297	440.06
535.511	435.06
535.726	423.06
535.94	428.06
536.154	425.06
536.369	422.06
536.583	424.06
536.797	445.06
537.011	409.06
537.225	383.06
537.44	402.06
537.654	401.06
537.868	392.06
538.082	380.06
538.296	405.06
538.51	414.06
538.724	403.06
538.938	406.06
539.153	403.06
539.367	407.06
539.581	432.06
539.795	417.06
540.009	428.06
540.222	391.06
540.436	408.06
540.65	439.06
540.864	418.06
541.078	423.06
541.292	411.06
541.506	411.06
541.72	414.06
541.934	415.06
542.147	407.06
542.361	423.06
542.575	417.06
542.789	397.06
543.002	424.06
543.216	409.06
543.43	425.06
543.644	399.06
543.857	417.06
544.071	399.06
544.285	382.06
544.498	414.06
544.712	402.06
544.925	397.06
545.139	373.06
545.352	383.06
545.566	384.06
545.779	396.06
545.993	397.06
546.206	374.06
546.42	403.06
546.633	389.06
546.847	394.06
547.06	364.06
547.274	391.06
547.487	391.06
547.7	381.06
547.914	393.06
548.127	384.06
548.34	363.06
548.554	379.06
548.767	377.06
548.98	380.06
549.193	381.06
549.407	377.06
549.62	378.06
549.833	367.06
550.046	372.06
550.259	381.06
550.473	371.06
550.686	385.06
550.899	377.06
551.112	371.06
551.325	381.06
551.538	364.06
551.751	365.06
551.964	368.06
552.177	358.06
552.39	359.06
552.603	380.06
552.816	377.06
553.029	374.06
553.242	378.06
553.455	371.06
553.667	393.06
553.88	397.06
554.093	392.06
554.306	377.06
554.519	387.06
554.732	361.06
554.944	362.06
555.157	356.06
555.37	343.06
555.583	360.06
555.795	360.06
556.008	345.06
556.221	354.06
556.433	342.06
556.646	347.06
556.859	344.06
557.071	352.06
557.284	344.06
557.496	339.06
557.709	341.06
557.921	342.06
558.134	348.06
558.346	340.06
558.559	335.06
558.771	331.06
558.984	348.06
559.196	325.06
559.409	335.06
559.621	337.06
559.833	333.06
560.046	335.06
560.258	332.06
560.47	343.06
560.683	340.06
560.895	330.06
561.107	341.06
561.32	330.06
561.532	326.06
561.744	338.06
561.956	318.06
562.168	340.06
562.381	333.06
562.593	346.06
562.805	328.06
563.017	346.06
563.229	330.06
563.441	338.06
563.653	333.06
563.865	334.06
564.077	340.06
564.289	352.06
564.501	343.06
564.713	340.06
564.925	342.06
565.137	367.06
565.349	363.06
565.561	373.06
565.773	354.06
565.985	347.06
566.197	364.06
566.408	365.06
566.62	366.06
566.832	383.06
567.044	395.06
567.255	378.06
567.467	369.06
567.679	391.06
567.891	383.06
568.102	395.06
568.314	389.06
568.526	384.06
568.737	358.06
568.949	370.06
569.161	349.06
569.372	328.06
569.584	365.06
569.795	342.06
570.007	347.06
570.218	404.06
570.43	374.06
570.641	319.06
570.853	324.06
571.064	334.06
571.276	315.06
571.487	307.06
571.698	321.06
571.91	319.06
572.121	319.06
572.333	321.06
572.544	312.06
572.755	313.06
572.966	310.06
573.178	308.06
573.389	304.06
573.6	290.06
573.811	312.06
574.023	285.06
574.234	301.06
574.445	289.06
574.656	282.06
574.867	297.06
575.078	288.06
575.289	282.06
575.501	290.06
575.712	276.06
575.923	287.06
576.134	300.06
576.345	294.06
576.556	284.06
576.767	295.06
576.978	299.06
577.188	286.06
577.399	271.06
577.61	278.06
577.821	287.06
578.032	305.06
578.243	341.06
578.454	567.06
578.665	403.06
578.875	296.06
579.086	277.06
579.297	281.06
579.508	268.06
579.718	301.06
579.929	285.06
580.14	269.06
580.35	272.06
580.561	277.06
580.772	274.06
580.982	267.06
581.193	273.06
581.403	287.06
581.614	269.06
581.825	263.06
582.035	263.06
582.246	281.06
582.456	266.06
582.667	259.06
582.877	273.06
583.087	267.06
583.298	269.06
583.508	255.06
583.719	263.06
583.929	259.06
584.139	257.06
584.35	271.06
584.56	272.06
584.77	267.06
584.981	271.06
585.191	280.06
585.401	277.06
585.611	271.06
585.821	258.06
586.032	259.06
586.242	246.06
586.452	255.06
586.662	265.06
586.872	264.06
587.082	251.06
587.292	247.06
587.502	257.06
587.713	241.06
587.923	272.06
588.133	265.06
588.343	251.06
588.553	268.06
588.762	259.06
588.972	257.06
589.182	288.06
589.392	300.06
589.602	257.06
589.812	285.06
590.022	272.06
590.232	267.06
590.441	260.06
590.651	269.06
590.861	275.06
591.071	263.06
591.281	232.06
591.49	252.06
591.7	264.06
591.91	261.06
592.119	251.06
592.329	249.06
592.539	251.06
592.748	253.06
592.958	266.06
593.167	272.06
593.377	273.06
593.587	270.06
593.796	276.06
594.006	275.06
594.215	251.06
594.424	267.06
594.634	250.06
594.843	243.06
595.053	275.06
595.262	238.06
595.472	255.06
595.681	250.06
595.89	246.06
596.1	256.06
596.309	244.06
596.518	235.06
596.727	245.06
596.937	256.06
597.146	233.06
597.355	235.06
597.564	248.06
597.774	229.06
597.983	251.06
598.192	236.06
598.401	226.06
598.61	229.06
598.819	232.06
599.028	216.06
599.237	231.06
599.446	228.06
599.655	215.06
599.864	241.06
600.073	240.06
600.282	218.06
600.491	223.06
600.7	228.06
600.909	216.06
601.118	220.06
601.327	222.06
601.536	218.06
601.745	224.06
601.953	224.06
602.162	230.06
602.371	231.06
602.58	222.06
602.789	229.06
602.997	195.06
603.206	231.06
603.415	217.06
603.623	217.06
603.832	226.06
604.041	227.06
604.249	199.06
604.458	213.06
604.666	205.06
604.875	231.06
605.084	209.06
605.292	209.06
605.501	207.06
605.709	198.06
605.918	209.06
606.126	216.06
606.334	211.06
606.543	223.06
606.751	202.06
606.96	231.06
607.168	195.06
607.376	217.06
607.585	213.06
607.793	217.06
608.001	219.06
608.21	199.06
608.418	215.06
608.626	203.06
608.834	222.06
609.043	219.06
609.251	198.06
609.459	198.06
609.667	215.06
609.875	225.06
610.083	231.06
610.291	209.06
610.499	220.06
610.707	206.06
610.916	216.06
611.124	230.06
611.332	217.06
611.54	216.06
611.748	224.06
611.955	212.06
612.163	217.06
612.371	216.06
612.579	212.06
612.787	212.06
612.995	205.06
613.203	204.06
613.411	195.06
613.618	208.06
613.826	209.06
614.034	215.06
614.242	191.06
614.449	199.06
614.657	206.06
614.865	217.06
615.072	206.06
615.28	197.06
615.488	211.06
615.695	210.06
615.903	206.06
616.111	212.06
616.318	203.06
616.526	195.06
616.733	212.06
616.941	215.06
617.148	205.06
617.356	212.06
617.563	212.06
617.771	217.06
617.978	207.06
618.185	208.06
618.393	195.06
618.6	220.06
618.807	187.06
619.015	207.06
619.222	189.06
619.429	203.06
619.637	208.06
619.844	201.06
620.051	183.06
620.258	212.06
620.466	196.06
620.673	183.06
620.88	202.06
621.087	191.06
621.294	183.06
621.501	189.06
621.708	206.06
621.915	205.06
622.122	212.06
622.329	181.06
622.536	207.06
622.743	201.06
622.95	204.06
623.157	197.06
623.364	192.06
623.571	191.06
623.778	187.06
623.985	179.06
624.192	208.06
624.399	179.06
624.606	191.06
624.812	211.06
625.019	183.06
625.226	192.06
625.433	176.06
625.639	200.06
625.846	181.06
626.053	191.06
626.259	189.06
626.466	181.06
626.673	180.06
626.879	172.06
627.086	187.06
627.293	172.06
627.499	180.06
627.706	200.06
627.912	188.06
628.119	191.06
628.325	184.06
628.532	194.06
628.738	172.06
628.945	174.06
629.151	167.06
629.357	159.06
629.564	183.06
629.77	191.06
629.976	186.06
630.183	160.06
630.389	172.06
630.595	181.06
630.802	155.06
631.008	166.06
631.214	184.06
631.42	171.06
631.627	180.06
631.833	159.06
632.039	148.06
632.245	153.06
632.451	179.06
632.657	163.06
632.863	169.06
633.069	163.06
633.275	170.06
633.481	170.06
633.688	185.06
633.893	183.06
634.099	175.06
634.305	169.06
634.511	159.06
634.717	161.06
634.923	146.06
635.129	172.06
635.335	167.06
635.541	164.06
635.747	158.06
635.952	149.06
636.158	163.06
636.364	168.06
636.57	174.06
636.775	170.06
636.981	171.06
637.187	161.06
637.392	161.06
637.598	164.06
637.804	159.06
638.009	161.06
638.215	178.06
638.421	155.06
638.626	155.06
638.832	152.06
639.037	149.06
639.243	159.06
639.448	172.06
639.654	167.06
639.859	183.06
640.065	173.06
640.27	159.06
640.475	152.06
640.681	153.06
640.886	151.06
641.091	135.06
641.297	162.06
641.502	180.06
641.707	159.06
641.913	149.06
642.118	138.06
642.323	152.06
642.528	152.06
642.733	162.06
642.939	154.06
643.144	145.06
643.349	135.06
643.554	144.06
643.759	152.06
643.964	155.06
644.169	158.06
644.374	153.06
644.579	149.06
644.784	166.06
644.989	155.06
645.194	153.06
645.399	156.06
645.604	133.06
645.809	138.06
646.014	147.06
646.219	153.06
646.423	149.06
646.628	159.06
646.833	160.06
647.038	142.06
647.243	144.06
647.447	150.06
647.652	159.06
647.857	161.06
648.062	142.06
648.266	157.06
648.471	150.06
648.676	148.06
648.88	160.06
649.085	150.06
649.289	144.06
649.494	141.06
649.698	184.06
649.903	170.06
650.107	163.06
650.312	157.06
650.516	140.06
650.721	150.06
650.925	151.06
651.13	149.06
651.334	151.06
651.539	134.06
651.743	135.06
651.947	129.06
652.152	133.06
652.356	131.06
652.56	154.06
652.764	149.06
652.969	127.06
653.173	133.06
653.377	130.06
653.581	135.06
653.785	126.06
653.99	123.06
654.194	128.06
654.398	137.06
654.602	125.06
654.806	133.06
655.01	130.06
655.214	129.06
655.418	127.06
655.622	128.06
655.826	128.06
656.03	126.06
656.234	122.06
656.438	122.06
656.642	129.06
656.846	127.06
657.049	123.06
657.253	127.06
657.457	118.06
657.661	112.06
657.865	113.06
658.068	110.06
658.272	118.06
658.476	117.06
658.68	112.06
658.883	108.06
659.087	103.06
659.291	96.06
659.494	103.06
659.698	104.06
659.901	91.06
660.105	91.06
660.309	94.06
660.512	103.06
660.716	85.06
660.919	108.06
661.123	85.06
661.326	99.06
661.53	95.06
661.733	108.06
661.936	95.06
662.14	85.06
662.343	81.06
662.546	76.06
662.75	82.06
662.953	95.06
663.156	75.06
663.36	81.06
663.563	85.06
663.766	94.06
663.969	87.06
664.173	83.06
664.376	87.06
664.579	73.06
664.782	83.06
664.985	89.06
665.188	92.06
665.391	96.06
665.594	85.06
665.797	72.06
666	73.06
666.203	73.06
666.406	79.06
666.609	86.06
666.812	95.06
667.015	84.06
667.218	84.06
667.421	76.06
667.624	75.06
667.827	85.06
668.03	82.06
668.232	84.06
668.435	92.06
668.638	75.06
668.841	92.06
669.043	75.06
669.246	78.06
669.449	83.06
669.651	88.06
669.854	83.06
670.057	85.06
670.259	88.06
670.462	73.06
670.665	92.06
670.867	82.06
671.07	96.06
671.272	77.06
671.475	76.06
671.677	86.06
671.88	75.06
672.082	77.06
672.284	70.06
672.487	88.06
672.689	81.06
672.892	81.06
