Data from 1965.PennyLincolnUp.Lamp.En5.5.200Scan.071719.P1._HRD10591_14-10-23-912.txt Node
Date: Thu Jul 18 14:10:23 EDT 2019
User: cochatt
Spectrometer: HR+D1059
Trigger mode: 1
Integration Time (sec): 1.000000E-1
Scans to average: 1
Electric dark correction enabled: true
Nonlinearity correction enabled: false
Boxcar width: 0
XAxis mode: Wavelengths
Number of Pixels in Spectrum: 2048
>>>>>Begin Spectral Data<<<<<
223.165	-10.12
223.4	-10.12
223.635	-10.12
223.869	-32.12
224.104	-14.12
224.338	-19.12
224.573	-10.12
224.808	-9.12
225.042	-21.12
225.277	-14.12
225.511	17.88
225.746	4.88
225.98	4.88
226.215	4.88
226.449	5.88
226.683	26.88
226.918	39.88
227.152	24.88
227.387	28.88
227.621	37.88
227.856	35.88
228.09	42.88
228.324	57.88
228.559	51.88
228.793	59.88
229.027	76.88
229.262	101.88
229.496	124.88
229.73	131.88
229.964	160.88
230.199	117.88
230.433	117.88
230.667	105.88
230.901	110.88
231.136	117.88
231.37	99.88
231.604	115.88
231.838	97.88
232.072	106.88
232.306	111.88
232.541	116.88
232.775	96.88
233.009	107.88
233.243	93.88
233.477	113.88
233.711	106.88
233.945	109.88
234.179	111.88
234.413	114.88
234.647	106.88
234.881	116.88
235.115	101.88
235.349	118.88
235.583	106.88
235.817	109.88
236.051	126.88
236.285	121.88
236.519	121.88
236.753	136.88
236.987	135.88
237.221	187.88
237.455	219.88
237.689	177.88
237.922	131.88
238.156	118.88
238.39	126.88
238.624	141.88
238.858	129.88
239.091	118.88
239.325	117.88
239.559	131.88
239.793	124.88
240.027	134.88
240.26	125.88
240.494	149.88
240.728	122.88
240.961	146.88
241.195	143.88
241.429	129.88
241.662	135.88
241.896	135.88
242.13	121.88
242.363	133.88
242.597	100.88
242.83	129.88
243.064	135.88
243.298	144.88
243.531	121.88
243.765	133.88
243.998	113.88
244.232	121.88
244.465	140.88
244.699	138.88
244.932	153.88
245.166	133.88
245.399	136.88
245.633	134.88
245.866	147.88
246.099	153.88
246.333	143.88
246.566	130.88
246.8	142.88
247.033	138.88
247.266	139.88
247.5	153.88
247.733	153.88
247.966	170.88
248.2	139.88
248.433	144.88
248.666	166.88
248.899	169.88
249.133	187.88
249.366	184.88
249.599	187.88
249.832	182.88
250.066	173.88
250.299	182.88
250.532	169.88
250.765	190.88
250.998	207.88
251.231	213.88
251.465	197.88
251.698	178.88
251.931	183.88
252.164	186.88
252.397	177.88
252.63	202.88
252.863	197.88
253.096	204.88
253.329	215.88
253.562	212.88
253.795	198.88
254.028	209.88
254.261	202.88
254.494	198.88
254.727	238.88
254.96	250.88
255.193	249.88
255.426	219.88
255.659	208.88
255.892	212.88
256.124	223.88
256.357	233.88
256.59	210.88
256.823	203.88
257.056	199.88
257.289	195.88
257.521	204.88
257.754	204.88
257.987	189.88
258.22	213.88
258.452	201.88
258.685	174.88
258.918	194.88
259.151	198.88
259.383	205.88
259.616	221.88
259.849	207.88
260.081	224.88
260.314	237.88
260.547	248.88
260.779	226.88
261.012	206.88
261.244	220.88
261.477	222.88
261.71	206.88
261.942	204.88
262.175	221.88
262.407	204.88
262.64	207.88
262.872	209.88
263.105	197.88
263.337	205.88
263.57	174.88
263.802	188.88
264.035	182.88
264.267	186.88
264.499	187.88
264.732	209.88
264.964	208.88
265.197	204.88
265.429	211.88
265.661	213.88
265.894	187.88
266.126	192.88
266.358	194.88
266.591	198.88
266.823	201.88
267.055	204.88
267.287	204.88
267.52	201.88
267.752	188.88
267.984	197.88
268.216	206.88
268.448	202.88
268.681	220.88
268.913	216.88
269.145	223.88
269.377	266.88
269.609	246.88
269.841	256.88
270.073	243.88
270.306	273.88
270.538	295.88
270.77	283.88
271.002	285.88
271.234	277.88
271.466	282.88
271.698	292.88
271.93	287.88
272.162	290.88
272.394	309.88
272.626	281.88
272.858	262.88
273.09	279.88
273.322	238.88
273.553	267.88
273.785	257.88
274.017	250.88
274.249	255.88
274.481	247.88
274.713	247.88
274.945	254.88
275.176	232.88
275.408	249.88
275.64	241.88
275.872	237.88
276.104	271.88
276.335	235.88
276.567	247.88
276.799	267.88
277.031	305.88
277.262	282.88
277.494	289.88
277.726	280.88
277.957	258.88
278.189	257.88
278.421	256.88
278.652	238.88
278.884	243.88
279.115	243.88
279.347	252.88
279.579	239.88
279.81	244.88
280.042	243.88
280.273	263.88
280.505	231.88
280.736	244.88
280.968	245.88
281.199	255.88
281.431	252.88
281.662	254.88
281.894	247.88
282.125	242.88
282.356	273.88
282.588	292.88
282.819	285.88
283.051	265.88
283.282	233.88
283.513	260.88
283.745	243.88
283.976	260.88
284.207	264.88
284.439	259.88
284.67	274.88
284.901	242.88
285.132	242.88
285.364	237.88
285.595	255.88
285.826	254.88
286.057	235.88
286.288	246.88
286.52	257.88
286.751	246.88
286.982	251.88
287.213	251.88
287.444	241.88
287.675	264.88
287.906	265.88
288.138	278.88
288.369	292.88
288.6	269.88
288.831	259.88
289.062	267.88
289.293	262.88
289.524	261.88
289.755	276.88
289.986	268.88
290.217	281.88
290.448	254.88
290.679	258.88
290.91	258.88
291.141	241.88
291.371	269.88
291.602	265.88
291.833	246.88
292.064	268.88
292.295	239.88
292.526	281.88
292.757	254.88
292.987	261.88
293.218	246.88
293.449	237.88
293.68	272.88
293.91	271.88
294.141	261.88
294.372	266.88
294.603	271.88
294.833	253.88
295.064	272.88
295.295	281.88
295.525	259.88
295.756	259.88
295.987	271.88
296.217	293.88
296.448	318.88
296.679	276.88
296.909	266.88
297.14	264.88
297.37	274.88
297.601	268.88
297.831	271.88
298.062	267.88
298.292	261.88
298.523	285.88
298.753	263.88
298.984	273.88
299.214	279.88
299.445	289.88
299.675	271.88
299.905	274.88
300.136	275.88
300.366	255.88
300.597	275.88
300.827	281.88
301.057	297.88
301.288	302.88
301.518	297.88
301.748	280.88
301.979	285.88
302.209	304.88
302.439	301.88
302.669	295.88
302.9	296.88
303.13	308.88
303.36	296.88
303.59	297.88
303.82	306.88
304.051	301.88
304.281	290.88
304.511	309.88
304.741	301.88
304.971	300.88
305.201	299.88
305.431	302.88
305.661	304.88
305.891	291.88
306.121	307.88
306.352	310.88
306.582	307.88
306.812	286.88
307.042	321.88
307.272	302.88
307.502	323.88
307.731	302.88
307.961	299.88
308.191	288.88
308.421	286.88
308.651	313.88
308.881	330.88
309.111	303.88
309.341	306.88
309.571	334.88
309.8	325.88
310.03	334.88
310.26	347.88
310.49	338.88
310.72	376.88
310.949	377.88
311.179	366.88
311.409	351.88
311.639	356.88
311.868	350.88
312.098	355.88
312.328	357.88
312.557	356.88
312.787	405.88
313.017	370.88
313.246	377.88
313.476	330.88
313.706	348.88
313.935	354.88
314.165	374.88
314.394	381.88
314.624	393.88
314.853	376.88
315.083	365.88
315.312	341.88
315.542	342.88
315.771	328.88
316.001	337.88
316.23	339.88
316.46	357.88
316.689	356.88
316.919	348.88
317.148	362.88
317.377	370.88
317.607	351.88
317.836	381.88
318.065	370.88
318.295	337.88
318.524	334.88
318.753	350.88
318.983	333.88
319.212	365.88
319.441	341.88
319.67	371.88
319.9	340.88
320.129	369.88
320.358	373.88
320.587	367.88
320.816	354.88
321.046	379.88
321.275	380.88
321.504	389.88
321.733	381.88
321.962	376.88
322.191	387.88
322.42	409.88
322.649	430.88
322.878	435.88
323.108	438.88
323.337	457.88
323.566	489.88
323.795	546.88
324.024	597.88
324.253	744.88
324.482	1062.88
324.71	1625.88
324.939	2275.88
325.168	1870.88
325.397	995.88
325.626	675.88
325.855	553.88
326.084	507.88
326.313	481.88
326.542	489.88
326.77	556.88
326.999	669.88
327.228	947.88
327.457	1390.88
327.686	1643.88
327.914	1108.88
328.143	726.88
328.372	646.88
328.6	591.88
328.829	541.88
329.058	574.88
329.287	576.88
329.515	520.88
329.744	498.88
329.972	509.88
330.201	536.88
330.43	572.88
330.658	594.88
330.887	603.88
331.115	588.88
331.344	488.88
331.572	489.88
331.801	470.88
332.03	467.88
332.258	437.88
332.486	410.88
332.715	423.88
332.943	411.88
333.172	428.88
333.4	421.88
333.629	441.88
333.857	441.88
334.085	451.88
334.314	460.88
334.542	513.88
334.771	535.88
334.999	474.88
335.227	443.88
335.455	437.88
335.684	410.88
335.912	406.88
336.14	411.88
336.369	393.88
336.597	413.88
336.825	423.88
337.053	409.88
337.281	376.88
337.51	377.88
337.738	411.88
337.966	393.88
338.194	417.88
338.422	400.88
338.65	399.88
338.878	403.88
339.106	394.88
339.334	401.88
339.562	386.88
339.79	405.88
340.018	392.88
340.246	414.88
340.474	398.88
340.702	405.88
340.93	379.88
341.158	375.88
341.386	374.88
341.614	414.88
341.842	389.88
342.07	373.88
342.298	390.88
342.526	368.88
342.754	396.88
342.981	381.88
343.209	357.88
343.437	372.88
343.665	381.88
343.893	384.88
344.12	391.88
344.348	378.88
344.576	394.88
344.804	402.88
345.031	410.88
345.259	400.88
345.487	427.88
345.714	387.88
345.942	378.88
346.17	404.88
346.397	377.88
346.625	408.88
346.853	366.88
347.08	354.88
347.308	379.88
347.535	381.88
347.763	414.88
347.99	417.88
348.218	421.88
348.445	419.88
348.673	399.88
348.9	384.88
349.128	386.88
349.355	374.88
349.583	356.88
349.81	345.88
350.037	361.88
350.265	359.88
350.492	354.88
350.72	379.88
350.947	375.88
351.174	381.88
351.402	394.88
351.629	412.88
351.856	392.88
352.083	398.88
352.311	398.88
352.538	407.88
352.765	430.88
352.992	401.88
353.22	387.88
353.447	374.88
353.674	381.88
353.901	371.88
354.128	354.88
354.355	363.88
354.583	358.88
354.81	346.88
355.037	346.88
355.264	366.88
355.491	356.88
355.718	341.88
355.945	356.88
356.172	363.88
356.399	346.88
356.626	342.88
356.853	350.88
357.08	354.88
357.307	349.88
357.534	354.88
357.761	356.88
357.988	358.88
358.215	361.88
358.441	343.88
358.668	363.88
358.895	355.88
359.122	369.88
359.349	373.88
359.576	389.88
359.802	400.88
360.029	445.88
360.256	455.88
360.483	429.88
360.709	395.88
360.936	404.88
361.163	377.88
361.39	392.88
361.616	394.88
361.843	375.88
362.07	380.88
362.296	412.88
362.523	378.88
362.749	366.88
362.976	379.88
363.203	381.88
363.429	361.88
363.656	374.88
363.882	383.88
364.109	366.88
364.335	353.88
364.562	373.88
364.788	357.88
365.015	376.88
365.241	351.88
365.468	369.88
365.694	379.88
365.92	362.88
366.147	373.88
366.373	362.88
366.599	353.88
366.826	352.88
367.052	335.88
367.278	369.88
367.505	381.88
367.731	355.88
367.957	365.88
368.184	359.88
368.41	381.88
368.636	381.88
368.862	376.88
369.089	374.88
369.315	376.88
369.541	356.88
369.767	357.88
369.993	354.88
370.219	359.88
370.445	350.88
370.672	359.88
370.898	367.88
371.124	359.88
371.35	367.88
371.576	353.88
371.802	352.88
372.028	350.88
372.254	353.88
372.48	344.88
372.706	362.88
372.932	322.88
373.158	340.88
373.384	351.88
373.61	362.88
373.835	354.88
374.061	355.88
374.287	365.88
374.513	361.88
374.739	364.88
374.965	347.88
375.191	350.88
375.416	346.88
375.642	356.88
375.868	351.88
376.094	378.88
376.319	356.88
376.545	362.88
376.771	350.88
376.997	345.88
377.222	354.88
377.448	358.88
377.674	338.88
377.899	334.88
378.125	366.88
378.35	351.88
378.576	364.88
378.802	366.88
379.027	357.88
379.253	350.88
379.478	358.88
379.704	351.88
379.929	358.88
380.155	349.88
380.38	353.88
380.606	369.88
380.831	335.88
381.057	353.88
381.282	321.88
381.507	348.88
381.733	332.88
381.958	373.88
382.184	366.88
382.409	341.88
382.634	357.88
382.86	380.88
383.085	347.88
383.31	357.88
383.535	335.88
383.761	368.88
383.986	373.88
384.211	358.88
384.436	345.88
384.662	361.88
384.887	362.88
385.112	363.88
385.337	374.88
385.562	357.88
385.787	355.88
386.013	373.88
386.238	364.88
386.463	364.88
386.688	373.88
386.913	377.88
387.138	380.88
387.363	367.88
387.588	379.88
387.813	380.88
388.038	360.88
388.263	396.88
388.488	383.88
388.713	379.88
388.938	374.88
389.163	385.88
389.387	375.88
389.612	382.88
389.837	378.88
390.062	369.88
390.287	381.88
390.512	376.88
390.736	356.88
390.961	375.88
391.186	364.88
391.411	379.88
391.636	379.88
391.86	377.88
392.085	387.88
392.31	365.88
392.534	373.88
392.759	392.88
392.984	381.88
393.208	357.88
393.433	385.88
393.658	363.88
393.882	397.88
394.107	394.88
394.331	369.88
394.556	373.88
394.78	374.88
395.005	387.88
395.229	368.88
395.454	393.88
395.678	411.88
395.903	411.88
396.127	406.88
396.352	406.88
396.576	406.88
396.801	391.88
397.025	399.88
397.249	396.88
397.474	395.88
397.698	408.88
397.922	417.88
398.147	422.88
398.371	436.88
398.595	408.88
398.82	418.88
399.044	430.88
399.268	444.88
399.492	456.88
399.717	479.88
399.941	477.88
400.165	507.88
400.389	520.88
400.613	483.88
400.837	449.88
401.062	447.88
401.286	444.88
401.51	425.88
401.734	411.88
401.958	434.88
402.182	437.88
402.406	444.88
402.63	458.88
402.854	433.88
403.078	429.88
403.302	438.88
403.526	437.88
403.75	458.88
403.974	444.88
404.198	455.88
404.422	449.88
404.645	441.88
404.869	421.88
405.093	482.88
405.317	520.88
405.541	533.88
405.765	500.88
405.988	492.88
406.212	497.88
406.436	520.88
406.66	515.88
406.883	473.88
407.107	526.88
407.331	528.88
407.555	585.88
407.778	587.88
408.002	516.88
408.226	501.88
408.449	491.88
408.673	489.88
408.896	526.88
409.12	541.88
409.344	521.88
409.567	491.88
409.791	468.88
410.014	445.88
410.238	447.88
410.461	437.88
410.685	459.88
410.908	443.88
411.132	505.88
411.355	518.88
411.578	497.88
411.802	472.88
412.025	450.88
412.249	450.88
412.472	482.88
412.695	516.88
412.919	490.88
413.142	463.88
413.365	450.88
413.589	428.88
413.812	430.88
414.035	432.88
414.258	420.88
414.482	437.88
414.705	437.88
414.928	419.88
415.151	430.88
415.374	420.88
415.597	414.88
415.821	419.88
416.044	429.88
416.267	431.88
416.49	418.88
416.713	436.88
416.936	409.88
417.159	415.88
417.382	437.88
417.605	450.88
417.828	440.88
418.051	463.88
418.274	451.88
418.497	429.88
418.72	431.88
418.943	425.88
419.166	426.88
419.389	461.88
419.611	443.88
419.834	442.88
420.057	465.88
420.28	421.88
420.503	455.88
420.726	450.88
420.948	468.88
421.171	508.88
421.394	525.88
421.617	473.88
421.839	429.88
422.062	445.88
422.285	464.88
422.507	525.88
422.73	557.88
422.953	538.88
423.175	504.88
423.398	451.88
423.621	476.88
423.843	465.88
424.066	477.88
424.288	497.88
424.511	516.88
424.733	541.88
424.956	625.88
425.178	591.88
425.401	593.88
425.623	623.88
425.846	535.88
426.068	486.88
426.291	469.88
426.513	481.88
426.735	508.88
426.958	543.88
427.18	595.88
427.402	718.88
427.625	813.88
427.847	729.88
428.069	613.88
428.292	538.88
428.514	491.88
428.736	479.88
428.958	456.88
429.181	467.88
429.403	433.88
429.625	463.88
429.847	494.88
430.069	557.88
430.292	531.88
430.514	466.88
430.736	455.88
430.958	451.88
431.18	424.88
431.402	418.88
431.624	424.88
431.846	418.88
432.068	427.88
432.29	427.88
432.512	426.88
432.734	429.88
432.956	436.88
433.178	435.88
433.4	454.88
433.622	434.88
433.844	438.88
434.066	441.88
434.287	418.88
434.509	418.88
434.731	447.88
434.953	460.88
435.175	457.88
435.397	479.88
435.618	492.88
435.84	521.88
436.062	619.88
436.284	664.88
436.505	552.88
436.727	515.88
436.949	458.88
437.17	447.88
437.392	439.88
437.614	475.88
437.835	523.88
438.057	603.88
438.278	691.88
438.5	662.88
438.721	709.88
438.943	702.88
439.165	547.88
439.386	517.88
439.608	516.88
439.829	528.88
440.05	546.88
440.272	554.88
440.493	540.88
440.715	501.88
440.936	469.88
441.158	436.88
441.379	465.88
441.6	474.88
441.822	508.88
442.043	525.88
442.264	596.88
442.486	626.88
442.707	525.88
442.928	499.88
443.149	532.88
443.371	532.88
443.592	561.88
443.813	650.88
444.034	684.88
444.255	547.88
444.476	507.88
444.698	478.88
444.919	452.88
445.14	563.88
445.361	543.88
445.582	538.88
445.803	617.88
446.024	701.88
446.245	708.88
446.466	627.88
446.687	541.88
446.908	501.88
447.129	459.88
447.35	443.88
447.571	440.88
447.792	441.88
448.013	458.88
448.234	503.88
448.455	528.88
448.675	625.88
448.896	687.88
449.117	599.88
449.338	586.88
449.559	653.88
449.779	740.88
450	601.88
450.221	511.88
450.442	491.88
450.662	445.88
450.883	459.88
451.104	478.88
451.324	469.88
451.545	451.88
451.766	405.88
451.986	420.88
452.207	405.88
452.428	403.88
452.648	402.88
452.869	412.88
453.089	424.88
453.31	413.88
453.53	416.88
453.751	411.88
453.971	397.88
454.192	419.88
454.412	432.88
454.633	415.88
454.853	412.88
455.073	404.88
455.294	463.88
455.514	515.88
455.734	478.88
455.955	413.88
456.175	392.88
456.395	375.88
456.616	372.88
456.836	384.88
457.056	400.88
457.276	402.88
457.497	387.88
457.717	375.88
457.937	388.88
458.157	391.88
458.377	392.88
458.598	423.88
458.818	486.88
459.038	585.88
459.258	580.88
459.478	470.88
459.698	447.88
459.918	427.88
460.138	416.88
460.358	417.88
460.578	414.88
460.798	422.88
461.018	428.88
461.238	411.88
461.458	422.88
461.678	415.88
461.898	419.88
462.118	443.88
462.338	423.88
462.558	429.88
462.777	446.88
462.997	439.88
463.217	428.88
463.437	449.88
463.657	451.88
463.876	433.88
464.096	447.88
464.316	449.88
464.536	446.88
464.755	460.88
464.975	450.88
465.195	507.88
465.414	622.88
465.634	547.88
465.854	453.88
466.073	462.88
466.293	436.88
466.512	422.88
466.732	405.88
466.951	414.88
467.171	411.88
467.391	411.88
467.61	423.88
467.829	439.88
468.049	419.88
468.268	415.88
468.488	422.88
468.707	411.88
468.927	394.88
469.146	400.88
469.365	401.88
469.585	397.88
469.804	408.88
470.023	417.88
470.243	438.88
470.462	428.88
470.681	451.88
470.901	449.88
471.12	418.88
471.339	422.88
471.558	404.88
471.777	417.88
471.997	430.88
472.216	430.88
472.435	503.88
472.654	452.88
472.873	442.88
473.092	435.88
473.311	420.88
473.53	417.88
473.749	427.88
473.968	478.88
474.187	589.88
474.406	600.88
474.625	478.88
474.844	442.88
475.063	405.88
475.282	447.88
475.501	426.88
475.72	437.88
475.939	427.88
476.158	437.88
476.377	449.88
476.596	439.88
476.814	445.88
477.033	437.88
477.252	442.88
477.471	441.88
477.69	443.88
477.908	455.88
478.127	478.88
478.346	453.88
478.564	467.88
478.783	467.88
479.002	459.88
479.22	467.88
479.439	490.88
479.658	510.88
479.876	516.88
480.095	513.88
480.313	513.88
480.532	528.88
480.751	525.88
480.969	528.88
481.188	601.88
481.406	645.88
481.624	581.88
481.843	541.88
482.061	531.88
482.28	498.88
482.498	507.88
482.717	518.88
482.935	499.88
483.153	501.88
483.372	489.88
483.59	487.88
483.808	483.88
484.027	510.88
484.245	504.88
484.463	514.88
484.681	507.88
484.9	493.88
485.118	512.88
485.336	510.88
485.554	499.88
485.772	485.88
485.99	515.88
486.209	526.88
486.427	521.88
486.645	526.88
486.863	561.88
487.081	541.88
487.299	550.88
487.517	553.88
487.735	520.88
487.953	523.88
488.171	536.88
488.389	544.88
488.607	526.88
488.825	549.88
489.043	527.88
489.261	527.88
489.479	545.88
489.696	540.88
489.914	567.88
490.132	550.88
490.35	549.88
490.568	557.88
490.786	590.88
491.003	573.88
491.221	602.88
491.439	605.88
491.657	617.88
491.874	626.88
492.092	627.88
492.31	609.88
492.527	610.88
492.745	631.88
492.963	641.88
493.18	642.88
493.398	653.88
493.615	638.88
493.833	649.88
494.05	626.88
494.268	628.88
494.485	628.88
494.703	625.88
494.92	645.88
495.138	648.88
495.355	639.88
495.573	633.88
495.79	632.88
496.008	639.88
496.225	638.88
496.442	631.88
496.66	653.88
496.877	657.88
497.094	639.88
497.312	649.88
497.529	661.88
497.746	676.88
497.963	664.88
498.181	694.88
498.398	659.88
498.615	704.88
498.832	699.88
499.049	681.88
499.267	699.88
499.484	734.88
499.701	747.88
499.918	721.88
500.135	767.88
500.352	793.88
500.569	796.88
500.786	794.88
501.003	833.88
501.22	787.88
501.437	797.88
501.654	790.88
501.871	790.88
502.088	757.88
502.305	725.88
502.522	712.88
502.739	683.88
502.956	676.88
503.172	678.88
503.389	660.88
503.606	682.88
503.823	680.88
504.04	629.88
504.256	651.88
504.473	634.88
504.69	618.88
504.907	630.88
505.123	631.88
505.34	631.88
505.557	603.88
505.773	623.88
505.99	633.88
506.207	621.88
506.423	609.88
506.64	601.88
506.856	614.88
507.073	613.88
507.289	603.88
507.506	602.88
507.722	602.88
507.939	646.88
508.155	617.88
508.372	598.88
508.588	593.88
508.805	585.88
509.021	574.88
509.238	619.88
509.454	616.88
509.67	613.88
509.887	615.88
510.103	588.88
510.319	618.88
510.536	714.88
510.752	1276.88
510.968	1012.88
511.184	626.88
511.401	593.88
511.617	583.88
511.833	578.88
512.049	565.88
512.265	561.88
512.481	554.88
512.698	565.88
512.914	558.88
513.13	563.88
513.346	563.88
513.562	574.88
513.778	579.88
513.994	576.88
514.21	576.88
514.426	595.88
514.642	663.88
514.858	688.88
515.074	761.88
515.29	919.88
515.506	1393.88
515.721	1126.88
515.937	720.88
516.153	638.88
516.369	588.88
516.585	580.88
516.801	585.88
517.016	573.88
517.232	577.88
517.448	571.88
517.664	562.88
517.879	558.88
518.095	563.88
518.311	561.88
518.527	545.88
518.742	550.88
518.958	569.88
519.173	570.88
519.389	565.88
519.605	571.88
519.82	572.88
520.036	599.88
520.251	601.88
520.467	623.88
520.682	666.88
520.898	655.88
521.113	685.88
521.329	733.88
521.544	811.88
521.76	1064.88
521.975	1909.88
522.19	1777.88
522.406	930.88
522.621	659.88
522.836	611.88
523.052	571.88
523.267	541.88
523.482	550.88
523.698	519.88
523.913	534.88
524.128	532.88
524.343	509.88
524.559	509.88
524.774	496.88
524.989	505.88
525.204	483.88
525.419	485.88
525.634	477.88
525.849	480.88
526.064	477.88
526.28	469.88
526.495	456.88
526.71	470.88
526.925	453.88
527.14	450.88
527.355	443.88
527.57	464.88
527.785	484.88
527.999	459.88
528.214	463.88
528.429	456.88
528.644	464.88
528.859	436.88
529.074	454.88
529.289	486.88
529.503	564.88
529.718	566.88
529.933	510.88
530.148	477.88
530.363	475.88
530.577	454.88
530.792	455.88
531.007	437.88
531.221	431.88
531.436	435.88
531.651	441.88
531.865	436.88
532.08	441.88
532.295	430.88
532.509	438.88
532.724	438.88
532.938	417.88
533.153	425.88
533.367	422.88
533.582	413.88
533.796	421.88
534.011	429.88
534.225	411.88
534.44	429.88
534.654	417.88
534.868	410.88
535.083	426.88
535.297	426.88
535.511	426.88
535.726	434.88
535.94	438.88
536.154	426.88
536.369	449.88
536.583	394.88
536.797	420.88
537.011	411.88
537.225	418.88
537.44	420.88
537.654	423.88
537.868	419.88
538.082	428.88
538.296	422.88
538.51	420.88
538.724	405.88
538.938	416.88
539.153	400.88
539.367	432.88
539.581	461.88
539.795	420.88
540.009	411.88
540.222	417.88
540.436	418.88
540.65	391.88
540.864	443.88
541.078	433.88
541.292	408.88
541.506	417.88
541.72	406.88
541.934	400.88
542.147	382.88
542.361	395.88
542.575	407.88
542.789	394.88
543.002	423.88
543.216	406.88
543.43	413.88
543.644	401.88
543.857	400.88
544.071	395.88
544.285	391.88
544.498	399.88
544.712	389.88
544.925	399.88
545.139	420.88
545.352	390.88
545.566	389.88
545.779	396.88
545.993	387.88
546.206	410.88
546.42	389.88
546.633	415.88
546.847	393.88
547.06	382.88
547.274	399.88
547.487	383.88
547.7	385.88
547.914	378.88
548.127	365.88
548.34	381.88
548.554	405.88
548.767	391.88
548.98	400.88
549.193	400.88
549.407	362.88
549.62	383.88
549.833	394.88
550.046	366.88
550.259	382.88
550.473	379.88
550.686	385.88
550.899	366.88
551.112	360.88
551.325	346.88
551.538	381.88
551.751	392.88
551.964	377.88
552.177	373.88
552.39	366.88
552.603	383.88
552.816	371.88
553.029	387.88
553.242	380.88
553.455	395.88
553.667	403.88
553.88	414.88
554.093	379.88
554.306	386.88
554.519	397.88
554.732	391.88
554.944	366.88
555.157	366.88
555.37	366.88
555.583	354.88
555.795	354.88
556.008	342.88
556.221	360.88
556.433	359.88
556.646	355.88
556.859	342.88
557.071	347.88
557.284	354.88
557.496	358.88
557.709	358.88
557.921	354.88
558.134	322.88
558.346	329.88
558.559	341.88
558.771	343.88
558.984	347.88
559.196	361.88
559.409	315.88
559.621	339.88
559.833	353.88
560.046	342.88
560.258	344.88
560.47	329.88
560.683	341.88
560.895	342.88
561.107	339.88
561.32	325.88
561.532	346.88
561.744	361.88
561.956	358.88
562.168	340.88
562.381	335.88
562.593	345.88
562.805	351.88
563.017	333.88
563.229	353.88
563.441	337.88
563.653	345.88
563.865	334.88
564.077	334.88
564.289	359.88
564.501	349.88
564.713	358.88
564.925	356.88
565.137	362.88
565.349	341.88
565.561	351.88
565.773	362.88
565.985	376.88
566.197	373.88
566.408	376.88
566.62	366.88
566.832	371.88
567.044	380.88
567.255	389.88
567.467	384.88
567.679	392.88
567.891	400.88
568.102	379.88
568.314	384.88
568.526	360.88
568.737	363.88
568.949	373.88
569.161	344.88
569.372	335.88
569.584	333.88
569.795	336.88
570.007	334.88
570.218	379.88
570.43	376.88
570.641	353.88
570.853	323.88
571.064	308.88
571.276	339.88
571.487	340.88
571.698	317.88
571.91	321.88
572.121	317.88
572.333	301.88
572.544	327.88
572.755	302.88
572.966	290.88
573.178	306.88
573.389	323.88
573.6	290.88
573.811	302.88
574.023	296.88
574.234	305.88
574.445	290.88
574.656	304.88
574.867	288.88
575.078	297.88
575.289	290.88
575.501	295.88
575.712	287.88
575.923	301.88
576.134	307.88
576.345	279.88
576.556	291.88
576.767	301.88
576.978	285.88
577.188	278.88
577.399	286.88
577.61	299.88
577.821	284.88
578.032	287.88
578.243	349.88
578.454	588.88
578.665	408.88
578.875	307.88
579.086	267.88
579.297	288.88
579.508	272.88
579.718	277.88
579.929	281.88
580.14	269.88
580.35	271.88
580.561	264.88
580.772	264.88
580.982	274.88
581.193	261.88
581.403	286.88
581.614	270.88
581.825	254.88
582.035	264.88
582.246	262.88
582.456	254.88
582.667	261.88
582.877	260.88
583.087	261.88
583.298	265.88
583.508	271.88
583.719	246.88
583.929	281.88
584.139	275.88
584.35	264.88
584.56	279.88
584.77	253.88
584.981	261.88
585.191	284.88
585.401	275.88
585.611	282.88
585.821	263.88
586.032	249.88
586.242	255.88
586.452	258.88
586.662	261.88
586.872	249.88
587.082	241.88
587.292	263.88
587.502	255.88
587.713	248.88
587.923	275.88
588.133	247.88
588.343	268.88
588.553	243.88
588.762	241.88
588.972	255.88
589.182	302.88
589.392	297.88
589.602	260.88
589.812	275.88
590.022	285.88
590.232	253.88
590.441	265.88
590.651	247.88
590.861	263.88
591.071	270.88
591.281	261.88
591.49	245.88
591.7	236.88
591.91	255.88
592.119	262.88
592.329	258.88
592.539	257.88
592.748	262.88
592.958	255.88
593.167	250.88
593.377	262.88
593.587	278.88
593.796	278.88
594.006	268.88
594.215	246.88
594.424	266.88
594.634	263.88
594.843	261.88
595.053	261.88
595.262	243.88
595.472	261.88
595.681	252.88
595.89	258.88
596.1	251.88
596.309	246.88
596.518	246.88
596.727	259.88
596.937	237.88
597.146	245.88
597.355	257.88
597.564	233.88
597.774	234.88
597.983	241.88
598.192	225.88
598.401	235.88
598.61	236.88
598.819	229.88
599.028	239.88
599.237	242.88
599.446	219.88
599.655	229.88
599.864	226.88
600.073	221.88
600.282	229.88
600.491	235.88
600.7	239.88
600.909	219.88
601.118	229.88
601.327	243.88
601.536	227.88
601.745	229.88
601.953	221.88
602.162	211.88
602.371	231.88
602.58	227.88
602.789	228.88
602.997	216.88
603.206	228.88
603.415	211.88
603.623	205.88
603.832	228.88
604.041	226.88
604.249	208.88
604.458	217.88
604.666	229.88
604.875	212.88
605.084	216.88
605.292	207.88
605.501	227.88
605.709	214.88
605.918	218.88
606.126	218.88
606.334	225.88
606.543	209.88
606.751	202.88
606.96	207.88
607.168	219.88
607.376	211.88
607.585	214.88
607.793	211.88
608.001	225.88
608.21	213.88
608.418	197.88
608.626	216.88
608.834	212.88
609.043	202.88
609.251	226.88
609.459	223.88
609.667	208.88
609.875	193.88
610.083	212.88
610.291	222.88
610.499	214.88
610.707	219.88
610.916	208.88
611.124	224.88
611.332	230.88
611.54	218.88
611.748	205.88
611.955	211.88
612.163	202.88
612.371	197.88
612.579	200.88
612.787	207.88
612.995	203.88
613.203	190.88
613.411	197.88
613.618	201.88
613.826	212.88
614.034	226.88
614.242	226.88
614.449	209.88
614.657	214.88
614.865	206.88
615.072	210.88
615.28	230.88
615.488	223.88
615.695	205.88
615.903	219.88
616.111	211.88
616.318	198.88
616.526	207.88
616.733	211.88
616.941	193.88
617.148	210.88
617.356	197.88
617.563	209.88
617.771	200.88
617.978	194.88
618.185	197.88
618.393	203.88
618.6	205.88
618.807	211.88
619.015	212.88
619.222	194.88
619.429	193.88
619.637	213.88
619.844	196.88
620.051	187.88
620.258	199.88
620.466	199.88
620.673	206.88
620.88	194.88
621.087	190.88
621.294	196.88
621.501	202.88
621.708	186.88
621.915	201.88
622.122	183.88
622.329	195.88
622.536	192.88
622.743	199.88
622.95	194.88
623.157	190.88
623.364	187.88
623.571	183.88
623.778	172.88
623.985	185.88
624.192	172.88
624.399	171.88
624.606	172.88
624.812	189.88
625.019	199.88
625.226	205.88
625.433	173.88
625.639	197.88
625.846	189.88
626.053	179.88
626.259	186.88
626.466	178.88
626.673	189.88
626.879	173.88
627.086	189.88
627.293	172.88
627.499	177.88
627.706	202.88
627.912	179.88
628.119	179.88
628.325	187.88
628.532	190.88
628.738	161.88
628.945	192.88
629.151	186.88
629.357	168.88
629.564	184.88
629.77	170.88
629.976	168.88
630.183	157.88
630.389	177.88
630.595	165.88
630.802	166.88
631.008	195.88
631.214	187.88
631.42	163.88
631.627	187.88
631.833	163.88
632.039	163.88
632.245	171.88
632.451	168.88
632.657	158.88
632.863	161.88
633.069	161.88
633.275	160.88
633.481	172.88
633.688	167.88
633.893	175.88
634.099	178.88
634.305	167.88
634.511	155.88
634.717	178.88
634.923	165.88
635.129	168.88
635.335	171.88
635.541	170.88
635.747	150.88
635.952	161.88
636.158	155.88
636.364	159.88
636.57	193.88
636.775	169.88
636.981	164.88
637.187	183.88
637.392	159.88
637.598	168.88
637.804	168.88
638.009	157.88
638.215	164.88
638.421	160.88
638.626	150.88
638.832	165.88
639.037	155.88
639.243	151.88
639.448	147.88
639.654	150.88
639.859	137.88
640.065	157.88
640.27	155.88
640.475	146.88
640.681	161.88
640.886	168.88
641.091	156.88
641.297	151.88
641.502	158.88
641.707	153.88
641.913	174.88
642.118	159.88
642.323	154.88
642.528	143.88
642.733	149.88
642.939	158.88
643.144	170.88
643.349	161.88
643.554	144.88
643.759	152.88
643.964	147.88
644.169	155.88
644.374	159.88
644.579	155.88
644.784	158.88
644.989	158.88
645.194	138.88
645.399	151.88
645.604	141.88
645.809	145.88
646.014	157.88
646.219	153.88
646.423	138.88
646.628	144.88
646.833	149.88
647.038	150.88
647.243	149.88
647.447	160.88
647.652	161.88
647.857	150.88
648.062	158.88
648.266	155.88
648.471	164.88
648.676	152.88
648.88	154.88
649.085	146.88
649.289	161.88
649.494	159.88
649.698	163.88
649.903	168.88
650.107	150.88
650.312	146.88
650.516	147.88
650.721	158.88
650.925	137.88
651.13	137.88
651.334	127.88
651.539	137.88
651.743	135.88
651.947	135.88
652.152	127.88
652.356	129.88
652.56	135.88
652.764	138.88
652.969	121.88
653.173	122.88
653.377	142.88
653.581	131.88
653.785	138.88
653.99	119.88
654.194	113.88
654.398	133.88
654.602	138.88
654.806	125.88
655.01	136.88
655.214	138.88
655.418	115.88
655.622	130.88
655.826	123.88
656.03	122.88
656.234	125.88
656.438	125.88
656.642	120.88
656.846	113.88
657.049	114.88
657.253	129.88
657.457	115.88
657.661	116.88
657.865	119.88
658.068	113.88
658.272	113.88
658.476	92.88
658.68	95.88
658.883	104.88
659.087	93.88
659.291	115.88
659.494	99.88
659.698	103.88
659.901	90.88
660.105	95.88
660.309	88.88
660.512	91.88
660.716	98.88
660.919	100.88
661.123	90.88
661.326	86.88
661.53	88.88
661.733	97.88
661.936	91.88
662.14	84.88
662.343	100.88
662.546	80.88
662.75	90.88
662.953	91.88
663.156	78.88
663.36	80.88
663.563	92.88
663.766	89.88
663.969	86.88
664.173	78.88
664.376	82.88
664.579	86.88
664.782	95.88
664.985	82.88
665.188	70.88
665.391	75.88
665.594	80.88
665.797	60.88
666	92.88
666.203	94.88
666.406	79.88
666.609	85.88
666.812	78.88
667.015	89.88
667.218	88.88
667.421	73.88
667.624	85.88
667.827	87.88
668.03	68.88
668.232	57.88
668.435	77.88
668.638	90.88
668.841	73.88
669.043	74.88
669.246	67.88
669.449	71.88
669.651	83.88
669.854	82.88
670.057	86.88
670.259	67.88
670.462	72.88
670.665	73.88
670.867	69.88
671.07	78.88
671.272	87.88
671.475	83.88
671.677	86.88
671.88	72.88
672.082	85.88
672.284	93.88
672.487	85.88
672.689	68.88
672.892	80.88
