Data from 1965.PennyLincolnUp.Lamp.En5.5.200Scan.071719.P1._HRD10591_14-09-52-912.txt Node
Date: Thu Jul 18 14:09:52 EDT 2019
User: cochatt
Spectrometer: HR+D1059
Trigger mode: 1
Integration Time (sec): 1.000000E-1
Scans to average: 1
Electric dark correction enabled: true
Nonlinearity correction enabled: false
Boxcar width: 0
XAxis mode: Wavelengths
Number of Pixels in Spectrum: 2048
>>>>>Begin Spectral Data<<<<<
223.165	-6.31
223.4	-6.31
223.635	-6.31
223.869	-18.31
224.104	-21.31
224.338	-21.31
224.573	-12.31
224.808	-8.31
225.042	-13.31
225.277	-5.31
225.511	3.69
225.746	0.69
225.98	4.69
226.215	5.69
226.449	25.69
226.683	20.69
226.918	26.69
227.152	18.69
227.387	35.69
227.621	44.69
227.856	40.69
228.09	39.69
228.324	50.69
228.559	54.69
228.793	69.69
229.027	100.69
229.262	104.69
229.496	101.69
229.73	130.69
229.964	149.69
230.199	128.69
230.433	111.69
230.667	109.69
230.901	100.69
231.136	111.69
231.37	100.69
231.604	91.69
231.838	113.69
232.072	105.69
232.306	103.69
232.541	109.69
232.775	119.69
233.009	123.69
233.243	117.69
233.477	101.69
233.711	109.69
233.945	105.69
234.179	109.69
234.413	108.69
234.647	115.69
234.881	111.69
235.115	112.69
235.349	105.69
235.583	109.69
235.817	120.69
236.051	134.69
236.285	114.69
236.519	110.69
236.753	108.69
236.987	141.69
237.221	163.69
237.455	220.69
237.689	174.69
237.922	138.69
238.156	137.69
238.39	131.69
238.624	123.69
238.858	122.69
239.091	106.69
239.325	119.69
239.559	124.69
239.793	130.69
240.027	146.69
240.26	145.69
240.494	137.69
240.728	139.69
240.961	144.69
241.195	145.69
241.429	135.69
241.662	121.69
241.896	123.69
242.13	135.69
242.363	124.69
242.597	146.69
242.83	129.69
243.064	110.69
243.298	122.69
243.531	133.69
243.765	120.69
243.998	122.69
244.232	129.69
244.465	138.69
244.699	122.69
244.932	144.69
245.166	125.69
245.399	131.69
245.633	138.69
245.866	142.69
246.099	142.69
246.333	143.69
246.566	143.69
246.8	131.69
247.033	154.69
247.266	152.69
247.5	160.69
247.733	151.69
247.966	143.69
248.2	148.69
248.433	163.69
248.666	143.69
248.899	162.69
249.133	184.69
249.366	186.69
249.599	179.69
249.832	176.69
250.066	158.69
250.299	178.69
250.532	169.69
250.765	192.69
250.998	220.69
251.231	184.69
251.465	192.69
251.698	190.69
251.931	186.69
252.164	188.69
252.397	181.69
252.63	186.69
252.863	183.69
253.096	185.69
253.329	212.69
253.562	196.69
253.795	199.69
254.028	196.69
254.261	200.69
254.494	227.69
254.727	230.69
254.96	253.69
255.193	264.69
255.426	232.69
255.659	218.69
255.892	199.69
256.124	207.69
256.357	216.69
256.59	216.69
256.823	187.69
257.056	198.69
257.289	189.69
257.521	198.69
257.754	190.69
257.987	199.69
258.22	191.69
258.452	182.69
258.685	190.69
258.918	200.69
259.151	191.69
259.383	182.69
259.616	191.69
259.849	192.69
260.081	208.69
260.314	235.69
260.547	246.69
260.779	222.69
261.012	219.69
261.244	211.69
261.477	223.69
261.71	215.69
261.942	208.69
262.175	231.69
262.407	214.69
262.64	211.69
262.872	188.69
263.105	202.69
263.337	188.69
263.57	194.69
263.802	184.69
264.035	195.69
264.267	200.69
264.499	200.69
264.732	202.69
264.964	202.69
265.197	202.69
265.429	199.69
265.661	200.69
265.894	188.69
266.126	197.69
266.358	188.69
266.591	199.69
266.823	199.69
267.055	211.69
267.287	204.69
267.52	197.69
267.752	211.69
267.984	221.69
268.216	210.69
268.448	203.69
268.681	211.69
268.913	217.69
269.145	228.69
269.377	245.69
269.609	239.69
269.841	259.69
270.073	254.69
270.306	264.69
270.538	283.69
270.77	293.69
271.002	272.69
271.234	263.69
271.466	259.69
271.698	263.69
271.93	303.69
272.162	296.69
272.394	288.69
272.626	281.69
272.858	267.69
273.09	280.69
273.322	257.69
273.553	239.69
273.785	256.69
274.017	248.69
274.249	243.69
274.481	220.69
274.713	231.69
274.945	250.69
275.176	241.69
275.408	242.69
275.64	239.69
275.872	244.69
276.104	242.69
276.335	236.69
276.567	261.69
276.799	251.69
277.031	278.69
277.262	283.69
277.494	288.69
277.726	271.69
277.957	256.69
278.189	244.69
278.421	249.69
278.652	259.69
278.884	244.69
279.115	237.69
279.347	224.69
279.579	248.69
279.81	242.69
280.042	222.69
280.273	244.69
280.505	240.69
280.736	248.69
280.968	226.69
281.199	240.69
281.431	231.69
281.662	236.69
281.894	242.69
282.125	249.69
282.356	267.69
282.588	289.69
282.819	276.69
283.051	262.69
283.282	229.69
283.513	244.69
283.745	247.69
283.976	236.69
284.207	258.69
284.439	244.69
284.67	239.69
284.901	259.69
285.132	244.69
285.364	238.69
285.595	237.69
285.826	230.69
286.057	248.69
286.288	252.69
286.52	259.69
286.751	242.69
286.982	246.69
287.213	250.69
287.444	264.69
287.675	267.69
287.906	280.69
288.138	270.69
288.369	280.69
288.6	271.69
288.831	262.69
289.062	271.69
289.293	265.69
289.524	259.69
289.755	248.69
289.986	247.69
290.217	257.69
290.448	231.69
290.679	254.69
290.91	236.69
291.141	260.69
291.371	237.69
291.602	264.69
291.833	262.69
292.064	235.69
292.295	244.69
292.526	260.69
292.757	256.69
292.987	256.69
293.218	242.69
293.449	249.69
293.68	247.69
293.91	237.69
294.141	268.69
294.372	247.69
294.603	266.69
294.833	242.69
295.064	260.69
295.295	270.69
295.525	256.69
295.756	245.69
295.987	270.69
296.217	293.69
296.448	275.69
296.679	270.69
296.909	247.69
297.14	260.69
297.37	271.69
297.601	270.69
297.831	264.69
298.062	255.69
298.292	268.69
298.523	265.69
298.753	281.69
298.984	284.69
299.214	276.69
299.445	268.69
299.675	263.69
299.905	284.69
300.136	273.69
300.366	255.69
300.597	279.69
300.827	282.69
301.057	297.69
301.288	296.69
301.518	303.69
301.748	290.69
301.979	280.69
302.209	275.69
302.439	287.69
302.669	295.69
302.9	312.69
303.13	298.69
303.36	280.69
303.59	294.69
303.82	293.69
304.051	303.69
304.281	309.69
304.511	285.69
304.741	299.69
304.971	310.69
305.201	287.69
305.431	277.69
305.661	295.69
305.891	284.69
306.121	298.69
306.352	316.69
306.582	301.69
306.812	283.69
307.042	290.69
307.272	292.69
307.502	305.69
307.731	302.69
307.961	294.69
308.191	306.69
308.421	296.69
308.651	295.69
308.881	302.69
309.111	308.69
309.341	307.69
309.571	309.69
309.8	322.69
310.03	339.69
310.26	339.69
310.49	339.69
310.72	364.69
310.949	373.69
311.179	370.69
311.409	354.69
311.639	334.69
311.868	345.69
312.098	347.69
312.328	347.69
312.557	366.69
312.787	392.69
313.017	364.69
313.246	367.69
313.476	358.69
313.706	338.69
313.935	336.69
314.165	367.69
314.394	375.69
314.624	372.69
314.853	356.69
315.083	350.69
315.312	337.69
315.542	341.69
315.771	351.69
316.001	329.69
316.23	327.69
316.46	335.69
316.689	350.69
316.919	340.69
317.148	342.69
317.377	349.69
317.607	350.69
317.836	347.69
318.065	332.69
318.295	347.69
318.524	336.69
318.753	356.69
318.983	314.69
319.212	348.69
319.441	334.69
319.67	330.69
319.9	354.69
320.129	336.69
320.358	324.69
320.587	351.69
320.816	360.69
321.046	359.69
321.275	361.69
321.504	364.69
321.733	382.69
321.962	378.69
322.191	393.69
322.42	407.69
322.649	388.69
322.878	415.69
323.108	466.69
323.337	468.69
323.566	464.69
323.795	521.69
324.024	566.69
324.253	694.69
324.482	1062.69
324.71	1591.69
324.939	2170.69
325.168	1821.69
325.397	966.69
325.626	654.69
325.855	553.69
326.084	489.69
326.313	475.69
326.542	470.69
326.77	564.69
326.999	678.69
327.228	900.69
327.457	1425.69
327.686	1601.69
327.914	1070.69
328.143	705.69
328.372	621.69
328.6	584.69
328.829	576.69
329.058	566.69
329.287	573.69
329.515	535.69
329.744	496.69
329.972	513.69
330.201	526.69
330.43	546.69
330.658	590.69
330.887	597.69
331.115	572.69
331.344	484.69
331.572	464.69
331.801	484.69
332.03	443.69
332.258	428.69
332.486	420.69
332.715	391.69
332.943	416.69
333.172	420.69
333.4	400.69
333.629	421.69
333.857	432.69
334.085	437.69
334.314	460.69
334.542	512.69
334.771	524.69
334.999	461.69
335.227	455.69
335.455	424.69
335.684	386.69
335.912	389.69
336.14	391.69
336.369	386.69
336.597	425.69
336.825	421.69
337.053	403.69
337.281	401.69
337.51	396.69
337.738	372.69
337.966	370.69
338.194	396.69
338.422	405.69
338.65	423.69
338.878	384.69
339.106	370.69
339.334	389.69
339.562	394.69
339.79	382.69
340.018	391.69
340.246	380.69
340.474	388.69
340.702	393.69
340.93	384.69
341.158	381.69
341.386	379.69
341.614	398.69
341.842	366.69
342.07	368.69
342.298	392.69
342.526	396.69
342.754	372.69
342.981	373.69
343.209	358.69
343.437	374.69
343.665	385.69
343.893	362.69
344.12	380.69
344.348	377.69
344.576	383.69
344.804	386.69
345.031	410.69
345.259	417.69
345.487	404.69
345.714	401.69
345.942	374.69
346.17	361.69
346.397	370.69
346.625	374.69
346.853	398.69
347.08	375.69
347.308	380.69
347.535	383.69
347.763	385.69
347.99	375.69
348.218	379.69
348.445	410.69
348.673	408.69
348.9	398.69
349.128	371.69
349.355	348.69
349.583	370.69
349.81	376.69
350.037	353.69
350.265	352.69
350.492	355.69
350.72	344.69
350.947	355.69
351.174	385.69
351.402	380.69
351.629	394.69
351.856	366.69
352.083	388.69
352.311	384.69
352.538	380.69
352.765	411.69
352.992	382.69
353.22	385.69
353.447	378.69
353.674	359.69
353.901	378.69
354.128	364.69
354.355	352.69
354.583	331.69
354.81	371.69
355.037	352.69
355.264	346.69
355.491	333.69
355.718	343.69
355.945	331.69
356.172	346.69
356.399	335.69
356.626	360.69
356.853	350.69
357.08	347.69
357.307	358.69
357.534	348.69
357.761	329.69
357.988	349.69
358.215	341.69
358.441	343.69
358.668	356.69
358.895	359.69
359.122	359.69
359.349	380.69
359.576	378.69
359.802	401.69
360.029	424.69
360.256	446.69
360.483	430.69
360.709	382.69
360.936	380.69
361.163	383.69
361.39	380.69
361.616	386.69
361.843	380.69
362.07	390.69
362.296	371.69
362.523	370.69
362.749	385.69
362.976	378.69
363.203	378.69
363.429	333.69
363.656	363.69
363.882	356.69
364.109	350.69
364.335	344.69
364.562	345.69
364.788	347.69
365.015	335.69
365.241	358.69
365.468	340.69
365.694	382.69
365.92	356.69
366.147	354.69
366.373	352.69
366.599	356.69
366.826	347.69
367.052	336.69
367.278	342.69
367.505	349.69
367.731	361.69
367.957	354.69
368.184	343.69
368.41	364.69
368.636	367.69
368.862	376.69
369.089	363.69
369.315	355.69
369.541	384.69
369.767	364.69
369.993	345.69
370.219	371.69
370.445	363.69
370.672	354.69
370.898	340.69
371.124	353.69
371.35	359.69
371.576	344.69
371.802	339.69
372.028	368.69
372.254	375.69
372.48	350.69
372.706	335.69
372.932	344.69
373.158	328.69
373.384	342.69
373.61	334.69
373.835	330.69
374.061	348.69
374.287	349.69
374.513	362.69
374.739	350.69
374.965	363.69
375.191	364.69
375.416	357.69
375.642	351.69
375.868	352.69
376.094	347.69
376.319	341.69
376.545	349.69
376.771	344.69
376.997	346.69
377.222	350.69
377.448	341.69
377.674	343.69
377.899	343.69
378.125	346.69
378.35	345.69
378.576	336.69
378.802	341.69
379.027	342.69
379.253	354.69
379.478	348.69
379.704	352.69
379.929	340.69
380.155	343.69
380.38	364.69
380.606	354.69
380.831	362.69
381.057	333.69
381.282	349.69
381.507	369.69
381.733	346.69
381.958	360.69
382.184	351.69
382.409	356.69
382.634	341.69
382.86	366.69
383.085	351.69
383.31	366.69
383.535	351.69
383.761	358.69
383.986	357.69
384.211	350.69
384.436	367.69
384.662	359.69
384.887	371.69
385.112	349.69
385.337	361.69
385.562	343.69
385.787	365.69
386.013	393.69
386.238	390.69
386.463	374.69
386.688	351.69
386.913	354.69
387.138	389.69
387.363	353.69
387.588	356.69
387.813	375.69
388.038	366.69
388.263	360.69
388.488	373.69
388.713	364.69
388.938	374.69
389.163	374.69
389.387	351.69
389.612	378.69
389.837	383.69
390.062	361.69
390.287	375.69
390.512	378.69
390.736	361.69
390.961	380.69
391.186	352.69
391.411	360.69
391.636	377.69
391.86	376.69
392.085	372.69
392.31	371.69
392.534	380.69
392.759	372.69
392.984	394.69
393.208	373.69
393.433	362.69
393.658	381.69
393.882	381.69
394.107	384.69
394.331	380.69
394.556	376.69
394.78	374.69
395.005	374.69
395.229	362.69
395.454	366.69
395.678	366.69
395.903	388.69
396.127	399.69
396.352	397.69
396.576	384.69
396.801	380.69
397.025	404.69
397.249	378.69
397.474	397.69
397.698	398.69
397.922	371.69
398.147	423.69
398.371	426.69
398.595	404.69
398.82	414.69
399.044	426.69
399.268	412.69
399.492	464.69
399.717	475.69
399.941	463.69
400.165	494.69
400.389	499.69
400.613	479.69
400.837	448.69
401.062	443.69
401.286	428.69
401.51	420.69
401.734	434.69
401.958	422.69
402.182	424.69
402.406	430.69
402.63	416.69
402.854	418.69
403.078	421.69
403.302	430.69
403.526	422.69
403.75	444.69
403.974	442.69
404.198	415.69
404.422	454.69
404.645	433.69
404.869	434.69
405.093	471.69
405.317	498.69
405.541	522.69
405.765	495.69
405.988	464.69
406.212	472.69
406.436	486.69
406.66	506.69
406.883	471.69
407.107	477.69
407.331	515.69
407.555	582.69
407.778	552.69
408.002	519.69
408.226	491.69
408.449	468.69
408.673	464.69
408.896	505.69
409.12	557.69
409.344	524.69
409.567	455.69
409.791	451.69
410.014	446.69
410.238	428.69
410.461	437.69
410.685	454.69
410.908	474.69
411.132	485.69
411.355	492.69
411.578	485.69
411.802	440.69
412.025	436.69
412.249	439.69
412.472	456.69
412.695	489.69
412.919	471.69
413.142	444.69
413.365	441.69
413.589	438.69
413.812	443.69
414.035	416.69
414.258	415.69
414.482	418.69
414.705	423.69
414.928	418.69
415.151	410.69
415.374	412.69
415.597	399.69
415.821	410.69
416.044	430.69
416.267	395.69
416.49	404.69
416.713	412.69
416.936	436.69
417.159	403.69
417.382	433.69
417.605	413.69
417.828	440.69
418.051	448.69
418.274	429.69
418.497	408.69
418.72	410.69
418.943	403.69
419.166	432.69
419.389	446.69
419.611	437.69
419.834	445.69
420.057	453.69
420.28	441.69
420.503	430.69
420.726	435.69
420.948	460.69
421.171	494.69
421.394	491.69
421.617	460.69
421.839	437.69
422.062	460.69
422.285	456.69
422.507	504.69
422.73	552.69
422.953	531.69
423.175	478.69
423.398	455.69
423.621	446.69
423.843	487.69
424.066	471.69
424.288	458.69
424.511	473.69
424.733	566.69
424.956	596.69
425.178	582.69
425.401	591.69
425.623	595.69
425.846	508.69
426.068	464.69
426.291	472.69
426.513	490.69
426.735	468.69
426.958	523.69
427.18	577.69
427.402	691.69
427.625	774.69
427.847	693.69
428.069	596.69
428.292	512.69
428.514	490.69
428.736	467.69
428.958	464.69
429.181	432.69
429.403	440.69
429.625	444.69
429.847	491.69
430.069	527.69
430.292	526.69
430.514	460.69
430.736	428.69
430.958	421.69
431.18	421.69
431.402	423.69
431.624	412.69
431.846	402.69
432.068	419.69
432.29	404.69
432.512	420.69
432.734	432.69
432.956	423.69
433.178	437.69
433.4	447.69
433.622	421.69
433.844	400.69
434.066	429.69
434.287	398.69
434.509	422.69
434.731	434.69
434.953	443.69
435.175	444.69
435.397	459.69
435.618	470.69
435.84	518.69
436.062	605.69
436.284	664.69
436.505	526.69
436.727	489.69
436.949	448.69
437.17	445.69
437.392	430.69
437.614	462.69
437.835	515.69
438.057	592.69
438.278	668.69
438.5	655.69
438.721	713.69
438.943	655.69
439.165	557.69
439.386	513.69
439.608	491.69
439.829	508.69
440.05	536.69
440.272	553.69
440.493	527.69
440.715	475.69
440.936	455.69
441.158	448.69
441.379	452.69
441.6	457.69
441.822	494.69
442.043	538.69
442.264	599.69
442.486	606.69
442.707	524.69
442.928	516.69
443.149	485.69
443.371	502.69
443.592	558.69
443.813	636.69
444.034	675.69
444.255	546.69
444.476	489.69
444.698	478.69
444.919	482.69
445.14	606.69
445.361	565.69
445.582	526.69
445.803	575.69
446.024	669.69
446.245	682.69
446.466	616.69
446.687	536.69
446.908	499.69
447.129	475.69
447.35	458.69
447.571	422.69
447.792	439.69
448.013	459.69
448.234	469.69
448.455	534.69
448.675	608.69
448.896	690.69
449.117	598.69
449.338	583.69
449.559	666.69
449.779	740.69
450	603.69
450.221	500.69
450.442	470.69
450.662	447.69
450.883	457.69
451.104	478.69
451.324	450.69
451.545	441.69
451.766	409.69
451.986	415.69
452.207	393.69
452.428	388.69
452.648	403.69
452.869	421.69
453.089	420.69
453.31	414.69
453.53	400.69
453.751	424.69
453.971	414.69
454.192	442.69
454.412	428.69
454.633	402.69
454.853	389.69
455.073	394.69
455.294	442.69
455.514	489.69
455.734	499.69
455.955	411.69
456.175	387.69
456.395	389.69
456.616	372.69
456.836	382.69
457.056	374.69
457.276	375.69
457.497	379.69
457.717	378.69
457.937	371.69
458.157	364.69
458.377	375.69
458.598	398.69
458.818	486.69
459.038	562.69
459.258	558.69
459.478	453.69
459.698	422.69
459.918	426.69
460.138	412.69
460.358	414.69
460.578	402.69
460.798	399.69
461.018	412.69
461.238	422.69
461.458	414.69
461.678	412.69
461.898	410.69
462.118	403.69
462.338	406.69
462.558	440.69
462.777	422.69
462.997	446.69
463.217	438.69
463.437	452.69
463.657	436.69
463.876	434.69
464.096	434.69
464.316	418.69
464.536	467.69
464.755	454.69
464.975	470.69
465.195	509.69
465.414	602.69
465.634	509.69
465.854	452.69
466.073	434.69
466.293	420.69
466.512	414.69
466.732	418.69
466.951	408.69
467.171	406.69
467.391	398.69
467.61	439.69
467.829	442.69
468.049	426.69
468.268	422.69
468.488	409.69
468.707	390.69
468.927	382.69
469.146	390.69
469.365	404.69
469.585	398.69
469.804	404.69
470.023	421.69
470.243	418.69
470.462	408.69
470.681	432.69
470.901	416.69
471.12	414.69
471.339	411.69
471.558	421.69
471.777	426.69
471.997	413.69
472.216	432.69
472.435	467.69
472.654	458.69
472.873	423.69
473.092	433.69
473.311	426.69
473.53	396.69
473.749	434.69
473.968	472.69
474.187	571.69
474.406	583.69
474.625	476.69
474.844	434.69
475.063	404.69
475.282	415.69
475.501	422.69
475.72	439.69
475.939	410.69
476.158	414.69
476.377	415.69
476.596	419.69
476.814	441.69
477.033	447.69
477.252	434.69
477.471	444.69
477.69	447.69
477.908	453.69
478.127	471.69
478.346	466.69
478.564	460.69
478.783	446.69
479.002	448.69
479.22	458.69
479.439	498.69
479.658	502.69
479.876	512.69
480.095	522.69
480.313	522.69
480.532	507.69
480.751	528.69
480.969	536.69
481.188	584.69
481.406	635.69
481.624	557.69
481.843	521.69
482.061	468.69
482.28	482.69
482.498	483.69
482.717	507.69
482.935	493.69
483.153	496.69
483.372	485.69
483.59	501.69
483.808	510.69
484.027	472.69
484.245	469.69
484.463	517.69
484.681	501.69
484.9	517.69
485.118	522.69
485.336	500.69
485.554	512.69
485.772	507.69
485.99	518.69
486.209	495.69
486.427	518.69
486.645	528.69
486.863	547.69
487.081	540.69
487.299	520.69
487.517	528.69
487.735	504.69
487.953	520.69
488.171	513.69
488.389	515.69
488.607	534.69
488.825	517.69
489.043	529.69
489.261	555.69
489.479	518.69
489.696	516.69
489.914	520.69
490.132	546.69
490.35	532.69
490.568	556.69
490.786	560.69
491.003	556.69
491.221	564.69
491.439	579.69
491.657	593.69
491.874	612.69
492.092	601.69
492.31	593.69
492.527	586.69
492.745	599.69
492.963	610.69
493.18	603.69
493.398	595.69
493.615	631.69
493.833	611.69
494.05	620.69
494.268	626.69
494.485	618.69
494.703	624.69
494.92	618.69
495.138	606.69
495.355	597.69
495.573	607.69
495.79	621.69
496.008	612.69
496.225	626.69
496.442	633.69
496.66	608.69
496.877	615.69
497.094	606.69
497.312	642.69
497.529	646.69
497.746	647.69
497.963	636.69
498.181	684.69
498.398	688.69
498.615	660.69
498.832	679.69
499.049	674.69
499.267	674.69
499.484	711.69
499.701	730.69
499.918	712.69
500.135	772.69
500.352	786.69
500.569	772.69
500.786	793.69
501.003	742.69
501.22	756.69
501.437	750.69
501.654	751.69
501.871	763.69
502.088	766.69
502.305	713.69
502.522	668.69
502.739	681.69
502.956	655.69
503.172	652.69
503.389	642.69
503.606	646.69
503.823	629.69
504.04	652.69
504.256	610.69
504.473	615.69
504.69	623.69
504.907	631.69
505.123	621.69
505.34	602.69
505.557	620.69
505.773	616.69
505.99	587.69
506.207	576.69
506.423	587.69
506.64	613.69
506.856	601.69
507.073	597.69
507.289	579.69
507.506	590.69
507.722	595.69
507.939	630.69
508.155	628.69
508.372	575.69
508.588	583.69
508.805	579.69
509.021	559.69
509.238	599.69
509.454	592.69
509.67	604.69
509.887	575.69
510.103	568.69
510.319	607.69
510.536	703.69
510.752	1226.69
510.968	972.69
511.184	624.69
511.401	558.69
511.617	604.69
511.833	560.69
512.049	566.69
512.265	544.69
512.481	547.69
512.698	544.69
512.914	578.69
513.13	559.69
513.346	562.69
513.562	564.69
513.778	566.69
513.994	539.69
514.21	593.69
514.426	590.69
514.642	628.69
514.858	677.69
515.074	717.69
515.29	903.69
515.506	1360.69
515.721	1082.69
515.937	692.69
516.153	647.69
516.369	601.69
516.585	578.69
516.801	568.69
517.016	551.69
517.232	569.69
517.448	542.69
517.664	564.69
517.879	550.69
518.095	550.69
518.311	551.69
518.527	562.69
518.742	557.69
518.958	545.69
519.173	549.69
519.389	555.69
519.605	556.69
519.82	561.69
520.036	588.69
520.251	598.69
520.467	630.69
520.682	615.69
520.898	647.69
521.113	665.69
521.329	717.69
521.544	824.69
521.76	1074.69
521.975	1852.69
522.19	1759.69
522.406	935.69
522.621	670.69
522.836	599.69
523.052	549.69
523.267	521.69
523.482	532.69
523.698	512.69
523.913	514.69
524.128	519.69
524.343	525.69
524.559	462.69
524.774	492.69
524.989	471.69
525.204	506.69
525.419	502.69
525.634	493.69
525.849	481.69
526.064	464.69
526.28	457.69
526.495	461.69
526.71	442.69
526.925	453.69
527.14	453.69
527.355	449.69
527.57	440.69
527.785	424.69
527.999	432.69
528.214	442.69
528.429	453.69
528.644	480.69
528.859	434.69
529.074	448.69
529.289	471.69
529.503	577.69
529.718	535.69
529.933	489.69
530.148	475.69
530.363	461.69
530.577	460.69
530.792	429.69
531.007	431.69
531.221	447.69
531.436	417.69
531.651	424.69
531.865	417.69
532.08	405.69
532.295	436.69
532.509	419.69
532.724	407.69
532.938	413.69
533.153	424.69
533.367	427.69
533.582	427.69
533.796	451.69
534.011	424.69
534.225	396.69
534.44	416.69
534.654	406.69
534.868	406.69
535.083	405.69
535.297	429.69
535.511	418.69
535.726	440.69
535.94	413.69
536.154	420.69
536.369	427.69
536.583	424.69
536.797	438.69
537.011	416.69
537.225	417.69
537.44	404.69
537.654	410.69
537.868	404.69
538.082	411.69
538.296	399.69
538.51	414.69
538.724	410.69
538.938	416.69
539.153	411.69
539.367	393.69
539.581	396.69
539.795	413.69
540.009	403.69
540.222	426.69
540.436	406.69
540.65	405.69
540.864	417.69
541.078	391.69
541.292	411.69
541.506	406.69
541.72	406.69
541.934	387.69
542.147	406.69
542.361	404.69
542.575	410.69
542.789	406.69
543.002	404.69
543.216	379.69
543.43	400.69
543.644	420.69
543.857	401.69
544.071	395.69
544.285	400.69
544.498	388.69
544.712	399.69
544.925	387.69
545.139	385.69
545.352	381.69
545.566	394.69
545.779	385.69
545.993	389.69
546.206	396.69
546.42	394.69
546.633	364.69
546.847	403.69
547.06	366.69
547.274	361.69
547.487	384.69
547.7	367.69
547.914	363.69
548.127	376.69
548.34	386.69
548.554	389.69
548.767	372.69
548.98	374.69
549.193	381.69
549.407	361.69
549.62	384.69
549.833	368.69
550.046	360.69
550.259	366.69
550.473	362.69
550.686	375.69
550.899	348.69
551.112	388.69
551.325	372.69
551.538	358.69
551.751	358.69
551.964	361.69
552.177	357.69
552.39	362.69
552.603	371.69
552.816	380.69
553.029	371.69
553.242	365.69
553.455	357.69
553.667	383.69
553.88	374.69
554.093	368.69
554.306	378.69
554.519	368.69
554.732	377.69
554.944	370.69
555.157	349.69
555.37	336.69
555.583	364.69
555.795	370.69
556.008	348.69
556.221	362.69
556.433	339.69
556.646	335.69
556.859	341.69
557.071	337.69
557.284	348.69
557.496	357.69
557.709	329.69
557.921	319.69
558.134	327.69
558.346	323.69
558.559	340.69
558.771	344.69
558.984	334.69
559.196	327.69
559.409	334.69
559.621	332.69
559.833	339.69
560.046	319.69
560.258	329.69
560.47	319.69
560.683	346.69
560.895	339.69
561.107	331.69
561.32	332.69
561.532	324.69
561.744	312.69
561.956	341.69
562.168	342.69
562.381	331.69
562.593	326.69
562.805	350.69
563.017	333.69
563.229	327.69
563.441	334.69
563.653	341.69
563.865	330.69
564.077	339.69
564.289	332.69
564.501	333.69
564.713	349.69
564.925	336.69
565.137	345.69
565.349	342.69
565.561	357.69
565.773	354.69
565.985	372.69
566.197	354.69
566.408	364.69
566.62	360.69
566.832	381.69
567.044	393.69
567.255	389.69
567.467	378.69
567.679	382.69
567.891	400.69
568.102	379.69
568.314	375.69
568.526	370.69
568.737	376.69
568.949	344.69
569.161	362.69
569.372	325.69
569.584	354.69
569.795	304.69
570.007	346.69
570.218	392.69
570.43	370.69
570.641	348.69
570.853	325.69
571.064	346.69
571.276	313.69
571.487	314.69
571.698	315.69
571.91	303.69
572.121	312.69
572.333	303.69
572.544	308.69
572.755	318.69
572.966	300.69
573.178	310.69
573.389	321.69
573.6	300.69
573.811	312.69
574.023	295.69
574.234	310.69
574.445	301.69
574.656	286.69
574.867	266.69
575.078	285.69
575.289	291.69
575.501	283.69
575.712	277.69
575.923	282.69
576.134	280.69
576.345	294.69
576.556	277.69
576.767	271.69
576.978	298.69
577.188	280.69
577.399	284.69
577.61	286.69
577.821	274.69
578.032	289.69
578.243	330.69
578.454	578.69
578.665	406.69
578.875	297.69
579.086	273.69
579.297	273.69
579.508	270.69
579.718	280.69
579.929	276.69
580.14	263.69
580.35	264.69
580.561	282.69
580.772	250.69
580.982	258.69
581.193	253.69
581.403	249.69
581.614	259.69
581.825	291.69
582.035	268.69
582.246	264.69
582.456	255.69
582.667	271.69
582.877	248.69
583.087	271.69
583.298	255.69
583.508	269.69
583.719	250.69
583.929	246.69
584.139	257.69
584.35	251.69
584.56	264.69
584.77	258.69
584.981	256.69
585.191	261.69
585.401	255.69
585.611	268.69
585.821	233.69
586.032	257.69
586.242	276.69
586.452	264.69
586.662	233.69
586.872	242.69
587.082	273.69
587.292	251.69
587.502	255.69
587.713	262.69
587.923	240.69
588.133	251.69
588.343	256.69
588.553	250.69
588.762	275.69
588.972	267.69
589.182	295.69
589.392	282.69
589.602	245.69
589.812	275.69
590.022	270.69
590.232	262.69
590.441	245.69
590.651	258.69
590.861	255.69
591.071	247.69
591.281	269.69
591.49	240.69
591.7	237.69
591.91	232.69
592.119	238.69
592.329	255.69
592.539	268.69
592.748	276.69
592.958	262.69
593.167	269.69
593.377	262.69
593.587	272.69
593.796	238.69
594.006	234.69
594.215	266.69
594.424	251.69
594.634	253.69
594.843	256.69
595.053	258.69
595.262	251.69
595.472	230.69
595.681	230.69
595.89	245.69
596.1	250.69
596.309	236.69
596.518	235.69
596.727	254.69
596.937	249.69
597.146	246.69
597.355	234.69
597.564	226.69
597.774	232.69
597.983	238.69
598.192	229.69
598.401	238.69
598.61	233.69
598.819	218.69
599.028	246.69
599.237	221.69
599.446	230.69
599.655	234.69
599.864	246.69
600.073	222.69
600.282	231.69
600.491	212.69
600.7	216.69
600.909	227.69
601.118	220.69
601.327	234.69
601.536	228.69
601.745	228.69
601.953	206.69
602.162	229.69
602.371	198.69
602.58	236.69
602.789	217.69
602.997	208.69
603.206	222.69
603.415	225.69
603.623	201.69
603.832	201.69
604.041	218.69
604.249	239.69
604.458	208.69
604.666	211.69
604.875	216.69
605.084	206.69
605.292	223.69
605.501	208.69
605.709	206.69
605.918	215.69
606.126	216.69
606.334	210.69
606.543	218.69
606.751	206.69
606.96	210.69
607.168	219.69
607.376	197.69
607.585	236.69
607.793	217.69
608.001	219.69
608.21	213.69
608.418	212.69
608.626	216.69
608.834	199.69
609.043	210.69
609.251	192.69
609.459	202.69
609.667	215.69
609.875	206.69
610.083	202.69
610.291	208.69
610.499	233.69
610.707	205.69
610.916	207.69
611.124	204.69
611.332	208.69
611.54	230.69
611.748	219.69
611.955	206.69
612.163	192.69
612.371	209.69
612.579	213.69
612.787	212.69
612.995	210.69
613.203	200.69
613.411	223.69
613.618	200.69
613.826	200.69
614.034	208.69
614.242	214.69
614.449	190.69
614.657	190.69
614.865	203.69
615.072	222.69
615.28	205.69
615.488	207.69
615.695	200.69
615.903	215.69
616.111	213.69
616.318	210.69
616.526	220.69
616.733	215.69
616.941	188.69
617.148	200.69
617.356	186.69
617.563	202.69
617.771	206.69
617.978	209.69
618.185	194.69
618.393	199.69
618.6	211.69
618.807	194.69
619.015	192.69
619.222	198.69
619.429	196.69
619.637	191.69
619.844	194.69
620.051	199.69
620.258	196.69
620.466	200.69
620.673	196.69
620.88	200.69
621.087	179.69
621.294	190.69
621.501	186.69
621.708	204.69
621.915	207.69
622.122	194.69
622.329	205.69
622.536	195.69
622.743	179.69
622.95	191.69
623.157	183.69
623.364	201.69
623.571	182.69
623.778	182.69
623.985	185.69
624.192	187.69
624.399	182.69
624.606	185.69
624.812	202.69
625.019	175.69
625.226	184.69
625.433	190.69
625.639	182.69
625.846	188.69
626.053	180.69
626.259	183.69
626.466	169.69
626.673	178.69
626.879	174.69
627.086	184.69
627.293	191.69
627.499	197.69
627.706	180.69
627.912	185.69
628.119	178.69
628.325	186.69
628.532	179.69
628.738	153.69
628.945	182.69
629.151	192.69
629.357	181.69
629.564	180.69
629.77	176.69
629.976	162.69
630.183	171.69
630.389	164.69
630.595	182.69
630.802	175.69
631.008	169.69
631.214	174.69
631.42	183.69
631.627	166.69
631.833	174.69
632.039	164.69
632.245	166.69
632.451	166.69
632.657	158.69
632.863	162.69
633.069	157.69
633.275	171.69
633.481	162.69
633.688	172.69
633.893	168.69
634.099	153.69
634.305	163.69
634.511	157.69
634.717	159.69
634.923	159.69
635.129	166.69
635.335	168.69
635.541	161.69
635.747	150.69
635.952	176.69
636.158	171.69
636.364	182.69
636.57	162.69
636.775	158.69
636.981	154.69
637.187	150.69
637.392	162.69
637.598	167.69
637.804	162.69
638.009	166.69
638.215	158.69
638.421	145.69
638.626	154.69
638.832	165.69
639.037	158.69
639.243	155.69
639.448	158.69
639.654	175.69
639.859	159.69
640.065	137.69
640.27	150.69
640.475	138.69
640.681	141.69
640.886	149.69
641.091	152.69
641.297	163.69
641.502	152.69
641.707	165.69
641.913	162.69
642.118	151.69
642.323	157.69
642.528	167.69
642.733	167.69
642.939	151.69
643.144	164.69
643.349	156.69
643.554	163.69
643.759	150.69
643.964	138.69
644.169	142.69
644.374	139.69
644.579	156.69
644.784	155.69
644.989	151.69
645.194	150.69
645.399	149.69
645.604	145.69
645.809	162.69
646.014	167.69
646.219	156.69
646.423	151.69
646.628	151.69
646.833	147.69
647.038	143.69
647.243	153.69
647.447	153.69
647.652	144.69
647.857	158.69
648.062	152.69
648.266	154.69
648.471	154.69
648.676	165.69
648.88	154.69
649.085	150.69
649.289	148.69
649.494	156.69
649.698	174.69
649.903	150.69
650.107	145.69
650.312	148.69
650.516	143.69
650.721	146.69
650.925	130.69
651.13	135.69
651.334	142.69
651.539	135.69
651.743	130.69
651.947	141.69
652.152	145.69
652.356	131.69
652.56	140.69
652.764	138.69
652.969	145.69
653.173	136.69
653.377	142.69
653.581	133.69
653.785	140.69
653.99	148.69
654.194	134.69
654.398	127.69
654.602	126.69
654.806	145.69
655.01	139.69
655.214	132.69
655.418	121.69
655.622	117.69
655.826	130.69
656.03	129.69
656.234	140.69
656.438	127.69
656.642	116.69
656.846	118.69
657.049	129.69
657.253	116.69
657.457	118.69
657.661	111.69
657.865	126.69
658.068	110.69
658.272	125.69
658.476	112.69
658.68	101.69
658.883	102.69
659.087	101.69
659.291	100.69
659.494	101.69
659.698	94.69
659.901	94.69
660.105	103.69
660.309	100.69
660.512	82.69
660.716	91.69
660.919	101.69
661.123	95.69
661.326	81.69
661.53	81.69
661.733	101.69
661.936	80.69
662.14	87.69
662.343	95.69
662.546	97.69
662.75	82.69
662.953	87.69
663.156	85.69
663.36	72.69
663.563	86.69
663.766	93.69
663.969	98.69
664.173	80.69
664.376	91.69
664.579	72.69
664.782	79.69
664.985	93.69
665.188	61.69
665.391	78.69
665.594	75.69
665.797	82.69
666	76.69
666.203	76.69
666.406	83.69
666.609	75.69
666.812	82.69
667.015	86.69
667.218	94.69
667.421	72.69
667.624	94.69
667.827	75.69
668.03	83.69
668.232	80.69
668.435	79.69
668.638	75.69
668.841	80.69
669.043	77.69
669.246	63.69
669.449	79.69
669.651	77.69
669.854	81.69
670.057	73.69
670.259	70.69
670.462	91.69
670.665	100.69
670.867	85.69
671.07	80.69
671.272	74.69
671.475	99.69
671.677	84.69
671.88	88.69
672.082	98.69
672.284	78.69
672.487	92.69
672.689	78.69
672.892	80.69
