Data from 1965.PennyLincolnUp.Lamp.En5.5.200Scan.071719.P1._HRD10591_14-10-29-912.txt Node
Date: Thu Jul 18 14:10:29 EDT 2019
User: cochatt
Spectrometer: HR+D1059
Trigger mode: 1
Integration Time (sec): 1.000000E-1
Scans to average: 1
Electric dark correction enabled: true
Nonlinearity correction enabled: false
Boxcar width: 0
XAxis mode: Wavelengths
Number of Pixels in Spectrum: 2048
>>>>>Begin Spectral Data<<<<<
223.165	-21.12
223.4	-21.12
223.635	-21.12
223.869	-18.12
224.104	-25.12
224.338	-19.12
224.573	-9.12
224.808	-1.12
225.042	-4.12
225.277	-7.12
225.511	-3.12
225.746	2.88
225.98	13.88
226.215	9.88
226.449	21.88
226.683	15.88
226.918	16.88
227.152	26.88
227.387	40.88
227.621	40.88
227.856	36.88
228.09	59.88
228.324	48.88
228.559	52.88
228.793	59.88
229.027	97.88
229.262	94.88
229.496	111.88
229.73	123.88
229.964	141.88
230.199	123.88
230.433	108.88
230.667	101.88
230.901	132.88
231.136	111.88
231.37	113.88
231.604	92.88
231.838	112.88
232.072	125.88
232.306	108.88
232.541	122.88
232.775	112.88
233.009	103.88
233.243	114.88
233.477	118.88
233.711	112.88
233.945	110.88
234.179	105.88
234.413	106.88
234.647	114.88
234.881	129.88
235.115	117.88
235.349	114.88
235.583	126.88
235.817	111.88
236.051	109.88
236.285	122.88
236.519	132.88
236.753	137.88
236.987	139.88
237.221	180.88
237.455	226.88
237.689	174.88
237.922	139.88
238.156	146.88
238.39	124.88
238.624	116.88
238.858	107.88
239.091	113.88
239.325	117.88
239.559	118.88
239.793	130.88
240.027	129.88
240.26	133.88
240.494	146.88
240.728	134.88
240.961	160.88
241.195	127.88
241.429	128.88
241.662	129.88
241.896	127.88
242.13	130.88
242.363	134.88
242.597	134.88
242.83	116.88
243.064	140.88
243.298	135.88
243.531	134.88
243.765	124.88
243.998	122.88
244.232	135.88
244.465	140.88
244.699	126.88
244.932	141.88
245.166	139.88
245.399	137.88
245.633	134.88
245.866	153.88
246.099	141.88
246.333	145.88
246.566	150.88
246.8	138.88
247.033	138.88
247.266	149.88
247.5	139.88
247.733	162.88
247.966	156.88
248.2	158.88
248.433	161.88
248.666	167.88
248.899	168.88
249.133	181.88
249.366	186.88
249.599	182.88
249.832	179.88
250.066	167.88
250.299	176.88
250.532	168.88
250.765	197.88
250.998	206.88
251.231	205.88
251.465	193.88
251.698	190.88
251.931	171.88
252.164	167.88
252.397	176.88
252.63	193.88
252.863	185.88
253.096	193.88
253.329	209.88
253.562	200.88
253.795	195.88
254.028	207.88
254.261	197.88
254.494	219.88
254.727	243.88
254.96	267.88
255.193	252.88
255.426	230.88
255.659	216.88
255.892	211.88
256.124	223.88
256.357	238.88
256.59	214.88
256.823	205.88
257.056	189.88
257.289	181.88
257.521	184.88
257.754	192.88
257.987	198.88
258.22	200.88
258.452	192.88
258.685	197.88
258.918	207.88
259.151	201.88
259.383	189.88
259.616	199.88
259.849	200.88
260.081	207.88
260.314	238.88
260.547	252.88
260.779	226.88
261.012	226.88
261.244	207.88
261.477	210.88
261.71	206.88
261.942	203.88
262.175	205.88
262.407	198.88
262.64	204.88
262.872	184.88
263.105	204.88
263.337	205.88
263.57	189.88
263.802	203.88
264.035	185.88
264.267	195.88
264.499	185.88
264.732	207.88
264.964	199.88
265.197	200.88
265.429	199.88
265.661	186.88
265.894	188.88
266.126	212.88
266.358	219.88
266.591	176.88
266.823	200.88
267.055	209.88
267.287	192.88
267.52	215.88
267.752	211.88
267.984	203.88
268.216	194.88
268.448	208.88
268.681	198.88
268.913	205.88
269.145	247.88
269.377	262.88
269.609	221.88
269.841	244.88
270.073	256.88
270.306	273.88
270.538	294.88
270.77	271.88
271.002	287.88
271.234	262.88
271.466	284.88
271.698	289.88
271.93	288.88
272.162	288.88
272.394	281.88
272.626	278.88
272.858	255.88
273.09	254.88
273.322	232.88
273.553	250.88
273.785	230.88
274.017	239.88
274.249	252.88
274.481	242.88
274.713	253.88
274.945	250.88
275.176	246.88
275.408	240.88
275.64	220.88
275.872	240.88
276.104	236.88
276.335	241.88
276.567	253.88
276.799	257.88
277.031	277.88
277.262	296.88
277.494	290.88
277.726	288.88
277.957	278.88
278.189	254.88
278.421	223.88
278.652	260.88
278.884	263.88
279.115	245.88
279.347	247.88
279.579	248.88
279.81	230.88
280.042	215.88
280.273	228.88
280.505	234.88
280.736	244.88
280.968	249.88
281.199	233.88
281.431	230.88
281.662	240.88
281.894	228.88
282.125	247.88
282.356	268.88
282.588	271.88
282.819	270.88
283.051	259.88
283.282	246.88
283.513	250.88
283.745	260.88
283.976	248.88
284.207	247.88
284.439	260.88
284.67	248.88
284.901	241.88
285.132	233.88
285.364	227.88
285.595	248.88
285.826	233.88
286.057	233.88
286.288	269.88
286.52	260.88
286.751	235.88
286.982	242.88
287.213	251.88
287.444	262.88
287.675	257.88
287.906	262.88
288.138	280.88
288.369	258.88
288.6	272.88
288.831	266.88
289.062	272.88
289.293	261.88
289.524	249.88
289.755	252.88
289.986	255.88
290.217	264.88
290.448	256.88
290.679	241.88
290.91	253.88
291.141	259.88
291.371	250.88
291.602	252.88
291.833	244.88
292.064	243.88
292.295	250.88
292.526	248.88
292.757	255.88
292.987	248.88
293.218	254.88
293.449	278.88
293.68	261.88
293.91	254.88
294.141	270.88
294.372	260.88
294.603	280.88
294.833	269.88
295.064	265.88
295.295	252.88
295.525	268.88
295.756	288.88
295.987	280.88
296.217	299.88
296.448	292.88
296.679	278.88
296.909	271.88
297.14	231.88
297.37	265.88
297.601	275.88
297.831	275.88
298.062	263.88
298.292	265.88
298.523	275.88
298.753	264.88
298.984	273.88
299.214	273.88
299.445	286.88
299.675	274.88
299.905	273.88
300.136	269.88
300.366	278.88
300.597	283.88
300.827	273.88
301.057	293.88
301.288	303.88
301.518	275.88
301.748	275.88
301.979	285.88
302.209	282.88
302.439	289.88
302.669	300.88
302.9	278.88
303.13	278.88
303.36	305.88
303.59	295.88
303.82	309.88
304.051	291.88
304.281	311.88
304.511	292.88
304.741	296.88
304.971	297.88
305.201	309.88
305.431	302.88
305.661	301.88
305.891	281.88
306.121	272.88
306.352	301.88
306.582	298.88
306.812	303.88
307.042	281.88
307.272	299.88
307.502	310.88
307.731	293.88
307.961	287.88
308.191	314.88
308.421	320.88
308.651	299.88
308.881	318.88
309.111	301.88
309.341	308.88
309.571	301.88
309.8	304.88
310.03	321.88
310.26	337.88
310.49	359.88
310.72	355.88
310.949	346.88
311.179	375.88
311.409	346.88
311.639	333.88
311.868	349.88
312.098	338.88
312.328	359.88
312.557	353.88
312.787	369.88
313.017	357.88
313.246	350.88
313.476	360.88
313.706	358.88
313.935	342.88
314.165	348.88
314.394	380.88
314.624	356.88
314.853	358.88
315.083	343.88
315.312	344.88
315.542	324.88
315.771	325.88
316.001	337.88
316.23	354.88
316.46	316.88
316.689	324.88
316.919	335.88
317.148	335.88
317.377	372.88
317.607	359.88
317.836	354.88
318.065	342.88
318.295	335.88
318.524	332.88
318.753	350.88
318.983	343.88
319.212	341.88
319.441	344.88
319.67	358.88
319.9	347.88
320.129	333.88
320.358	359.88
320.587	335.88
320.816	354.88
321.046	352.88
321.275	370.88
321.504	367.88
321.733	361.88
321.962	377.88
322.191	368.88
322.42	385.88
322.649	413.88
322.878	429.88
323.108	439.88
323.337	464.88
323.566	488.88
323.795	489.88
324.024	561.88
324.253	716.88
324.482	1032.88
324.71	1576.88
324.939	2167.88
325.168	1784.88
325.397	981.88
325.626	662.88
325.855	557.88
326.084	495.88
326.313	485.88
326.542	493.88
326.77	532.88
326.999	667.88
327.228	948.88
327.457	1384.88
327.686	1626.88
327.914	1072.88
328.143	713.88
328.372	623.88
328.6	584.88
328.829	561.88
329.058	556.88
329.287	588.88
329.515	536.88
329.744	474.88
329.972	492.88
330.201	524.88
330.43	559.88
330.658	588.88
330.887	589.88
331.115	599.88
331.344	498.88
331.572	456.88
331.801	461.88
332.03	449.88
332.258	437.88
332.486	415.88
332.715	412.88
332.943	417.88
333.172	408.88
333.4	410.88
333.629	401.88
333.857	431.88
334.085	448.88
334.314	452.88
334.542	488.88
334.771	537.88
334.999	450.88
335.227	412.88
335.455	411.88
335.684	397.88
335.912	398.88
336.14	416.88
336.369	406.88
336.597	417.88
336.825	406.88
337.053	381.88
337.281	394.88
337.51	394.88
337.738	395.88
337.966	398.88
338.194	399.88
338.422	391.88
338.65	388.88
338.878	391.88
339.106	378.88
339.334	382.88
339.562	386.88
339.79	377.88
340.018	381.88
340.246	406.88
340.474	383.88
340.702	403.88
340.93	369.88
341.158	382.88
341.386	393.88
341.614	376.88
341.842	401.88
342.07	356.88
342.298	356.88
342.526	369.88
342.754	367.88
342.981	376.88
343.209	380.88
343.437	380.88
343.665	386.88
343.893	385.88
344.12	408.88
344.348	379.88
344.576	383.88
344.804	389.88
345.031	410.88
345.259	398.88
345.487	395.88
345.714	411.88
345.942	385.88
346.17	369.88
346.397	373.88
346.625	386.88
346.853	370.88
347.08	383.88
347.308	392.88
347.535	381.88
347.763	400.88
347.99	421.88
348.218	404.88
348.445	392.88
348.673	383.88
348.9	382.88
349.128	387.88
349.355	377.88
349.583	373.88
349.81	364.88
350.037	340.88
350.265	366.88
350.492	359.88
350.72	357.88
350.947	363.88
351.174	397.88
351.402	400.88
351.629	385.88
351.856	392.88
352.083	389.88
352.311	394.88
352.538	393.88
352.765	407.88
352.992	407.88
353.22	397.88
353.447	369.88
353.674	374.88
353.901	354.88
354.128	346.88
354.355	343.88
354.583	361.88
354.81	364.88
355.037	349.88
355.264	315.88
355.491	340.88
355.718	347.88
355.945	338.88
356.172	343.88
356.399	358.88
356.626	340.88
356.853	356.88
357.08	330.88
357.307	340.88
357.534	352.88
357.761	341.88
357.988	356.88
358.215	344.88
358.441	332.88
358.668	344.88
358.895	360.88
359.122	363.88
359.349	358.88
359.576	376.88
359.802	410.88
360.029	427.88
360.256	450.88
360.483	408.88
360.709	391.88
360.936	369.88
361.163	372.88
361.39	380.88
361.616	383.88
361.843	377.88
362.07	374.88
362.296	384.88
362.523	378.88
362.749	373.88
362.976	379.88
363.203	361.88
363.429	344.88
363.656	357.88
363.882	362.88
364.109	358.88
364.335	369.88
364.562	338.88
364.788	372.88
365.015	359.88
365.241	359.88
365.468	368.88
365.694	358.88
365.92	365.88
366.147	366.88
366.373	361.88
366.599	344.88
366.826	342.88
367.052	343.88
367.278	333.88
367.505	347.88
367.731	370.88
367.957	371.88
368.184	335.88
368.41	372.88
368.636	362.88
368.862	375.88
369.089	340.88
369.315	329.88
369.541	340.88
369.767	342.88
369.993	345.88
370.219	357.88
370.445	381.88
370.672	345.88
370.898	361.88
371.124	345.88
371.35	335.88
371.576	345.88
371.802	340.88
372.028	352.88
372.254	347.88
372.48	352.88
372.706	336.88
372.932	361.88
373.158	342.88
373.384	336.88
373.61	319.88
373.835	338.88
374.061	346.88
374.287	344.88
374.513	348.88
374.739	336.88
374.965	355.88
375.191	346.88
375.416	340.88
375.642	344.88
375.868	342.88
376.094	346.88
376.319	348.88
376.545	349.88
376.771	352.88
376.997	344.88
377.222	348.88
377.448	345.88
377.674	347.88
377.899	328.88
378.125	334.88
378.35	341.88
378.576	328.88
378.802	366.88
379.027	334.88
379.253	338.88
379.478	329.88
379.704	328.88
379.929	354.88
380.155	352.88
380.38	342.88
380.606	385.88
380.831	348.88
381.057	347.88
381.282	341.88
381.507	344.88
381.733	350.88
381.958	352.88
382.184	344.88
382.409	355.88
382.634	357.88
382.86	369.88
383.085	354.88
383.31	352.88
383.535	355.88
383.761	342.88
383.986	352.88
384.211	378.88
384.436	357.88
384.662	361.88
384.887	355.88
385.112	362.88
385.337	339.88
385.562	361.88
385.787	393.88
386.013	382.88
386.238	368.88
386.463	398.88
386.688	378.88
386.913	370.88
387.138	378.88
387.363	378.88
387.588	377.88
387.813	377.88
388.038	357.88
388.263	360.88
388.488	368.88
388.713	378.88
388.938	377.88
389.163	375.88
389.387	375.88
389.612	374.88
389.837	366.88
390.062	367.88
390.287	370.88
390.512	352.88
390.736	358.88
390.961	364.88
391.186	355.88
391.411	355.88
391.636	373.88
391.86	360.88
392.085	373.88
392.31	362.88
392.534	384.88
392.759	390.88
392.984	366.88
393.208	374.88
393.433	367.88
393.658	374.88
393.882	390.88
394.107	365.88
394.331	386.88
394.556	369.88
394.78	380.88
395.005	388.88
395.229	365.88
395.454	384.88
395.678	373.88
395.903	377.88
396.127	410.88
396.352	399.88
396.576	396.88
396.801	365.88
397.025	382.88
397.249	388.88
397.474	390.88
397.698	376.88
397.922	398.88
398.147	400.88
398.371	403.88
398.595	391.88
398.82	418.88
399.044	406.88
399.268	416.88
399.492	441.88
399.717	437.88
399.941	454.88
400.165	476.88
400.389	485.88
400.613	476.88
400.837	436.88
401.062	437.88
401.286	420.88
401.51	408.88
401.734	421.88
401.958	425.88
402.182	430.88
402.406	421.88
402.63	427.88
402.854	431.88
403.078	437.88
403.302	429.88
403.526	427.88
403.75	425.88
403.974	427.88
404.198	434.88
404.422	446.88
404.645	440.88
404.869	452.88
405.093	456.88
405.317	520.88
405.541	533.88
405.765	491.88
405.988	466.88
406.212	449.88
406.436	478.88
406.66	503.88
406.883	462.88
407.107	484.88
407.331	527.88
407.555	572.88
407.778	551.88
408.002	508.88
408.226	493.88
408.449	473.88
408.673	464.88
408.896	517.88
409.12	543.88
409.344	512.88
409.567	470.88
409.791	459.88
410.014	423.88
410.238	431.88
410.461	461.88
410.685	423.88
410.908	442.88
411.132	493.88
411.355	526.88
411.578	471.88
411.802	452.88
412.025	442.88
412.249	423.88
412.472	453.88
412.695	471.88
412.919	479.88
413.142	458.88
413.365	438.88
413.589	438.88
413.812	405.88
414.035	397.88
414.258	418.88
414.482	408.88
414.705	402.88
414.928	424.88
415.151	399.88
415.374	413.88
415.597	406.88
415.821	400.88
416.044	410.88
416.267	421.88
416.49	433.88
416.713	406.88
416.936	397.88
417.159	423.88
417.382	421.88
417.605	412.88
417.828	421.88
418.051	425.88
418.274	444.88
418.497	404.88
418.72	424.88
418.943	416.88
419.166	418.88
419.389	410.88
419.611	421.88
419.834	411.88
420.057	437.88
420.28	438.88
420.503	444.88
420.726	453.88
420.948	451.88
421.171	467.88
421.394	500.88
421.617	456.88
421.839	439.88
422.062	445.88
422.285	444.88
422.507	494.88
422.73	572.88
422.953	558.88
423.175	463.88
423.398	448.88
423.621	454.88
423.843	470.88
424.066	474.88
424.288	455.88
424.511	462.88
424.733	550.88
424.956	584.88
425.178	569.88
425.401	592.88
425.623	596.88
425.846	495.88
426.068	485.88
426.291	465.88
426.513	476.88
426.735	501.88
426.958	513.88
427.18	573.88
427.402	706.88
427.625	788.88
427.847	702.88
428.069	601.88
428.292	528.88
428.514	476.88
428.736	472.88
428.958	465.88
429.181	446.88
429.403	425.88
429.625	456.88
429.847	471.88
430.069	532.88
430.292	526.88
430.514	463.88
430.736	454.88
430.958	429.88
431.18	409.88
431.402	429.88
431.624	408.88
431.846	430.88
432.068	395.88
432.29	414.88
432.512	417.88
432.734	410.88
432.956	409.88
433.178	416.88
433.4	436.88
433.622	415.88
433.844	422.88
434.066	406.88
434.287	423.88
434.509	415.88
434.731	411.88
434.953	453.88
435.175	434.88
435.397	485.88
435.618	468.88
435.84	521.88
436.062	614.88
436.284	644.88
436.505	533.88
436.727	498.88
436.949	444.88
437.17	473.88
437.392	435.88
437.614	428.88
437.835	496.88
438.057	578.88
438.278	654.88
438.5	653.88
438.721	713.88
438.943	672.88
439.165	538.88
439.386	519.88
439.608	515.88
439.829	495.88
440.05	507.88
440.272	554.88
440.493	531.88
440.715	484.88
440.936	464.88
441.158	456.88
441.379	471.88
441.6	467.88
441.822	472.88
442.043	521.88
442.264	578.88
442.486	628.88
442.707	520.88
442.928	490.88
443.149	526.88
443.371	523.88
443.592	568.88
443.813	617.88
444.034	670.88
444.255	550.88
444.476	483.88
444.698	488.88
444.919	470.88
445.14	562.88
445.361	538.88
445.582	516.88
445.803	591.88
446.024	680.88
446.245	690.88
446.466	614.88
446.687	534.88
446.908	512.88
447.129	477.88
447.35	468.88
447.571	473.88
447.792	460.88
448.013	463.88
448.234	478.88
448.455	533.88
448.675	620.88
448.896	685.88
449.117	614.88
449.338	591.88
449.559	652.88
449.779	722.88
450	593.88
450.221	508.88
450.442	465.88
450.662	451.88
450.883	461.88
451.104	474.88
451.324	471.88
451.545	437.88
451.766	428.88
451.986	406.88
452.207	407.88
452.428	394.88
452.648	415.88
452.869	410.88
453.089	402.88
453.31	400.88
453.53	421.88
453.751	401.88
453.971	425.88
454.192	431.88
454.412	423.88
454.633	386.88
454.853	394.88
455.073	376.88
455.294	452.88
455.514	469.88
455.734	455.88
455.955	397.88
456.175	391.88
456.395	384.88
456.616	376.88
456.836	372.88
457.056	386.88
457.276	358.88
457.497	376.88
457.717	358.88
457.937	379.88
458.157	382.88
458.377	394.88
458.598	440.88
458.818	502.88
459.038	568.88
459.258	564.88
459.478	487.88
459.698	453.88
459.918	406.88
460.138	436.88
460.358	413.88
460.578	401.88
460.798	423.88
461.018	420.88
461.238	403.88
461.458	423.88
461.678	405.88
461.898	424.88
462.118	413.88
462.338	424.88
462.558	419.88
462.777	420.88
462.997	416.88
463.217	444.88
463.437	451.88
463.657	453.88
463.876	434.88
464.096	435.88
464.316	439.88
464.536	463.88
464.755	464.88
464.975	444.88
465.195	513.88
465.414	575.88
465.634	504.88
465.854	464.88
466.073	454.88
466.293	431.88
466.512	429.88
466.732	412.88
466.951	408.88
467.171	410.88
467.391	420.88
467.61	433.88
467.829	432.88
468.049	426.88
468.268	424.88
468.488	401.88
468.707	420.88
468.927	400.88
469.146	393.88
469.365	382.88
469.585	380.88
469.804	390.88
470.023	412.88
470.243	425.88
470.462	429.88
470.681	436.88
470.901	431.88
471.12	402.88
471.339	410.88
471.558	430.88
471.777	407.88
471.997	410.88
472.216	417.88
472.435	441.88
472.654	448.88
472.873	427.88
473.092	420.88
473.311	425.88
473.53	418.88
473.749	424.88
473.968	471.88
474.187	550.88
474.406	564.88
474.625	471.88
474.844	422.88
475.063	430.88
475.282	428.88
475.501	416.88
475.72	413.88
475.939	430.88
476.158	438.88
476.377	440.88
476.596	409.88
476.814	406.88
477.033	464.88
477.252	428.88
477.471	428.88
477.69	446.88
477.908	449.88
478.127	443.88
478.346	441.88
478.564	433.88
478.783	440.88
479.002	460.88
479.22	463.88
479.439	479.88
479.658	495.88
479.876	507.88
480.095	503.88
480.313	531.88
480.532	504.88
480.751	505.88
480.969	531.88
481.188	605.88
481.406	631.88
481.624	546.88
481.843	528.88
482.061	498.88
482.28	488.88
482.498	496.88
482.717	496.88
482.935	492.88
483.153	482.88
483.372	490.88
483.59	479.88
483.808	500.88
484.027	500.88
484.245	472.88
484.463	473.88
484.681	496.88
484.9	484.88
485.118	462.88
485.336	509.88
485.554	494.88
485.772	522.88
485.99	501.88
486.209	479.88
486.427	503.88
486.645	516.88
486.863	525.88
487.081	504.88
487.299	543.88
487.517	528.88
487.735	517.88
487.953	506.88
488.171	528.88
488.389	516.88
488.607	542.88
488.825	528.88
489.043	544.88
489.261	524.88
489.479	541.88
489.696	542.88
489.914	553.88
490.132	554.88
490.35	531.88
490.568	559.88
490.786	555.88
491.003	567.88
491.221	566.88
491.439	581.88
491.657	594.88
491.874	569.88
492.092	585.88
492.31	596.88
492.527	612.88
492.745	623.88
492.963	612.88
493.18	609.88
493.398	629.88
493.615	609.88
493.833	604.88
494.05	631.88
494.268	618.88
494.485	622.88
494.703	605.88
494.92	620.88
495.138	612.88
495.355	628.88
495.573	628.88
495.79	610.88
496.008	646.88
496.225	638.88
496.442	619.88
496.66	636.88
496.877	626.88
497.094	621.88
497.312	630.88
497.529	640.88
497.746	644.88
497.963	650.88
498.181	657.88
498.398	658.88
498.615	665.88
498.832	664.88
499.049	655.88
499.267	697.88
499.484	712.88
499.701	727.88
499.918	728.88
500.135	772.88
500.352	800.88
500.569	764.88
500.786	770.88
501.003	797.88
501.22	760.88
501.437	780.88
501.654	761.88
501.871	754.88
502.088	761.88
502.305	708.88
502.522	696.88
502.739	692.88
502.956	650.88
503.172	654.88
503.389	651.88
503.606	651.88
503.823	662.88
504.04	626.88
504.256	604.88
504.473	595.88
504.69	588.88
504.907	605.88
505.123	620.88
505.34	600.88
505.557	604.88
505.773	602.88
505.99	609.88
506.207	595.88
506.423	602.88
506.64	585.88
506.856	594.88
507.073	586.88
507.289	588.88
507.506	577.88
507.722	599.88
507.939	623.88
508.155	602.88
508.372	586.88
508.588	576.88
508.805	568.88
509.021	561.88
509.238	587.88
509.454	591.88
509.67	574.88
509.887	576.88
510.103	583.88
510.319	597.88
510.536	720.88
510.752	1214.88
510.968	995.88
511.184	604.88
511.401	583.88
511.617	533.88
511.833	577.88
512.049	558.88
512.265	532.88
512.481	543.88
512.698	538.88
512.914	552.88
513.13	559.88
513.346	536.88
513.562	560.88
513.778	550.88
513.994	576.88
514.21	570.88
514.426	560.88
514.642	638.88
514.858	694.88
515.074	730.88
515.29	888.88
515.506	1324.88
515.721	1064.88
515.937	680.88
516.153	659.88
516.369	603.88
516.585	589.88
516.801	547.88
517.016	565.88
517.232	559.88
517.448	551.88
517.664	572.88
517.879	551.88
518.095	542.88
518.311	518.88
518.527	558.88
518.742	546.88
518.958	551.88
519.173	544.88
519.389	525.88
519.605	546.88
519.82	556.88
520.036	588.88
520.251	616.88
520.467	638.88
520.682	623.88
520.898	617.88
521.113	653.88
521.329	722.88
521.544	821.88
521.76	1051.88
521.975	1798.88
522.19	1761.88
522.406	910.88
522.621	676.88
522.836	582.88
523.052	556.88
523.267	539.88
523.482	527.88
523.698	509.88
523.913	518.88
524.128	510.88
524.343	510.88
524.559	486.88
524.774	480.88
524.989	460.88
525.204	479.88
525.419	488.88
525.634	458.88
525.849	443.88
526.064	473.88
526.28	467.88
526.495	468.88
526.71	456.88
526.925	438.88
527.14	447.88
527.355	464.88
527.57	439.88
527.785	453.88
527.999	446.88
528.214	442.88
528.429	434.88
528.644	438.88
528.859	441.88
529.074	447.88
529.289	466.88
529.503	581.88
529.718	529.88
529.933	463.88
530.148	474.88
530.363	455.88
530.577	423.88
530.792	445.88
531.007	437.88
531.221	449.88
531.436	428.88
531.651	433.88
531.865	410.88
532.08	425.88
532.295	453.88
532.509	429.88
532.724	433.88
532.938	450.88
533.153	427.88
533.367	414.88
533.582	422.88
533.796	405.88
534.011	409.88
534.225	443.88
534.44	421.88
534.654	400.88
534.868	413.88
535.083	408.88
535.297	408.88
535.511	442.88
535.726	433.88
535.94	438.88
536.154	438.88
536.369	415.88
536.583	403.88
536.797	403.88
537.011	396.88
537.225	404.88
537.44	395.88
537.654	409.88
537.868	396.88
538.082	406.88
538.296	408.88
538.51	392.88
538.724	408.88
538.938	406.88
539.153	405.88
539.367	415.88
539.581	426.88
539.795	408.88
540.009	390.88
540.222	395.88
540.436	398.88
540.65	429.88
540.864	402.88
541.078	418.88
541.292	426.88
541.506	410.88
541.72	425.88
541.934	413.88
542.147	402.88
542.361	376.88
542.575	398.88
542.789	386.88
543.002	401.88
543.216	421.88
543.43	411.88
543.644	398.88
543.857	398.88
544.071	400.88
544.285	421.88
544.498	398.88
544.712	399.88
544.925	383.88
545.139	388.88
545.352	384.88
545.566	382.88
545.779	361.88
545.993	390.88
546.206	390.88
546.42	387.88
546.633	384.88
546.847	376.88
547.06	384.88
547.274	355.88
547.487	392.88
547.7	382.88
547.914	388.88
548.127	380.88
548.34	379.88
548.554	373.88
548.767	391.88
548.98	380.88
549.193	373.88
549.407	367.88
549.62	372.88
549.833	364.88
550.046	365.88
550.259	361.88
550.473	363.88
550.686	353.88
550.899	364.88
551.112	351.88
551.325	358.88
551.538	361.88
551.751	381.88
551.964	374.88
552.177	365.88
552.39	380.88
552.603	377.88
552.816	357.88
553.029	376.88
553.242	366.88
553.455	374.88
553.667	393.88
553.88	370.88
554.093	380.88
554.306	395.88
554.519	393.88
554.732	376.88
554.944	356.88
555.157	369.88
555.37	378.88
555.583	346.88
555.795	356.88
556.008	345.88
556.221	355.88
556.433	348.88
556.646	356.88
556.859	324.88
557.071	335.88
557.284	343.88
557.496	347.88
557.709	356.88
557.921	343.88
558.134	326.88
558.346	346.88
558.559	329.88
558.771	329.88
558.984	336.88
559.196	328.88
559.409	316.88
559.621	344.88
559.833	335.88
560.046	336.88
560.258	339.88
560.47	325.88
560.683	335.88
560.895	340.88
561.107	321.88
561.32	329.88
561.532	314.88
561.744	340.88
561.956	328.88
562.168	325.88
562.381	346.88
562.593	336.88
562.805	348.88
563.017	334.88
563.229	329.88
563.441	324.88
563.653	333.88
563.865	338.88
564.077	336.88
564.289	343.88
564.501	320.88
564.713	330.88
564.925	326.88
565.137	362.88
565.349	360.88
565.561	361.88
565.773	344.88
565.985	368.88
566.197	378.88
566.408	376.88
566.62	373.88
566.832	373.88
567.044	361.88
567.255	366.88
567.467	407.88
567.679	374.88
567.891	385.88
568.102	383.88
568.314	358.88
568.526	348.88
568.737	345.88
568.949	349.88
569.161	328.88
569.372	335.88
569.584	322.88
569.795	337.88
570.007	350.88
570.218	400.88
570.43	363.88
570.641	325.88
570.853	330.88
571.064	330.88
571.276	325.88
571.487	319.88
571.698	309.88
571.91	315.88
572.121	312.88
572.333	295.88
572.544	292.88
572.755	287.88
572.966	299.88
573.178	289.88
573.389	303.88
573.6	292.88
573.811	304.88
574.023	318.88
574.234	292.88
574.445	283.88
574.656	310.88
574.867	261.88
575.078	286.88
575.289	292.88
575.501	284.88
575.712	289.88
575.923	295.88
576.134	300.88
576.345	282.88
576.556	296.88
576.767	274.88
576.978	280.88
577.188	295.88
577.399	289.88
577.61	275.88
577.821	279.88
578.032	293.88
578.243	329.88
578.454	584.88
578.665	401.88
578.875	317.88
579.086	278.88
579.297	291.88
579.508	274.88
579.718	264.88
579.929	276.88
580.14	272.88
580.35	262.88
580.561	255.88
580.772	280.88
580.982	270.88
581.193	271.88
581.403	253.88
581.614	282.88
581.825	276.88
582.035	241.88
582.246	254.88
582.456	252.88
582.667	269.88
582.877	246.88
583.087	248.88
583.298	250.88
583.508	275.88
583.719	276.88
583.929	286.88
584.139	269.88
584.35	269.88
584.56	281.88
584.77	271.88
584.981	246.88
585.191	261.88
585.401	269.88
585.611	248.88
585.821	258.88
586.032	267.88
586.242	266.88
586.452	261.88
586.662	264.88
586.872	254.88
587.082	236.88
587.292	250.88
587.502	249.88
587.713	245.88
587.923	248.88
588.133	258.88
588.343	276.88
588.553	250.88
588.762	261.88
588.972	235.88
589.182	283.88
589.392	294.88
589.602	249.88
589.812	287.88
590.022	258.88
590.232	241.88
590.441	241.88
590.651	270.88
590.861	254.88
591.071	262.88
591.281	246.88
591.49	244.88
591.7	237.88
591.91	247.88
592.119	244.88
592.329	250.88
592.539	275.88
592.748	258.88
592.958	260.88
593.167	242.88
593.377	264.88
593.587	270.88
593.796	268.88
594.006	268.88
594.215	259.88
594.424	262.88
594.634	251.88
594.843	262.88
595.053	251.88
595.262	258.88
595.472	234.88
595.681	238.88
595.89	238.88
596.1	234.88
596.309	237.88
596.518	246.88
596.727	247.88
596.937	248.88
597.146	220.88
597.355	233.88
597.564	229.88
597.774	241.88
597.983	239.88
598.192	217.88
598.401	220.88
598.61	221.88
598.819	227.88
599.028	226.88
599.237	229.88
599.446	235.88
599.655	213.88
599.864	235.88
600.073	222.88
600.282	209.88
600.491	249.88
600.7	233.88
600.909	228.88
601.118	218.88
601.327	229.88
601.536	218.88
601.745	204.88
601.953	221.88
602.162	216.88
602.371	214.88
602.58	235.88
602.789	220.88
602.997	230.88
603.206	225.88
603.415	225.88
603.623	213.88
603.832	209.88
604.041	225.88
604.249	214.88
604.458	208.88
604.666	215.88
604.875	225.88
605.084	210.88
605.292	215.88
605.501	198.88
605.709	212.88
605.918	211.88
606.126	206.88
606.334	213.88
606.543	220.88
606.751	206.88
606.96	224.88
607.168	210.88
607.376	204.88
607.585	202.88
607.793	209.88
608.001	203.88
608.21	200.88
608.418	220.88
608.626	209.88
608.834	207.88
609.043	200.88
609.251	189.88
609.459	203.88
609.667	202.88
609.875	202.88
610.083	209.88
610.291	223.88
610.499	205.88
610.707	218.88
610.916	217.88
611.124	222.88
611.332	223.88
611.54	219.88
611.748	210.88
611.955	201.88
612.163	208.88
612.371	198.88
612.579	206.88
612.787	203.88
612.995	207.88
613.203	208.88
613.411	201.88
613.618	200.88
613.826	219.88
614.034	212.88
614.242	196.88
614.449	191.88
614.657	207.88
614.865	193.88
615.072	198.88
615.28	204.88
615.488	190.88
615.695	204.88
615.903	190.88
616.111	205.88
616.318	202.88
616.526	213.88
616.733	197.88
616.941	194.88
617.148	191.88
617.356	201.88
617.563	195.88
617.771	203.88
617.978	187.88
618.185	205.88
618.393	209.88
618.6	188.88
618.807	186.88
619.015	201.88
619.222	212.88
619.429	190.88
619.637	193.88
619.844	190.88
620.051	210.88
620.258	200.88
620.466	202.88
620.673	193.88
620.88	192.88
621.087	194.88
621.294	189.88
621.501	194.88
621.708	187.88
621.915	205.88
622.122	197.88
622.329	197.88
622.536	207.88
622.743	182.88
622.95	199.88
623.157	182.88
623.364	196.88
623.571	190.88
623.778	205.88
623.985	192.88
624.192	194.88
624.399	184.88
624.606	185.88
624.812	182.88
625.019	171.88
625.226	170.88
625.433	191.88
625.639	191.88
625.846	187.88
626.053	169.88
626.259	178.88
626.466	175.88
626.673	180.88
626.879	195.88
627.086	201.88
627.293	185.88
627.499	189.88
627.706	173.88
627.912	187.88
628.119	185.88
628.325	181.88
628.532	176.88
628.738	168.88
628.945	178.88
629.151	180.88
629.357	164.88
629.564	184.88
629.77	172.88
629.976	172.88
630.183	178.88
630.389	165.88
630.595	170.88
630.802	189.88
631.008	160.88
631.214	168.88
631.42	164.88
631.627	176.88
631.833	165.88
632.039	172.88
632.245	155.88
632.451	171.88
632.657	172.88
632.863	164.88
633.069	167.88
633.275	172.88
633.481	163.88
633.688	163.88
633.893	177.88
634.099	170.88
634.305	150.88
634.511	154.88
634.717	168.88
634.923	169.88
635.129	159.88
635.335	158.88
635.541	166.88
635.747	159.88
635.952	178.88
636.158	145.88
636.364	171.88
636.57	176.88
636.775	159.88
636.981	153.88
637.187	163.88
637.392	157.88
637.598	170.88
637.804	166.88
638.009	183.88
638.215	161.88
638.421	152.88
638.626	158.88
638.832	153.88
639.037	142.88
639.243	165.88
639.448	168.88
639.654	157.88
639.859	145.88
640.065	155.88
640.27	166.88
640.475	157.88
640.681	156.88
640.886	182.88
641.091	156.88
641.297	168.88
641.502	169.88
641.707	140.88
641.913	150.88
642.118	163.88
642.323	141.88
642.528	158.88
642.733	146.88
642.939	142.88
643.144	147.88
643.349	150.88
643.554	150.88
643.759	144.88
643.964	153.88
644.169	180.88
644.374	146.88
644.579	148.88
644.784	144.88
644.989	151.88
645.194	138.88
645.399	141.88
645.604	150.88
645.809	146.88
646.014	144.88
646.219	144.88
646.423	147.88
646.628	148.88
646.833	150.88
647.038	150.88
647.243	145.88
647.447	140.88
647.652	154.88
647.857	155.88
648.062	156.88
648.266	160.88
648.471	155.88
648.676	156.88
648.88	144.88
649.085	166.88
649.289	164.88
649.494	158.88
649.698	167.88
649.903	168.88
650.107	156.88
650.312	152.88
650.516	140.88
650.721	144.88
650.925	140.88
651.13	142.88
651.334	138.88
651.539	151.88
651.743	132.88
651.947	132.88
652.152	137.88
652.356	132.88
652.56	126.88
652.764	136.88
652.969	138.88
653.173	122.88
653.377	129.88
653.581	130.88
653.785	120.88
653.99	129.88
654.194	128.88
654.398	130.88
654.602	128.88
654.806	126.88
655.01	150.88
655.214	142.88
655.418	133.88
655.622	127.88
655.826	122.88
656.03	119.88
656.234	129.88
656.438	116.88
656.642	132.88
656.846	130.88
657.049	120.88
657.253	128.88
657.457	125.88
657.661	122.88
657.865	112.88
658.068	105.88
658.272	99.88
658.476	106.88
658.68	104.88
658.883	92.88
659.087	104.88
659.291	95.88
659.494	100.88
659.698	85.88
659.901	92.88
660.105	98.88
660.309	105.88
660.512	97.88
660.716	83.88
660.919	70.88
661.123	92.88
661.326	91.88
661.53	88.88
661.733	100.88
661.936	91.88
662.14	96.88
662.343	82.88
662.546	87.88
662.75	87.88
662.953	73.88
663.156	92.88
663.36	77.88
663.563	79.88
663.766	84.88
663.969	81.88
664.173	84.88
664.376	90.88
664.579	87.88
664.782	78.88
664.985	81.88
665.188	90.88
665.391	72.88
665.594	76.88
665.797	102.88
666	71.88
666.203	82.88
666.406	88.88
666.609	78.88
666.812	84.88
667.015	79.88
667.218	80.88
667.421	82.88
667.624	96.88
667.827	92.88
668.03	94.88
668.232	76.88
668.435	81.88
668.638	82.88
668.841	81.88
669.043	84.88
669.246	81.88
669.449	94.88
669.651	80.88
669.854	79.88
670.057	94.88
670.259	85.88
670.462	82.88
670.665	88.88
670.867	73.88
671.07	74.88
671.272	77.88
671.475	80.88
671.677	72.88
671.88	89.88
672.082	86.88
672.284	75.88
672.487	94.88
672.689	84.88
672.892	78.88
