Data from 1966.PennyLincolnUp.Lamp.En5.5.200Scan.071719.P1._HRD10591_14-14-41-914.txt Node
Date: Thu Jul 18 14:14:41 EDT 2019
User: cochatt
Spectrometer: HR+D1059
Trigger mode: 1
Integration Time (sec): 1.000000E-1
Scans to average: 1
Electric dark correction enabled: true
Nonlinearity correction enabled: false
Boxcar width: 0
XAxis mode: Wavelengths
Number of Pixels in Spectrum: 2048
>>>>>Begin Spectral Data<<<<<
223.165	-16.31
223.4	-16.31
223.635	-16.31
223.869	-13.31
224.104	-14.31
224.338	-25.31
224.573	-19.31
224.808	-6.31
225.042	1.69
225.277	-1.31
225.511	-8.31
225.746	5.69
225.98	12.69
226.215	21.69
226.449	11.69
226.683	18.69
226.918	12.69
227.152	19.69
227.387	39.69
227.621	36.69
227.856	47.69
228.09	36.69
228.324	46.69
228.559	51.69
228.793	59.69
229.027	79.69
229.262	75.69
229.496	100.69
229.73	95.69
229.964	98.69
230.199	99.69
230.433	86.69
230.667	92.69
230.901	77.69
231.136	91.69
231.37	97.69
231.604	79.69
231.838	99.69
232.072	79.69
232.306	93.69
232.541	90.69
232.775	89.69
233.009	80.69
233.243	89.69
233.477	89.69
233.711	94.69
233.945	84.69
234.179	98.69
234.413	108.69
234.647	94.69
234.881	92.69
235.115	92.69
235.349	96.69
235.583	105.69
235.817	84.69
236.051	91.69
236.285	89.69
236.519	86.69
236.753	111.69
236.987	116.69
237.221	108.69
237.455	133.69
237.689	106.69
237.922	88.69
238.156	90.69
238.39	85.69
238.624	98.69
238.858	103.69
239.091	103.69
239.325	96.69
239.559	98.69
239.793	95.69
240.027	116.69
240.26	113.69
240.494	113.69
240.728	108.69
240.961	104.69
241.195	111.69
241.429	99.69
241.662	113.69
241.896	101.69
242.13	86.69
242.363	89.69
242.597	92.69
242.83	108.69
243.064	81.69
243.298	98.69
243.531	102.69
243.765	93.69
243.998	89.69
244.232	93.69
244.465	98.69
244.699	101.69
244.932	97.69
245.166	112.69
245.399	96.69
245.633	117.69
245.866	92.69
246.099	114.69
246.333	107.69
246.566	103.69
246.8	111.69
247.033	112.69
247.266	102.69
247.5	107.69
247.733	135.69
247.966	121.69
248.2	125.69
248.433	106.69
248.666	115.69
248.899	137.69
249.133	127.69
249.366	131.69
249.599	122.69
249.832	104.69
250.066	111.69
250.299	106.69
250.532	120.69
250.765	142.69
250.998	136.69
251.231	148.69
251.465	131.69
251.698	142.69
251.931	135.69
252.164	120.69
252.397	108.69
252.63	145.69
252.863	123.69
253.096	148.69
253.329	143.69
253.562	145.69
253.795	140.69
254.028	140.69
254.261	145.69
254.494	132.69
254.727	164.69
254.96	164.69
255.193	170.69
255.426	160.69
255.659	135.69
255.892	149.69
256.124	145.69
256.357	128.69
256.59	139.69
256.823	140.69
257.056	117.69
257.289	128.69
257.521	135.69
257.754	124.69
257.987	138.69
258.22	125.69
258.452	124.69
258.685	134.69
258.918	139.69
259.151	136.69
259.383	137.69
259.616	129.69
259.849	139.69
260.081	141.69
260.314	165.69
260.547	162.69
260.779	152.69
261.012	139.69
261.244	125.69
261.477	145.69
261.71	130.69
261.942	147.69
262.175	155.69
262.407	156.69
262.64	133.69
262.872	138.69
263.105	128.69
263.337	139.69
263.57	123.69
263.802	127.69
264.035	131.69
264.267	133.69
264.499	134.69
264.732	145.69
264.964	134.69
265.197	129.69
265.429	138.69
265.661	127.69
265.894	132.69
266.126	139.69
266.358	136.69
266.591	119.69
266.823	136.69
267.055	142.69
267.287	133.69
267.52	139.69
267.752	127.69
267.984	125.69
268.216	134.69
268.448	144.69
268.681	140.69
268.913	137.69
269.145	161.69
269.377	160.69
269.609	162.69
269.841	139.69
270.073	154.69
270.306	173.69
270.538	183.69
270.77	183.69
271.002	171.69
271.234	168.69
271.466	169.69
271.698	179.69
271.93	171.69
272.162	184.69
272.394	182.69
272.626	183.69
272.858	181.69
273.09	168.69
273.322	142.69
273.553	154.69
273.785	159.69
274.017	159.69
274.249	149.69
274.481	147.69
274.713	152.69
274.945	162.69
275.176	149.69
275.408	139.69
275.64	159.69
275.872	151.69
276.104	159.69
276.335	142.69
276.567	145.69
276.799	168.69
277.031	187.69
277.262	198.69
277.494	192.69
277.726	180.69
277.957	162.69
278.189	157.69
278.421	156.69
278.652	153.69
278.884	158.69
279.115	163.69
279.347	161.69
279.579	138.69
279.81	163.69
280.042	169.69
280.273	161.69
280.505	150.69
280.736	165.69
280.968	157.69
281.199	163.69
281.431	155.69
281.662	155.69
281.894	155.69
282.125	139.69
282.356	170.69
282.588	175.69
282.819	169.69
283.051	147.69
283.282	156.69
283.513	157.69
283.745	154.69
283.976	169.69
284.207	152.69
284.439	167.69
284.67	163.69
284.901	154.69
285.132	154.69
285.364	139.69
285.595	168.69
285.826	157.69
286.057	178.69
286.288	154.69
286.52	156.69
286.751	192.69
286.982	161.69
287.213	159.69
287.444	175.69
287.675	176.69
287.906	178.69
288.138	167.69
288.369	155.69
288.6	177.69
288.831	160.69
289.062	160.69
289.293	184.69
289.524	166.69
289.755	162.69
289.986	175.69
290.217	164.69
290.448	172.69
290.679	164.69
290.91	164.69
291.141	162.69
291.371	163.69
291.602	160.69
291.833	160.69
292.064	163.69
292.295	163.69
292.526	174.69
292.757	156.69
292.987	175.69
293.218	159.69
293.449	166.69
293.68	163.69
293.91	176.69
294.141	179.69
294.372	170.69
294.603	165.69
294.833	171.69
295.064	161.69
295.295	163.69
295.525	177.69
295.756	176.69
295.987	161.69
296.217	183.69
296.448	199.69
296.679	168.69
296.909	179.69
297.14	169.69
297.37	187.69
297.601	161.69
297.831	179.69
298.062	169.69
298.292	163.69
298.523	172.69
298.753	164.69
298.984	156.69
299.214	175.69
299.445	163.69
299.675	175.69
299.905	171.69
300.136	167.69
300.366	175.69
300.597	161.69
300.827	182.69
301.057	185.69
301.288	193.69
301.518	179.69
301.748	179.69
301.979	187.69
302.209	185.69
302.439	168.69
302.669	199.69
302.9	170.69
303.13	173.69
303.36	196.69
303.59	201.69
303.82	191.69
304.051	210.69
304.281	177.69
304.511	173.69
304.741	187.69
304.971	176.69
305.201	203.69
305.431	186.69
305.661	164.69
305.891	190.69
306.121	194.69
306.352	187.69
306.582	187.69
306.812	184.69
307.042	185.69
307.272	176.69
307.502	180.69
307.731	187.69
307.961	176.69
308.191	178.69
308.421	169.69
308.651	198.69
308.881	188.69
309.111	194.69
309.341	199.69
309.571	193.69
309.8	188.69
310.03	185.69
310.26	189.69
310.49	191.69
310.72	198.69
310.949	207.69
311.179	227.69
311.409	202.69
311.639	193.69
311.868	212.69
312.098	198.69
312.328	212.69
312.557	207.69
312.787	226.69
313.017	234.69
313.246	221.69
313.476	203.69
313.706	207.69
313.935	205.69
314.165	202.69
314.394	214.69
314.624	205.69
314.853	204.69
315.083	209.69
315.312	216.69
315.542	214.69
315.771	204.69
316.001	190.69
316.23	191.69
316.46	192.69
316.689	208.69
316.919	195.69
317.148	213.69
317.377	215.69
317.607	198.69
317.836	208.69
318.065	213.69
318.295	191.69
318.524	215.69
318.753	215.69
318.983	201.69
319.212	210.69
319.441	221.69
319.67	221.69
319.9	203.69
320.129	185.69
320.358	208.69
320.587	203.69
320.816	205.69
321.046	213.69
321.275	229.69
321.504	200.69
321.733	201.69
321.962	204.69
322.191	225.69
322.42	217.69
322.649	244.69
322.878	223.69
323.108	241.69
323.337	279.69
323.566	264.69
323.795	278.69
324.024	293.69
324.253	361.69
324.482	520.69
324.71	776.69
324.939	1072.69
325.168	857.69
325.397	441.69
325.626	307.69
325.855	267.69
326.084	244.69
326.313	234.69
326.542	262.69
326.77	299.69
326.999	345.69
327.228	464.69
327.457	687.69
327.686	756.69
327.914	517.69
328.143	340.69
328.372	327.69
328.6	314.69
328.829	300.69
329.058	301.69
329.287	300.69
329.515	284.69
329.744	276.69
329.972	268.69
330.201	279.69
330.43	324.69
330.658	319.69
330.887	341.69
331.115	317.69
331.344	274.69
331.572	265.69
331.801	266.69
332.03	260.69
332.258	246.69
332.486	234.69
332.715	223.69
332.943	236.69
333.172	247.69
333.4	225.69
333.629	255.69
333.857	241.69
334.085	267.69
334.314	268.69
334.542	283.69
334.771	321.69
334.999	285.69
335.227	270.69
335.455	241.69
335.684	216.69
335.912	235.69
336.14	254.69
336.369	236.69
336.597	236.69
336.825	231.69
337.053	214.69
337.281	224.69
337.51	222.69
337.738	230.69
337.966	245.69
338.194	239.69
338.422	225.69
338.65	243.69
338.878	224.69
339.106	231.69
339.334	242.69
339.562	209.69
339.79	210.69
340.018	209.69
340.246	224.69
340.474	218.69
340.702	219.69
340.93	225.69
341.158	204.69
341.386	209.69
341.614	225.69
341.842	219.69
342.07	211.69
342.298	204.69
342.526	229.69
342.754	221.69
342.981	228.69
343.209	220.69
343.437	212.69
343.665	210.69
343.893	220.69
344.12	229.69
344.348	214.69
344.576	212.69
344.804	243.69
345.031	234.69
345.259	236.69
345.487	236.69
345.714	228.69
345.942	233.69
346.17	202.69
346.397	217.69
346.625	216.69
346.853	231.69
347.08	224.69
347.308	216.69
347.535	216.69
347.763	209.69
347.99	214.69
348.218	226.69
348.445	232.69
348.673	233.69
348.9	215.69
349.128	221.69
349.355	204.69
349.583	198.69
349.81	192.69
350.037	208.69
350.265	193.69
350.492	209.69
350.72	206.69
350.947	225.69
351.174	243.69
351.402	227.69
351.629	207.69
351.856	219.69
352.083	232.69
352.311	239.69
352.538	234.69
352.765	243.69
352.992	217.69
353.22	218.69
353.447	219.69
353.674	214.69
353.901	209.69
354.128	218.69
354.355	184.69
354.583	203.69
354.81	179.69
355.037	217.69
355.264	217.69
355.491	185.69
355.718	209.69
355.945	195.69
356.172	200.69
356.399	212.69
356.626	176.69
356.853	201.69
357.08	182.69
357.307	191.69
357.534	208.69
357.761	223.69
357.988	203.69
358.215	199.69
358.441	197.69
358.668	199.69
358.895	205.69
359.122	213.69
359.349	210.69
359.576	217.69
359.802	217.69
360.029	249.69
360.256	246.69
360.483	236.69
360.709	226.69
360.936	215.69
361.163	209.69
361.39	208.69
361.616	231.69
361.843	209.69
362.07	199.69
362.296	227.69
362.523	223.69
362.749	211.69
362.976	224.69
363.203	220.69
363.429	200.69
363.656	211.69
363.882	223.69
364.109	196.69
364.335	211.69
364.562	190.69
364.788	204.69
365.015	201.69
365.241	202.69
365.468	212.69
365.694	211.69
365.92	179.69
366.147	203.69
366.373	212.69
366.599	209.69
366.826	199.69
367.052	194.69
367.278	202.69
367.505	223.69
367.731	204.69
367.957	191.69
368.184	205.69
368.41	199.69
368.636	209.69
368.862	205.69
369.089	197.69
369.315	204.69
369.541	218.69
369.767	205.69
369.993	228.69
370.219	199.69
370.445	219.69
370.672	204.69
370.898	185.69
371.124	196.69
371.35	213.69
371.576	216.69
371.802	188.69
372.028	195.69
372.254	202.69
372.48	205.69
372.706	201.69
372.932	196.69
373.158	213.69
373.384	203.69
373.61	189.69
373.835	207.69
374.061	197.69
374.287	214.69
374.513	220.69
374.739	213.69
374.965	202.69
375.191	195.69
375.416	194.69
375.642	197.69
375.868	207.69
376.094	194.69
376.319	197.69
376.545	197.69
376.771	201.69
376.997	201.69
377.222	208.69
377.448	204.69
377.674	192.69
377.899	191.69
378.125	213.69
378.35	204.69
378.576	198.69
378.802	194.69
379.027	202.69
379.253	191.69
379.478	193.69
379.704	208.69
379.929	207.69
380.155	209.69
380.38	197.69
380.606	213.69
380.831	201.69
381.057	199.69
381.282	200.69
381.507	215.69
381.733	191.69
381.958	205.69
382.184	196.69
382.409	218.69
382.634	206.69
382.86	202.69
383.085	203.69
383.31	218.69
383.535	204.69
383.761	212.69
383.986	213.69
384.211	210.69
384.436	222.69
384.662	190.69
384.887	204.69
385.112	210.69
385.337	203.69
385.562	210.69
385.787	208.69
386.013	224.69
386.238	223.69
386.463	204.69
386.688	215.69
386.913	202.69
387.138	220.69
387.363	221.69
387.588	213.69
387.813	228.69
388.038	209.69
388.263	217.69
388.488	232.69
388.713	219.69
388.938	208.69
389.163	190.69
389.387	214.69
389.612	201.69
389.837	217.69
390.062	209.69
390.287	213.69
390.512	218.69
390.736	218.69
390.961	217.69
391.186	213.69
391.411	224.69
391.636	237.69
391.86	208.69
392.085	215.69
392.31	208.69
392.534	215.69
392.759	226.69
392.984	227.69
393.208	223.69
393.433	223.69
393.658	239.69
393.882	220.69
394.107	239.69
394.331	221.69
394.556	199.69
394.78	213.69
395.005	214.69
395.229	213.69
395.454	225.69
395.678	221.69
395.903	224.69
396.127	245.69
396.352	227.69
396.576	220.69
396.801	205.69
397.025	225.69
397.249	228.69
397.474	219.69
397.698	226.69
397.922	244.69
398.147	250.69
398.371	239.69
398.595	236.69
398.82	230.69
399.044	243.69
399.268	248.69
399.492	268.69
399.717	286.69
399.941	293.69
400.165	296.69
400.389	293.69
400.613	265.69
400.837	243.69
401.062	235.69
401.286	246.69
401.51	230.69
401.734	251.69
401.958	244.69
402.182	233.69
402.406	268.69
402.63	261.69
402.854	224.69
403.078	241.69
403.302	238.69
403.526	252.69
403.75	254.69
403.974	250.69
404.198	246.69
404.422	266.69
404.645	261.69
404.869	270.69
405.093	285.69
405.317	273.69
405.541	312.69
405.765	269.69
405.988	275.69
406.212	287.69
406.436	299.69
406.66	293.69
406.883	280.69
407.107	278.69
407.331	323.69
407.555	330.69
407.778	325.69
408.002	304.69
408.226	266.69
408.449	290.69
408.673	261.69
408.896	286.69
409.12	299.69
409.344	280.69
409.567	259.69
409.791	255.69
410.014	234.69
410.238	244.69
410.461	266.69
410.685	252.69
410.908	245.69
411.132	294.69
411.355	293.69
411.578	276.69
411.802	260.69
412.025	256.69
412.249	260.69
412.472	264.69
412.695	287.69
412.919	265.69
413.142	267.69
413.365	256.69
413.589	248.69
413.812	243.69
414.035	257.69
414.258	236.69
414.482	237.69
414.705	240.69
414.928	255.69
415.151	270.69
415.374	244.69
415.597	233.69
415.821	237.69
416.044	252.69
416.267	237.69
416.49	234.69
416.713	234.69
416.936	239.69
417.159	244.69
417.382	226.69
417.605	259.69
417.828	264.69
418.051	261.69
418.274	245.69
418.497	248.69
418.72	232.69
418.943	243.69
419.166	239.69
419.389	241.69
419.611	245.69
419.834	258.69
420.057	262.69
420.28	249.69
420.503	241.69
420.726	252.69
420.948	253.69
421.171	269.69
421.394	268.69
421.617	253.69
421.839	235.69
422.062	257.69
422.285	249.69
422.507	276.69
422.73	298.69
422.953	301.69
423.175	284.69
423.398	258.69
423.621	267.69
423.843	259.69
424.066	255.69
424.288	258.69
424.511	270.69
424.733	311.69
424.956	322.69
425.178	318.69
425.401	319.69
425.623	309.69
425.846	280.69
426.068	260.69
426.291	268.69
426.513	278.69
426.735	269.69
426.958	291.69
427.18	337.69
427.402	372.69
427.625	417.69
427.847	356.69
428.069	327.69
428.292	286.69
428.514	263.69
428.736	256.69
428.958	264.69
429.181	234.69
429.403	257.69
429.625	246.69
429.847	263.69
430.069	289.69
430.292	284.69
430.514	262.69
430.736	224.69
430.958	240.69
431.18	237.69
431.402	248.69
431.624	235.69
431.846	231.69
432.068	231.69
432.29	222.69
432.512	233.69
432.734	241.69
432.956	229.69
433.178	257.69
433.4	247.69
433.622	259.69
433.844	228.69
434.066	242.69
434.287	224.69
434.509	220.69
434.731	256.69
434.953	255.69
435.175	265.69
435.397	271.69
435.618	267.69
435.84	291.69
436.062	319.69
436.284	327.69
436.505	278.69
436.727	246.69
436.949	248.69
437.17	251.69
437.392	237.69
437.614	265.69
437.835	285.69
438.057	299.69
438.278	356.69
438.5	357.69
438.721	378.69
438.943	352.69
439.165	293.69
439.386	259.69
439.608	278.69
439.829	282.69
440.05	290.69
440.272	323.69
440.493	287.69
440.715	247.69
440.936	256.69
441.158	235.69
441.379	241.69
441.6	271.69
441.822	272.69
442.043	287.69
442.264	315.69
442.486	324.69
442.707	287.69
442.928	293.69
443.149	285.69
443.371	319.69
443.592	319.69
443.813	331.69
444.034	347.69
444.255	292.69
444.476	252.69
444.698	279.69
444.919	273.69
445.14	347.69
445.361	315.69
445.582	298.69
445.803	308.69
446.024	387.69
446.245	370.69
446.466	331.69
446.687	285.69
446.908	274.69
447.129	265.69
447.35	250.69
447.571	254.69
447.792	249.69
448.013	255.69
448.234	275.69
448.455	280.69
448.675	346.69
448.896	339.69
449.117	307.69
449.338	300.69
449.559	351.69
449.779	373.69
450	311.69
450.221	263.69
450.442	254.69
450.662	233.69
450.883	243.69
451.104	263.69
451.324	252.69
451.545	231.69
451.766	235.69
451.986	226.69
452.207	232.69
452.428	210.69
452.648	237.69
452.869	215.69
453.089	248.69
453.31	219.69
453.53	223.69
453.751	213.69
453.971	231.69
454.192	230.69
454.412	232.69
454.633	236.69
454.853	225.69
455.073	224.69
455.294	246.69
455.514	267.69
455.734	251.69
455.955	214.69
456.175	201.69
456.395	216.69
456.616	217.69
456.836	209.69
457.056	215.69
457.276	221.69
457.497	193.69
457.717	223.69
457.937	225.69
458.157	200.69
458.377	230.69
458.598	259.69
458.818	275.69
459.038	319.69
459.258	304.69
459.478	252.69
459.698	246.69
459.918	252.69
460.138	229.69
460.358	238.69
460.578	228.69
460.798	242.69
461.018	241.69
461.238	223.69
461.458	253.69
461.678	234.69
461.898	242.69
462.118	218.69
462.338	234.69
462.558	260.69
462.777	247.69
462.997	248.69
463.217	263.69
463.437	250.69
463.657	261.69
463.876	240.69
464.096	250.69
464.316	244.69
464.536	247.69
464.755	243.69
464.975	273.69
465.195	289.69
465.414	354.69
465.634	261.69
465.854	260.69
466.073	264.69
466.293	240.69
466.512	231.69
466.732	223.69
466.951	235.69
467.171	234.69
467.391	246.69
467.61	240.69
467.829	249.69
468.049	249.69
468.268	238.69
468.488	225.69
468.707	250.69
468.927	217.69
469.146	230.69
469.365	220.69
469.585	216.69
469.804	224.69
470.023	267.69
470.243	236.69
470.462	253.69
470.681	261.69
470.901	256.69
471.12	232.69
471.339	235.69
471.558	230.69
471.777	240.69
471.997	230.69
472.216	259.69
472.435	285.69
472.654	274.69
472.873	235.69
473.092	258.69
473.311	222.69
473.53	215.69
473.749	236.69
473.968	261.69
474.187	330.69
474.406	332.69
474.625	265.69
474.844	231.69
475.063	253.69
475.282	232.69
475.501	230.69
475.72	243.69
475.939	250.69
476.158	241.69
476.377	229.69
476.596	234.69
476.814	227.69
477.033	250.69
477.252	237.69
477.471	246.69
477.69	250.69
477.908	241.69
478.127	236.69
478.346	234.69
478.564	256.69
478.783	251.69
479.002	269.69
479.22	252.69
479.439	266.69
479.658	267.69
479.876	278.69
480.095	287.69
480.313	291.69
480.532	274.69
480.751	273.69
480.969	289.69
481.188	362.69
481.406	369.69
481.624	303.69
481.843	265.69
482.061	285.69
482.28	278.69
482.498	273.69
482.717	258.69
482.935	260.69
483.153	269.69
483.372	273.69
483.59	284.69
483.808	275.69
484.027	268.69
484.245	269.69
484.463	283.69
484.681	268.69
484.9	282.69
485.118	274.69
485.336	291.69
485.554	284.69
485.772	288.69
485.99	275.69
486.209	281.69
486.427	287.69
486.645	301.69
486.863	297.69
487.081	296.69
487.299	288.69
487.517	267.69
487.735	292.69
487.953	293.69
488.171	297.69
488.389	272.69
488.607	282.69
488.825	291.69
489.043	295.69
489.261	295.69
489.479	300.69
489.696	284.69
489.914	317.69
490.132	309.69
490.35	290.69
490.568	291.69
490.786	300.69
491.003	312.69
491.221	317.69
491.439	332.69
491.657	332.69
491.874	345.69
492.092	333.69
492.31	357.69
492.527	340.69
492.745	325.69
492.963	341.69
493.18	344.69
493.398	349.69
493.615	339.69
493.833	351.69
494.05	341.69
494.268	354.69
494.485	331.69
494.703	348.69
494.92	348.69
495.138	337.69
495.355	339.69
495.573	311.69
495.79	330.69
496.008	361.69
496.225	350.69
496.442	363.69
496.66	343.69
496.877	330.69
497.094	343.69
497.312	317.69
497.529	351.69
497.746	334.69
497.963	347.69
498.181	368.69
498.398	335.69
498.615	374.69
498.832	364.69
499.049	368.69
499.267	379.69
499.484	377.69
499.701	373.69
499.918	382.69
500.135	410.69
500.352	427.69
500.569	451.69
500.786	434.69
501.003	446.69
501.22	417.69
501.437	422.69
501.654	415.69
501.871	398.69
502.088	376.69
502.305	378.69
502.522	373.69
502.739	360.69
502.956	354.69
503.172	354.69
503.389	354.69
503.606	342.69
503.823	315.69
504.04	330.69
504.256	335.69
504.473	342.69
504.69	324.69
504.907	330.69
505.123	330.69
505.34	318.69
505.557	324.69
505.773	341.69
505.99	333.69
506.207	325.69
506.423	310.69
506.64	336.69
506.856	307.69
507.073	329.69
507.289	329.69
507.506	318.69
507.722	331.69
507.939	336.69
508.155	317.69
508.372	309.69
508.588	296.69
508.805	308.69
509.021	329.69
509.238	307.69
509.454	300.69
509.67	303.69
509.887	301.69
510.103	312.69
510.319	303.69
510.536	416.69
510.752	759.69
510.968	555.69
511.184	314.69
511.401	295.69
511.617	300.69
511.833	280.69
512.049	298.69
512.265	290.69
512.481	273.69
512.698	264.69
512.914	289.69
513.13	291.69
513.346	288.69
513.562	289.69
513.778	292.69
513.994	284.69
514.21	308.69
514.426	319.69
514.642	337.69
514.858	357.69
515.074	376.69
515.29	487.69
515.506	817.69
515.721	659.69
515.937	381.69
516.153	327.69
516.369	314.69
516.585	306.69
516.801	285.69
517.016	309.69
517.232	311.69
517.448	292.69
517.664	315.69
517.879	296.69
518.095	309.69
518.311	285.69
518.527	287.69
518.742	274.69
518.958	280.69
519.173	293.69
519.389	284.69
519.605	298.69
519.82	305.69
520.036	300.69
520.251	308.69
520.467	332.69
520.682	338.69
520.898	313.69
521.113	345.69
521.329	382.69
521.544	437.69
521.76	594.69
521.975	1159.69
522.19	1127.69
522.406	525.69
522.621	354.69
522.836	308.69
523.052	288.69
523.267	286.69
523.482	260.69
523.698	265.69
523.913	269.69
524.128	279.69
524.343	268.69
524.559	255.69
524.774	247.69
524.989	235.69
525.204	259.69
525.419	257.69
525.634	249.69
525.849	250.69
526.064	250.69
526.28	244.69
526.495	235.69
526.71	252.69
526.925	243.69
527.14	242.69
527.355	243.69
527.57	244.69
527.785	231.69
527.999	229.69
528.214	240.69
528.429	231.69
528.644	237.69
528.859	235.69
529.074	248.69
529.289	245.69
529.503	308.69
529.718	290.69
529.933	247.69
530.148	229.69
530.363	255.69
530.577	216.69
530.792	245.69
531.007	236.69
531.221	229.69
531.436	233.69
531.651	243.69
531.865	239.69
532.08	235.69
532.295	221.69
532.509	224.69
532.724	222.69
532.938	227.69
533.153	214.69
533.367	235.69
533.582	221.69
533.796	236.69
534.011	219.69
534.225	220.69
534.44	221.69
534.654	219.69
534.868	214.69
535.083	228.69
535.297	217.69
535.511	244.69
535.726	231.69
535.94	230.69
536.154	219.69
536.369	216.69
536.583	218.69
536.797	230.69
537.011	217.69
537.225	225.69
537.44	228.69
537.654	222.69
537.868	219.69
538.082	213.69
538.296	220.69
538.51	224.69
538.724	235.69
538.938	214.69
539.153	224.69
539.367	228.69
539.581	228.69
539.795	230.69
540.009	218.69
540.222	214.69
540.436	237.69
540.65	223.69
540.864	208.69
541.078	220.69
541.292	233.69
541.506	232.69
541.72	231.69
541.934	214.69
542.147	227.69
542.361	238.69
542.575	241.69
542.789	228.69
543.002	231.69
543.216	241.69
543.43	247.69
543.644	217.69
543.857	243.69
544.071	224.69
544.285	214.69
544.498	233.69
544.712	218.69
544.925	228.69
545.139	227.69
545.352	241.69
545.566	210.69
545.779	236.69
545.993	212.69
546.206	226.69
546.42	240.69
546.633	223.69
546.847	212.69
547.06	209.69
547.274	218.69
547.487	223.69
547.7	232.69
547.914	211.69
548.127	215.69
548.34	205.69
548.554	225.69
548.767	205.69
548.98	211.69
549.193	214.69
549.407	240.69
549.62	220.69
549.833	215.69
550.046	230.69
550.259	217.69
550.473	225.69
550.686	212.69
550.899	214.69
551.112	195.69
551.325	203.69
551.538	220.69
551.751	211.69
551.964	216.69
552.177	214.69
552.39	213.69
552.603	231.69
552.816	211.69
553.029	219.69
553.242	229.69
553.455	231.69
553.667	234.69
553.88	232.69
554.093	234.69
554.306	231.69
554.519	201.69
554.732	193.69
554.944	209.69
555.157	202.69
555.37	203.69
555.583	193.69
555.795	204.69
556.008	197.69
556.221	210.69
556.433	211.69
556.646	180.69
556.859	197.69
557.071	199.69
557.284	185.69
557.496	192.69
557.709	192.69
557.921	199.69
558.134	190.69
558.346	204.69
558.559	211.69
558.771	203.69
558.984	198.69
559.196	199.69
559.409	181.69
559.621	194.69
559.833	196.69
560.046	184.69
560.258	194.69
560.47	203.69
560.683	186.69
560.895	208.69
561.107	183.69
561.32	194.69
561.532	185.69
561.744	191.69
561.956	193.69
562.168	203.69
562.381	211.69
562.593	184.69
562.805	198.69
563.017	196.69
563.229	199.69
563.441	192.69
563.653	211.69
563.865	215.69
564.077	199.69
564.289	190.69
564.501	192.69
564.713	205.69
564.925	208.69
565.137	219.69
565.349	196.69
565.561	194.69
565.773	197.69
565.985	213.69
566.197	199.69
566.408	217.69
566.62	218.69
566.832	224.69
567.044	212.69
567.255	209.69
567.467	231.69
567.679	223.69
567.891	227.69
568.102	231.69
568.314	225.69
568.526	217.69
568.737	212.69
568.949	227.69
569.161	205.69
569.372	200.69
569.584	184.69
569.795	182.69
570.007	187.69
570.218	211.69
570.43	212.69
570.641	192.69
570.853	200.69
571.064	209.69
571.276	182.69
571.487	171.69
571.698	186.69
571.91	209.69
572.121	187.69
572.333	189.69
572.544	175.69
572.755	184.69
572.966	191.69
573.178	165.69
573.389	170.69
573.6	183.69
573.811	184.69
574.023	165.69
574.234	171.69
574.445	173.69
574.656	170.69
574.867	183.69
575.078	169.69
575.289	180.69
575.501	169.69
575.712	163.69
575.923	155.69
576.134	183.69
576.345	162.69
576.556	168.69
576.767	176.69
576.978	160.69
577.188	181.69
577.399	159.69
577.61	162.69
577.821	168.69
578.032	172.69
578.243	190.69
578.454	361.69
578.665	251.69
578.875	185.69
579.086	167.69
579.297	168.69
579.508	157.69
579.718	167.69
579.929	163.69
580.14	166.69
580.35	155.69
580.561	166.69
580.772	159.69
580.982	163.69
581.193	155.69
581.403	166.69
581.614	154.69
581.825	151.69
582.035	161.69
582.246	151.69
582.456	173.69
582.667	157.69
582.877	154.69
583.087	153.69
583.298	151.69
583.508	155.69
583.719	164.69
583.929	176.69
584.139	157.69
584.35	161.69
584.56	170.69
584.77	164.69
584.981	167.69
585.191	156.69
585.401	155.69
585.611	153.69
585.821	160.69
586.032	156.69
586.242	156.69
586.452	156.69
586.662	145.69
586.872	154.69
587.082	171.69
587.292	156.69
587.502	159.69
587.713	160.69
587.923	147.69
588.133	149.69
588.343	136.69
588.553	145.69
588.762	155.69
588.972	158.69
589.182	168.69
589.392	167.69
589.602	155.69
589.812	164.69
590.022	164.69
590.232	175.69
590.441	147.69
590.651	149.69
590.861	164.69
591.071	148.69
591.281	162.69
591.49	154.69
591.7	154.69
591.91	152.69
592.119	154.69
592.329	138.69
592.539	153.69
592.748	156.69
592.958	170.69
593.167	153.69
593.377	158.69
593.587	182.69
593.796	154.69
594.006	161.69
594.215	141.69
594.424	154.69
594.634	169.69
594.843	153.69
595.053	166.69
595.262	164.69
595.472	148.69
595.681	148.69
595.89	156.69
596.1	140.69
596.309	154.69
596.518	156.69
596.727	163.69
596.937	152.69
597.146	146.69
597.355	157.69
597.564	140.69
597.774	135.69
597.983	147.69
598.192	143.69
598.401	136.69
598.61	144.69
598.819	138.69
599.028	150.69
599.237	136.69
599.446	159.69
599.655	149.69
599.864	147.69
600.073	122.69
600.282	138.69
600.491	142.69
600.7	147.69
600.909	132.69
601.118	146.69
601.327	134.69
601.536	153.69
601.745	159.69
601.953	154.69
602.162	155.69
602.371	144.69
602.58	134.69
602.789	150.69
602.997	128.69
603.206	137.69
603.415	131.69
603.623	132.69
603.832	141.69
604.041	138.69
604.249	156.69
604.458	140.69
604.666	146.69
604.875	125.69
605.084	153.69
605.292	126.69
605.501	147.69
605.709	148.69
605.918	139.69
606.126	143.69
606.334	138.69
606.543	151.69
606.751	138.69
606.96	130.69
607.168	144.69
607.376	128.69
607.585	137.69
607.793	139.69
608.001	138.69
608.21	136.69
608.418	141.69
608.626	144.69
608.834	139.69
609.043	143.69
609.251	133.69
609.459	141.69
609.667	148.69
609.875	142.69
610.083	129.69
610.291	143.69
610.499	139.69
610.707	139.69
610.916	150.69
611.124	143.69
611.332	140.69
611.54	127.69
611.748	143.69
611.955	138.69
612.163	128.69
612.371	168.69
612.579	139.69
612.787	133.69
612.995	142.69
613.203	131.69
613.411	131.69
613.618	142.69
613.826	135.69
614.034	138.69
614.242	131.69
614.449	145.69
614.657	139.69
614.865	134.69
615.072	149.69
615.28	145.69
615.488	127.69
615.695	124.69
615.903	130.69
616.111	136.69
616.318	128.69
616.526	139.69
616.733	140.69
616.941	141.69
617.148	124.69
617.356	132.69
617.563	131.69
617.771	144.69
617.978	133.69
618.185	128.69
618.393	159.69
618.6	144.69
618.807	137.69
619.015	139.69
619.222	131.69
619.429	137.69
619.637	137.69
619.844	131.69
620.051	124.69
620.258	133.69
620.466	117.69
620.673	142.69
620.88	152.69
621.087	128.69
621.294	148.69
621.501	125.69
621.708	123.69
621.915	136.69
622.122	135.69
622.329	133.69
622.536	144.69
622.743	132.69
622.95	143.69
623.157	127.69
623.364	121.69
623.571	143.69
623.778	124.69
623.985	131.69
624.192	131.69
624.399	131.69
624.606	138.69
624.812	134.69
625.019	116.69
625.226	137.69
625.433	124.69
625.639	122.69
625.846	129.69
626.053	127.69
626.259	131.69
626.466	135.69
626.673	137.69
626.879	142.69
627.086	132.69
627.293	111.69
627.499	137.69
627.706	107.69
627.912	123.69
628.119	140.69
628.325	150.69
628.532	123.69
628.738	120.69
628.945	115.69
629.151	119.69
629.357	128.69
629.564	127.69
629.77	121.69
629.976	130.69
630.183	104.69
630.389	131.69
630.595	111.69
630.802	126.69
631.008	130.69
631.214	119.69
631.42	120.69
631.627	119.69
631.833	137.69
632.039	127.69
632.245	117.69
632.451	118.69
632.657	125.69
632.863	140.69
633.069	117.69
633.275	121.69
633.481	112.69
633.688	104.69
633.893	111.69
634.099	136.69
634.305	133.69
634.511	131.69
634.717	124.69
634.923	122.69
635.129	126.69
635.335	120.69
635.541	124.69
635.747	119.69
635.952	129.69
636.158	124.69
636.364	121.69
636.57	127.69
636.775	119.69
636.981	131.69
637.187	115.69
637.392	135.69
637.598	121.69
637.804	143.69
638.009	116.69
638.215	130.69
638.421	114.69
638.626	110.69
638.832	121.69
639.037	97.69
639.243	114.69
639.448	119.69
639.654	113.69
639.859	115.69
640.065	116.69
640.27	115.69
640.475	105.69
640.681	110.69
640.886	115.69
641.091	116.69
641.297	109.69
641.502	112.69
641.707	107.69
641.913	108.69
642.118	122.69
642.323	104.69
642.528	107.69
642.733	113.69
642.939	118.69
643.144	117.69
643.349	106.69
643.554	103.69
643.759	103.69
643.964	112.69
644.169	105.69
644.374	105.69
644.579	99.69
644.784	117.69
644.989	114.69
645.194	107.69
645.399	115.69
645.604	94.69
645.809	106.69
646.014	122.69
646.219	102.69
646.423	121.69
646.628	121.69
646.833	108.69
647.038	113.69
647.243	127.69
647.447	123.69
647.652	117.69
647.857	115.69
648.062	118.69
648.266	108.69
648.471	121.69
648.676	113.69
648.88	119.69
649.085	109.69
649.289	107.69
649.494	118.69
649.698	138.69
649.903	117.69
650.107	122.69
650.312	99.69
650.516	113.69
650.721	110.69
650.925	115.69
651.13	111.69
651.334	110.69
651.539	93.69
651.743	100.69
651.947	116.69
652.152	120.69
652.356	99.69
652.56	125.69
652.764	84.69
652.969	106.69
653.173	108.69
653.377	103.69
653.581	115.69
653.785	95.69
653.99	112.69
654.194	95.69
654.398	106.69
654.602	104.69
654.806	96.69
655.01	106.69
655.214	101.69
655.418	115.69
655.622	105.69
655.826	97.69
656.03	114.69
656.234	111.69
656.438	108.69
656.642	121.69
656.846	99.69
657.049	113.69
657.253	111.69
657.457	98.69
657.661	99.69
657.865	106.69
658.068	85.69
658.272	95.69
658.476	105.69
658.68	86.69
658.883	89.69
659.087	85.69
659.291	92.69
659.494	85.69
659.698	90.69
659.901	83.69
660.105	95.69
660.309	92.69
660.512	89.69
660.716	75.69
660.919	90.69
661.123	85.69
661.326	95.69
661.53	66.69
661.733	82.69
661.936	86.69
662.14	85.69
662.343	82.69
662.546	81.69
662.75	83.69
662.953	89.69
663.156	81.69
663.36	89.69
663.563	87.69
663.766	67.69
663.969	73.69
664.173	81.69
664.376	85.69
664.579	100.69
664.782	81.69
664.985	79.69
665.188	80.69
665.391	79.69
665.594	80.69
665.797	72.69
666	75.69
666.203	82.69
666.406	71.69
666.609	99.69
666.812	76.69
667.015	84.69
667.218	83.69
667.421	89.69
667.624	87.69
667.827	90.69
668.03	84.69
668.232	92.69
668.435	75.69
668.638	76.69
668.841	92.69
669.043	84.69
669.246	87.69
669.449	86.69
669.651	84.69
669.854	88.69
670.057	81.69
670.259	74.69
670.462	74.69
670.665	86.69
670.867	83.69
671.07	91.69
671.272	80.69
671.475	73.69
671.677	78.69
671.88	84.69
672.082	78.69
672.284	75.69
672.487	81.69
672.689	78.69
672.892	82.69
