Data from 1966.PennyLincolnUp.Lamp.En5.5.200Scan.071719.P1._HRD10591_14-15-20-942.txt Node
Date: Thu Jul 18 14:15:20 EDT 2019
User: cochatt
Spectrometer: HR+D1059
Trigger mode: 1
Integration Time (sec): 1.000000E-1
Scans to average: 1
Electric dark correction enabled: true
Nonlinearity correction enabled: false
Boxcar width: 0
XAxis mode: Wavelengths
Number of Pixels in Spectrum: 2048
>>>>>Begin Spectral Data<<<<<
223.165	3.06
223.4	3.06
223.635	3.06
223.869	-19.94
224.104	-17.94
224.338	-16.94
224.573	-14.94
224.808	-7.94
225.042	-22.94
225.277	-0.94
225.511	13.06
225.746	-2.94
225.98	11.06
226.215	7.06
226.449	13.06
226.683	7.06
226.918	26.06
227.152	24.06
227.387	44.06
227.621	42.06
227.856	40.06
228.09	45.06
228.324	42.06
228.559	50.06
228.793	65.06
229.027	73.06
229.262	88.06
229.496	90.06
229.73	111.06
229.964	119.06
230.199	101.06
230.433	91.06
230.667	92.06
230.901	96.06
231.136	90.06
231.37	90.06
231.604	89.06
231.838	98.06
232.072	80.06
232.306	96.06
232.541	106.06
232.775	100.06
233.009	115.06
233.243	90.06
233.477	109.06
233.711	81.06
233.945	101.06
234.179	103.06
234.413	106.06
234.647	88.06
234.881	102.06
235.115	109.06
235.349	104.06
235.583	99.06
235.817	96.06
236.051	94.06
236.285	98.06
236.519	109.06
236.753	110.06
236.987	112.06
237.221	125.06
237.455	140.06
237.689	112.06
237.922	102.06
238.156	88.06
238.39	95.06
238.624	92.06
238.858	103.06
239.091	111.06
239.325	107.06
239.559	105.06
239.793	114.06
240.027	97.06
240.26	104.06
240.494	124.06
240.728	92.06
240.961	94.06
241.195	107.06
241.429	106.06
241.662	102.06
241.896	101.06
242.13	102.06
242.363	96.06
242.597	107.06
242.83	101.06
243.064	104.06
243.298	112.06
243.531	96.06
243.765	97.06
243.998	113.06
244.232	101.06
244.465	105.06
244.699	112.06
244.932	105.06
245.166	98.06
245.399	103.06
245.633	102.06
245.866	128.06
246.099	107.06
246.333	110.06
246.566	114.06
246.8	110.06
247.033	114.06
247.266	110.06
247.5	133.06
247.733	125.06
247.966	123.06
248.2	119.06
248.433	133.06
248.666	132.06
248.899	137.06
249.133	138.06
249.366	143.06
249.599	134.06
249.832	128.06
250.066	113.06
250.299	128.06
250.532	134.06
250.765	151.06
250.998	154.06
251.231	154.06
251.465	147.06
251.698	130.06
251.931	133.06
252.164	137.06
252.397	135.06
252.63	132.06
252.863	130.06
253.096	153.06
253.329	139.06
253.562	151.06
253.795	141.06
254.028	151.06
254.261	156.06
254.494	153.06
254.727	171.06
254.96	174.06
255.193	170.06
255.426	171.06
255.659	145.06
255.892	147.06
256.124	154.06
256.357	138.06
256.59	147.06
256.823	137.06
257.056	151.06
257.289	146.06
257.521	135.06
257.754	143.06
257.987	142.06
258.22	145.06
258.452	142.06
258.685	136.06
258.918	138.06
259.151	131.06
259.383	134.06
259.616	138.06
259.849	147.06
260.081	141.06
260.314	163.06
260.547	175.06
260.779	148.06
261.012	143.06
261.244	143.06
261.477	142.06
261.71	128.06
261.942	141.06
262.175	149.06
262.407	151.06
262.64	139.06
262.872	136.06
263.105	138.06
263.337	132.06
263.57	153.06
263.802	157.06
264.035	143.06
264.267	130.06
264.499	142.06
264.732	127.06
264.964	137.06
265.197	147.06
265.429	129.06
265.661	128.06
265.894	134.06
266.126	144.06
266.358	133.06
266.591	136.06
266.823	145.06
267.055	145.06
267.287	141.06
267.52	138.06
267.752	141.06
267.984	120.06
268.216	158.06
268.448	150.06
268.681	142.06
268.913	145.06
269.145	177.06
269.377	174.06
269.609	169.06
269.841	161.06
270.073	172.06
270.306	181.06
270.538	194.06
270.77	181.06
271.002	188.06
271.234	181.06
271.466	198.06
271.698	185.06
271.93	183.06
272.162	175.06
272.394	192.06
272.626	176.06
272.858	171.06
273.09	162.06
273.322	171.06
273.553	163.06
273.785	160.06
274.017	171.06
274.249	162.06
274.481	151.06
274.713	163.06
274.945	162.06
275.176	165.06
275.408	173.06
275.64	164.06
275.872	157.06
276.104	165.06
276.335	161.06
276.567	175.06
276.799	178.06
277.031	199.06
277.262	199.06
277.494	195.06
277.726	189.06
277.957	166.06
278.189	182.06
278.421	149.06
278.652	158.06
278.884	155.06
279.115	174.06
279.347	161.06
279.579	154.06
279.81	144.06
280.042	162.06
280.273	175.06
280.505	162.06
280.736	174.06
280.968	170.06
281.199	163.06
281.431	156.06
281.662	154.06
281.894	162.06
282.125	165.06
282.356	175.06
282.588	190.06
282.819	170.06
283.051	164.06
283.282	150.06
283.513	164.06
283.745	173.06
283.976	176.06
284.207	191.06
284.439	168.06
284.67	176.06
284.901	172.06
285.132	180.06
285.364	164.06
285.595	168.06
285.826	188.06
286.057	168.06
286.288	179.06
286.52	179.06
286.751	169.06
286.982	165.06
287.213	170.06
287.444	171.06
287.675	171.06
287.906	179.06
288.138	188.06
288.369	173.06
288.6	179.06
288.831	181.06
289.062	181.06
289.293	187.06
289.524	180.06
289.755	181.06
289.986	172.06
290.217	181.06
290.448	156.06
290.679	167.06
290.91	179.06
291.141	174.06
291.371	193.06
291.602	168.06
291.833	178.06
292.064	167.06
292.295	182.06
292.526	146.06
292.757	175.06
292.987	175.06
293.218	181.06
293.449	177.06
293.68	170.06
293.91	177.06
294.141	171.06
294.372	196.06
294.603	174.06
294.833	178.06
295.064	177.06
295.295	187.06
295.525	174.06
295.756	178.06
295.987	187.06
296.217	192.06
296.448	191.06
296.679	191.06
296.909	192.06
297.14	185.06
297.37	195.06
297.601	179.06
297.831	189.06
298.062	198.06
298.292	190.06
298.523	169.06
298.753	183.06
298.984	191.06
299.214	174.06
299.445	172.06
299.675	199.06
299.905	199.06
300.136	178.06
300.366	184.06
300.597	174.06
300.827	206.06
301.057	178.06
301.288	186.06
301.518	201.06
301.748	205.06
301.979	186.06
302.209	197.06
302.439	202.06
302.669	197.06
302.9	192.06
303.13	177.06
303.36	202.06
303.59	203.06
303.82	210.06
304.051	206.06
304.281	184.06
304.511	203.06
304.741	183.06
304.971	190.06
305.201	189.06
305.431	200.06
305.661	181.06
305.891	193.06
306.121	201.06
306.352	186.06
306.582	207.06
306.812	192.06
307.042	199.06
307.272	195.06
307.502	195.06
307.731	200.06
307.961	184.06
308.191	189.06
308.421	181.06
308.651	201.06
308.881	191.06
309.111	206.06
309.341	204.06
309.571	194.06
309.8	198.06
310.03	217.06
310.26	212.06
310.49	211.06
310.72	217.06
310.949	222.06
311.179	238.06
311.409	218.06
311.639	213.06
311.868	210.06
312.098	217.06
312.328	222.06
312.557	217.06
312.787	253.06
313.017	236.06
313.246	216.06
313.476	199.06
313.706	193.06
313.935	226.06
314.165	224.06
314.394	230.06
314.624	216.06
314.853	218.06
315.083	236.06
315.312	217.06
315.542	214.06
315.771	210.06
316.001	206.06
316.23	210.06
316.46	204.06
316.689	211.06
316.919	215.06
317.148	207.06
317.377	227.06
317.607	216.06
317.836	201.06
318.065	209.06
318.295	203.06
318.524	229.06
318.753	210.06
318.983	225.06
319.212	214.06
319.441	204.06
319.67	226.06
319.9	208.06
320.129	215.06
320.358	211.06
320.587	214.06
320.816	223.06
321.046	207.06
321.275	219.06
321.504	229.06
321.733	207.06
321.962	235.06
322.191	235.06
322.42	248.06
322.649	261.06
322.878	239.06
323.108	255.06
323.337	251.06
323.566	270.06
323.795	298.06
324.024	309.06
324.253	373.06
324.482	540.06
324.71	824.06
324.939	1078.06
325.168	870.06
325.397	457.06
325.626	317.06
325.855	285.06
326.084	263.06
326.313	268.06
326.542	266.06
326.77	288.06
326.999	370.06
327.228	492.06
327.457	711.06
327.686	799.06
327.914	537.06
328.143	383.06
328.372	346.06
328.6	330.06
328.829	301.06
329.058	321.06
329.287	321.06
329.515	314.06
329.744	281.06
329.972	297.06
330.201	301.06
330.43	331.06
330.658	355.06
330.887	343.06
331.115	330.06
331.344	281.06
331.572	258.06
331.801	287.06
332.03	271.06
332.258	257.06
332.486	225.06
332.715	258.06
332.943	238.06
333.172	247.06
333.4	239.06
333.629	267.06
333.857	269.06
334.085	275.06
334.314	267.06
334.542	325.06
334.771	326.06
334.999	289.06
335.227	275.06
335.455	264.06
335.684	268.06
335.912	243.06
336.14	247.06
336.369	231.06
336.597	245.06
336.825	259.06
337.053	245.06
337.281	226.06
337.51	209.06
337.738	230.06
337.966	247.06
338.194	237.06
338.422	238.06
338.65	236.06
338.878	218.06
339.106	239.06
339.334	247.06
339.562	226.06
339.79	237.06
340.018	229.06
340.246	224.06
340.474	233.06
340.702	242.06
340.93	225.06
341.158	233.06
341.386	231.06
341.614	228.06
341.842	222.06
342.07	242.06
342.298	222.06
342.526	236.06
342.754	214.06
342.981	215.06
343.209	226.06
343.437	211.06
343.665	225.06
343.893	234.06
344.12	253.06
344.348	240.06
344.576	232.06
344.804	239.06
345.031	241.06
345.259	246.06
345.487	231.06
345.714	232.06
345.942	216.06
346.17	222.06
346.397	240.06
346.625	223.06
346.853	243.06
347.08	238.06
347.308	235.06
347.535	230.06
347.763	234.06
347.99	235.06
348.218	255.06
348.445	239.06
348.673	224.06
348.9	225.06
349.128	234.06
349.355	237.06
349.583	225.06
349.81	202.06
350.037	218.06
350.265	240.06
350.492	236.06
350.72	221.06
350.947	223.06
351.174	241.06
351.402	233.06
351.629	242.06
351.856	230.06
352.083	230.06
352.311	241.06
352.538	229.06
352.765	245.06
352.992	247.06
353.22	222.06
353.447	245.06
353.674	228.06
353.901	220.06
354.128	215.06
354.355	208.06
354.583	207.06
354.81	208.06
355.037	207.06
355.264	213.06
355.491	225.06
355.718	219.06
355.945	219.06
356.172	211.06
356.399	220.06
356.626	194.06
356.853	205.06
357.08	204.06
357.307	225.06
357.534	204.06
357.761	217.06
357.988	197.06
358.215	206.06
358.441	198.06
358.668	207.06
358.895	202.06
359.122	207.06
359.349	214.06
359.576	245.06
359.802	230.06
360.029	267.06
360.256	276.06
360.483	250.06
360.709	249.06
360.936	236.06
361.163	227.06
361.39	235.06
361.616	221.06
361.843	229.06
362.07	216.06
362.296	199.06
362.523	222.06
362.749	213.06
362.976	219.06
363.203	214.06
363.429	208.06
363.656	225.06
363.882	221.06
364.109	216.06
364.335	213.06
364.562	213.06
364.788	208.06
365.015	215.06
365.241	214.06
365.468	214.06
365.694	237.06
365.92	221.06
366.147	207.06
366.373	221.06
366.599	229.06
366.826	211.06
367.052	208.06
367.278	207.06
367.505	214.06
367.731	228.06
367.957	222.06
368.184	227.06
368.41	212.06
368.636	231.06
368.862	222.06
369.089	217.06
369.315	225.06
369.541	213.06
369.767	219.06
369.993	221.06
370.219	211.06
370.445	204.06
370.672	212.06
370.898	219.06
371.124	237.06
371.35	211.06
371.576	205.06
371.802	212.06
372.028	208.06
372.254	232.06
372.48	227.06
372.706	217.06
372.932	217.06
373.158	212.06
373.384	217.06
373.61	209.06
373.835	216.06
374.061	208.06
374.287	226.06
374.513	221.06
374.739	220.06
374.965	215.06
375.191	200.06
375.416	216.06
375.642	208.06
375.868	215.06
376.094	211.06
376.319	216.06
376.545	214.06
376.771	195.06
376.997	215.06
377.222	205.06
377.448	220.06
377.674	221.06
377.899	210.06
378.125	227.06
378.35	201.06
378.576	209.06
378.802	211.06
379.027	204.06
379.253	203.06
379.478	211.06
379.704	223.06
379.929	225.06
380.155	219.06
380.38	224.06
380.606	222.06
380.831	234.06
381.057	226.06
381.282	225.06
381.507	218.06
381.733	201.06
381.958	201.06
382.184	205.06
382.409	206.06
382.634	211.06
382.86	203.06
383.085	240.06
383.31	230.06
383.535	208.06
383.761	215.06
383.986	231.06
384.211	218.06
384.436	208.06
384.662	215.06
384.887	215.06
385.112	216.06
385.337	217.06
385.562	227.06
385.787	217.06
386.013	237.06
386.238	233.06
386.463	223.06
386.688	232.06
386.913	211.06
387.138	223.06
387.363	221.06
387.588	226.06
387.813	236.06
388.038	213.06
388.263	218.06
388.488	214.06
388.713	240.06
388.938	204.06
389.163	222.06
389.387	225.06
389.612	231.06
389.837	227.06
390.062	231.06
390.287	223.06
390.512	234.06
390.736	230.06
390.961	213.06
391.186	216.06
391.411	224.06
391.636	223.06
391.86	232.06
392.085	229.06
392.31	237.06
392.534	250.06
392.759	228.06
392.984	235.06
393.208	229.06
393.433	238.06
393.658	250.06
393.882	225.06
394.107	213.06
394.331	221.06
394.556	208.06
394.78	228.06
395.005	207.06
395.229	229.06
395.454	225.06
395.678	238.06
395.903	255.06
396.127	263.06
396.352	250.06
396.576	221.06
396.801	240.06
397.025	238.06
397.249	225.06
397.474	233.06
397.698	236.06
397.922	256.06
398.147	262.06
398.371	278.06
398.595	258.06
398.82	255.06
399.044	239.06
399.268	245.06
399.492	281.06
399.717	294.06
399.941	308.06
400.165	310.06
400.389	307.06
400.613	279.06
400.837	270.06
401.062	251.06
401.286	241.06
401.51	257.06
401.734	256.06
401.958	249.06
402.182	254.06
402.406	263.06
402.63	254.06
402.854	249.06
403.078	257.06
403.302	270.06
403.526	262.06
403.75	264.06
403.974	281.06
404.198	271.06
404.422	260.06
404.645	267.06
404.869	278.06
405.093	277.06
405.317	306.06
405.541	312.06
405.765	266.06
405.988	284.06
406.212	289.06
406.436	327.06
406.66	325.06
406.883	289.06
407.107	285.06
407.331	327.06
407.555	345.06
407.778	347.06
408.002	297.06
408.226	295.06
408.449	286.06
408.673	304.06
408.896	279.06
409.12	319.06
409.344	307.06
409.567	270.06
409.791	295.06
410.014	252.06
410.238	279.06
410.461	267.06
410.685	270.06
410.908	267.06
411.132	283.06
411.355	318.06
411.578	273.06
411.802	278.06
412.025	253.06
412.249	273.06
412.472	283.06
412.695	282.06
412.919	283.06
413.142	272.06
413.365	271.06
413.589	261.06
413.812	248.06
414.035	251.06
414.258	250.06
414.482	253.06
414.705	246.06
414.928	244.06
415.151	265.06
415.374	253.06
415.597	249.06
415.821	239.06
416.044	252.06
416.267	246.06
416.49	258.06
416.713	247.06
416.936	259.06
417.159	243.06
417.382	254.06
417.605	270.06
417.828	273.06
418.051	262.06
418.274	276.06
418.497	257.06
418.72	260.06
418.943	267.06
419.166	258.06
419.389	278.06
419.611	265.06
419.834	261.06
420.057	262.06
420.28	276.06
420.503	274.06
420.726	275.06
420.948	280.06
421.171	290.06
421.394	310.06
421.617	271.06
421.839	270.06
422.062	260.06
422.285	274.06
422.507	284.06
422.73	326.06
422.953	317.06
423.175	286.06
423.398	269.06
423.621	281.06
423.843	277.06
424.066	275.06
424.288	297.06
424.511	317.06
424.733	321.06
424.956	345.06
425.178	316.06
425.401	343.06
425.623	329.06
425.846	300.06
426.068	281.06
426.291	272.06
426.513	273.06
426.735	287.06
426.958	297.06
427.18	328.06
427.402	362.06
427.625	426.06
427.847	379.06
428.069	307.06
428.292	290.06
428.514	275.06
428.736	255.06
428.958	255.06
429.181	249.06
429.403	264.06
429.625	267.06
429.847	283.06
430.069	323.06
430.292	312.06
430.514	252.06
430.736	265.06
430.958	269.06
431.18	252.06
431.402	264.06
431.624	254.06
431.846	265.06
432.068	245.06
432.29	245.06
432.512	250.06
432.734	237.06
432.956	239.06
433.178	271.06
433.4	247.06
433.622	251.06
433.844	270.06
434.066	253.06
434.287	256.06
434.509	245.06
434.731	247.06
434.953	271.06
435.175	279.06
435.397	283.06
435.618	289.06
435.84	296.06
436.062	339.06
436.284	362.06
436.505	301.06
436.727	280.06
436.949	271.06
437.17	277.06
437.392	254.06
437.614	286.06
437.835	285.06
438.057	327.06
438.278	370.06
438.5	350.06
438.721	385.06
438.943	363.06
439.165	299.06
439.386	287.06
439.608	294.06
439.829	295.06
440.05	295.06
440.272	310.06
440.493	306.06
440.715	283.06
440.936	276.06
441.158	259.06
441.379	269.06
441.6	265.06
441.822	297.06
442.043	307.06
442.264	343.06
442.486	353.06
442.707	317.06
442.928	306.06
443.149	302.06
443.371	307.06
443.592	324.06
443.813	346.06
444.034	377.06
444.255	309.06
444.476	285.06
444.698	276.06
444.919	285.06
445.14	381.06
445.361	334.06
445.582	304.06
445.803	340.06
446.024	378.06
446.245	400.06
446.466	325.06
446.687	289.06
446.908	293.06
447.129	265.06
447.35	262.06
447.571	263.06
447.792	265.06
448.013	280.06
448.234	271.06
448.455	287.06
448.675	343.06
448.896	364.06
449.117	323.06
449.338	296.06
449.559	357.06
449.779	370.06
450	322.06
450.221	270.06
450.442	262.06
450.662	276.06
450.883	244.06
451.104	268.06
451.324	261.06
451.545	250.06
451.766	244.06
451.986	237.06
452.207	254.06
452.428	253.06
452.648	250.06
452.869	241.06
453.089	250.06
453.31	250.06
453.53	246.06
453.751	246.06
453.971	239.06
454.192	249.06
454.412	253.06
454.633	233.06
454.853	230.06
455.073	228.06
455.294	250.06
455.514	290.06
455.734	275.06
455.955	246.06
456.175	230.06
456.395	218.06
456.616	218.06
456.836	216.06
457.056	228.06
457.276	219.06
457.497	224.06
457.717	236.06
457.937	224.06
458.157	231.06
458.377	229.06
458.598	250.06
458.818	297.06
459.038	331.06
459.258	301.06
459.478	261.06
459.698	240.06
459.918	252.06
460.138	241.06
460.358	254.06
460.578	253.06
460.798	263.06
461.018	269.06
461.238	257.06
461.458	250.06
461.678	240.06
461.898	261.06
462.118	260.06
462.338	242.06
462.558	265.06
462.777	262.06
462.997	254.06
463.217	266.06
463.437	272.06
463.657	275.06
463.876	273.06
464.096	253.06
464.316	286.06
464.536	275.06
464.755	266.06
464.975	295.06
465.195	317.06
465.414	360.06
465.634	299.06
465.854	285.06
466.073	264.06
466.293	254.06
466.512	258.06
466.732	237.06
466.951	224.06
467.171	237.06
467.391	252.06
467.61	239.06
467.829	257.06
468.049	263.06
468.268	254.06
468.488	240.06
468.707	224.06
468.927	228.06
469.146	228.06
469.365	238.06
469.585	242.06
469.804	241.06
470.023	263.06
470.243	263.06
470.462	250.06
470.681	266.06
470.901	258.06
471.12	258.06
471.339	243.06
471.558	276.06
471.777	255.06
471.997	240.06
472.216	237.06
472.435	293.06
472.654	276.06
472.873	239.06
473.092	261.06
473.311	277.06
473.53	232.06
473.749	249.06
473.968	272.06
474.187	319.06
474.406	322.06
474.625	277.06
474.844	274.06
475.063	247.06
475.282	238.06
475.501	249.06
475.72	249.06
475.939	250.06
476.158	237.06
476.377	258.06
476.596	239.06
476.814	266.06
477.033	263.06
477.252	253.06
477.471	252.06
477.69	264.06
477.908	241.06
478.127	282.06
478.346	267.06
478.564	277.06
478.783	262.06
479.002	270.06
479.22	284.06
479.439	296.06
479.658	272.06
479.876	286.06
480.095	298.06
480.313	302.06
480.532	286.06
480.751	319.06
480.969	305.06
481.188	380.06
481.406	373.06
481.624	328.06
481.843	313.06
482.061	291.06
482.28	285.06
482.498	290.06
482.717	275.06
482.935	270.06
483.153	297.06
483.372	271.06
483.59	288.06
483.808	280.06
484.027	267.06
484.245	285.06
484.463	284.06
484.681	295.06
484.9	291.06
485.118	304.06
485.336	298.06
485.554	294.06
485.772	302.06
485.99	289.06
486.209	286.06
486.427	290.06
486.645	295.06
486.863	289.06
487.081	323.06
487.299	291.06
487.517	295.06
487.735	314.06
487.953	299.06
488.171	294.06
488.389	302.06
488.607	286.06
488.825	298.06
489.043	309.06
489.261	305.06
489.479	298.06
489.696	317.06
489.914	322.06
490.132	327.06
490.35	318.06
490.568	321.06
490.786	329.06
491.003	342.06
491.221	351.06
491.439	378.06
491.657	342.06
491.874	359.06
492.092	366.06
492.31	377.06
492.527	360.06
492.745	346.06
492.963	366.06
493.18	334.06
493.398	360.06
493.615	372.06
493.833	361.06
494.05	373.06
494.268	357.06
494.485	361.06
494.703	363.06
494.92	362.06
495.138	357.06
495.355	352.06
495.573	358.06
495.79	383.06
496.008	365.06
496.225	345.06
496.442	351.06
496.66	351.06
496.877	345.06
497.094	350.06
497.312	362.06
497.529	350.06
497.746	353.06
497.963	383.06
498.181	368.06
498.398	363.06
498.615	376.06
498.832	377.06
499.049	370.06
499.267	382.06
499.484	394.06
499.701	425.06
499.918	441.06
500.135	450.06
500.352	448.06
500.569	471.06
500.786	466.06
501.003	470.06
501.22	461.06
501.437	437.06
501.654	429.06
501.871	415.06
502.088	414.06
502.305	399.06
502.522	399.06
502.739	399.06
502.956	372.06
503.172	344.06
503.389	342.06
503.606	368.06
503.823	362.06
504.04	349.06
504.256	361.06
504.473	342.06
504.69	340.06
504.907	339.06
505.123	345.06
505.34	349.06
505.557	343.06
505.773	339.06
505.99	346.06
506.207	338.06
506.423	337.06
506.64	350.06
506.856	344.06
507.073	318.06
507.289	328.06
507.506	334.06
507.722	354.06
507.939	350.06
508.155	334.06
508.372	316.06
508.588	317.06
508.805	313.06
509.021	310.06
509.238	349.06
509.454	329.06
509.67	334.06
509.887	319.06
510.103	326.06
510.319	321.06
510.536	383.06
510.752	785.06
510.968	577.06
511.184	338.06
511.401	319.06
511.617	317.06
511.833	294.06
512.049	301.06
512.265	307.06
512.481	309.06
512.698	295.06
512.914	312.06
513.13	297.06
513.346	288.06
513.562	301.06
513.778	310.06
513.994	333.06
514.21	291.06
514.426	323.06
514.642	367.06
514.858	350.06
515.074	404.06
515.29	513.06
515.506	849.06
515.721	646.06
515.937	391.06
516.153	333.06
516.369	319.06
516.585	346.06
516.801	293.06
517.016	321.06
517.232	317.06
517.448	297.06
517.664	292.06
517.879	314.06
518.095	315.06
518.311	309.06
518.527	300.06
518.742	297.06
518.958	298.06
519.173	285.06
519.389	318.06
519.605	298.06
519.82	297.06
520.036	319.06
520.251	329.06
520.467	348.06
520.682	330.06
520.898	336.06
521.113	364.06
521.329	395.06
521.544	453.06
521.76	588.06
521.975	1154.06
522.19	1149.06
522.406	535.06
522.621	385.06
522.836	331.06
523.052	300.06
523.267	281.06
523.482	275.06
523.698	267.06
523.913	281.06
524.128	271.06
524.343	247.06
524.559	270.06
524.774	281.06
524.989	256.06
525.204	273.06
525.419	264.06
525.634	255.06
525.849	267.06
526.064	250.06
526.28	276.06
526.495	264.06
526.71	251.06
526.925	241.06
527.14	245.06
527.355	233.06
527.57	249.06
527.785	254.06
527.999	247.06
528.214	254.06
528.429	245.06
528.644	251.06
528.859	259.06
529.074	262.06
529.289	274.06
529.503	337.06
529.718	339.06
529.933	291.06
530.148	263.06
530.363	270.06
530.577	255.06
530.792	248.06
531.007	262.06
531.221	244.06
531.436	237.06
531.651	229.06
531.865	245.06
532.08	247.06
532.295	242.06
532.509	234.06
532.724	236.06
532.938	238.06
533.153	241.06
533.367	242.06
533.582	215.06
533.796	252.06
534.011	218.06
534.225	247.06
534.44	251.06
534.654	235.06
534.868	239.06
535.083	244.06
535.297	253.06
535.511	254.06
535.726	254.06
535.94	254.06
536.154	253.06
536.369	237.06
536.583	232.06
536.797	241.06
537.011	236.06
537.225	240.06
537.44	231.06
537.654	235.06
537.868	220.06
538.082	245.06
538.296	247.06
538.51	242.06
538.724	238.06
538.938	217.06
539.153	254.06
539.367	237.06
539.581	263.06
539.795	245.06
540.009	229.06
540.222	237.06
540.436	236.06
540.65	249.06
540.864	249.06
541.078	235.06
541.292	248.06
541.506	248.06
541.72	240.06
541.934	233.06
542.147	264.06
542.361	231.06
542.575	240.06
542.789	228.06
543.002	218.06
543.216	245.06
543.43	243.06
543.644	227.06
543.857	227.06
544.071	240.06
544.285	237.06
544.498	236.06
544.712	232.06
544.925	242.06
545.139	242.06
545.352	224.06
545.566	229.06
545.779	223.06
545.993	229.06
546.206	238.06
546.42	222.06
546.633	230.06
546.847	223.06
547.06	232.06
547.274	213.06
547.487	232.06
547.7	228.06
547.914	219.06
548.127	241.06
548.34	232.06
548.554	204.06
548.767	198.06
548.98	225.06
549.193	226.06
549.407	226.06
549.62	233.06
549.833	221.06
550.046	232.06
550.259	214.06
550.473	237.06
550.686	222.06
550.899	230.06
551.112	224.06
551.325	222.06
551.538	247.06
551.751	214.06
551.964	208.06
552.177	208.06
552.39	221.06
552.603	214.06
552.816	214.06
553.029	232.06
553.242	213.06
553.455	233.06
553.667	250.06
553.88	259.06
554.093	242.06
554.306	229.06
554.519	230.06
554.732	231.06
554.944	222.06
555.157	206.06
555.37	217.06
555.583	217.06
555.795	214.06
556.008	222.06
556.221	218.06
556.433	203.06
556.646	201.06
556.859	222.06
557.071	199.06
557.284	206.06
557.496	208.06
557.709	198.06
557.921	207.06
558.134	202.06
558.346	208.06
558.559	215.06
558.771	205.06
558.984	194.06
559.196	208.06
559.409	207.06
559.621	201.06
559.833	195.06
560.046	209.06
560.258	210.06
560.47	208.06
560.683	205.06
560.895	207.06
561.107	189.06
561.32	202.06
561.532	189.06
561.744	215.06
561.956	212.06
562.168	216.06
562.381	205.06
562.593	206.06
562.805	183.06
563.017	193.06
563.229	198.06
563.441	200.06
563.653	223.06
563.865	217.06
564.077	200.06
564.289	200.06
564.501	217.06
564.713	203.06
564.925	218.06
565.137	211.06
565.349	226.06
565.561	215.06
565.773	216.06
565.985	211.06
566.197	238.06
566.408	217.06
566.62	241.06
566.832	238.06
567.044	214.06
567.255	223.06
567.467	239.06
567.679	227.06
567.891	233.06
568.102	238.06
568.314	230.06
568.526	220.06
568.737	218.06
568.949	238.06
569.161	212.06
569.372	218.06
569.584	209.06
569.795	199.06
570.007	195.06
570.218	234.06
570.43	228.06
570.641	199.06
570.853	200.06
571.064	197.06
571.276	204.06
571.487	192.06
571.698	202.06
571.91	178.06
572.121	189.06
572.333	167.06
572.544	176.06
572.755	210.06
572.966	207.06
573.178	186.06
573.389	184.06
573.6	179.06
573.811	183.06
574.023	186.06
574.234	201.06
574.445	185.06
574.656	185.06
574.867	191.06
575.078	185.06
575.289	169.06
575.501	172.06
575.712	181.06
575.923	177.06
576.134	187.06
576.345	180.06
576.556	174.06
576.767	186.06
576.978	190.06
577.188	186.06
577.399	172.06
577.61	186.06
577.821	188.06
578.032	183.06
578.243	207.06
578.454	389.06
578.665	265.06
578.875	185.06
579.086	172.06
579.297	173.06
579.508	175.06
579.718	175.06
579.929	175.06
580.14	172.06
580.35	177.06
580.561	164.06
580.772	186.06
580.982	182.06
581.193	166.06
581.403	175.06
581.614	173.06
581.825	160.06
582.035	171.06
582.246	173.06
582.456	171.06
582.667	167.06
582.877	183.06
583.087	182.06
583.298	171.06
583.508	165.06
583.719	161.06
583.929	164.06
584.139	157.06
584.35	161.06
584.56	169.06
584.77	173.06
584.981	165.06
585.191	171.06
585.401	178.06
585.611	175.06
585.821	156.06
586.032	171.06
586.242	166.06
586.452	170.06
586.662	169.06
586.872	163.06
587.082	154.06
587.292	167.06
587.502	168.06
587.713	142.06
587.923	173.06
588.133	169.06
588.343	154.06
588.553	182.06
588.762	158.06
588.972	166.06
589.182	163.06
589.392	153.06
589.602	162.06
589.812	170.06
590.022	171.06
590.232	169.06
590.441	164.06
590.651	165.06
590.861	161.06
591.071	169.06
591.281	169.06
591.49	162.06
591.7	175.06
591.91	175.06
592.119	154.06
592.329	197.06
592.539	170.06
592.748	176.06
592.958	160.06
593.167	157.06
593.377	178.06
593.587	178.06
593.796	166.06
594.006	167.06
594.215	160.06
594.424	166.06
594.634	169.06
594.843	173.06
595.053	156.06
595.262	168.06
595.472	176.06
595.681	160.06
595.89	171.06
596.1	167.06
596.309	164.06
596.518	153.06
596.727	153.06
596.937	170.06
597.146	164.06
597.355	149.06
597.564	159.06
597.774	160.06
597.983	159.06
598.192	166.06
598.401	158.06
598.61	139.06
598.819	152.06
599.028	135.06
599.237	147.06
599.446	155.06
599.655	143.06
599.864	139.06
600.073	147.06
600.282	153.06
600.491	143.06
600.7	158.06
600.909	150.06
601.118	158.06
601.327	154.06
601.536	157.06
601.745	162.06
601.953	153.06
602.162	152.06
602.371	173.06
602.58	152.06
602.789	148.06
602.997	143.06
603.206	144.06
603.415	166.06
603.623	154.06
603.832	152.06
604.041	147.06
604.249	147.06
604.458	146.06
604.666	163.06
604.875	132.06
605.084	145.06
605.292	150.06
605.501	150.06
605.709	143.06
605.918	158.06
606.126	133.06
606.334	145.06
606.543	136.06
606.751	147.06
606.96	145.06
607.168	167.06
607.376	147.06
607.585	143.06
607.793	158.06
608.001	143.06
608.21	159.06
608.418	155.06
608.626	141.06
608.834	153.06
609.043	145.06
609.251	160.06
609.459	152.06
609.667	138.06
609.875	145.06
610.083	147.06
610.291	144.06
610.499	137.06
610.707	140.06
610.916	144.06
611.124	142.06
611.332	153.06
611.54	150.06
611.748	154.06
611.955	158.06
612.163	162.06
612.371	152.06
612.579	139.06
612.787	159.06
612.995	151.06
613.203	159.06
613.411	153.06
613.618	151.06
613.826	151.06
614.034	152.06
614.242	139.06
614.449	159.06
614.657	145.06
614.865	136.06
615.072	158.06
615.28	142.06
615.488	151.06
615.695	151.06
615.903	162.06
616.111	160.06
616.318	140.06
616.526	134.06
616.733	150.06
616.941	167.06
617.148	126.06
617.356	153.06
617.563	147.06
617.771	140.06
617.978	167.06
618.185	153.06
618.393	159.06
618.6	159.06
618.807	151.06
619.015	160.06
619.222	137.06
619.429	154.06
619.637	133.06
619.844	138.06
620.051	148.06
620.258	142.06
620.466	138.06
620.673	143.06
620.88	143.06
621.087	140.06
621.294	129.06
621.501	143.06
621.708	153.06
621.915	159.06
622.122	130.06
622.329	160.06
622.536	142.06
622.743	135.06
622.95	139.06
623.157	122.06
623.364	131.06
623.571	144.06
623.778	119.06
623.985	129.06
624.192	127.06
624.399	139.06
624.606	147.06
624.812	130.06
625.019	127.06
625.226	134.06
625.433	129.06
625.639	129.06
625.846	130.06
626.053	126.06
626.259	129.06
626.466	129.06
626.673	136.06
626.879	133.06
627.086	135.06
627.293	138.06
627.499	129.06
627.706	135.06
627.912	135.06
628.119	135.06
628.325	136.06
628.532	133.06
628.738	137.06
628.945	138.06
629.151	134.06
629.357	124.06
629.564	125.06
629.77	132.06
629.976	130.06
630.183	138.06
630.389	135.06
630.595	133.06
630.802	115.06
631.008	135.06
631.214	131.06
631.42	142.06
631.627	144.06
631.833	132.06
632.039	137.06
632.245	124.06
632.451	136.06
632.657	126.06
632.863	130.06
633.069	140.06
633.275	107.06
633.481	121.06
633.688	110.06
633.893	129.06
634.099	132.06
634.305	110.06
634.511	137.06
634.717	129.06
634.923	115.06
635.129	138.06
635.335	120.06
635.541	127.06
635.747	114.06
635.952	133.06
636.158	121.06
636.364	130.06
636.57	134.06
636.775	130.06
636.981	139.06
637.187	127.06
637.392	117.06
637.598	127.06
637.804	113.06
638.009	112.06
638.215	125.06
638.421	123.06
638.626	117.06
638.832	141.06
639.037	122.06
639.243	117.06
639.448	133.06
639.654	114.06
639.859	131.06
640.065	121.06
640.27	128.06
640.475	134.06
640.681	127.06
640.886	129.06
641.091	126.06
641.297	112.06
641.502	110.06
641.707	135.06
641.913	127.06
642.118	125.06
642.323	131.06
642.528	119.06
642.733	124.06
642.939	130.06
643.144	127.06
643.349	110.06
643.554	105.06
643.759	119.06
643.964	126.06
644.169	110.06
644.374	118.06
644.579	122.06
644.784	109.06
644.989	127.06
645.194	121.06
645.399	116.06
645.604	113.06
645.809	115.06
646.014	110.06
646.219	126.06
646.423	120.06
646.628	126.06
646.833	112.06
647.038	133.06
647.243	135.06
647.447	122.06
647.652	107.06
647.857	129.06
648.062	121.06
648.266	115.06
648.471	120.06
648.676	124.06
648.88	131.06
649.085	124.06
649.289	121.06
649.494	133.06
649.698	120.06
649.903	127.06
650.107	126.06
650.312	122.06
650.516	118.06
650.721	125.06
650.925	114.06
651.13	119.06
651.334	100.06
651.539	123.06
651.743	121.06
651.947	120.06
652.152	119.06
652.356	108.06
652.56	111.06
652.764	103.06
652.969	102.06
653.173	97.06
653.377	101.06
653.581	120.06
653.785	105.06
653.99	121.06
654.194	120.06
654.398	112.06
654.602	118.06
654.806	97.06
655.01	117.06
655.214	126.06
655.418	95.06
655.622	111.06
655.826	126.06
656.03	107.06
656.234	106.06
656.438	110.06
656.642	114.06
656.846	119.06
657.049	117.06
657.253	113.06
657.457	109.06
657.661	118.06
657.865	97.06
658.068	97.06
658.272	114.06
658.476	85.06
658.68	93.06
658.883	97.06
659.087	88.06
659.291	105.06
659.494	98.06
659.698	79.06
659.901	101.06
660.105	85.06
660.309	87.06
660.512	97.06
660.716	93.06
660.919	100.06
661.123	99.06
661.326	74.06
661.53	95.06
661.733	83.06
661.936	98.06
662.14	69.06
662.343	74.06
662.546	94.06
662.75	88.06
662.953	98.06
663.156	83.06
663.36	77.06
663.563	90.06
663.766	75.06
663.969	81.06
664.173	76.06
664.376	88.06
664.579	79.06
664.782	85.06
664.985	79.06
665.188	99.06
665.391	93.06
665.594	95.06
665.797	92.06
666	77.06
666.203	98.06
666.406	91.06
666.609	87.06
666.812	80.06
667.015	102.06
667.218	80.06
667.421	81.06
667.624	78.06
667.827	98.06
668.03	85.06
668.232	90.06
668.435	80.06
668.638	80.06
668.841	81.06
669.043	92.06
669.246	85.06
669.449	85.06
669.651	83.06
669.854	80.06
670.057	73.06
670.259	81.06
670.462	92.06
670.665	88.06
670.867	70.06
671.07	78.06
671.272	90.06
671.475	86.06
671.677	92.06
671.88	81.06
672.082	89.06
672.284	87.06
672.487	80.06
672.689	101.06
672.892	76.06
