Data from 1966.PennyLincolnUp.Lamp.En5.5.200Scan.071719.P1._HRD10591_14-13-58-915.txt Node
Date: Thu Jul 18 14:13:58 EDT 2019
User: cochatt
Spectrometer: HR+D1059
Trigger mode: 1
Integration Time (sec): 1.000000E-1
Scans to average: 1
Electric dark correction enabled: true
Nonlinearity correction enabled: false
Boxcar width: 0
XAxis mode: Wavelengths
Number of Pixels in Spectrum: 2048
>>>>>Begin Spectral Data<<<<<
223.165	-16.94
223.4	-16.94
223.635	-16.94
223.869	-1.94
224.104	-20.94
224.338	-2.94
224.573	-15.94
224.808	-6.94
225.042	-10.94
225.277	-8.94
225.511	-1.94
225.746	-4.94
225.98	7.06
226.215	7.06
226.449	-2.94
226.683	29.06
226.918	21.06
227.152	31.06
227.387	24.06
227.621	32.06
227.856	41.06
228.09	37.06
228.324	44.06
228.559	53.06
228.793	42.06
229.027	74.06
229.262	70.06
229.496	91.06
229.73	94.06
229.964	116.06
230.199	91.06
230.433	87.06
230.667	80.06
230.901	94.06
231.136	107.06
231.37	98.06
231.604	93.06
231.838	93.06
232.072	89.06
232.306	86.06
232.541	99.06
232.775	90.06
233.009	89.06
233.243	85.06
233.477	102.06
233.711	100.06
233.945	101.06
234.179	96.06
234.413	90.06
234.647	77.06
234.881	91.06
235.115	88.06
235.349	91.06
235.583	79.06
235.817	100.06
236.051	98.06
236.285	102.06
236.519	107.06
236.753	94.06
236.987	105.06
237.221	126.06
237.455	151.06
237.689	108.06
237.922	89.06
238.156	94.06
238.39	104.06
238.624	109.06
238.858	107.06
239.091	87.06
239.325	97.06
239.559	84.06
239.793	98.06
240.027	98.06
240.26	100.06
240.494	126.06
240.728	119.06
240.961	102.06
241.195	113.06
241.429	95.06
241.662	97.06
241.896	100.06
242.13	94.06
242.363	93.06
242.597	99.06
242.83	95.06
243.064	102.06
243.298	101.06
243.531	94.06
243.765	97.06
243.998	92.06
244.232	109.06
244.465	88.06
244.699	113.06
244.932	107.06
245.166	106.06
245.399	104.06
245.633	106.06
245.866	103.06
246.099	114.06
246.333	114.06
246.566	108.06
246.8	114.06
247.033	117.06
247.266	97.06
247.5	124.06
247.733	117.06
247.966	126.06
248.2	117.06
248.433	123.06
248.666	119.06
248.899	118.06
249.133	145.06
249.366	128.06
249.599	129.06
249.832	129.06
250.066	124.06
250.299	123.06
250.532	133.06
250.765	134.06
250.998	123.06
251.231	139.06
251.465	118.06
251.698	125.06
251.931	133.06
252.164	143.06
252.397	132.06
252.63	127.06
252.863	125.06
253.096	145.06
253.329	143.06
253.562	136.06
253.795	131.06
254.028	146.06
254.261	125.06
254.494	140.06
254.727	145.06
254.96	173.06
255.193	156.06
255.426	154.06
255.659	137.06
255.892	152.06
256.124	146.06
256.357	136.06
256.59	142.06
256.823	129.06
257.056	134.06
257.289	135.06
257.521	114.06
257.754	140.06
257.987	141.06
258.22	151.06
258.452	143.06
258.685	125.06
258.918	128.06
259.151	134.06
259.383	138.06
259.616	134.06
259.849	121.06
260.081	134.06
260.314	150.06
260.547	137.06
260.779	148.06
261.012	118.06
261.244	134.06
261.477	151.06
261.71	136.06
261.942	132.06
262.175	155.06
262.407	142.06
262.64	126.06
262.872	141.06
263.105	133.06
263.337	132.06
263.57	125.06
263.802	129.06
264.035	106.06
264.267	135.06
264.499	128.06
264.732	128.06
264.964	132.06
265.197	137.06
265.429	134.06
265.661	138.06
265.894	124.06
266.126	137.06
266.358	120.06
266.591	134.06
266.823	136.06
267.055	142.06
267.287	128.06
267.52	115.06
267.752	132.06
267.984	141.06
268.216	124.06
268.448	153.06
268.681	153.06
268.913	139.06
269.145	168.06
269.377	155.06
269.609	157.06
269.841	165.06
270.073	160.06
270.306	171.06
270.538	174.06
270.77	188.06
271.002	180.06
271.234	165.06
271.466	177.06
271.698	174.06
271.93	194.06
272.162	171.06
272.394	175.06
272.626	170.06
272.858	159.06
273.09	171.06
273.322	156.06
273.553	147.06
273.785	143.06
274.017	150.06
274.249	160.06
274.481	153.06
274.713	136.06
274.945	150.06
275.176	154.06
275.408	155.06
275.64	152.06
275.872	153.06
276.104	151.06
276.335	165.06
276.567	162.06
276.799	165.06
277.031	158.06
277.262	180.06
277.494	170.06
277.726	167.06
277.957	163.06
278.189	155.06
278.421	154.06
278.652	166.06
278.884	172.06
279.115	149.06
279.347	156.06
279.579	138.06
279.81	134.06
280.042	158.06
280.273	173.06
280.505	148.06
280.736	146.06
280.968	150.06
281.199	141.06
281.431	134.06
281.662	150.06
281.894	170.06
282.125	143.06
282.356	172.06
282.588	172.06
282.819	175.06
283.051	162.06
283.282	158.06
283.513	154.06
283.745	157.06
283.976	168.06
284.207	156.06
284.439	166.06
284.67	158.06
284.901	171.06
285.132	151.06
285.364	150.06
285.595	146.06
285.826	169.06
286.057	157.06
286.288	148.06
286.52	178.06
286.751	167.06
286.982	175.06
287.213	158.06
287.444	166.06
287.675	166.06
287.906	154.06
288.138	172.06
288.369	169.06
288.6	186.06
288.831	176.06
289.062	148.06
289.293	170.06
289.524	164.06
289.755	160.06
289.986	168.06
290.217	171.06
290.448	162.06
290.679	158.06
290.91	156.06
291.141	170.06
291.371	160.06
291.602	167.06
291.833	157.06
292.064	169.06
292.295	154.06
292.526	160.06
292.757	167.06
292.987	167.06
293.218	166.06
293.449	167.06
293.68	159.06
293.91	182.06
294.141	158.06
294.372	158.06
294.603	156.06
294.833	154.06
295.064	158.06
295.295	179.06
295.525	162.06
295.756	167.06
295.987	196.06
296.217	168.06
296.448	198.06
296.679	174.06
296.909	172.06
297.14	166.06
297.37	169.06
297.601	171.06
297.831	185.06
298.062	173.06
298.292	172.06
298.523	183.06
298.753	175.06
298.984	172.06
299.214	188.06
299.445	183.06
299.675	168.06
299.905	167.06
300.136	186.06
300.366	180.06
300.597	186.06
300.827	184.06
301.057	178.06
301.288	189.06
301.518	162.06
301.748	193.06
301.979	191.06
302.209	180.06
302.439	190.06
302.669	174.06
302.9	183.06
303.13	175.06
303.36	182.06
303.59	184.06
303.82	190.06
304.051	190.06
304.281	169.06
304.511	191.06
304.741	183.06
304.971	188.06
305.201	166.06
305.431	166.06
305.661	172.06
305.891	182.06
306.121	187.06
306.352	191.06
306.582	196.06
306.812	170.06
307.042	188.06
307.272	186.06
307.502	193.06
307.731	184.06
307.961	172.06
308.191	175.06
308.421	184.06
308.651	195.06
308.881	199.06
309.111	185.06
309.341	170.06
309.571	206.06
309.8	199.06
310.03	201.06
310.26	211.06
310.49	202.06
310.72	214.06
310.949	204.06
311.179	230.06
311.409	204.06
311.639	196.06
311.868	211.06
312.098	195.06
312.328	203.06
312.557	227.06
312.787	219.06
313.017	218.06
313.246	207.06
313.476	196.06
313.706	202.06
313.935	191.06
314.165	203.06
314.394	220.06
314.624	217.06
314.853	219.06
315.083	207.06
315.312	196.06
315.542	206.06
315.771	196.06
316.001	191.06
316.23	195.06
316.46	204.06
316.689	187.06
316.919	203.06
317.148	198.06
317.377	193.06
317.607	190.06
317.836	199.06
318.065	189.06
318.295	186.06
318.524	211.06
318.753	189.06
318.983	185.06
319.212	198.06
319.441	206.06
319.67	198.06
319.9	195.06
320.129	192.06
320.358	209.06
320.587	199.06
320.816	188.06
321.046	218.06
321.275	218.06
321.504	197.06
321.733	218.06
321.962	211.06
322.191	227.06
322.42	207.06
322.649	236.06
322.878	231.06
323.108	230.06
323.337	237.06
323.566	252.06
323.795	267.06
324.024	302.06
324.253	356.06
324.482	490.06
324.71	718.06
324.939	941.06
325.168	772.06
325.397	409.06
325.626	292.06
325.855	256.06
326.084	246.06
326.313	264.06
326.542	248.06
326.77	267.06
326.999	308.06
327.228	454.06
327.457	641.06
327.686	712.06
327.914	478.06
328.143	336.06
328.372	308.06
328.6	299.06
328.829	287.06
329.058	307.06
329.287	310.06
329.515	278.06
329.744	261.06
329.972	268.06
330.201	270.06
330.43	307.06
330.658	313.06
330.887	328.06
331.115	304.06
331.344	261.06
331.572	243.06
331.801	252.06
332.03	238.06
332.258	249.06
332.486	219.06
332.715	230.06
332.943	231.06
333.172	223.06
333.4	239.06
333.629	256.06
333.857	247.06
334.085	258.06
334.314	264.06
334.542	271.06
334.771	325.06
334.999	262.06
335.227	241.06
335.455	246.06
335.684	239.06
335.912	223.06
336.14	219.06
336.369	237.06
336.597	235.06
336.825	239.06
337.053	234.06
337.281	210.06
337.51	228.06
337.738	225.06
337.966	222.06
338.194	229.06
338.422	229.06
338.65	227.06
338.878	236.06
339.106	222.06
339.334	224.06
339.562	213.06
339.79	215.06
340.018	222.06
340.246	213.06
340.474	215.06
340.702	219.06
340.93	229.06
341.158	205.06
341.386	229.06
341.614	217.06
341.842	218.06
342.07	221.06
342.298	217.06
342.526	236.06
342.754	212.06
342.981	222.06
343.209	211.06
343.437	208.06
343.665	202.06
343.893	218.06
344.12	233.06
344.348	211.06
344.576	212.06
344.804	232.06
345.031	216.06
345.259	225.06
345.487	234.06
345.714	227.06
345.942	216.06
346.17	222.06
346.397	205.06
346.625	214.06
346.853	209.06
347.08	215.06
347.308	218.06
347.535	215.06
347.763	228.06
347.99	199.06
348.218	218.06
348.445	233.06
348.673	228.06
348.9	228.06
349.128	212.06
349.355	208.06
349.583	184.06
349.81	192.06
350.037	192.06
350.265	209.06
350.492	211.06
350.72	206.06
350.947	200.06
351.174	206.06
351.402	221.06
351.629	215.06
351.856	219.06
352.083	225.06
352.311	234.06
352.538	221.06
352.765	238.06
352.992	227.06
353.22	202.06
353.447	226.06
353.674	204.06
353.901	205.06
354.128	221.06
354.355	197.06
354.583	190.06
354.81	204.06
355.037	210.06
355.264	182.06
355.491	195.06
355.718	208.06
355.945	217.06
356.172	197.06
356.399	188.06
356.626	200.06
356.853	186.06
357.08	207.06
357.307	204.06
357.534	207.06
357.761	188.06
357.988	195.06
358.215	190.06
358.441	208.06
358.668	214.06
358.895	195.06
359.122	195.06
359.349	206.06
359.576	219.06
359.802	229.06
360.029	231.06
360.256	236.06
360.483	236.06
360.709	221.06
360.936	232.06
361.163	217.06
361.39	222.06
361.616	237.06
361.843	211.06
362.07	210.06
362.296	213.06
362.523	206.06
362.749	200.06
362.976	195.06
363.203	223.06
363.429	216.06
363.656	209.06
363.882	200.06
364.109	224.06
364.335	204.06
364.562	205.06
364.788	186.06
365.015	204.06
365.241	189.06
365.468	223.06
365.694	207.06
365.92	199.06
366.147	209.06
366.373	210.06
366.599	206.06
366.826	199.06
367.052	191.06
367.278	201.06
367.505	216.06
367.731	199.06
367.957	187.06
368.184	199.06
368.41	218.06
368.636	216.06
368.862	217.06
369.089	208.06
369.315	203.06
369.541	200.06
369.767	221.06
369.993	204.06
370.219	198.06
370.445	207.06
370.672	204.06
370.898	203.06
371.124	215.06
371.35	206.06
371.576	186.06
371.802	185.06
372.028	192.06
372.254	196.06
372.48	190.06
372.706	199.06
372.932	198.06
373.158	207.06
373.384	206.06
373.61	204.06
373.835	207.06
374.061	194.06
374.287	202.06
374.513	186.06
374.739	219.06
374.965	206.06
375.191	212.06
375.416	207.06
375.642	224.06
375.868	205.06
376.094	214.06
376.319	196.06
376.545	187.06
376.771	187.06
376.997	210.06
377.222	206.06
377.448	186.06
377.674	200.06
377.899	204.06
378.125	188.06
378.35	180.06
378.576	205.06
378.802	181.06
379.027	187.06
379.253	210.06
379.478	197.06
379.704	205.06
379.929	203.06
380.155	181.06
380.38	208.06
380.606	202.06
380.831	189.06
381.057	206.06
381.282	191.06
381.507	194.06
381.733	208.06
381.958	208.06
382.184	218.06
382.409	205.06
382.634	214.06
382.86	200.06
383.085	207.06
383.31	192.06
383.535	208.06
383.761	193.06
383.986	213.06
384.211	238.06
384.436	202.06
384.662	205.06
384.887	214.06
385.112	194.06
385.337	221.06
385.562	231.06
385.787	207.06
386.013	212.06
386.238	237.06
386.463	219.06
386.688	215.06
386.913	202.06
387.138	210.06
387.363	231.06
387.588	209.06
387.813	200.06
388.038	207.06
388.263	203.06
388.488	204.06
388.713	212.06
388.938	215.06
389.163	218.06
389.387	225.06
389.612	202.06
389.837	211.06
390.062	222.06
390.287	192.06
390.512	217.06
390.736	199.06
390.961	221.06
391.186	222.06
391.411	221.06
391.636	235.06
391.86	205.06
392.085	204.06
392.31	207.06
392.534	227.06
392.759	215.06
392.984	223.06
393.208	218.06
393.433	221.06
393.658	202.06
393.882	214.06
394.107	222.06
394.331	200.06
394.556	204.06
394.78	222.06
395.005	207.06
395.229	235.06
395.454	232.06
395.678	231.06
395.903	221.06
396.127	233.06
396.352	221.06
396.576	228.06
396.801	204.06
397.025	209.06
397.249	224.06
397.474	240.06
397.698	238.06
397.922	232.06
398.147	220.06
398.371	237.06
398.595	228.06
398.82	237.06
399.044	239.06
399.268	238.06
399.492	266.06
399.717	281.06
399.941	291.06
400.165	299.06
400.389	281.06
400.613	263.06
400.837	251.06
401.062	259.06
401.286	248.06
401.51	244.06
401.734	240.06
401.958	233.06
402.182	242.06
402.406	236.06
402.63	248.06
402.854	240.06
403.078	260.06
403.302	242.06
403.526	248.06
403.75	250.06
403.974	252.06
404.198	239.06
404.422	258.06
404.645	258.06
404.869	264.06
405.093	268.06
405.317	285.06
405.541	303.06
405.765	269.06
405.988	255.06
406.212	282.06
406.436	290.06
406.66	289.06
406.883	260.06
407.107	278.06
407.331	306.06
407.555	329.06
407.778	329.06
408.002	303.06
408.226	262.06
408.449	283.06
408.673	272.06
408.896	282.06
409.12	304.06
409.344	275.06
409.567	268.06
409.791	248.06
410.014	249.06
410.238	248.06
410.461	247.06
410.685	256.06
410.908	268.06
411.132	285.06
411.355	290.06
411.578	280.06
411.802	244.06
412.025	231.06
412.249	246.06
412.472	270.06
412.695	286.06
412.919	286.06
413.142	248.06
413.365	246.06
413.589	235.06
413.812	245.06
414.035	220.06
414.258	234.06
414.482	243.06
414.705	226.06
414.928	236.06
415.151	253.06
415.374	258.06
415.597	246.06
415.821	245.06
416.044	249.06
416.267	260.06
416.49	248.06
416.713	249.06
416.936	254.06
417.159	246.06
417.382	257.06
417.605	263.06
417.828	264.06
418.051	276.06
418.274	247.06
418.497	238.06
418.72	244.06
418.943	234.06
419.166	250.06
419.389	270.06
419.611	255.06
419.834	265.06
420.057	228.06
420.28	262.06
420.503	257.06
420.726	246.06
420.948	254.06
421.171	266.06
421.394	289.06
421.617	263.06
421.839	237.06
422.062	244.06
422.285	247.06
422.507	281.06
422.73	312.06
422.953	291.06
423.175	262.06
423.398	242.06
423.621	262.06
423.843	272.06
424.066	252.06
424.288	255.06
424.511	280.06
424.733	300.06
424.956	339.06
425.178	314.06
425.401	323.06
425.623	323.06
425.846	295.06
426.068	274.06
426.291	273.06
426.513	258.06
426.735	273.06
426.958	285.06
427.18	307.06
427.402	380.06
427.625	406.06
427.847	349.06
428.069	322.06
428.292	279.06
428.514	269.06
428.736	247.06
428.958	259.06
429.181	250.06
429.403	244.06
429.625	236.06
429.847	269.06
430.069	298.06
430.292	284.06
430.514	266.06
430.736	265.06
430.958	251.06
431.18	250.06
431.402	232.06
431.624	223.06
431.846	236.06
432.068	224.06
432.29	243.06
432.512	256.06
432.734	263.06
432.956	241.06
433.178	246.06
433.4	244.06
433.622	256.06
433.844	226.06
434.066	238.06
434.287	242.06
434.509	236.06
434.731	252.06
434.953	262.06
435.175	260.06
435.397	276.06
435.618	270.06
435.84	275.06
436.062	304.06
436.284	336.06
436.505	287.06
436.727	267.06
436.949	255.06
437.17	250.06
437.392	232.06
437.614	257.06
437.835	268.06
438.057	318.06
438.278	344.06
438.5	341.06
438.721	354.06
438.943	342.06
439.165	294.06
439.386	256.06
439.608	263.06
439.829	269.06
440.05	295.06
440.272	315.06
440.493	290.06
440.715	258.06
440.936	259.06
441.158	263.06
441.379	247.06
441.6	255.06
441.822	260.06
442.043	284.06
442.264	314.06
442.486	327.06
442.707	284.06
442.928	276.06
443.149	272.06
443.371	286.06
443.592	296.06
443.813	340.06
444.034	366.06
444.255	297.06
444.476	285.06
444.698	258.06
444.919	274.06
445.14	379.06
445.361	314.06
445.582	287.06
445.803	320.06
446.024	347.06
446.245	369.06
446.466	328.06
446.687	280.06
446.908	267.06
447.129	260.06
447.35	239.06
447.571	244.06
447.792	258.06
448.013	260.06
448.234	267.06
448.455	278.06
448.675	311.06
448.896	348.06
449.117	307.06
449.338	300.06
449.559	353.06
449.779	365.06
450	306.06
450.221	236.06
450.442	250.06
450.662	256.06
450.883	258.06
451.104	268.06
451.324	251.06
451.545	230.06
451.766	229.06
451.986	222.06
452.207	232.06
452.428	222.06
452.648	245.06
452.869	245.06
453.089	254.06
453.31	239.06
453.53	232.06
453.751	242.06
453.971	224.06
454.192	247.06
454.412	246.06
454.633	213.06
454.853	224.06
455.073	212.06
455.294	261.06
455.514	272.06
455.734	262.06
455.955	240.06
456.175	203.06
456.395	215.06
456.616	214.06
456.836	211.06
457.056	212.06
457.276	218.06
457.497	214.06
457.717	209.06
457.937	208.06
458.157	210.06
458.377	227.06
458.598	245.06
458.818	262.06
459.038	293.06
459.258	303.06
459.478	276.06
459.698	239.06
459.918	236.06
460.138	232.06
460.358	240.06
460.578	231.06
460.798	253.06
461.018	247.06
461.238	222.06
461.458	242.06
461.678	235.06
461.898	247.06
462.118	240.06
462.338	253.06
462.558	242.06
462.777	258.06
462.997	266.06
463.217	258.06
463.437	274.06
463.657	262.06
463.876	228.06
464.096	246.06
464.316	255.06
464.536	259.06
464.755	253.06
464.975	270.06
465.195	299.06
465.414	335.06
465.634	292.06
465.854	264.06
466.073	252.06
466.293	242.06
466.512	226.06
466.732	233.06
466.951	224.06
467.171	233.06
467.391	237.06
467.61	222.06
467.829	255.06
468.049	268.06
468.268	239.06
468.488	231.06
468.707	253.06
468.927	231.06
469.146	228.06
469.365	225.06
469.585	237.06
469.804	224.06
470.023	228.06
470.243	233.06
470.462	238.06
470.681	258.06
470.901	245.06
471.12	228.06
471.339	239.06
471.558	237.06
471.777	234.06
471.997	249.06
472.216	245.06
472.435	271.06
472.654	257.06
472.873	239.06
473.092	241.06
473.311	215.06
473.53	226.06
473.749	241.06
473.968	243.06
474.187	309.06
474.406	301.06
474.625	260.06
474.844	245.06
475.063	228.06
475.282	234.06
475.501	231.06
475.72	253.06
475.939	239.06
476.158	229.06
476.377	236.06
476.596	238.06
476.814	252.06
477.033	242.06
477.252	262.06
477.471	245.06
477.69	226.06
477.908	245.06
478.127	260.06
478.346	253.06
478.564	262.06
478.783	281.06
479.002	247.06
479.22	260.06
479.439	269.06
479.658	289.06
479.876	282.06
480.095	269.06
480.313	301.06
480.532	289.06
480.751	290.06
480.969	300.06
481.188	341.06
481.406	364.06
481.624	304.06
481.843	294.06
482.061	256.06
482.28	276.06
482.498	274.06
482.717	258.06
482.935	271.06
483.153	282.06
483.372	262.06
483.59	272.06
483.808	269.06
484.027	254.06
484.245	279.06
484.463	266.06
484.681	285.06
484.9	290.06
485.118	281.06
485.336	278.06
485.554	285.06
485.772	279.06
485.99	273.06
486.209	286.06
486.427	279.06
486.645	282.06
486.863	310.06
487.081	316.06
487.299	292.06
487.517	277.06
487.735	283.06
487.953	304.06
488.171	290.06
488.389	287.06
488.607	272.06
488.825	280.06
489.043	312.06
489.261	288.06
489.479	281.06
489.696	302.06
489.914	299.06
490.132	293.06
490.35	303.06
490.568	308.06
490.786	307.06
491.003	314.06
491.221	328.06
491.439	330.06
491.657	318.06
491.874	338.06
492.092	334.06
492.31	334.06
492.527	345.06
492.745	333.06
492.963	347.06
493.18	348.06
493.398	346.06
493.615	347.06
493.833	374.06
494.05	346.06
494.268	352.06
494.485	331.06
494.703	337.06
494.92	343.06
495.138	343.06
495.355	334.06
495.573	363.06
495.79	332.06
496.008	346.06
496.225	319.06
496.442	331.06
496.66	324.06
496.877	335.06
497.094	338.06
497.312	330.06
497.529	353.06
497.746	356.06
497.963	346.06
498.181	340.06
498.398	363.06
498.615	350.06
498.832	347.06
499.049	364.06
499.267	384.06
499.484	394.06
499.701	398.06
499.918	411.06
500.135	422.06
500.352	436.06
500.569	448.06
500.786	439.06
501.003	427.06
501.22	425.06
501.437	424.06
501.654	405.06
501.871	411.06
502.088	408.06
502.305	391.06
502.522	356.06
502.739	349.06
502.956	354.06
503.172	333.06
503.389	333.06
503.606	339.06
503.823	343.06
504.04	317.06
504.256	324.06
504.473	329.06
504.69	326.06
504.907	339.06
505.123	311.06
505.34	324.06
505.557	332.06
505.773	312.06
505.99	322.06
506.207	318.06
506.423	317.06
506.64	303.06
506.856	314.06
507.073	315.06
507.289	297.06
507.506	318.06
507.722	299.06
507.939	332.06
508.155	314.06
508.372	301.06
508.588	301.06
508.805	287.06
509.021	291.06
509.238	322.06
509.454	316.06
509.67	303.06
509.887	308.06
510.103	301.06
510.319	319.06
510.536	374.06
510.752	714.06
510.968	540.06
511.184	309.06
511.401	294.06
511.617	299.06
511.833	289.06
512.049	288.06
512.265	308.06
512.481	310.06
512.698	292.06
512.914	269.06
513.13	286.06
513.346	291.06
513.562	308.06
513.778	295.06
513.994	264.06
514.21	287.06
514.426	313.06
514.642	344.06
514.858	336.06
515.074	378.06
515.29	454.06
515.506	796.06
515.721	593.06
515.937	373.06
516.153	318.06
516.369	317.06
516.585	297.06
516.801	292.06
517.016	295.06
517.232	294.06
517.448	304.06
517.664	284.06
517.879	282.06
518.095	289.06
518.311	302.06
518.527	270.06
518.742	295.06
518.958	292.06
519.173	304.06
519.389	300.06
519.605	276.06
519.82	294.06
520.036	301.06
520.251	276.06
520.467	320.06
520.682	311.06
520.898	315.06
521.113	330.06
521.329	330.06
521.544	411.06
521.76	556.06
521.975	1061.06
522.19	1019.06
522.406	494.06
522.621	355.06
522.836	324.06
523.052	289.06
523.267	274.06
523.482	253.06
523.698	280.06
523.913	254.06
524.128	268.06
524.343	272.06
524.559	250.06
524.774	230.06
524.989	253.06
525.204	252.06
525.419	261.06
525.634	242.06
525.849	258.06
526.064	244.06
526.28	242.06
526.495	238.06
526.71	243.06
526.925	236.06
527.14	230.06
527.355	246.06
527.57	244.06
527.785	248.06
527.999	234.06
528.214	232.06
528.429	255.06
528.644	250.06
528.859	233.06
529.074	235.06
529.289	246.06
529.503	308.06
529.718	303.06
529.933	278.06
530.148	258.06
530.363	249.06
530.577	231.06
530.792	236.06
531.007	237.06
531.221	229.06
531.436	211.06
531.651	220.06
531.865	228.06
532.08	231.06
532.295	217.06
532.509	224.06
532.724	228.06
532.938	246.06
533.153	221.06
533.367	231.06
533.582	229.06
533.796	237.06
534.011	221.06
534.225	235.06
534.44	218.06
534.654	214.06
534.868	231.06
535.083	227.06
535.297	239.06
535.511	239.06
535.726	237.06
535.94	259.06
536.154	228.06
536.369	226.06
536.583	214.06
536.797	222.06
537.011	227.06
537.225	226.06
537.44	220.06
537.654	213.06
537.868	217.06
538.082	219.06
538.296	245.06
538.51	223.06
538.724	229.06
538.938	225.06
539.153	247.06
539.367	248.06
539.581	260.06
539.795	231.06
540.009	224.06
540.222	238.06
540.436	219.06
540.65	220.06
540.864	210.06
541.078	246.06
541.292	266.06
541.506	239.06
541.72	223.06
541.934	236.06
542.147	226.06
542.361	218.06
542.575	213.06
542.789	219.06
543.002	220.06
543.216	226.06
543.43	221.06
543.644	200.06
543.857	252.06
544.071	210.06
544.285	243.06
544.498	217.06
544.712	221.06
544.925	214.06
545.139	222.06
545.352	228.06
545.566	229.06
545.779	228.06
545.993	227.06
546.206	216.06
546.42	243.06
546.633	227.06
546.847	216.06
547.06	209.06
547.274	226.06
547.487	219.06
547.7	215.06
547.914	204.06
548.127	216.06
548.34	208.06
548.554	217.06
548.767	231.06
548.98	213.06
549.193	226.06
549.407	218.06
549.62	213.06
549.833	218.06
550.046	222.06
550.259	214.06
550.473	216.06
550.686	204.06
550.899	224.06
551.112	202.06
551.325	209.06
551.538	216.06
551.751	211.06
551.964	222.06
552.177	231.06
552.39	220.06
552.603	207.06
552.816	224.06
553.029	224.06
553.242	207.06
553.455	226.06
553.667	222.06
553.88	225.06
554.093	208.06
554.306	216.06
554.519	205.06
554.732	217.06
554.944	219.06
555.157	192.06
555.37	199.06
555.583	212.06
555.795	214.06
556.008	221.06
556.221	212.06
556.433	194.06
556.646	197.06
556.859	196.06
557.071	209.06
557.284	223.06
557.496	207.06
557.709	199.06
557.921	195.06
558.134	218.06
558.346	188.06
558.559	191.06
558.771	186.06
558.984	198.06
559.196	209.06
559.409	190.06
559.621	192.06
559.833	206.06
560.046	187.06
560.258	198.06
560.47	198.06
560.683	182.06
560.895	173.06
561.107	189.06
561.32	207.06
561.532	199.06
561.744	200.06
561.956	194.06
562.168	186.06
562.381	194.06
562.593	194.06
562.805	202.06
563.017	197.06
563.229	189.06
563.441	187.06
563.653	205.06
563.865	200.06
564.077	211.06
564.289	210.06
564.501	196.06
564.713	196.06
564.925	198.06
565.137	211.06
565.349	199.06
565.561	198.06
565.773	199.06
565.985	208.06
566.197	209.06
566.408	229.06
566.62	214.06
566.832	226.06
567.044	221.06
567.255	227.06
567.467	239.06
567.679	227.06
567.891	231.06
568.102	238.06
568.314	241.06
568.526	235.06
568.737	206.06
568.949	202.06
569.161	211.06
569.372	193.06
569.584	200.06
569.795	199.06
570.007	192.06
570.218	231.06
570.43	215.06
570.641	188.06
570.853	197.06
571.064	190.06
571.276	196.06
571.487	199.06
571.698	193.06
571.91	180.06
572.121	168.06
572.333	193.06
572.544	172.06
572.755	167.06
572.966	187.06
573.178	175.06
573.389	179.06
573.6	174.06
573.811	182.06
574.023	182.06
574.234	182.06
574.445	182.06
574.656	168.06
574.867	153.06
575.078	179.06
575.289	160.06
575.501	165.06
575.712	167.06
575.923	180.06
576.134	178.06
576.345	155.06
576.556	167.06
576.767	170.06
576.978	157.06
577.188	174.06
577.399	170.06
577.61	163.06
577.821	154.06
578.032	182.06
578.243	198.06
578.454	349.06
578.665	250.06
578.875	167.06
579.086	154.06
579.297	158.06
579.508	151.06
579.718	179.06
579.929	170.06
580.14	159.06
580.35	156.06
580.561	156.06
580.772	151.06
580.982	152.06
581.193	154.06
581.403	170.06
581.614	170.06
581.825	144.06
582.035	162.06
582.246	167.06
582.456	160.06
582.667	147.06
582.877	164.06
583.087	158.06
583.298	159.06
583.508	157.06
583.719	157.06
583.929	164.06
584.139	171.06
584.35	150.06
584.56	156.06
584.77	162.06
584.981	172.06
585.191	162.06
585.401	148.06
585.611	151.06
585.821	163.06
586.032	150.06
586.242	160.06
586.452	159.06
586.662	147.06
586.872	162.06
587.082	155.06
587.292	152.06
587.502	157.06
587.713	158.06
587.923	153.06
588.133	155.06
588.343	141.06
588.553	142.06
588.762	147.06
588.972	170.06
589.182	150.06
589.392	182.06
589.602	164.06
589.812	157.06
590.022	173.06
590.232	164.06
590.441	158.06
590.651	146.06
590.861	152.06
591.071	159.06
591.281	163.06
591.49	154.06
591.7	152.06
591.91	157.06
592.119	154.06
592.329	162.06
592.539	156.06
592.748	162.06
592.958	150.06
593.167	154.06
593.377	158.06
593.587	171.06
593.796	156.06
594.006	176.06
594.215	174.06
594.424	159.06
594.634	175.06
594.843	156.06
595.053	156.06
595.262	153.06
595.472	162.06
595.681	136.06
595.89	144.06
596.1	153.06
596.309	139.06
596.518	145.06
596.727	158.06
596.937	153.06
597.146	155.06
597.355	141.06
597.564	137.06
597.774	149.06
597.983	154.06
598.192	134.06
598.401	138.06
598.61	143.06
598.819	160.06
599.028	141.06
599.237	142.06
599.446	154.06
599.655	143.06
599.864	144.06
600.073	142.06
600.282	165.06
600.491	147.06
600.7	150.06
600.909	155.06
601.118	127.06
601.327	158.06
601.536	168.06
601.745	139.06
601.953	151.06
602.162	143.06
602.371	150.06
602.58	140.06
602.789	154.06
602.997	143.06
603.206	156.06
603.415	142.06
603.623	152.06
603.832	149.06
604.041	132.06
604.249	140.06
604.458	158.06
604.666	142.06
604.875	137.06
605.084	139.06
605.292	142.06
605.501	136.06
605.709	137.06
605.918	148.06
606.126	146.06
606.334	143.06
606.543	138.06
606.751	155.06
606.96	144.06
607.168	162.06
607.376	152.06
607.585	141.06
607.793	134.06
608.001	138.06
608.21	140.06
608.418	130.06
608.626	125.06
608.834	138.06
609.043	152.06
609.251	141.06
609.459	143.06
609.667	145.06
609.875	148.06
610.083	131.06
610.291	143.06
610.499	132.06
610.707	142.06
610.916	145.06
611.124	130.06
611.332	154.06
611.54	152.06
611.748	138.06
611.955	134.06
612.163	140.06
612.371	158.06
612.579	130.06
612.787	136.06
612.995	151.06
613.203	131.06
613.411	132.06
613.618	144.06
613.826	138.06
614.034	142.06
614.242	135.06
614.449	141.06
614.657	142.06
614.865	139.06
615.072	141.06
615.28	136.06
615.488	138.06
615.695	136.06
615.903	154.06
616.111	129.06
616.318	146.06
616.526	131.06
616.733	138.06
616.941	140.06
617.148	147.06
617.356	136.06
617.563	126.06
617.771	147.06
617.978	131.06
618.185	141.06
618.393	136.06
618.6	131.06
618.807	126.06
619.015	129.06
619.222	137.06
619.429	133.06
619.637	133.06
619.844	130.06
620.051	138.06
620.258	157.06
620.466	123.06
620.673	121.06
620.88	138.06
621.087	130.06
621.294	127.06
621.501	134.06
621.708	130.06
621.915	125.06
622.122	126.06
622.329	126.06
622.536	131.06
622.743	148.06
622.95	124.06
623.157	129.06
623.364	139.06
623.571	122.06
623.778	130.06
623.985	132.06
624.192	135.06
624.399	127.06
624.606	121.06
624.812	131.06
625.019	130.06
625.226	128.06
625.433	119.06
625.639	122.06
625.846	127.06
626.053	117.06
626.259	116.06
626.466	118.06
626.673	129.06
626.879	123.06
627.086	129.06
627.293	132.06
627.499	126.06
627.706	138.06
627.912	123.06
628.119	133.06
628.325	128.06
628.532	134.06
628.738	135.06
628.945	128.06
629.151	124.06
629.357	132.06
629.564	134.06
629.77	126.06
629.976	133.06
630.183	127.06
630.389	106.06
630.595	122.06
630.802	119.06
631.008	134.06
631.214	107.06
631.42	128.06
631.627	124.06
631.833	134.06
632.039	119.06
632.245	122.06
632.451	114.06
632.657	113.06
632.863	126.06
633.069	128.06
633.275	110.06
633.481	114.06
633.688	103.06
633.893	124.06
634.099	144.06
634.305	136.06
634.511	116.06
634.717	126.06
634.923	120.06
635.129	95.06
635.335	104.06
635.541	114.06
635.747	120.06
635.952	105.06
636.158	113.06
636.364	126.06
636.57	138.06
636.775	117.06
636.981	111.06
637.187	140.06
637.392	111.06
637.598	126.06
637.804	119.06
638.009	114.06
638.215	124.06
638.421	120.06
638.626	116.06
638.832	119.06
639.037	120.06
639.243	115.06
639.448	121.06
639.654	130.06
639.859	107.06
640.065	114.06
640.27	118.06
640.475	123.06
640.681	119.06
640.886	120.06
641.091	108.06
641.297	128.06
641.502	122.06
641.707	121.06
641.913	121.06
642.118	127.06
642.323	109.06
642.528	110.06
642.733	126.06
642.939	118.06
643.144	123.06
643.349	95.06
643.554	98.06
643.759	116.06
643.964	124.06
644.169	125.06
644.374	109.06
644.579	125.06
644.784	114.06
644.989	115.06
645.194	109.06
645.399	126.06
645.604	103.06
645.809	109.06
646.014	135.06
646.219	107.06
646.423	120.06
646.628	132.06
646.833	112.06
647.038	116.06
647.243	101.06
647.447	114.06
647.652	107.06
647.857	115.06
648.062	108.06
648.266	119.06
648.471	106.06
648.676	116.06
648.88	100.06
649.085	116.06
649.289	115.06
649.494	115.06
649.698	130.06
649.903	123.06
650.107	128.06
650.312	107.06
650.516	103.06
650.721	115.06
650.925	118.06
651.13	119.06
651.334	135.06
651.539	117.06
651.743	121.06
651.947	124.06
652.152	104.06
652.356	105.06
652.56	101.06
652.764	106.06
652.969	104.06
653.173	102.06
653.377	104.06
653.581	105.06
653.785	110.06
653.99	107.06
654.194	100.06
654.398	109.06
654.602	91.06
654.806	99.06
655.01	109.06
655.214	122.06
655.418	98.06
655.622	110.06
655.826	107.06
656.03	99.06
656.234	104.06
656.438	103.06
656.642	104.06
656.846	105.06
657.049	103.06
657.253	97.06
657.457	107.06
657.661	98.06
657.865	101.06
658.068	100.06
658.272	84.06
658.476	103.06
658.68	83.06
658.883	91.06
659.087	79.06
659.291	99.06
659.494	90.06
659.698	85.06
659.901	80.06
660.105	84.06
660.309	92.06
660.512	96.06
660.716	74.06
660.919	96.06
661.123	94.06
661.326	81.06
661.53	70.06
661.733	99.06
661.936	87.06
662.14	75.06
662.343	78.06
662.546	80.06
662.75	92.06
662.953	70.06
663.156	72.06
663.36	83.06
663.563	75.06
663.766	64.06
663.969	84.06
664.173	81.06
664.376	78.06
664.579	79.06
664.782	77.06
664.985	92.06
665.188	80.06
665.391	93.06
665.594	84.06
665.797	80.06
666	75.06
666.203	84.06
666.406	68.06
666.609	87.06
666.812	91.06
667.015	83.06
667.218	72.06
667.421	77.06
667.624	86.06
667.827	87.06
668.03	83.06
668.232	79.06
668.435	71.06
668.638	90.06
668.841	90.06
669.043	95.06
669.246	80.06
669.449	78.06
669.651	90.06
669.854	79.06
670.057	78.06
670.259	72.06
670.462	82.06
670.665	81.06
670.867	90.06
671.07	78.06
671.272	82.06
671.475	65.06
671.677	99.06
671.88	80.06
672.082	80.06
672.284	95.06
672.487	81.06
672.689	86.06
672.892	77.06
