Data from 1966.PennyLincolnUp.Lamp.En5.5.200Scan.071719.P1.Scan2.head_HRD10591_14-17-47-135.txt Node
Date: Thu Jul 18 14:17:47 EDT 2019
User: cochatt
Spectrometer: HR+D1059
Trigger mode: 1
Integration Time (sec): 1.000000E-1
Scans to average: 1
Electric dark correction enabled: true
Nonlinearity correction enabled: false
Boxcar width: 0
XAxis mode: Wavelengths
Number of Pixels in Spectrum: 2048
>>>>>Begin Spectral Data<<<<<
223.165	-23.31
223.4	-23.31
223.635	-23.31
223.869	-16.31
224.104	-18.31
224.338	-22.31
224.573	-14.31
224.808	-5.31
225.042	-4.31
225.277	-10.31
225.511	4.69
225.746	5.69
225.98	8.69
226.215	-3.31
226.449	16.69
226.683	24.69
226.918	25.69
227.152	31.69
227.387	28.69
227.621	43.69
227.856	49.69
228.09	54.69
228.324	56.69
228.559	64.69
228.793	58.69
229.027	99.69
229.262	115.69
229.496	106.69
229.73	140.69
229.964	152.69
230.199	136.69
230.433	116.69
230.667	112.69
230.901	120.69
231.136	108.69
231.37	114.69
231.604	107.69
231.838	112.69
232.072	117.69
232.306	112.69
232.541	118.69
232.775	120.69
233.009	125.69
233.243	129.69
233.477	95.69
233.711	102.69
233.945	117.69
234.179	104.69
234.413	116.69
234.647	128.69
234.881	100.69
235.115	126.69
235.349	132.69
235.583	118.69
235.817	118.69
236.051	138.69
236.285	130.69
236.519	126.69
236.753	134.69
236.987	127.69
237.221	166.69
237.455	230.69
237.689	177.69
237.922	136.69
238.156	129.69
238.39	125.69
238.624	137.69
238.858	130.69
239.091	137.69
239.325	122.69
239.559	130.69
239.793	140.69
240.027	140.69
240.26	141.69
240.494	145.69
240.728	156.69
240.961	151.69
241.195	138.69
241.429	142.69
241.662	124.69
241.896	142.69
242.13	126.69
242.363	132.69
242.597	136.69
242.83	144.69
243.064	133.69
243.298	148.69
243.531	147.69
243.765	145.69
243.998	142.69
244.232	156.69
244.465	154.69
244.699	152.69
244.932	154.69
245.166	142.69
245.399	152.69
245.633	142.69
245.866	168.69
246.099	155.69
246.333	146.69
246.566	158.69
246.8	152.69
247.033	165.69
247.266	164.69
247.5	149.69
247.733	172.69
247.966	170.69
248.2	165.69
248.433	170.69
248.666	178.69
248.899	183.69
249.133	208.69
249.366	197.69
249.599	198.69
249.832	180.69
250.066	183.69
250.299	202.69
250.532	185.69
250.765	210.69
250.998	210.69
251.231	239.69
251.465	219.69
251.698	200.69
251.931	185.69
252.164	194.69
252.397	196.69
252.63	202.69
252.863	210.69
253.096	203.69
253.329	228.69
253.562	222.69
253.795	210.69
254.028	196.69
254.261	203.69
254.494	224.69
254.727	231.69
254.96	276.69
255.193	262.69
255.426	239.69
255.659	224.69
255.892	226.69
256.124	226.69
256.357	246.69
256.59	229.69
256.823	220.69
257.056	216.69
257.289	221.69
257.521	209.69
257.754	209.69
257.987	211.69
258.22	192.69
258.452	200.69
258.685	210.69
258.918	191.69
259.151	206.69
259.383	203.69
259.616	209.69
259.849	219.69
260.081	228.69
260.314	252.69
260.547	244.69
260.779	261.69
261.012	238.69
261.244	234.69
261.477	230.69
261.71	231.69
261.942	221.69
262.175	237.69
262.407	223.69
262.64	222.69
262.872	218.69
263.105	215.69
263.337	206.69
263.57	206.69
263.802	201.69
264.035	214.69
264.267	217.69
264.499	212.69
264.732	218.69
264.964	213.69
265.197	206.69
265.429	219.69
265.661	222.69
265.894	200.69
266.126	224.69
266.358	229.69
266.591	227.69
266.823	220.69
267.055	239.69
267.287	237.69
267.52	226.69
267.752	219.69
267.984	223.69
268.216	230.69
268.448	235.69
268.681	232.69
268.913	238.69
269.145	268.69
269.377	279.69
269.609	251.69
269.841	273.69
270.073	267.69
270.306	289.69
270.538	317.69
270.77	311.69
271.002	288.69
271.234	282.69
271.466	278.69
271.698	303.69
271.93	286.69
272.162	298.69
272.394	292.69
272.626	310.69
272.858	279.69
273.09	278.69
273.322	261.69
273.553	263.69
273.785	272.69
274.017	246.69
274.249	246.69
274.481	250.69
274.713	269.69
274.945	286.69
275.176	256.69
275.408	244.69
275.64	265.69
275.872	274.69
276.104	268.69
276.335	271.69
276.567	260.69
276.799	294.69
277.031	305.69
277.262	311.69
277.494	306.69
277.726	304.69
277.957	285.69
278.189	292.69
278.421	267.69
278.652	279.69
278.884	284.69
279.115	272.69
279.347	274.69
279.579	272.69
279.81	261.69
280.042	273.69
280.273	277.69
280.505	263.69
280.736	264.69
280.968	265.69
281.199	286.69
281.431	278.69
281.662	275.69
281.894	280.69
282.125	274.69
282.356	293.69
282.588	301.69
282.819	316.69
283.051	298.69
283.282	302.69
283.513	265.69
283.745	280.69
283.976	288.69
284.207	272.69
284.439	290.69
284.67	270.69
284.901	282.69
285.132	274.69
285.364	288.69
285.595	270.69
285.826	281.69
286.057	293.69
286.288	279.69
286.52	266.69
286.751	274.69
286.982	288.69
287.213	280.69
287.444	295.69
287.675	296.69
287.906	316.69
288.138	314.69
288.369	310.69
288.6	281.69
288.831	290.69
289.062	296.69
289.293	296.69
289.524	284.69
289.755	286.69
289.986	297.69
290.217	291.69
290.448	274.69
290.679	301.69
290.91	292.69
291.141	298.69
291.371	293.69
291.602	298.69
291.833	280.69
292.064	270.69
292.295	306.69
292.526	297.69
292.757	289.69
292.987	288.69
293.218	296.69
293.449	286.69
293.68	296.69
293.91	302.69
294.141	303.69
294.372	277.69
294.603	295.69
294.833	313.69
295.064	304.69
295.295	302.69
295.525	285.69
295.756	312.69
295.987	304.69
296.217	322.69
296.448	332.69
296.679	311.69
296.909	302.69
297.14	296.69
297.37	316.69
297.601	308.69
297.831	308.69
298.062	302.69
298.292	308.69
298.523	302.69
298.753	306.69
298.984	322.69
299.214	288.69
299.445	326.69
299.675	315.69
299.905	318.69
300.136	317.69
300.366	318.69
300.597	317.69
300.827	332.69
301.057	316.69
301.288	328.69
301.518	326.69
301.748	336.69
301.979	324.69
302.209	325.69
302.439	322.69
302.669	325.69
302.9	320.69
303.13	333.69
303.36	329.69
303.59	342.69
303.82	340.69
304.051	347.69
304.281	322.69
304.511	337.69
304.741	335.69
304.971	339.69
305.201	333.69
305.431	324.69
305.661	339.69
305.891	315.69
306.121	313.69
306.352	330.69
306.582	340.69
306.812	344.69
307.042	330.69
307.272	352.69
307.502	338.69
307.731	346.69
307.961	340.69
308.191	329.69
308.421	339.69
308.651	317.69
308.881	329.69
309.111	338.69
309.341	326.69
309.571	338.69
309.8	349.69
310.03	381.69
310.26	378.69
310.49	368.69
310.72	369.69
310.949	393.69
311.179	384.69
311.409	389.69
311.639	373.69
311.868	369.69
312.098	378.69
312.328	372.69
312.557	409.69
312.787	416.69
313.017	403.69
313.246	365.69
313.476	377.69
313.706	390.69
313.935	374.69
314.165	387.69
314.394	385.69
314.624	400.69
314.853	403.69
315.083	394.69
315.312	379.69
315.542	364.69
315.771	361.69
316.001	375.69
316.23	365.69
316.46	386.69
316.689	354.69
316.919	371.69
317.148	368.69
317.377	386.69
317.607	390.69
317.836	394.69
318.065	386.69
318.295	378.69
318.524	376.69
318.753	377.69
318.983	360.69
319.212	388.69
319.441	384.69
319.67	382.69
319.9	395.69
320.129	380.69
320.358	384.69
320.587	378.69
320.816	378.69
321.046	420.69
321.275	400.69
321.504	385.69
321.733	410.69
321.962	401.69
322.191	421.69
322.42	432.69
322.649	439.69
322.878	429.69
323.108	464.69
323.337	464.69
323.566	478.69
323.795	510.69
324.024	552.69
324.253	655.69
324.482	922.69
324.71	1414.69
324.939	2105.69
325.168	1853.69
325.397	908.69
325.626	651.69
325.855	535.69
326.084	492.69
326.313	496.69
326.542	485.69
326.77	528.69
326.999	644.69
327.228	824.69
327.457	1274.69
327.686	1618.69
327.914	1056.69
328.143	680.69
328.372	597.69
328.6	580.69
328.829	536.69
329.058	556.69
329.287	558.69
329.515	547.69
329.744	510.69
329.972	485.69
330.201	531.69
330.43	566.69
330.658	575.69
330.887	599.69
331.115	574.69
331.344	532.69
331.572	490.69
331.801	482.69
332.03	504.69
332.258	484.69
332.486	464.69
332.715	445.69
332.943	442.69
333.172	462.69
333.4	460.69
333.629	448.69
333.857	484.69
334.085	521.69
334.314	530.69
334.542	546.69
334.771	546.69
334.999	510.69
335.227	496.69
335.455	506.69
335.684	464.69
335.912	478.69
336.14	447.69
336.369	456.69
336.597	449.69
336.825	468.69
337.053	470.69
337.281	453.69
337.51	457.69
337.738	441.69
337.966	439.69
338.194	469.69
338.422	478.69
338.65	465.69
338.878	440.69
339.106	411.69
339.334	423.69
339.562	436.69
339.79	440.69
340.018	446.69
340.246	461.69
340.474	472.69
340.702	423.69
340.93	443.69
341.158	448.69
341.386	442.69
341.614	441.69
341.842	437.69
342.07	446.69
342.298	428.69
342.526	420.69
342.754	429.69
342.981	406.69
343.209	442.69
343.437	453.69
343.665	445.69
343.893	459.69
344.12	462.69
344.348	458.69
344.576	441.69
344.804	464.69
345.031	460.69
345.259	493.69
345.487	457.69
345.714	458.69
345.942	438.69
346.17	422.69
346.397	439.69
346.625	435.69
346.853	443.69
347.08	454.69
347.308	441.69
347.535	442.69
347.763	454.69
347.99	454.69
348.218	433.69
348.445	433.69
348.673	447.69
348.9	444.69
349.128	441.69
349.355	429.69
349.583	419.69
349.81	420.69
350.037	425.69
350.265	409.69
350.492	425.69
350.72	414.69
350.947	439.69
351.174	440.69
351.402	445.69
351.629	444.69
351.856	436.69
352.083	445.69
352.311	445.69
352.538	448.69
352.765	452.69
352.992	442.69
353.22	441.69
353.447	442.69
353.674	427.69
353.901	404.69
354.128	412.69
354.355	418.69
354.583	406.69
354.81	408.69
355.037	408.69
355.264	421.69
355.491	418.69
355.718	431.69
355.945	402.69
356.172	406.69
356.399	395.69
356.626	390.69
356.853	402.69
357.08	412.69
357.307	423.69
357.534	404.69
357.761	406.69
357.988	394.69
358.215	414.69
358.441	401.69
358.668	409.69
358.895	415.69
359.122	408.69
359.349	405.69
359.576	441.69
359.802	440.69
360.029	475.69
360.256	483.69
360.483	470.69
360.709	453.69
360.936	442.69
361.163	438.69
361.39	429.69
361.616	449.69
361.843	430.69
362.07	420.69
362.296	440.69
362.523	422.69
362.749	432.69
362.976	431.69
363.203	416.69
363.429	423.69
363.656	428.69
363.882	418.69
364.109	427.69
364.335	428.69
364.562	433.69
364.788	433.69
365.015	413.69
365.241	408.69
365.468	429.69
365.694	413.69
365.92	430.69
366.147	420.69
366.373	443.69
366.599	442.69
366.826	437.69
367.052	437.69
367.278	421.69
367.505	441.69
367.731	428.69
367.957	428.69
368.184	430.69
368.41	439.69
368.636	438.69
368.862	449.69
369.089	409.69
369.315	445.69
369.541	455.69
369.767	444.69
369.993	422.69
370.219	429.69
370.445	439.69
370.672	434.69
370.898	426.69
371.124	427.69
371.35	430.69
371.576	433.69
371.802	421.69
372.028	429.69
372.254	442.69
372.48	429.69
372.706	434.69
372.932	425.69
373.158	430.69
373.384	463.69
373.61	442.69
373.835	433.69
374.061	433.69
374.287	446.69
374.513	428.69
374.739	438.69
374.965	430.69
375.191	451.69
375.416	450.69
375.642	431.69
375.868	426.69
376.094	438.69
376.319	436.69
376.545	437.69
376.771	448.69
376.997	448.69
377.222	433.69
377.448	426.69
377.674	441.69
377.899	423.69
378.125	421.69
378.35	419.69
378.576	413.69
378.802	423.69
379.027	434.69
379.253	442.69
379.478	438.69
379.704	418.69
379.929	446.69
380.155	444.69
380.38	428.69
380.606	429.69
380.831	427.69
381.057	433.69
381.282	441.69
381.507	426.69
381.733	433.69
381.958	439.69
382.184	442.69
382.409	455.69
382.634	456.69
382.86	454.69
383.085	456.69
383.31	442.69
383.535	442.69
383.761	446.69
383.986	458.69
384.211	462.69
384.436	463.69
384.662	462.69
384.887	474.69
385.112	480.69
385.337	478.69
385.562	485.69
385.787	458.69
386.013	492.69
386.238	497.69
386.463	470.69
386.688	490.69
386.913	480.69
387.138	478.69
387.363	484.69
387.588	457.69
387.813	480.69
388.038	491.69
388.263	465.69
388.488	482.69
388.713	477.69
388.938	483.69
389.163	463.69
389.387	469.69
389.612	470.69
389.837	473.69
390.062	496.69
390.287	492.69
390.512	462.69
390.736	462.69
390.961	496.69
391.186	491.69
391.411	472.69
391.636	483.69
391.86	512.69
392.085	508.69
392.31	493.69
392.534	480.69
392.759	508.69
392.984	513.69
393.208	504.69
393.433	510.69
393.658	503.69
393.882	485.69
394.107	489.69
394.331	510.69
394.556	488.69
394.78	500.69
395.005	487.69
395.229	500.69
395.454	511.69
395.678	510.69
395.903	524.69
396.127	518.69
396.352	550.69
396.576	487.69
396.801	509.69
397.025	520.69
397.249	535.69
397.474	511.69
397.698	529.69
397.922	516.69
398.147	548.69
398.371	573.69
398.595	546.69
398.82	535.69
399.044	574.69
399.268	585.69
399.492	619.69
399.717	657.69
399.941	671.69
400.165	705.69
400.389	681.69
400.613	648.69
400.837	600.69
401.062	588.69
401.286	555.69
401.51	563.69
401.734	542.69
401.958	560.69
402.182	547.69
402.406	576.69
402.63	582.69
402.854	571.69
403.078	562.69
403.302	588.69
403.526	592.69
403.75	585.69
403.974	581.69
404.198	578.69
404.422	553.69
404.645	594.69
404.869	588.69
405.093	626.69
405.317	675.69
405.541	708.69
405.765	643.69
405.988	624.69
406.212	635.69
406.436	639.69
406.66	652.69
406.883	617.69
407.107	633.69
407.331	708.69
407.555	758.69
407.778	773.69
408.002	696.69
408.226	655.69
408.449	644.69
408.673	638.69
408.896	667.69
409.12	720.69
409.344	669.69
409.567	632.69
409.791	622.69
410.014	586.69
410.238	603.69
410.461	596.69
410.685	594.69
410.908	580.69
411.132	632.69
411.355	678.69
411.578	651.69
411.802	610.69
412.025	598.69
412.249	588.69
412.472	612.69
412.695	649.69
412.919	646.69
413.142	599.69
413.365	580.69
413.589	594.69
413.812	587.69
414.035	558.69
414.258	544.69
414.482	548.69
414.705	544.69
414.928	571.69
415.151	576.69
415.374	553.69
415.597	556.69
415.821	552.69
416.044	559.69
416.267	552.69
416.49	544.69
416.713	572.69
416.936	535.69
417.159	549.69
417.382	547.69
417.605	563.69
417.828	574.69
418.051	575.69
418.274	570.69
418.497	571.69
418.72	548.69
418.943	555.69
419.166	582.69
419.389	596.69
419.611	604.69
419.834	575.69
420.057	594.69
420.28	594.69
420.503	572.69
420.726	572.69
420.948	600.69
421.171	645.69
421.394	642.69
421.617	599.69
421.839	568.69
422.062	585.69
422.285	594.69
422.507	638.69
422.73	744.69
422.953	726.69
423.175	630.69
423.398	592.69
423.621	607.69
423.843	605.69
424.066	629.69
424.288	620.69
424.511	635.69
424.733	679.69
424.956	793.69
425.178	753.69
425.401	741.69
425.623	768.69
425.846	650.69
426.068	634.69
426.291	621.69
426.513	604.69
426.735	631.69
426.958	634.69
427.18	745.69
427.402	902.69
427.625	1006.69
427.847	848.69
428.069	725.69
428.292	642.69
428.514	611.69
428.736	613.69
428.958	587.69
429.181	581.69
429.403	582.69
429.625	572.69
429.847	618.69
430.069	699.69
430.292	688.69
430.514	588.69
430.736	572.69
430.958	566.69
431.18	548.69
431.402	551.69
431.624	526.69
431.846	522.69
432.068	535.69
432.29	533.69
432.512	533.69
432.734	568.69
432.956	568.69
433.178	561.69
433.4	553.69
433.622	541.69
433.844	555.69
434.066	558.69
434.287	534.69
434.509	544.69
434.731	571.69
434.953	566.69
435.175	588.69
435.397	624.69
435.618	622.69
435.84	665.69
436.062	767.69
436.284	825.69
436.505	712.69
436.727	621.69
436.949	596.69
437.17	568.69
437.392	585.69
437.614	568.69
437.835	616.69
438.057	725.69
438.278	835.69
438.5	832.69
438.721	906.69
438.943	855.69
439.165	702.69
439.386	638.69
439.608	632.69
439.829	604.69
440.05	660.69
440.272	721.69
440.493	682.69
440.715	620.69
440.936	598.69
441.158	592.69
441.379	569.69
441.6	592.69
441.822	616.69
442.043	639.69
442.264	751.69
442.486	776.69
442.707	669.69
442.928	648.69
443.149	644.69
443.371	670.69
443.592	723.69
443.813	820.69
444.034	868.69
444.255	751.69
444.476	648.69
444.698	635.69
444.919	633.69
445.14	702.69
445.361	680.69
445.582	665.69
445.803	732.69
446.024	837.69
446.245	865.69
446.466	764.69
446.687	649.69
446.908	618.69
447.129	604.69
447.35	565.69
447.571	554.69
447.792	553.69
448.013	558.69
448.234	580.69
448.455	671.69
448.675	746.69
448.896	881.69
449.117	736.69
449.338	690.69
449.559	825.69
449.779	957.69
450	764.69
450.221	630.69
450.442	582.69
450.662	572.69
450.883	568.69
451.104	571.69
451.324	537.69
451.545	534.69
451.766	521.69
451.986	512.69
452.207	529.69
452.428	498.69
452.648	502.69
452.869	509.69
453.089	531.69
453.31	536.69
453.53	521.69
453.751	526.69
453.971	507.69
454.192	518.69
454.412	522.69
454.633	530.69
454.853	506.69
455.073	526.69
455.294	520.69
455.514	609.69
455.734	586.69
455.955	500.69
456.175	495.69
456.395	491.69
456.616	492.69
456.836	503.69
457.056	478.69
457.276	494.69
457.497	485.69
457.717	473.69
457.937	491.69
458.157	527.69
458.377	500.69
458.598	505.69
458.818	574.69
459.038	667.69
459.258	689.69
459.478	583.69
459.698	572.69
459.918	551.69
460.138	560.69
460.358	545.69
460.578	548.69
460.798	557.69
461.018	583.69
461.238	532.69
461.458	557.69
461.678	571.69
461.898	566.69
462.118	567.69
462.338	573.69
462.558	588.69
462.777	609.69
462.997	622.69
463.217	628.69
463.437	640.69
463.657	609.69
463.876	595.69
464.096	606.69
464.316	587.69
464.536	605.69
464.755	632.69
464.975	592.69
465.195	633.69
465.414	698.69
465.634	629.69
465.854	569.69
466.073	553.69
466.293	540.69
466.512	532.69
466.732	528.69
466.951	535.69
467.171	528.69
467.391	504.69
467.61	508.69
467.829	539.69
468.049	539.69
468.268	516.69
468.488	542.69
468.707	520.69
468.927	534.69
469.146	517.69
469.365	520.69
469.585	527.69
469.804	522.69
470.023	557.69
470.243	536.69
470.462	525.69
470.681	564.69
470.901	549.69
471.12	542.69
471.339	534.69
471.558	538.69
471.777	537.69
471.997	502.69
472.216	541.69
472.435	566.69
472.654	576.69
472.873	538.69
473.092	535.69
473.311	531.69
473.53	541.69
473.749	555.69
473.968	576.69
474.187	666.69
474.406	685.69
474.625	611.69
474.844	564.69
475.063	518.69
475.282	539.69
475.501	526.69
475.72	543.69
475.939	557.69
476.158	568.69
476.377	543.69
476.596	551.69
476.814	582.69
477.033	568.69
477.252	572.69
477.471	578.69
477.69	566.69
477.908	585.69
478.127	597.69
478.346	569.69
478.564	600.69
478.783	578.69
479.002	619.69
479.22	630.69
479.439	614.69
479.658	630.69
479.876	647.69
480.095	654.69
480.313	680.69
480.532	666.69
480.751	636.69
480.969	689.69
481.188	742.69
481.406	749.69
481.624	692.69
481.843	671.69
482.061	645.69
482.28	645.69
482.498	636.69
482.717	623.69
482.935	638.69
483.153	621.69
483.372	640.69
483.59	625.69
483.808	660.69
484.027	642.69
484.245	626.69
484.463	648.69
484.681	631.69
484.9	631.69
485.118	650.69
485.336	638.69
485.554	664.69
485.772	676.69
485.99	655.69
486.209	674.69
486.427	654.69
486.645	663.69
486.863	676.69
487.081	664.69
487.299	684.69
487.517	645.69
487.735	672.69
487.953	662.69
488.171	673.69
488.389	659.69
488.607	696.69
488.825	672.69
489.043	690.69
489.261	688.69
489.479	701.69
489.696	673.69
489.914	689.69
490.132	717.69
490.35	711.69
490.568	712.69
490.786	713.69
491.003	743.69
491.221	765.69
491.439	749.69
491.657	749.69
491.874	769.69
492.092	776.69
492.31	773.69
492.527	774.69
492.745	778.69
492.963	786.69
493.18	777.69
493.398	793.69
493.615	780.69
493.833	805.69
494.05	805.69
494.268	809.69
494.485	796.69
494.703	808.69
494.92	790.69
495.138	785.69
495.355	790.69
495.573	767.69
495.79	786.69
496.008	812.69
496.225	789.69
496.442	808.69
496.66	814.69
496.877	794.69
497.094	828.69
497.312	845.69
497.529	810.69
497.746	844.69
497.963	829.69
498.181	868.69
498.398	862.69
498.615	907.69
498.832	933.69
499.049	943.69
499.267	950.69
499.484	991.69
499.701	1028.69
499.918	1048.69
500.135	1102.69
500.352	1156.69
500.569	1174.69
500.786	1196.69
501.003	1158.69
501.22	1129.69
501.437	1069.69
501.654	1070.69
501.871	1069.69
502.088	988.69
502.305	932.69
502.522	933.69
502.739	909.69
502.956	876.69
503.172	884.69
503.389	838.69
503.606	846.69
503.823	864.69
504.04	823.69
504.256	828.69
504.473	818.69
504.69	803.69
504.907	813.69
505.123	793.69
505.34	810.69
505.557	790.69
505.773	758.69
505.99	785.69
506.207	754.69
506.423	751.69
506.64	752.69
506.856	748.69
507.073	743.69
507.289	744.69
507.506	713.69
507.722	741.69
507.939	769.69
508.155	730.69
508.372	709.69
508.588	733.69
508.805	709.69
509.021	719.69
509.238	728.69
509.454	730.69
509.67	709.69
509.887	724.69
510.103	720.69
510.319	724.69
510.536	797.69
510.752	1217.69
510.968	1042.69
511.184	744.69
511.401	704.69
511.617	683.69
511.833	687.69
512.049	689.69
512.265	692.69
512.481	676.69
512.698	678.69
512.914	673.69
513.13	680.69
513.346	650.69
513.562	674.69
513.778	680.69
513.994	679.69
514.21	694.69
514.426	713.69
514.642	742.69
514.858	776.69
515.074	785.69
515.29	958.69
515.506	1272.69
515.721	1097.69
515.937	784.69
516.153	759.69
516.369	709.69
516.585	690.69
516.801	674.69
517.016	694.69
517.232	705.69
517.448	733.69
517.664	729.69
517.879	701.69
518.095	730.69
518.311	687.69
518.527	706.69
518.742	704.69
518.958	704.69
519.173	683.69
519.389	681.69
519.605	660.69
519.82	672.69
520.036	678.69
520.251	694.69
520.467	719.69
520.682	716.69
520.898	739.69
521.113	733.69
521.329	781.69
521.544	838.69
521.76	1033.69
521.975	1627.69
522.19	1591.69
522.406	945.69
522.621	736.69
522.836	694.69
523.052	652.69
523.267	655.69
523.482	636.69
523.698	623.69
523.913	628.69
524.128	612.69
524.343	612.69
524.559	616.69
524.774	588.69
524.989	598.69
525.204	603.69
525.419	589.69
525.634	564.69
525.849	605.69
526.064	590.69
526.28	587.69
526.495	582.69
526.71	569.69
526.925	568.69
527.14	550.69
527.355	548.69
527.57	568.69
527.785	555.69
527.999	552.69
528.214	548.69
528.429	579.69
528.644	561.69
528.859	554.69
529.074	570.69
529.289	588.69
529.503	650.69
529.718	646.69
529.933	592.69
530.148	554.69
530.363	572.69
530.577	556.69
530.792	545.69
531.007	556.69
531.221	574.69
531.436	546.69
531.651	560.69
531.865	544.69
532.08	548.69
532.295	545.69
532.509	561.69
532.724	528.69
532.938	556.69
533.153	550.69
533.367	538.69
533.582	564.69
533.796	538.69
534.011	542.69
534.225	516.69
534.44	544.69
534.654	543.69
534.868	535.69
535.083	529.69
535.297	541.69
535.511	513.69
535.726	537.69
535.94	548.69
536.154	530.69
536.369	546.69
536.583	533.69
536.797	530.69
537.011	488.69
537.225	502.69
537.44	530.69
537.654	513.69
537.868	518.69
538.082	516.69
538.296	523.69
538.51	495.69
538.724	509.69
538.938	514.69
539.153	511.69
539.367	522.69
539.581	535.69
539.795	501.69
540.009	543.69
540.222	512.69
540.436	509.69
540.65	503.69
540.864	516.69
541.078	528.69
541.292	504.69
541.506	515.69
541.72	511.69
541.934	513.69
542.147	508.69
542.361	509.69
542.575	523.69
542.789	507.69
543.002	517.69
543.216	521.69
543.43	515.69
543.644	506.69
543.857	535.69
544.071	504.69
544.285	525.69
544.498	505.69
544.712	484.69
544.925	500.69
545.139	495.69
545.352	497.69
545.566	488.69
545.779	502.69
545.993	486.69
546.206	505.69
546.42	490.69
546.633	513.69
546.847	498.69
547.06	504.69
547.274	488.69
547.487	488.69
547.7	475.69
547.914	495.69
548.127	490.69
548.34	505.69
548.554	504.69
548.767	511.69
548.98	494.69
549.193	496.69
549.407	491.69
549.62	487.69
549.833	522.69
550.046	497.69
550.259	487.69
550.473	490.69
550.686	479.69
550.899	473.69
551.112	488.69
551.325	474.69
551.538	472.69
551.751	478.69
551.964	482.69
552.177	491.69
552.39	491.69
552.603	484.69
552.816	506.69
553.029	492.69
553.242	470.69
553.455	504.69
553.667	507.69
553.88	505.69
554.093	476.69
554.306	488.69
554.519	480.69
554.732	501.69
554.944	516.69
555.157	470.69
555.37	466.69
555.583	468.69
555.795	463.69
556.008	448.69
556.221	438.69
556.433	452.69
556.646	484.69
556.859	449.69
557.071	438.69
557.284	453.69
557.496	445.69
557.709	449.69
557.921	457.69
558.134	456.69
558.346	439.69
558.559	423.69
558.771	449.69
558.984	437.69
559.196	430.69
559.409	443.69
559.621	446.69
559.833	426.69
560.046	421.69
560.258	432.69
560.47	448.69
560.683	413.69
560.895	444.69
561.107	424.69
561.32	436.69
561.532	434.69
561.744	438.69
561.956	416.69
562.168	457.69
562.381	438.69
562.593	434.69
562.805	449.69
563.017	457.69
563.229	458.69
563.441	461.69
563.653	427.69
563.865	446.69
564.077	481.69
564.289	459.69
564.501	489.69
564.713	466.69
564.925	465.69
565.137	488.69
565.349	459.69
565.561	485.69
565.773	514.69
565.985	500.69
566.197	517.69
566.408	541.69
566.62	548.69
566.832	535.69
567.044	566.69
567.255	547.69
567.467	542.69
567.679	558.69
567.891	600.69
568.102	583.69
568.314	573.69
568.526	554.69
568.737	528.69
568.949	495.69
569.161	494.69
569.372	497.69
569.584	474.69
569.795	444.69
570.007	453.69
570.218	496.69
570.43	484.69
570.641	452.69
570.853	449.69
571.064	440.69
571.276	426.69
571.487	412.69
571.698	443.69
571.91	422.69
572.121	425.69
572.333	410.69
572.544	397.69
572.755	405.69
572.966	400.69
573.178	398.69
573.389	384.69
573.6	402.69
573.811	389.69
574.023	385.69
574.234	386.69
574.445	408.69
574.656	385.69
574.867	392.69
575.078	399.69
575.289	380.69
575.501	397.69
575.712	351.69
575.923	374.69
576.134	359.69
576.345	355.69
576.556	393.69
576.767	365.69
576.978	379.69
577.188	376.69
577.399	381.69
577.61	335.69
577.821	358.69
578.032	380.69
578.243	394.69
578.454	599.69
578.665	444.69
578.875	368.69
579.086	353.69
579.297	358.69
579.508	357.69
579.718	366.69
579.929	341.69
580.14	357.69
580.35	346.69
580.561	358.69
580.772	343.69
580.982	333.69
581.193	336.69
581.403	348.69
581.614	331.69
581.825	344.69
582.035	320.69
582.246	340.69
582.456	316.69
582.667	355.69
582.877	352.69
583.087	352.69
583.298	336.69
583.508	356.69
583.719	335.69
583.929	346.69
584.139	338.69
584.35	353.69
584.56	333.69
584.77	338.69
584.981	329.69
585.191	328.69
585.401	334.69
585.611	338.69
585.821	348.69
586.032	334.69
586.242	341.69
586.452	320.69
586.662	330.69
586.872	348.69
587.082	335.69
587.292	325.69
587.502	333.69
587.713	347.69
587.923	346.69
588.133	334.69
588.343	324.69
588.553	324.69
588.762	335.69
588.972	344.69
589.182	365.69
589.392	355.69
589.602	341.69
589.812	332.69
590.022	338.69
590.232	349.69
590.441	340.69
590.651	332.69
590.861	325.69
591.071	337.69
591.281	337.69
591.49	329.69
591.7	345.69
591.91	357.69
592.119	337.69
592.329	351.69
592.539	346.69
592.748	372.69
592.958	359.69
593.167	358.69
593.377	363.69
593.587	373.69
593.796	367.69
594.006	349.69
594.215	355.69
594.424	349.69
594.634	359.69
594.843	351.69
595.053	337.69
595.262	328.69
595.472	331.69
595.681	333.69
595.89	329.69
596.1	315.69
596.309	343.69
596.518	331.69
596.727	313.69
596.937	302.69
597.146	296.69
597.355	302.69
597.564	318.69
597.774	310.69
597.983	307.69
598.192	304.69
598.401	317.69
598.61	302.69
598.819	293.69
599.028	288.69
599.237	301.69
599.446	301.69
599.655	286.69
599.864	292.69
600.073	288.69
600.282	290.69
600.491	279.69
600.7	280.69
600.909	279.69
601.118	298.69
601.327	302.69
601.536	290.69
601.745	291.69
601.953	289.69
602.162	302.69
602.371	290.69
602.58	266.69
602.789	269.69
602.997	284.69
603.206	278.69
603.415	274.69
603.623	283.69
603.832	282.69
604.041	297.69
604.249	284.69
604.458	291.69
604.666	272.69
604.875	280.69
605.084	280.69
605.292	278.69
605.501	277.69
605.709	273.69
605.918	288.69
606.126	270.69
606.334	272.69
606.543	272.69
606.751	273.69
606.96	284.69
607.168	278.69
607.376	279.69
607.585	276.69
607.793	274.69
608.001	268.69
608.21	272.69
608.418	242.69
608.626	260.69
608.834	268.69
609.043	269.69
609.251	290.69
609.459	264.69
609.667	279.69
609.875	274.69
610.083	255.69
610.291	279.69
610.499	267.69
610.707	274.69
610.916	292.69
611.124	281.69
611.332	278.69
611.54	295.69
611.748	271.69
611.955	269.69
612.163	254.69
612.371	276.69
612.579	271.69
612.787	266.69
612.995	284.69
613.203	252.69
613.411	257.69
613.618	254.69
613.826	245.69
614.034	249.69
614.242	250.69
614.449	257.69
614.657	269.69
614.865	277.69
615.072	271.69
615.28	261.69
615.488	270.69
615.695	260.69
615.903	269.69
616.111	261.69
616.318	286.69
616.526	265.69
616.733	266.69
616.941	269.69
617.148	266.69
617.356	279.69
617.563	260.69
617.771	264.69
617.978	234.69
618.185	282.69
618.393	252.69
618.6	260.69
618.807	250.69
619.015	250.69
619.222	252.69
619.429	241.69
619.637	244.69
619.844	244.69
620.051	255.69
620.258	273.69
620.466	262.69
620.673	234.69
620.88	229.69
621.087	248.69
621.294	257.69
621.501	241.69
621.708	265.69
621.915	240.69
622.122	233.69
622.329	256.69
622.536	250.69
622.743	248.69
622.95	250.69
623.157	231.69
623.364	231.69
623.571	238.69
623.778	227.69
623.985	241.69
624.192	236.69
624.399	226.69
624.606	233.69
624.812	235.69
625.019	234.69
625.226	219.69
625.433	250.69
625.639	255.69
625.846	219.69
626.053	223.69
626.259	226.69
626.466	233.69
626.673	233.69
626.879	213.69
627.086	233.69
627.293	230.69
627.499	225.69
627.706	217.69
627.912	207.69
628.119	232.69
628.325	219.69
628.532	215.69
628.738	214.69
628.945	236.69
629.151	221.69
629.357	228.69
629.564	221.69
629.77	212.69
629.976	214.69
630.183	210.69
630.389	228.69
630.595	225.69
630.802	211.69
631.008	210.69
631.214	214.69
631.42	214.69
631.627	225.69
631.833	214.69
632.039	204.69
632.245	222.69
632.451	208.69
632.657	217.69
632.863	197.69
633.069	211.69
633.275	230.69
633.481	208.69
633.688	216.69
633.893	205.69
634.099	195.69
634.305	208.69
634.511	204.69
634.717	191.69
634.923	210.69
635.129	191.69
635.335	197.69
635.541	204.69
635.747	201.69
635.952	203.69
636.158	200.69
636.364	212.69
636.57	206.69
636.775	192.69
636.981	200.69
637.187	202.69
637.392	206.69
637.598	183.69
637.804	197.69
638.009	189.69
638.215	198.69
638.421	196.69
638.626	208.69
638.832	200.69
639.037	194.69
639.243	206.69
639.448	181.69
639.654	204.69
639.859	191.69
640.065	181.69
640.27	191.69
640.475	206.69
640.681	176.69
640.886	200.69
641.091	185.69
641.297	195.69
641.502	189.69
641.707	177.69
641.913	187.69
642.118	186.69
642.323	182.69
642.528	184.69
642.733	185.69
642.939	181.69
643.144	169.69
643.349	191.69
643.554	183.69
643.759	197.69
643.964	190.69
644.169	182.69
644.374	169.69
644.579	184.69
644.784	189.69
644.989	178.69
645.194	175.69
645.399	185.69
645.604	177.69
645.809	184.69
646.014	175.69
646.219	188.69
646.423	184.69
646.628	189.69
646.833	216.69
647.038	192.69
647.243	191.69
647.447	165.69
647.652	192.69
647.857	189.69
648.062	200.69
648.266	190.69
648.471	191.69
648.676	173.69
648.88	195.69
649.085	196.69
649.289	188.69
649.494	185.69
649.698	212.69
649.903	200.69
650.107	190.69
650.312	178.69
650.516	173.69
650.721	168.69
650.925	155.69
651.13	160.69
651.334	177.69
651.539	170.69
651.743	170.69
651.947	141.69
652.152	164.69
652.356	147.69
652.56	133.69
652.764	153.69
652.969	168.69
653.173	154.69
653.377	155.69
653.581	155.69
653.785	158.69
653.99	153.69
654.194	150.69
654.398	144.69
654.602	151.69
654.806	147.69
655.01	151.69
655.214	150.69
655.418	152.69
655.622	139.69
655.826	143.69
656.03	124.69
656.234	152.69
656.438	145.69
656.642	154.69
656.846	150.69
657.049	145.69
657.253	137.69
657.457	128.69
657.661	126.69
657.865	127.69
658.068	111.69
658.272	122.69
658.476	118.69
658.68	114.69
658.883	109.69
659.087	113.69
659.291	109.69
659.494	103.69
659.698	107.69
659.901	104.69
660.105	114.69
660.309	95.69
660.512	90.69
660.716	98.69
660.919	103.69
661.123	120.69
661.326	96.69
661.53	88.69
661.733	90.69
661.936	88.69
662.14	88.69
662.343	103.69
662.546	93.69
662.75	92.69
662.953	81.69
663.156	96.69
663.36	90.69
663.563	85.69
663.766	89.69
663.969	92.69
664.173	83.69
664.376	83.69
664.579	81.69
664.782	75.69
664.985	87.69
665.188	95.69
665.391	87.69
665.594	86.69
665.797	92.69
666	72.69
666.203	92.69
666.406	87.69
666.609	97.69
666.812	94.69
667.015	80.69
667.218	78.69
667.421	95.69
667.624	99.69
667.827	90.69
668.03	92.69
668.232	80.69
668.435	81.69
668.638	90.69
668.841	82.69
669.043	83.69
669.246	76.69
669.449	80.69
669.651	96.69
669.854	90.69
670.057	74.69
670.259	82.69
670.462	85.69
670.665	91.69
670.867	82.69
671.07	79.69
671.272	82.69
671.475	87.69
671.677	88.69
671.88	94.69
672.082	88.69
672.284	86.69
672.487	72.69
672.689	99.69
672.892	81.69
