Data from 1966.PennyLincolnUp.Lamp.En5.5.200Scan.071719.P1.Scan2.head_HRD10591_14-18-24-185.txt Node
Date: Thu Jul 18 14:18:24 EDT 2019
User: cochatt
Spectrometer: HR+D1059
Trigger mode: 1
Integration Time (sec): 1.000000E-1
Scans to average: 1
Electric dark correction enabled: true
Nonlinearity correction enabled: false
Boxcar width: 0
XAxis mode: Wavelengths
Number of Pixels in Spectrum: 2048
>>>>>Begin Spectral Data<<<<<
223.165	-12.75
223.4	-12.75
223.635	-12.75
223.869	-29.75
224.104	-20.75
224.338	-4.75
224.573	-10.75
224.808	-15.75
225.042	-8.75
225.277	-16.75
225.511	-4.75
225.746	6.25
225.98	5.25
226.215	6.25
226.449	7.25
226.683	35.25
226.918	39.25
227.152	25.25
227.387	31.25
227.621	35.25
227.856	32.25
228.09	39.25
228.324	57.25
228.559	43.25
228.793	79.25
229.027	89.25
229.262	105.25
229.496	120.25
229.73	131.25
229.964	155.25
230.199	142.25
230.433	119.25
230.667	113.25
230.901	117.25
231.136	104.25
231.37	133.25
231.604	119.25
231.838	113.25
232.072	106.25
232.306	106.25
232.541	100.25
232.775	121.25
233.009	107.25
233.243	131.25
233.477	121.25
233.711	127.25
233.945	107.25
234.179	115.25
234.413	131.25
234.647	122.25
234.881	103.25
235.115	119.25
235.349	126.25
235.583	127.25
235.817	121.25
236.051	129.25
236.285	138.25
236.519	127.25
236.753	135.25
236.987	138.25
237.221	180.25
237.455	254.25
237.689	195.25
237.922	151.25
238.156	133.25
238.39	118.25
238.624	124.25
238.858	132.25
239.091	138.25
239.325	123.25
239.559	139.25
239.793	136.25
240.027	133.25
240.26	145.25
240.494	167.25
240.728	171.25
240.961	165.25
241.195	173.25
241.429	149.25
241.662	140.25
241.896	136.25
242.13	152.25
242.363	138.25
242.597	148.25
242.83	139.25
243.064	144.25
243.298	144.25
243.531	139.25
243.765	126.25
243.998	137.25
244.232	134.25
244.465	150.25
244.699	148.25
244.932	135.25
245.166	155.25
245.399	148.25
245.633	168.25
245.866	144.25
246.099	163.25
246.333	145.25
246.566	160.25
246.8	147.25
247.033	156.25
247.266	163.25
247.5	172.25
247.733	183.25
247.966	169.25
248.2	158.25
248.433	179.25
248.666	171.25
248.899	180.25
249.133	217.25
249.366	220.25
249.599	201.25
249.832	187.25
250.066	197.25
250.299	179.25
250.532	188.25
250.765	205.25
250.998	220.25
251.231	232.25
251.465	225.25
251.698	212.25
251.931	192.25
252.164	196.25
252.397	206.25
252.63	203.25
252.863	199.25
253.096	208.25
253.329	229.25
253.562	236.25
253.795	226.25
254.028	224.25
254.261	225.25
254.494	235.25
254.727	268.25
254.96	293.25
255.193	285.25
255.426	250.25
255.659	219.25
255.892	246.25
256.124	243.25
256.357	258.25
256.59	244.25
256.823	227.25
257.056	207.25
257.289	213.25
257.521	210.25
257.754	206.25
257.987	203.25
258.22	222.25
258.452	210.25
258.685	216.25
258.918	205.25
259.151	220.25
259.383	215.25
259.616	231.25
259.849	222.25
260.081	234.25
260.314	235.25
260.547	267.25
260.779	253.25
261.012	255.25
261.244	246.25
261.477	234.25
261.71	229.25
261.942	235.25
262.175	242.25
262.407	255.25
262.64	225.25
262.872	227.25
263.105	222.25
263.337	220.25
263.57	213.25
263.802	224.25
264.035	207.25
264.267	206.25
264.499	226.25
264.732	236.25
264.964	221.25
265.197	222.25
265.429	233.25
265.661	209.25
265.894	209.25
266.126	219.25
266.358	209.25
266.591	218.25
266.823	212.25
267.055	234.25
267.287	237.25
267.52	235.25
267.752	233.25
267.984	233.25
268.216	226.25
268.448	232.25
268.681	243.25
268.913	259.25
269.145	265.25
269.377	285.25
269.609	284.25
269.841	280.25
270.073	281.25
270.306	281.25
270.538	308.25
270.77	331.25
271.002	303.25
271.234	293.25
271.466	290.25
271.698	310.25
271.93	327.25
272.162	311.25
272.394	327.25
272.626	301.25
272.858	302.25
273.09	280.25
273.322	286.25
273.553	266.25
273.785	273.25
274.017	259.25
274.249	261.25
274.481	285.25
274.713	279.25
274.945	267.25
275.176	271.25
275.408	272.25
275.64	265.25
275.872	276.25
276.104	285.25
276.335	271.25
276.567	271.25
276.799	286.25
277.031	323.25
277.262	331.25
277.494	320.25
277.726	319.25
277.957	297.25
278.189	288.25
278.421	285.25
278.652	287.25
278.884	281.25
279.115	279.25
279.347	273.25
279.579	268.25
279.81	273.25
280.042	264.25
280.273	278.25
280.505	287.25
280.736	263.25
280.968	285.25
281.199	272.25
281.431	270.25
281.662	279.25
281.894	280.25
282.125	282.25
282.356	288.25
282.588	317.25
282.819	305.25
283.051	289.25
283.282	283.25
283.513	271.25
283.745	293.25
283.976	294.25
284.207	297.25
284.439	277.25
284.67	277.25
284.901	290.25
285.132	277.25
285.364	283.25
285.595	301.25
285.826	291.25
286.057	321.25
286.288	289.25
286.52	287.25
286.751	279.25
286.982	284.25
287.213	269.25
287.444	280.25
287.675	312.25
287.906	300.25
288.138	297.25
288.369	288.25
288.6	317.25
288.831	310.25
289.062	307.25
289.293	287.25
289.524	276.25
289.755	325.25
289.986	315.25
290.217	280.25
290.448	305.25
290.679	295.25
290.91	309.25
291.141	289.25
291.371	297.25
291.602	291.25
291.833	292.25
292.064	284.25
292.295	289.25
292.526	307.25
292.757	294.25
292.987	313.25
293.218	301.25
293.449	305.25
293.68	295.25
293.91	288.25
294.141	316.25
294.372	291.25
294.603	304.25
294.833	298.25
295.064	311.25
295.295	303.25
295.525	291.25
295.756	298.25
295.987	319.25
296.217	343.25
296.448	328.25
296.679	299.25
296.909	315.25
297.14	323.25
297.37	311.25
297.601	331.25
297.831	320.25
298.062	306.25
298.292	317.25
298.523	309.25
298.753	321.25
298.984	323.25
299.214	311.25
299.445	301.25
299.675	310.25
299.905	325.25
300.136	318.25
300.366	315.25
300.597	328.25
300.827	319.25
301.057	353.25
301.288	340.25
301.518	334.25
301.748	323.25
301.979	351.25
302.209	334.25
302.439	352.25
302.669	329.25
302.9	329.25
303.13	326.25
303.36	345.25
303.59	334.25
303.82	361.25
304.051	358.25
304.281	317.25
304.511	327.25
304.741	328.25
304.971	337.25
305.201	332.25
305.431	328.25
305.661	319.25
305.891	337.25
306.121	351.25
306.352	340.25
306.582	355.25
306.812	327.25
307.042	328.25
307.272	335.25
307.502	350.25
307.731	352.25
307.961	349.25
308.191	357.25
308.421	349.25
308.651	359.25
308.881	363.25
309.111	344.25
309.341	344.25
309.571	367.25
309.8	356.25
310.03	370.25
310.26	383.25
310.49	372.25
310.72	392.25
310.949	405.25
311.179	409.25
311.409	388.25
311.639	389.25
311.868	381.25
312.098	383.25
312.328	402.25
312.557	407.25
312.787	407.25
313.017	401.25
313.246	394.25
313.476	387.25
313.706	397.25
313.935	401.25
314.165	407.25
314.394	391.25
314.624	390.25
314.853	399.25
315.083	371.25
315.312	366.25
315.542	367.25
315.771	382.25
316.001	358.25
316.23	347.25
316.46	380.25
316.689	396.25
316.919	385.25
317.148	389.25
317.377	382.25
317.607	399.25
317.836	392.25
318.065	378.25
318.295	376.25
318.524	391.25
318.753	381.25
318.983	391.25
319.212	410.25
319.441	423.25
319.67	403.25
319.9	389.25
320.129	387.25
320.358	380.25
320.587	401.25
320.816	401.25
321.046	412.25
321.275	398.25
321.504	404.25
321.733	413.25
321.962	420.25
322.191	397.25
322.42	429.25
322.649	456.25
322.878	458.25
323.108	456.25
323.337	467.25
323.566	486.25
323.795	537.25
324.024	557.25
324.253	689.25
324.482	978.25
324.71	1488.25
324.939	2274.25
325.168	1942.25
325.397	928.25
325.626	633.25
325.855	582.25
326.084	531.25
326.313	505.25
326.542	516.25
326.77	545.25
326.999	619.25
327.228	863.25
327.457	1338.25
327.686	1732.25
327.914	1098.25
328.143	717.25
328.372	625.25
328.6	573.25
328.829	579.25
329.058	581.25
329.287	588.25
329.515	553.25
329.744	520.25
329.972	534.25
330.201	517.25
330.43	568.25
330.658	596.25
330.887	610.25
331.115	619.25
331.344	540.25
331.572	488.25
331.801	505.25
332.03	489.25
332.258	475.25
332.486	475.25
332.715	476.25
332.943	463.25
333.172	472.25
333.4	473.25
333.629	491.25
333.857	513.25
334.085	529.25
334.314	515.25
334.542	553.25
334.771	599.25
334.999	539.25
335.227	503.25
335.455	499.25
335.684	480.25
335.912	481.25
336.14	468.25
336.369	475.25
336.597	456.25
336.825	463.25
337.053	468.25
337.281	460.25
337.51	451.25
337.738	453.25
337.966	452.25
338.194	480.25
338.422	463.25
338.65	453.25
338.878	456.25
339.106	436.25
339.334	466.25
339.562	464.25
339.79	452.25
340.018	457.25
340.246	455.25
340.474	477.25
340.702	441.25
340.93	460.25
341.158	451.25
341.386	439.25
341.614	453.25
341.842	446.25
342.07	441.25
342.298	437.25
342.526	459.25
342.754	437.25
342.981	429.25
343.209	431.25
343.437	437.25
343.665	437.25
343.893	452.25
344.12	449.25
344.348	456.25
344.576	463.25
344.804	443.25
345.031	460.25
345.259	474.25
345.487	452.25
345.714	439.25
345.942	452.25
346.17	450.25
346.397	454.25
346.625	438.25
346.853	431.25
347.08	431.25
347.308	437.25
347.535	466.25
347.763	444.25
347.99	451.25
348.218	439.25
348.445	445.25
348.673	457.25
348.9	461.25
349.128	462.25
349.355	423.25
349.583	427.25
349.81	423.25
350.037	431.25
350.265	438.25
350.492	424.25
350.72	443.25
350.947	444.25
351.174	437.25
351.402	455.25
351.629	466.25
351.856	443.25
352.083	441.25
352.311	455.25
352.538	462.25
352.765	457.25
352.992	441.25
353.22	422.25
353.447	441.25
353.674	432.25
353.901	413.25
354.128	418.25
354.355	406.25
354.583	411.25
354.81	398.25
355.037	400.25
355.264	406.25
355.491	414.25
355.718	392.25
355.945	413.25
356.172	405.25
356.399	429.25
356.626	397.25
356.853	421.25
357.08	420.25
357.307	411.25
357.534	425.25
357.761	409.25
357.988	415.25
358.215	404.25
358.441	412.25
358.668	412.25
358.895	413.25
359.122	421.25
359.349	435.25
359.576	462.25
359.802	475.25
360.029	509.25
360.256	477.25
360.483	493.25
360.709	450.25
360.936	444.25
361.163	434.25
361.39	442.25
361.616	449.25
361.843	416.25
362.07	441.25
362.296	450.25
362.523	449.25
362.749	436.25
362.976	431.25
363.203	440.25
363.429	439.25
363.656	415.25
363.882	441.25
364.109	430.25
364.335	432.25
364.562	440.25
364.788	429.25
365.015	444.25
365.241	425.25
365.468	435.25
365.694	435.25
365.92	435.25
366.147	424.25
366.373	429.25
366.599	426.25
366.826	427.25
367.052	426.25
367.278	441.25
367.505	445.25
367.731	438.25
367.957	442.25
368.184	423.25
368.41	437.25
368.636	457.25
368.862	472.25
369.089	447.25
369.315	432.25
369.541	432.25
369.767	431.25
369.993	423.25
370.219	428.25
370.445	437.25
370.672	428.25
370.898	414.25
371.124	430.25
371.35	435.25
371.576	411.25
371.802	423.25
372.028	443.25
372.254	407.25
372.48	439.25
372.706	435.25
372.932	452.25
373.158	446.25
373.384	455.25
373.61	445.25
373.835	451.25
374.061	448.25
374.287	455.25
374.513	460.25
374.739	433.25
374.965	443.25
375.191	439.25
375.416	445.25
375.642	440.25
375.868	462.25
376.094	446.25
376.319	434.25
376.545	443.25
376.771	423.25
376.997	449.25
377.222	445.25
377.448	433.25
377.674	445.25
377.899	422.25
378.125	423.25
378.35	437.25
378.576	445.25
378.802	441.25
379.027	441.25
379.253	429.25
379.478	442.25
379.704	448.25
379.929	430.25
380.155	425.25
380.38	433.25
380.606	456.25
380.831	455.25
381.057	448.25
381.282	448.25
381.507	424.25
381.733	437.25
381.958	448.25
382.184	429.25
382.409	448.25
382.634	452.25
382.86	458.25
383.085	451.25
383.31	446.25
383.535	435.25
383.761	445.25
383.986	465.25
384.211	479.25
384.436	455.25
384.662	460.25
384.887	472.25
385.112	453.25
385.337	461.25
385.562	465.25
385.787	479.25
386.013	487.25
386.238	473.25
386.463	501.25
386.688	489.25
386.913	460.25
387.138	477.25
387.363	471.25
387.588	501.25
387.813	482.25
388.038	499.25
388.263	476.25
388.488	492.25
388.713	488.25
388.938	473.25
389.163	496.25
389.387	489.25
389.612	503.25
389.837	488.25
390.062	488.25
390.287	502.25
390.512	489.25
390.736	486.25
390.961	495.25
391.186	478.25
391.411	481.25
391.636	476.25
391.86	489.25
392.085	486.25
392.31	515.25
392.534	519.25
392.759	487.25
392.984	493.25
393.208	492.25
393.433	492.25
393.658	483.25
393.882	508.25
394.107	487.25
394.331	492.25
394.556	504.25
394.78	490.25
395.005	502.25
395.229	499.25
395.454	508.25
395.678	504.25
395.903	513.25
396.127	558.25
396.352	553.25
396.576	517.25
396.801	520.25
397.025	522.25
397.249	518.25
397.474	534.25
397.698	521.25
397.922	527.25
398.147	551.25
398.371	559.25
398.595	550.25
398.82	552.25
399.044	570.25
399.268	552.25
399.492	612.25
399.717	646.25
399.941	679.25
400.165	684.25
400.389	675.25
400.613	665.25
400.837	611.25
401.062	579.25
401.286	557.25
401.51	558.25
401.734	574.25
401.958	552.25
402.182	557.25
402.406	598.25
402.63	571.25
402.854	572.25
403.078	582.25
403.302	594.25
403.526	621.25
403.75	590.25
403.974	601.25
404.198	604.25
404.422	571.25
404.645	591.25
404.869	601.25
405.093	646.25
405.317	688.25
405.541	709.25
405.765	655.25
405.988	615.25
406.212	645.25
406.436	647.25
406.66	661.25
406.883	645.25
407.107	691.25
407.331	694.25
407.555	775.25
407.778	771.25
408.002	737.25
408.226	665.25
408.449	652.25
408.673	653.25
408.896	685.25
409.12	711.25
409.344	695.25
409.567	631.25
409.791	602.25
410.014	618.25
410.238	581.25
410.461	599.25
410.685	579.25
410.908	621.25
411.132	654.25
411.355	715.25
411.578	656.25
411.802	609.25
412.025	596.25
412.249	579.25
412.472	639.25
412.695	687.25
412.919	668.25
413.142	604.25
413.365	601.25
413.589	573.25
413.812	567.25
414.035	569.25
414.258	569.25
414.482	525.25
414.705	580.25
414.928	547.25
415.151	571.25
415.374	570.25
415.597	542.25
415.821	540.25
416.044	566.25
416.267	563.25
416.49	555.25
416.713	547.25
416.936	541.25
417.159	548.25
417.382	553.25
417.605	577.25
417.828	570.25
418.051	597.25
418.274	580.25
418.497	579.25
418.72	560.25
418.943	569.25
419.166	601.25
419.389	604.25
419.611	603.25
419.834	619.25
420.057	599.25
420.28	599.25
420.503	587.25
420.726	574.25
420.948	591.25
421.171	647.25
421.394	683.25
421.617	582.25
421.839	581.25
422.062	591.25
422.285	591.25
422.507	635.25
422.73	765.25
422.953	701.25
423.175	633.25
423.398	604.25
423.621	590.25
423.843	603.25
424.066	639.25
424.288	642.25
424.511	629.25
424.733	694.25
424.956	791.25
425.178	783.25
425.401	775.25
425.623	793.25
425.846	693.25
426.068	633.25
426.291	629.25
426.513	635.25
426.735	638.25
426.958	673.25
427.18	757.25
427.402	894.25
427.625	985.25
427.847	868.25
428.069	757.25
428.292	693.25
428.514	619.25
428.736	588.25
428.958	606.25
429.181	593.25
429.403	592.25
429.625	594.25
429.847	621.25
430.069	722.25
430.292	699.25
430.514	594.25
430.736	573.25
430.958	585.25
431.18	558.25
431.402	563.25
431.624	573.25
431.846	555.25
432.068	542.25
432.29	535.25
432.512	546.25
432.734	561.25
432.956	555.25
433.178	571.25
433.4	573.25
433.622	565.25
433.844	568.25
434.066	541.25
434.287	556.25
434.509	539.25
434.731	562.25
434.953	587.25
435.175	599.25
435.397	637.25
435.618	649.25
435.84	686.25
436.062	776.25
436.284	863.25
436.505	704.25
436.727	627.25
436.949	588.25
437.17	595.25
437.392	596.25
437.614	583.25
437.835	635.25
438.057	728.25
438.278	850.25
438.5	845.25
438.721	912.25
438.943	886.25
439.165	688.25
439.386	640.25
439.608	647.25
439.829	650.25
440.05	653.25
440.272	720.25
440.493	689.25
440.715	642.25
440.936	613.25
441.158	607.25
441.379	588.25
441.6	596.25
441.822	618.25
442.043	664.25
442.264	786.25
442.486	819.25
442.707	685.25
442.928	645.25
443.149	645.25
443.371	691.25
443.592	724.25
443.813	823.25
444.034	878.25
444.255	754.25
444.476	681.25
444.698	648.25
444.919	621.25
445.14	773.25
445.361	702.25
445.582	702.25
445.803	735.25
446.024	880.25
446.245	886.25
446.466	813.25
446.687	691.25
446.908	635.25
447.129	602.25
447.35	579.25
447.571	595.25
447.792	585.25
448.013	566.25
448.234	568.25
448.455	662.25
448.675	806.25
448.896	925.25
449.117	763.25
449.338	750.25
449.559	864.25
449.779	975.25
450	781.25
450.221	656.25
450.442	600.25
450.662	567.25
450.883	585.25
451.104	580.25
451.324	549.25
451.545	546.25
451.766	541.25
451.986	520.25
452.207	515.25
452.428	524.25
452.648	514.25
452.869	533.25
453.089	540.25
453.31	537.25
453.53	520.25
453.751	520.25
453.971	508.25
454.192	536.25
454.412	526.25
454.633	507.25
454.853	502.25
455.073	529.25
455.294	537.25
455.514	628.25
455.734	627.25
455.955	530.25
456.175	500.25
456.395	504.25
456.616	496.25
456.836	468.25
457.056	504.25
457.276	472.25
457.497	484.25
457.717	497.25
457.937	475.25
458.157	496.25
458.377	527.25
458.598	523.25
458.818	603.25
459.038	665.25
459.258	717.25
459.478	593.25
459.698	561.25
459.918	555.25
460.138	551.25
460.358	556.25
460.578	577.25
460.798	560.25
461.018	584.25
461.238	584.25
461.458	561.25
461.678	552.25
461.898	552.25
462.118	573.25
462.338	578.25
462.558	586.25
462.777	606.25
462.997	609.25
463.217	628.25
463.437	641.25
463.657	619.25
463.876	623.25
464.096	620.25
464.316	613.25
464.536	607.25
464.755	622.25
464.975	612.25
465.195	640.25
465.414	700.25
465.634	638.25
465.854	599.25
466.073	555.25
466.293	541.25
466.512	531.25
466.732	542.25
466.951	547.25
467.171	530.25
467.391	541.25
467.61	560.25
467.829	538.25
468.049	541.25
468.268	527.25
468.488	551.25
468.707	547.25
468.927	542.25
469.146	529.25
469.365	535.25
469.585	511.25
469.804	522.25
470.023	530.25
470.243	534.25
470.462	540.25
470.681	580.25
470.901	567.25
471.12	554.25
471.339	516.25
471.558	548.25
471.777	560.25
471.997	526.25
472.216	541.25
472.435	569.25
472.654	559.25
472.873	543.25
473.092	542.25
473.311	564.25
473.53	535.25
473.749	563.25
473.968	592.25
474.187	677.25
474.406	729.25
474.625	596.25
474.844	568.25
475.063	558.25
475.282	543.25
475.501	551.25
475.72	550.25
475.939	580.25
476.158	566.25
476.377	559.25
476.596	565.25
476.814	580.25
477.033	562.25
477.252	568.25
477.471	576.25
477.69	590.25
477.908	613.25
478.127	592.25
478.346	596.25
478.564	603.25
478.783	596.25
479.002	629.25
479.22	612.25
479.439	623.25
479.658	650.25
479.876	653.25
480.095	649.25
480.313	703.25
480.532	664.25
480.751	673.25
480.969	699.25
481.188	750.25
481.406	783.25
481.624	697.25
481.843	678.25
482.061	672.25
482.28	655.25
482.498	661.25
482.717	663.25
482.935	634.25
483.153	644.25
483.372	667.25
483.59	646.25
483.808	658.25
484.027	627.25
484.245	638.25
484.463	648.25
484.681	669.25
484.9	654.25
485.118	667.25
485.336	672.25
485.554	656.25
485.772	655.25
485.99	657.25
486.209	661.25
486.427	687.25
486.645	675.25
486.863	680.25
487.081	732.25
487.299	681.25
487.517	681.25
487.735	692.25
487.953	677.25
488.171	675.25
488.389	669.25
488.607	702.25
488.825	676.25
489.043	686.25
489.261	688.25
489.479	688.25
489.696	693.25
489.914	703.25
490.132	708.25
490.35	729.25
490.568	723.25
490.786	729.25
491.003	769.25
491.221	765.25
491.439	773.25
491.657	822.25
491.874	758.25
492.092	775.25
492.31	773.25
492.527	807.25
492.745	839.25
492.963	806.25
493.18	831.25
493.398	817.25
493.615	843.25
493.833	822.25
494.05	806.25
494.268	804.25
494.485	803.25
494.703	789.25
494.92	797.25
495.138	804.25
495.355	813.25
495.573	820.25
495.79	855.25
496.008	805.25
496.225	835.25
496.442	823.25
496.66	860.25
496.877	813.25
497.094	829.25
497.312	849.25
497.529	829.25
497.746	856.25
497.963	857.25
498.181	886.25
498.398	904.25
498.615	904.25
498.832	934.25
499.049	957.25
499.267	986.25
499.484	997.25
499.701	1043.25
499.918	1076.25
500.135	1142.25
500.352	1157.25
500.569	1198.25
500.786	1196.25
501.003	1182.25
501.22	1132.25
501.437	1083.25
501.654	1087.25
501.871	1061.25
502.088	1006.25
502.305	995.25
502.522	940.25
502.739	917.25
502.956	913.25
503.172	895.25
503.389	884.25
503.606	854.25
503.823	853.25
504.04	852.25
504.256	828.25
504.473	816.25
504.69	821.25
504.907	832.25
505.123	830.25
505.34	795.25
505.557	798.25
505.773	777.25
505.99	791.25
506.207	800.25
506.423	792.25
506.64	779.25
506.856	769.25
507.073	753.25
507.289	785.25
507.506	744.25
507.722	771.25
507.939	800.25
508.155	766.25
508.372	751.25
508.588	739.25
508.805	723.25
509.021	741.25
509.238	749.25
509.454	763.25
509.67	753.25
509.887	755.25
510.103	740.25
510.319	726.25
510.536	788.25
510.752	1296.25
510.968	1072.25
511.184	772.25
511.401	714.25
511.617	707.25
511.833	686.25
512.049	691.25
512.265	703.25
512.481	688.25
512.698	693.25
512.914	702.25
513.13	681.25
513.346	695.25
513.562	686.25
513.778	668.25
513.994	728.25
514.21	704.25
514.426	728.25
514.642	761.25
514.858	783.25
515.074	836.25
515.29	919.25
515.506	1319.25
515.721	1135.25
515.937	838.25
516.153	776.25
516.369	750.25
516.585	708.25
516.801	715.25
517.016	731.25
517.232	721.25
517.448	701.25
517.664	717.25
517.879	727.25
518.095	715.25
518.311	723.25
518.527	699.25
518.742	711.25
518.958	708.25
519.173	707.25
519.389	693.25
519.605	669.25
519.82	696.25
520.036	715.25
520.251	728.25
520.467	765.25
520.682	753.25
520.898	746.25
521.113	761.25
521.329	795.25
521.544	906.25
521.76	1096.25
521.975	1693.25
522.19	1726.25
522.406	985.25
522.621	767.25
522.836	681.25
523.052	702.25
523.267	643.25
523.482	658.25
523.698	623.25
523.913	635.25
524.128	630.25
524.343	622.25
524.559	604.25
524.774	617.25
524.989	605.25
525.204	609.25
525.419	605.25
525.634	581.25
525.849	621.25
526.064	617.25
526.28	589.25
526.495	560.25
526.71	558.25
526.925	593.25
527.14	560.25
527.355	578.25
527.57	585.25
527.785	574.25
527.999	567.25
528.214	560.25
528.429	583.25
528.644	584.25
528.859	580.25
529.074	572.25
529.289	596.25
529.503	693.25
529.718	630.25
529.933	604.25
530.148	591.25
530.363	563.25
530.577	579.25
530.792	564.25
531.007	566.25
531.221	575.25
531.436	560.25
531.651	549.25
531.865	559.25
532.08	555.25
532.295	545.25
532.509	545.25
532.724	555.25
532.938	542.25
533.153	544.25
533.367	532.25
533.582	567.25
533.796	537.25
534.011	541.25
534.225	536.25
534.44	556.25
534.654	550.25
534.868	537.25
535.083	532.25
535.297	524.25
535.511	545.25
535.726	550.25
535.94	551.25
536.154	542.25
536.369	553.25
536.583	544.25
536.797	525.25
537.011	509.25
537.225	528.25
537.44	505.25
537.654	525.25
537.868	511.25
538.082	538.25
538.296	525.25
538.51	535.25
538.724	532.25
538.938	524.25
539.153	508.25
539.367	563.25
539.581	524.25
539.795	528.25
540.009	522.25
540.222	533.25
540.436	537.25
540.65	514.25
540.864	533.25
541.078	550.25
541.292	537.25
541.506	537.25
541.72	537.25
541.934	532.25
542.147	516.25
542.361	487.25
542.575	502.25
542.789	512.25
543.002	516.25
543.216	552.25
543.43	521.25
543.644	495.25
543.857	511.25
544.071	508.25
544.285	520.25
544.498	513.25
544.712	491.25
544.925	491.25
545.139	517.25
545.352	510.25
545.566	508.25
545.779	506.25
545.993	525.25
546.206	519.25
546.42	476.25
546.633	489.25
546.847	500.25
547.06	496.25
547.274	512.25
547.487	515.25
547.7	491.25
547.914	511.25
548.127	505.25
548.34	481.25
548.554	475.25
548.767	473.25
548.98	506.25
549.193	510.25
549.407	493.25
549.62	511.25
549.833	504.25
550.046	494.25
550.259	506.25
550.473	508.25
550.686	503.25
550.899	508.25
551.112	468.25
551.325	499.25
551.538	471.25
551.751	495.25
551.964	482.25
552.177	499.25
552.39	490.25
552.603	504.25
552.816	509.25
553.029	502.25
553.242	515.25
553.455	508.25
553.667	511.25
553.88	506.25
554.093	518.25
554.306	516.25
554.519	482.25
554.732	482.25
554.944	468.25
555.157	476.25
555.37	475.25
555.583	479.25
555.795	469.25
556.008	467.25
556.221	445.25
556.433	467.25
556.646	437.25
556.859	475.25
557.071	440.25
557.284	446.25
557.496	451.25
557.709	448.25
557.921	468.25
558.134	444.25
558.346	437.25
558.559	440.25
558.771	463.25
558.984	444.25
559.196	438.25
559.409	444.25
559.621	431.25
559.833	430.25
560.046	437.25
560.258	440.25
560.47	430.25
560.683	450.25
560.895	423.25
561.107	439.25
561.32	432.25
561.532	429.25
561.744	453.25
561.956	479.25
562.168	423.25
562.381	440.25
562.593	451.25
562.805	456.25
563.017	429.25
563.229	454.25
563.441	433.25
563.653	451.25
563.865	460.25
564.077	456.25
564.289	456.25
564.501	480.25
564.713	465.25
564.925	463.25
565.137	483.25
565.349	491.25
565.561	510.25
565.773	476.25
565.985	507.25
566.197	496.25
566.408	520.25
566.62	528.25
566.832	558.25
567.044	565.25
567.255	570.25
567.467	557.25
567.679	554.25
567.891	586.25
568.102	575.25
568.314	546.25
568.526	559.25
568.737	551.25
568.949	527.25
569.161	501.25
569.372	484.25
569.584	475.25
569.795	468.25
570.007	474.25
570.218	492.25
570.43	504.25
570.641	448.25
570.853	448.25
571.064	445.25
571.276	439.25
571.487	430.25
571.698	417.25
571.91	419.25
572.121	416.25
572.333	413.25
572.544	415.25
572.755	413.25
572.966	406.25
573.178	391.25
573.389	390.25
573.6	388.25
573.811	392.25
574.023	399.25
574.234	374.25
574.445	392.25
574.656	395.25
574.867	387.25
575.078	384.25
575.289	401.25
575.501	374.25
575.712	381.25
575.923	388.25
576.134	378.25
576.345	371.25
576.556	369.25
576.767	379.25
576.978	347.25
577.188	379.25
577.399	378.25
577.61	362.25
577.821	382.25
578.032	376.25
578.243	423.25
578.454	613.25
578.665	469.25
578.875	376.25
579.086	377.25
579.297	348.25
579.508	361.25
579.718	344.25
579.929	357.25
580.14	354.25
580.35	362.25
580.561	343.25
580.772	355.25
580.982	360.25
581.193	344.25
581.403	368.25
581.614	358.25
581.825	342.25
582.035	339.25
582.246	348.25
582.456	344.25
582.667	338.25
582.877	339.25
583.087	360.25
583.298	337.25
583.508	360.25
583.719	365.25
583.929	359.25
584.139	337.25
584.35	341.25
584.56	342.25
584.77	354.25
584.981	354.25
585.191	350.25
585.401	342.25
585.611	346.25
585.821	325.25
586.032	343.25
586.242	347.25
586.452	330.25
586.662	343.25
586.872	341.25
587.082	349.25
587.292	340.25
587.502	338.25
587.713	355.25
587.923	345.25
588.133	325.25
588.343	339.25
588.553	331.25
588.762	333.25
588.972	327.25
589.182	353.25
589.392	353.25
589.602	340.25
589.812	350.25
590.022	353.25
590.232	318.25
590.441	323.25
590.651	329.25
590.861	356.25
591.071	330.25
591.281	364.25
591.49	360.25
591.7	346.25
591.91	349.25
592.119	337.25
592.329	340.25
592.539	360.25
592.748	356.25
592.958	364.25
593.167	336.25
593.377	363.25
593.587	385.25
593.796	362.25
594.006	371.25
594.215	354.25
594.424	368.25
594.634	372.25
594.843	355.25
595.053	348.25
595.262	331.25
595.472	336.25
595.681	318.25
595.89	347.25
596.1	318.25
596.309	317.25
596.518	319.25
596.727	313.25
596.937	312.25
597.146	327.25
597.355	312.25
597.564	316.25
597.774	332.25
597.983	307.25
598.192	318.25
598.401	308.25
598.61	301.25
598.819	303.25
599.028	294.25
599.237	313.25
599.446	294.25
599.655	314.25
599.864	301.25
600.073	315.25
600.282	311.25
600.491	313.25
600.7	326.25
600.909	286.25
601.118	303.25
601.327	289.25
601.536	295.25
601.745	295.25
601.953	288.25
602.162	299.25
602.371	271.25
602.58	282.25
602.789	288.25
602.997	286.25
603.206	302.25
603.415	292.25
603.623	283.25
603.832	295.25
604.041	295.25
604.249	299.25
604.458	296.25
604.666	285.25
604.875	267.25
605.084	278.25
605.292	291.25
605.501	275.25
605.709	282.25
605.918	296.25
606.126	271.25
606.334	283.25
606.543	285.25
606.751	293.25
606.96	264.25
607.168	269.25
607.376	285.25
607.585	273.25
607.793	279.25
608.001	269.25
608.21	259.25
608.418	280.25
608.626	270.25
608.834	287.25
609.043	279.25
609.251	265.25
609.459	267.25
609.667	283.25
609.875	280.25
610.083	256.25
610.291	273.25
610.499	284.25
610.707	266.25
610.916	269.25
611.124	266.25
611.332	270.25
611.54	289.25
611.748	281.25
611.955	269.25
612.163	263.25
612.371	281.25
612.579	273.25
612.787	286.25
612.995	269.25
613.203	278.25
613.411	267.25
613.618	252.25
613.826	280.25
614.034	277.25
614.242	264.25
614.449	273.25
614.657	260.25
614.865	280.25
615.072	272.25
615.28	265.25
615.488	294.25
615.695	259.25
615.903	274.25
616.111	286.25
616.318	276.25
616.526	279.25
616.733	267.25
616.941	266.25
617.148	270.25
617.356	277.25
617.563	269.25
617.771	273.25
617.978	268.25
618.185	259.25
618.393	248.25
618.6	268.25
618.807	250.25
619.015	271.25
619.222	266.25
619.429	247.25
619.637	264.25
619.844	272.25
620.051	267.25
620.258	247.25
620.466	263.25
620.673	256.25
620.88	240.25
621.087	248.25
621.294	227.25
621.501	267.25
621.708	263.25
621.915	238.25
622.122	256.25
622.329	239.25
622.536	249.25
622.743	248.25
622.95	248.25
623.157	251.25
623.364	234.25
623.571	238.25
623.778	233.25
623.985	248.25
624.192	234.25
624.399	236.25
624.606	232.25
624.812	234.25
625.019	243.25
625.226	252.25
625.433	236.25
625.639	237.25
625.846	243.25
626.053	231.25
626.259	247.25
626.466	225.25
626.673	231.25
626.879	227.25
627.086	235.25
627.293	224.25
627.499	227.25
627.706	224.25
627.912	226.25
628.119	225.25
628.325	224.25
628.532	244.25
628.738	217.25
628.945	231.25
629.151	213.25
629.357	235.25
629.564	236.25
629.77	236.25
629.976	217.25
630.183	230.25
630.389	218.25
630.595	220.25
630.802	199.25
631.008	209.25
631.214	220.25
631.42	219.25
631.627	224.25
631.833	195.25
632.039	205.25
632.245	208.25
632.451	216.25
632.657	234.25
632.863	219.25
633.069	196.25
633.275	215.25
633.481	211.25
633.688	204.25
633.893	217.25
634.099	211.25
634.305	202.25
634.511	203.25
634.717	208.25
634.923	209.25
635.129	190.25
635.335	208.25
635.541	197.25
635.747	205.25
635.952	208.25
636.158	205.25
636.364	204.25
636.57	204.25
636.775	201.25
636.981	201.25
637.187	202.25
637.392	217.25
637.598	200.25
637.804	183.25
638.009	212.25
638.215	189.25
638.421	185.25
638.626	195.25
638.832	195.25
639.037	193.25
639.243	190.25
639.448	192.25
639.654	200.25
639.859	201.25
640.065	202.25
640.27	197.25
640.475	202.25
640.681	185.25
640.886	193.25
641.091	187.25
641.297	185.25
641.502	193.25
641.707	189.25
641.913	202.25
642.118	179.25
642.323	182.25
642.528	185.25
642.733	191.25
642.939	191.25
643.144	201.25
643.349	180.25
643.554	181.25
643.759	169.25
643.964	182.25
644.169	168.25
644.374	188.25
644.579	177.25
644.784	188.25
644.989	186.25
645.194	176.25
645.399	177.25
645.604	188.25
645.809	181.25
646.014	172.25
646.219	182.25
646.423	191.25
646.628	175.25
646.833	186.25
647.038	191.25
647.243	186.25
647.447	179.25
647.652	175.25
647.857	167.25
648.062	182.25
648.266	169.25
648.471	177.25
648.676	164.25
648.88	182.25
649.085	181.25
649.289	172.25
649.494	183.25
649.698	213.25
649.903	191.25
650.107	163.25
650.312	174.25
650.516	195.25
650.721	157.25
650.925	155.25
651.13	169.25
651.334	163.25
651.539	168.25
651.743	175.25
651.947	165.25
652.152	171.25
652.356	146.25
652.56	159.25
652.764	157.25
652.969	151.25
653.173	150.25
653.377	156.25
653.581	164.25
653.785	152.25
653.99	141.25
654.194	139.25
654.398	153.25
654.602	150.25
654.806	147.25
655.01	148.25
655.214	129.25
655.418	146.25
655.622	147.25
655.826	128.25
656.03	134.25
656.234	140.25
656.438	140.25
656.642	136.25
656.846	141.25
657.049	138.25
657.253	146.25
657.457	132.25
657.661	123.25
657.865	129.25
658.068	136.25
658.272	123.25
658.476	110.25
658.68	105.25
658.883	116.25
659.087	101.25
659.291	102.25
659.494	117.25
659.698	99.25
659.901	93.25
660.105	113.25
660.309	92.25
660.512	96.25
660.716	98.25
660.919	104.25
661.123	87.25
661.326	67.25
661.53	83.25
661.733	88.25
661.936	117.25
662.14	94.25
662.343	83.25
662.546	79.25
662.75	78.25
662.953	89.25
663.156	81.25
663.36	89.25
663.563	78.25
663.766	67.25
663.969	92.25
664.173	77.25
664.376	83.25
664.579	91.25
664.782	79.25
664.985	74.25
665.188	84.25
665.391	87.25
665.594	89.25
665.797	76.25
666	79.25
666.203	70.25
666.406	87.25
666.609	81.25
666.812	95.25
667.015	79.25
667.218	91.25
667.421	89.25
667.624	79.25
667.827	85.25
668.03	86.25
668.232	93.25
668.435	77.25
668.638	71.25
668.841	77.25
669.043	82.25
669.246	79.25
669.449	85.25
669.651	88.25
669.854	85.25
670.057	84.25
670.259	81.25
670.462	94.25
670.665	88.25
670.867	80.25
671.07	91.25
671.272	77.25
671.475	81.25
671.677	81.25
671.88	78.25
672.082	88.25
672.284	88.25
672.487	92.25
672.689	79.25
672.892	82.25
