Data from 1966.PennyLincolnUp.Lamp.En5.5.200Scan.071719.P1.Scan2.head_HRD10591_14-19-22-262.txt Node
Date: Thu Jul 18 14:19:22 EDT 2019
User: cochatt
Spectrometer: HR+D1059
Trigger mode: 1
Integration Time (sec): 1.000000E-1
Scans to average: 1
Electric dark correction enabled: true
Nonlinearity correction enabled: false
Boxcar width: 0
XAxis mode: Wavelengths
Number of Pixels in Spectrum: 2048
>>>>>Begin Spectral Data<<<<<
223.165	-13.25
223.4	-13.25
223.635	-13.25
223.869	-25.25
224.104	-19.25
224.338	-13.25
224.573	-14.25
224.808	-8.25
225.042	-18.25
225.277	-11.25
225.511	-5.25
225.746	-8.25
225.98	10.75
226.215	19.75
226.449	23.75
226.683	21.75
226.918	25.75
227.152	34.75
227.387	26.75
227.621	26.75
227.856	49.75
228.09	53.75
228.324	45.75
228.559	56.75
228.793	74.75
229.027	104.75
229.262	102.75
229.496	120.75
229.73	142.75
229.964	162.75
230.199	143.75
230.433	113.75
230.667	108.75
230.901	122.75
231.136	127.75
231.37	121.75
231.604	113.75
231.838	105.75
232.072	134.75
232.306	108.75
232.541	98.75
232.775	105.75
233.009	121.75
233.243	111.75
233.477	116.75
233.711	116.75
233.945	113.75
234.179	120.75
234.413	126.75
234.647	136.75
234.881	120.75
235.115	107.75
235.349	109.75
235.583	130.75
235.817	138.75
236.051	130.75
236.285	137.75
236.519	129.75
236.753	136.75
236.987	164.75
237.221	192.75
237.455	237.75
237.689	200.75
237.922	137.75
238.156	150.75
238.39	145.75
238.624	129.75
238.858	129.75
239.091	127.75
239.325	117.75
239.559	154.75
239.793	136.75
240.027	140.75
240.26	142.75
240.494	173.75
240.728	165.75
240.961	153.75
241.195	160.75
241.429	162.75
241.662	136.75
241.896	124.75
242.13	140.75
242.363	137.75
242.597	148.75
242.83	133.75
243.064	144.75
243.298	149.75
243.531	150.75
243.765	161.75
243.998	156.75
244.232	161.75
244.465	139.75
244.699	163.75
244.932	148.75
245.166	146.75
245.399	172.75
245.633	155.75
245.866	137.75
246.099	152.75
246.333	151.75
246.566	143.75
246.8	150.75
247.033	172.75
247.266	168.75
247.5	174.75
247.733	181.75
247.966	177.75
248.2	185.75
248.433	166.75
248.666	182.75
248.899	187.75
249.133	210.75
249.366	207.75
249.599	194.75
249.832	206.75
250.066	199.75
250.299	204.75
250.532	212.75
250.765	214.75
250.998	225.75
251.231	260.75
251.465	236.75
251.698	213.75
251.931	199.75
252.164	213.75
252.397	206.75
252.63	198.75
252.863	216.75
253.096	235.75
253.329	237.75
253.562	236.75
253.795	224.75
254.028	231.75
254.261	221.75
254.494	220.75
254.727	255.75
254.96	290.75
255.193	292.75
255.426	255.75
255.659	233.75
255.892	250.75
256.124	248.75
256.357	244.75
256.59	226.75
256.823	216.75
257.056	226.75
257.289	222.75
257.521	219.75
257.754	218.75
257.987	213.75
258.22	202.75
258.452	229.75
258.685	235.75
258.918	221.75
259.151	227.75
259.383	224.75
259.616	238.75
259.849	218.75
260.081	244.75
260.314	280.75
260.547	285.75
260.779	269.75
261.012	247.75
261.244	248.75
261.477	237.75
261.71	244.75
261.942	231.75
262.175	241.75
262.407	238.75
262.64	237.75
262.872	222.75
263.105	234.75
263.337	219.75
263.57	226.75
263.802	220.75
264.035	230.75
264.267	222.75
264.499	214.75
264.732	230.75
264.964	229.75
265.197	222.75
265.429	225.75
265.661	204.75
265.894	229.75
266.126	237.75
266.358	219.75
266.591	221.75
266.823	222.75
267.055	237.75
267.287	248.75
267.52	230.75
267.752	231.75
267.984	226.75
268.216	258.75
268.448	223.75
268.681	238.75
268.913	271.75
269.145	275.75
269.377	280.75
269.609	279.75
269.841	281.75
270.073	291.75
270.306	304.75
270.538	339.75
270.77	325.75
271.002	330.75
271.234	314.75
271.466	317.75
271.698	345.75
271.93	335.75
272.162	329.75
272.394	336.75
272.626	312.75
272.858	291.75
273.09	288.75
273.322	291.75
273.553	294.75
273.785	293.75
274.017	265.75
274.249	298.75
274.481	287.75
274.713	262.75
274.945	262.75
275.176	283.75
275.408	291.75
275.64	292.75
275.872	274.75
276.104	301.75
276.335	278.75
276.567	280.75
276.799	304.75
277.031	307.75
277.262	344.75
277.494	332.75
277.726	304.75
277.957	301.75
278.189	301.75
278.421	295.75
278.652	297.75
278.884	275.75
279.115	282.75
279.347	285.75
279.579	286.75
279.81	285.75
280.042	285.75
280.273	290.75
280.505	272.75
280.736	277.75
280.968	283.75
281.199	289.75
281.431	294.75
281.662	288.75
281.894	272.75
282.125	290.75
282.356	305.75
282.588	313.75
282.819	310.75
283.051	297.75
283.282	286.75
283.513	290.75
283.745	288.75
283.976	290.75
284.207	297.75
284.439	301.75
284.67	312.75
284.901	296.75
285.132	293.75
285.364	280.75
285.595	318.75
285.826	304.75
286.057	294.75
286.288	301.75
286.52	284.75
286.751	293.75
286.982	297.75
287.213	304.75
287.444	302.75
287.675	308.75
287.906	311.75
288.138	331.75
288.369	313.75
288.6	306.75
288.831	314.75
289.062	298.75
289.293	294.75
289.524	315.75
289.755	312.75
289.986	308.75
290.217	296.75
290.448	296.75
290.679	309.75
290.91	293.75
291.141	301.75
291.371	303.75
291.602	310.75
291.833	301.75
292.064	295.75
292.295	297.75
292.526	319.75
292.757	323.75
292.987	316.75
293.218	304.75
293.449	301.75
293.68	319.75
293.91	318.75
294.141	309.75
294.372	312.75
294.603	322.75
294.833	301.75
295.064	320.75
295.295	305.75
295.525	313.75
295.756	328.75
295.987	328.75
296.217	364.75
296.448	345.75
296.679	324.75
296.909	310.75
297.14	317.75
297.37	310.75
297.601	313.75
297.831	327.75
298.062	319.75
298.292	317.75
298.523	316.75
298.753	333.75
298.984	319.75
299.214	334.75
299.445	320.75
299.675	335.75
299.905	341.75
300.136	339.75
300.366	323.75
300.597	339.75
300.827	334.75
301.057	342.75
301.288	342.75
301.518	348.75
301.748	354.75
301.979	337.75
302.209	333.75
302.439	355.75
302.669	343.75
302.9	334.75
303.13	344.75
303.36	357.75
303.59	352.75
303.82	352.75
304.051	357.75
304.281	353.75
304.511	334.75
304.741	340.75
304.971	324.75
305.201	331.75
305.431	342.75
305.661	349.75
305.891	336.75
306.121	343.75
306.352	358.75
306.582	351.75
306.812	356.75
307.042	342.75
307.272	338.75
307.502	354.75
307.731	367.75
307.961	361.75
308.191	352.75
308.421	346.75
308.651	361.75
308.881	361.75
309.111	363.75
309.341	370.75
309.571	384.75
309.8	381.75
310.03	374.75
310.26	380.75
310.49	398.75
310.72	420.75
310.949	409.75
311.179	434.75
311.409	418.75
311.639	406.75
311.868	405.75
312.098	401.75
312.328	420.75
312.557	425.75
312.787	447.75
313.017	432.75
313.246	416.75
313.476	409.75
313.706	400.75
313.935	396.75
314.165	407.75
314.394	406.75
314.624	406.75
314.853	417.75
315.083	408.75
315.312	394.75
315.542	391.75
315.771	395.75
316.001	420.75
316.23	402.75
316.46	400.75
316.689	393.75
316.919	387.75
317.148	393.75
317.377	412.75
317.607	427.75
317.836	404.75
318.065	416.75
318.295	404.75
318.524	394.75
318.753	417.75
318.983	402.75
319.212	395.75
319.441	413.75
319.67	412.75
319.9	414.75
320.129	415.75
320.358	406.75
320.587	406.75
320.816	424.75
321.046	404.75
321.275	436.75
321.504	440.75
321.733	421.75
321.962	418.75
322.191	450.75
322.42	442.75
322.649	464.75
322.878	488.75
323.108	476.75
323.337	508.75
323.566	513.75
323.795	533.75
324.024	594.75
324.253	701.75
324.482	988.75
324.71	1606.75
324.939	2394.75
325.168	2081.75
325.397	1021.75
325.626	685.75
325.855	574.75
326.084	534.75
326.313	526.75
326.542	527.75
326.77	578.75
326.999	654.75
327.228	922.75
327.457	1432.75
327.686	1816.75
327.914	1156.75
328.143	754.75
328.372	656.75
328.6	619.75
328.829	593.75
329.058	586.75
329.287	606.75
329.515	577.75
329.744	554.75
329.972	536.75
330.201	565.75
330.43	648.75
330.658	628.75
330.887	657.75
331.115	632.75
331.344	584.75
331.572	517.75
331.801	525.75
332.03	522.75
332.258	500.75
332.486	497.75
332.715	492.75
332.943	466.75
333.172	485.75
333.4	483.75
333.629	505.75
333.857	540.75
334.085	522.75
334.314	556.75
334.542	580.75
334.771	632.75
334.999	544.75
335.227	529.75
335.455	493.75
335.684	506.75
335.912	484.75
336.14	468.75
336.369	497.75
336.597	499.75
336.825	490.75
337.053	504.75
337.281	478.75
337.51	482.75
337.738	463.75
337.966	459.75
338.194	494.75
338.422	487.75
338.65	471.75
338.878	444.75
339.106	485.75
339.334	475.75
339.562	490.75
339.79	458.75
340.018	468.75
340.246	481.75
340.474	481.75
340.702	489.75
340.93	471.75
341.158	443.75
341.386	448.75
341.614	464.75
341.842	481.75
342.07	450.75
342.298	465.75
342.526	448.75
342.754	449.75
342.981	438.75
343.209	431.75
343.437	463.75
343.665	469.75
343.893	480.75
344.12	473.75
344.348	482.75
344.576	486.75
344.804	478.75
345.031	489.75
345.259	478.75
345.487	478.75
345.714	479.75
345.942	450.75
346.17	454.75
346.397	470.75
346.625	460.75
346.853	457.75
347.08	442.75
347.308	466.75
347.535	465.75
347.763	477.75
347.99	492.75
348.218	455.75
348.445	473.75
348.673	462.75
348.9	468.75
349.128	452.75
349.355	447.75
349.583	442.75
349.81	466.75
350.037	447.75
350.265	451.75
350.492	450.75
350.72	430.75
350.947	446.75
351.174	433.75
351.402	462.75
351.629	455.75
351.856	472.75
352.083	473.75
352.311	477.75
352.538	484.75
352.765	486.75
352.992	465.75
353.22	465.75
353.447	454.75
353.674	464.75
353.901	459.75
354.128	440.75
354.355	422.75
354.583	430.75
354.81	442.75
355.037	433.75
355.264	442.75
355.491	444.75
355.718	437.75
355.945	434.75
356.172	410.75
356.399	430.75
356.626	426.75
356.853	423.75
357.08	413.75
357.307	427.75
357.534	418.75
357.761	434.75
357.988	435.75
358.215	438.75
358.441	435.75
358.668	421.75
358.895	434.75
359.122	447.75
359.349	438.75
359.576	465.75
359.802	485.75
360.029	495.75
360.256	493.75
360.483	502.75
360.709	473.75
360.936	487.75
361.163	456.75
361.39	478.75
361.616	460.75
361.843	436.75
362.07	455.75
362.296	450.75
362.523	466.75
362.749	477.75
362.976	472.75
363.203	456.75
363.429	448.75
363.656	445.75
363.882	452.75
364.109	445.75
364.335	456.75
364.562	440.75
364.788	447.75
365.015	430.75
365.241	433.75
365.468	457.75
365.694	453.75
365.92	446.75
366.147	464.75
366.373	454.75
366.599	431.75
366.826	446.75
367.052	458.75
367.278	458.75
367.505	459.75
367.731	467.75
367.957	434.75
368.184	453.75
368.41	457.75
368.636	471.75
368.862	462.75
369.089	446.75
369.315	428.75
369.541	461.75
369.767	423.75
369.993	436.75
370.219	450.75
370.445	458.75
370.672	446.75
370.898	436.75
371.124	448.75
371.35	447.75
371.576	452.75
371.802	449.75
372.028	450.75
372.254	449.75
372.48	447.75
372.706	476.75
372.932	449.75
373.158	457.75
373.384	451.75
373.61	450.75
373.835	452.75
374.061	444.75
374.287	448.75
374.513	448.75
374.739	455.75
374.965	445.75
375.191	454.75
375.416	432.75
375.642	473.75
375.868	444.75
376.094	451.75
376.319	436.75
376.545	449.75
376.771	440.75
376.997	431.75
377.222	436.75
377.448	436.75
377.674	440.75
377.899	438.75
378.125	453.75
378.35	436.75
378.576	457.75
378.802	449.75
379.027	438.75
379.253	467.75
379.478	447.75
379.704	438.75
379.929	462.75
380.155	470.75
380.38	454.75
380.606	450.75
380.831	468.75
381.057	465.75
381.282	436.75
381.507	461.75
381.733	423.75
381.958	445.75
382.184	470.75
382.409	471.75
382.634	457.75
382.86	480.75
383.085	481.75
383.31	479.75
383.535	487.75
383.761	494.75
383.986	470.75
384.211	472.75
384.436	488.75
384.662	496.75
384.887	480.75
385.112	470.75
385.337	481.75
385.562	507.75
385.787	504.75
386.013	531.75
386.238	520.75
386.463	520.75
386.688	506.75
386.913	486.75
387.138	503.75
387.363	500.75
387.588	487.75
387.813	511.75
388.038	505.75
388.263	497.75
388.488	496.75
388.713	516.75
388.938	501.75
389.163	498.75
389.387	502.75
389.612	514.75
389.837	487.75
390.062	506.75
390.287	506.75
390.512	507.75
390.736	503.75
390.961	492.75
391.186	508.75
391.411	491.75
391.636	524.75
391.86	492.75
392.085	514.75
392.31	534.75
392.534	505.75
392.759	538.75
392.984	514.75
393.208	492.75
393.433	503.75
393.658	520.75
393.882	508.75
394.107	525.75
394.331	530.75
394.556	521.75
394.78	519.75
395.005	514.75
395.229	491.75
395.454	529.75
395.678	535.75
395.903	530.75
396.127	564.75
396.352	577.75
396.576	545.75
396.801	515.75
397.025	533.75
397.249	533.75
397.474	545.75
397.698	542.75
397.922	571.75
398.147	578.75
398.371	570.75
398.595	600.75
398.82	582.75
399.044	588.75
399.268	617.75
399.492	633.75
399.717	680.75
399.941	709.75
400.165	734.75
400.389	725.75
400.613	675.75
400.837	606.75
401.062	592.75
401.286	606.75
401.51	582.75
401.734	597.75
401.958	572.75
402.182	583.75
402.406	620.75
402.63	584.75
402.854	606.75
403.078	604.75
403.302	593.75
403.526	599.75
403.75	634.75
403.974	618.75
404.198	609.75
404.422	619.75
404.645	630.75
404.869	626.75
405.093	672.75
405.317	720.75
405.541	729.75
405.765	678.75
405.988	639.75
406.212	657.75
406.436	657.75
406.66	685.75
406.883	665.75
407.107	658.75
407.331	742.75
407.555	822.75
407.778	815.75
408.002	756.75
408.226	700.75
408.449	687.75
408.673	660.75
408.896	698.75
409.12	746.75
409.344	714.75
409.567	665.75
409.791	624.75
410.014	614.75
410.238	625.75
410.461	621.75
410.685	623.75
410.908	655.75
411.132	698.75
411.355	714.75
411.578	671.75
411.802	622.75
412.025	609.75
412.249	612.75
412.472	640.75
412.695	710.75
412.919	714.75
413.142	638.75
413.365	634.75
413.589	605.75
413.812	590.75
414.035	602.75
414.258	586.75
414.482	577.75
414.705	570.75
414.928	570.75
415.151	555.75
415.374	566.75
415.597	577.75
415.821	590.75
416.044	610.75
416.267	583.75
416.49	582.75
416.713	579.75
416.936	562.75
417.159	570.75
417.382	589.75
417.605	572.75
417.828	577.75
418.051	604.75
418.274	593.75
418.497	566.75
418.72	592.75
418.943	578.75
419.166	600.75
419.389	634.75
419.611	637.75
419.834	614.75
420.057	615.75
420.28	606.75
420.503	624.75
420.726	601.75
420.948	606.75
421.171	654.75
421.394	724.75
421.617	623.75
421.839	586.75
422.062	586.75
422.285	601.75
422.507	676.75
422.73	757.75
422.953	756.75
423.175	654.75
423.398	622.75
423.621	622.75
423.843	650.75
424.066	674.75
424.288	656.75
424.511	670.75
424.733	703.75
424.956	827.75
425.178	787.75
425.401	799.75
425.623	797.75
425.846	690.75
426.068	656.75
426.291	643.75
426.513	644.75
426.735	664.75
426.958	727.75
427.18	796.75
427.402	938.75
427.625	1021.75
427.847	892.75
428.069	803.75
428.292	687.75
428.514	641.75
428.736	628.75
428.958	600.75
429.181	603.75
429.403	608.75
429.625	608.75
429.847	649.75
430.069	745.75
430.292	694.75
430.514	614.75
430.736	594.75
430.958	592.75
431.18	576.75
431.402	593.75
431.624	549.75
431.846	581.75
432.068	581.75
432.29	562.75
432.512	557.75
432.734	606.75
432.956	574.75
433.178	597.75
433.4	597.75
433.622	579.75
433.844	550.75
434.066	574.75
434.287	563.75
434.509	568.75
434.731	589.75
434.953	574.75
435.175	612.75
435.397	626.75
435.618	622.75
435.84	695.75
436.062	828.75
436.284	892.75
436.505	756.75
436.727	664.75
436.949	629.75
437.17	601.75
437.392	601.75
437.614	598.75
437.835	649.75
438.057	757.75
438.278	902.75
438.5	906.75
438.721	968.75
438.943	940.75
439.165	736.75
439.386	642.75
439.608	654.75
439.829	645.75
440.05	682.75
440.272	781.75
440.493	709.75
440.715	634.75
440.936	616.75
441.158	628.75
441.379	606.75
441.6	618.75
441.822	640.75
442.043	684.75
442.264	800.75
442.486	841.75
442.707	714.75
442.928	674.75
443.149	676.75
443.371	688.75
443.592	753.75
443.813	829.75
444.034	908.75
444.255	773.75
444.476	664.75
444.698	668.75
444.919	668.75
445.14	769.75
445.361	730.75
445.582	704.75
445.803	762.75
446.024	906.75
446.245	888.75
446.466	817.75
446.687	716.75
446.908	664.75
447.129	613.75
447.35	614.75
447.571	581.75
447.792	590.75
448.013	569.75
448.234	616.75
448.455	679.75
448.675	804.75
448.896	943.75
449.117	794.75
449.338	734.75
449.559	904.75
449.779	1012.75
450	778.75
450.221	652.75
450.442	615.75
450.662	584.75
450.883	594.75
451.104	598.75
451.324	583.75
451.545	561.75
451.766	552.75
451.986	549.75
452.207	540.75
452.428	531.75
452.648	528.75
452.869	514.75
453.089	567.75
453.31	547.75
453.53	541.75
453.751	551.75
453.971	528.75
454.192	566.75
454.412	544.75
454.633	515.75
454.853	541.75
455.073	510.75
455.294	559.75
455.514	653.75
455.734	625.75
455.955	548.75
456.175	540.75
456.395	518.75
456.616	489.75
456.836	496.75
457.056	508.75
457.276	469.75
457.497	506.75
457.717	498.75
457.937	514.75
458.157	522.75
458.377	540.75
458.598	555.75
458.818	601.75
459.038	705.75
459.258	723.75
459.478	624.75
459.698	588.75
459.918	570.75
460.138	564.75
460.358	606.75
460.578	593.75
460.798	593.75
461.018	575.75
461.238	580.75
461.458	594.75
461.678	570.75
461.898	573.75
462.118	576.75
462.338	612.75
462.558	617.75
462.777	622.75
462.997	608.75
463.217	659.75
463.437	646.75
463.657	636.75
463.876	592.75
464.096	633.75
464.316	624.75
464.536	630.75
464.755	630.75
464.975	641.75
465.195	657.75
465.414	737.75
465.634	660.75
465.854	597.75
466.073	601.75
466.293	591.75
466.512	562.75
466.732	552.75
466.951	563.75
467.171	555.75
467.391	558.75
467.61	576.75
467.829	534.75
468.049	552.75
468.268	558.75
468.488	549.75
468.707	521.75
468.927	532.75
469.146	562.75
469.365	534.75
469.585	557.75
469.804	567.75
470.023	585.75
470.243	548.75
470.462	556.75
470.681	582.75
470.901	593.75
471.12	566.75
471.339	554.75
471.558	570.75
471.777	573.75
471.997	552.75
472.216	558.75
472.435	601.75
472.654	599.75
472.873	553.75
473.092	552.75
473.311	568.75
473.53	553.75
473.749	568.75
473.968	582.75
474.187	730.75
474.406	753.75
474.625	612.75
474.844	574.75
475.063	564.75
475.282	583.75
475.501	565.75
475.72	576.75
475.939	575.75
476.158	577.75
476.377	601.75
476.596	581.75
476.814	598.75
477.033	579.75
477.252	607.75
477.471	613.75
477.69	596.75
477.908	614.75
478.127	626.75
478.346	639.75
478.564	617.75
478.783	638.75
479.002	646.75
479.22	629.75
479.439	654.75
479.658	677.75
479.876	703.75
480.095	689.75
480.313	725.75
480.532	731.75
480.751	688.75
480.969	713.75
481.188	767.75
481.406	804.75
481.624	742.75
481.843	684.75
482.061	672.75
482.28	687.75
482.498	671.75
482.717	668.75
482.935	662.75
483.153	661.75
483.372	655.75
483.59	659.75
483.808	644.75
484.027	674.75
484.245	675.75
484.463	657.75
484.681	687.75
484.9	641.75
485.118	676.75
485.336	674.75
485.554	687.75
485.772	698.75
485.99	693.75
486.209	687.75
486.427	694.75
486.645	694.75
486.863	710.75
487.081	712.75
487.299	702.75
487.517	714.75
487.735	720.75
487.953	703.75
488.171	711.75
488.389	704.75
488.607	736.75
488.825	715.75
489.043	706.75
489.261	705.75
489.479	730.75
489.696	708.75
489.914	730.75
490.132	737.75
490.35	741.75
490.568	752.75
490.786	755.75
491.003	736.75
491.221	778.75
491.439	802.75
491.657	792.75
491.874	823.75
492.092	793.75
492.31	845.75
492.527	829.75
492.745	815.75
492.963	824.75
493.18	825.75
493.398	848.75
493.615	844.75
493.833	846.75
494.05	836.75
494.268	830.75
494.485	838.75
494.703	812.75
494.92	834.75
495.138	846.75
495.355	863.75
495.573	850.75
495.79	849.75
496.008	860.75
496.225	850.75
496.442	847.75
496.66	850.75
496.877	849.75
497.094	864.75
497.312	865.75
497.529	858.75
497.746	900.75
497.963	898.75
498.181	922.75
498.398	906.75
498.615	973.75
498.832	954.75
499.049	1019.75
499.267	996.75
499.484	1028.75
499.701	1113.75
499.918	1127.75
500.135	1156.75
500.352	1197.75
500.569	1232.75
500.786	1245.75
501.003	1216.75
501.22	1204.75
501.437	1150.75
501.654	1119.75
501.871	1089.75
502.088	1060.75
502.305	996.75
502.522	971.75
502.739	967.75
502.956	924.75
503.172	900.75
503.389	881.75
503.606	912.75
503.823	904.75
504.04	873.75
504.256	850.75
504.473	848.75
504.69	823.75
504.907	846.75
505.123	866.75
505.34	824.75
505.557	815.75
505.773	809.75
505.99	801.75
506.207	800.75
506.423	850.75
506.64	784.75
506.856	799.75
507.073	800.75
507.289	782.75
507.506	779.75
507.722	815.75
507.939	796.75
508.155	756.75
508.372	775.75
508.588	748.75
508.805	751.75
509.021	742.75
509.238	776.75
509.454	772.75
509.67	804.75
509.887	766.75
510.103	780.75
510.319	754.75
510.536	850.75
510.752	1321.75
510.968	1117.75
511.184	782.75
511.401	751.75
511.617	734.75
511.833	705.75
512.049	730.75
512.265	732.75
512.481	713.75
512.698	702.75
512.914	696.75
513.13	702.75
513.346	689.75
513.562	699.75
513.778	717.75
513.994	737.75
514.21	735.75
514.426	782.75
514.642	764.75
514.858	825.75
515.074	846.75
515.29	987.75
515.506	1361.75
515.721	1147.75
515.937	844.75
516.153	783.75
516.369	748.75
516.585	756.75
516.801	773.75
517.016	775.75
517.232	773.75
517.448	728.75
517.664	750.75
517.879	770.75
518.095	742.75
518.311	725.75
518.527	734.75
518.742	752.75
518.958	726.75
519.173	715.75
519.389	719.75
519.605	716.75
519.82	748.75
520.036	724.75
520.251	743.75
520.467	785.75
520.682	797.75
520.898	820.75
521.113	816.75
521.329	807.75
521.544	893.75
521.76	1114.75
521.975	1761.75
522.19	1736.75
522.406	1004.75
522.621	792.75
522.836	733.75
523.052	705.75
523.267	679.75
523.482	674.75
523.698	656.75
523.913	638.75
524.128	667.75
524.343	630.75
524.559	637.75
524.774	621.75
524.989	629.75
525.204	639.75
525.419	634.75
525.634	622.75
525.849	615.75
526.064	621.75
526.28	603.75
526.495	610.75
526.71	575.75
526.925	573.75
527.14	585.75
527.355	597.75
527.57	577.75
527.785	600.75
527.999	572.75
528.214	600.75
528.429	572.75
528.644	575.75
528.859	586.75
529.074	596.75
529.289	611.75
529.503	677.75
529.718	686.75
529.933	638.75
530.148	626.75
530.363	586.75
530.577	600.75
530.792	578.75
531.007	569.75
531.221	577.75
531.436	581.75
531.651	575.75
531.865	546.75
532.08	572.75
532.295	571.75
532.509	569.75
532.724	568.75
532.938	561.75
533.153	536.75
533.367	543.75
533.582	552.75
533.796	539.75
534.011	572.75
534.225	576.75
534.44	559.75
534.654	566.75
534.868	568.75
535.083	567.75
535.297	565.75
535.511	594.75
535.726	590.75
535.94	573.75
536.154	550.75
536.369	552.75
536.583	572.75
536.797	548.75
537.011	558.75
537.225	549.75
537.44	535.75
537.654	536.75
537.868	523.75
538.082	541.75
538.296	537.75
538.51	553.75
538.724	550.75
538.938	561.75
539.153	536.75
539.367	553.75
539.581	564.75
539.795	524.75
540.009	529.75
540.222	528.75
540.436	548.75
540.65	540.75
540.864	549.75
541.078	556.75
541.292	540.75
541.506	551.75
541.72	538.75
541.934	542.75
542.147	533.75
542.361	528.75
542.575	528.75
542.789	512.75
543.002	548.75
543.216	553.75
543.43	515.75
543.644	524.75
543.857	536.75
544.071	541.75
544.285	560.75
544.498	527.75
544.712	519.75
544.925	525.75
545.139	539.75
545.352	524.75
545.566	534.75
545.779	504.75
545.993	522.75
546.206	524.75
546.42	539.75
546.633	514.75
546.847	522.75
547.06	529.75
547.274	538.75
547.487	542.75
547.7	530.75
547.914	532.75
548.127	526.75
548.34	522.75
548.554	509.75
548.767	505.75
548.98	495.75
549.193	538.75
549.407	528.75
549.62	525.75
549.833	516.75
550.046	519.75
550.259	521.75
550.473	502.75
550.686	530.75
550.899	501.75
551.112	526.75
551.325	525.75
551.538	484.75
551.751	509.75
551.964	528.75
552.177	499.75
552.39	489.75
552.603	522.75
552.816	505.75
553.029	505.75
553.242	525.75
553.455	516.75
553.667	491.75
553.88	544.75
554.093	519.75
554.306	527.75
554.519	523.75
554.732	501.75
554.944	510.75
555.157	498.75
555.37	484.75
555.583	490.75
555.795	494.75
556.008	483.75
556.221	461.75
556.433	465.75
556.646	463.75
556.859	452.75
557.071	465.75
557.284	479.75
557.496	464.75
557.709	462.75
557.921	457.75
558.134	467.75
558.346	467.75
558.559	457.75
558.771	444.75
558.984	470.75
559.196	457.75
559.409	453.75
559.621	434.75
559.833	440.75
560.046	440.75
560.258	457.75
560.47	474.75
560.683	453.75
560.895	453.75
561.107	435.75
561.32	456.75
561.532	450.75
561.744	463.75
561.956	458.75
562.168	442.75
562.381	458.75
562.593	460.75
562.805	468.75
563.017	488.75
563.229	473.75
563.441	457.75
563.653	473.75
563.865	470.75
564.077	466.75
564.289	457.75
564.501	490.75
564.713	489.75
564.925	482.75
565.137	481.75
565.349	501.75
565.561	490.75
565.773	503.75
565.985	534.75
566.197	529.75
566.408	540.75
566.62	564.75
566.832	564.75
567.044	554.75
567.255	566.75
567.467	590.75
567.679	583.75
567.891	602.75
568.102	586.75
568.314	574.75
568.526	572.75
568.737	541.75
568.949	559.75
569.161	526.75
569.372	498.75
569.584	493.75
569.795	479.75
570.007	452.75
570.218	507.75
570.43	491.75
570.641	456.75
570.853	438.75
571.064	471.75
571.276	446.75
571.487	437.75
571.698	442.75
571.91	421.75
572.121	438.75
572.333	422.75
572.544	425.75
572.755	408.75
572.966	430.75
573.178	416.75
573.389	410.75
573.6	421.75
573.811	431.75
574.023	426.75
574.234	389.75
574.445	388.75
574.656	392.75
574.867	406.75
575.078	408.75
575.289	401.75
575.501	405.75
575.712	372.75
575.923	382.75
576.134	393.75
576.345	385.75
576.556	383.75
576.767	377.75
576.978	372.75
577.188	377.75
577.399	388.75
577.61	378.75
577.821	379.75
578.032	406.75
578.243	427.75
578.454	595.75
578.665	489.75
578.875	398.75
579.086	373.75
579.297	367.75
579.508	378.75
579.718	374.75
579.929	369.75
580.14	374.75
580.35	370.75
580.561	344.75
580.772	384.75
580.982	372.75
581.193	365.75
581.403	360.75
581.614	374.75
581.825	376.75
582.035	364.75
582.246	352.75
582.456	363.75
582.667	366.75
582.877	361.75
583.087	352.75
583.298	342.75
583.508	370.75
583.719	360.75
583.929	351.75
584.139	366.75
584.35	357.75
584.56	345.75
584.77	340.75
584.981	359.75
585.191	364.75
585.401	359.75
585.611	357.75
585.821	351.75
586.032	342.75
586.242	350.75
586.452	321.75
586.662	336.75
586.872	351.75
587.082	336.75
587.292	324.75
587.502	369.75
587.713	351.75
587.923	354.75
588.133	362.75
588.343	334.75
588.553	326.75
588.762	342.75
588.972	347.75
589.182	337.75
589.392	340.75
589.602	358.75
589.812	343.75
590.022	339.75
590.232	345.75
590.441	353.75
590.651	342.75
590.861	352.75
591.071	352.75
591.281	365.75
591.49	356.75
591.7	345.75
591.91	356.75
592.119	363.75
592.329	351.75
592.539	352.75
592.748	356.75
592.958	350.75
593.167	350.75
593.377	378.75
593.587	390.75
593.796	391.75
594.006	369.75
594.215	365.75
594.424	378.75
594.634	358.75
594.843	366.75
595.053	351.75
595.262	335.75
595.472	346.75
595.681	332.75
595.89	340.75
596.1	361.75
596.309	348.75
596.518	336.75
596.727	328.75
596.937	315.75
597.146	306.75
597.355	333.75
597.564	326.75
597.774	326.75
597.983	298.75
598.192	310.75
598.401	339.75
598.61	303.75
598.819	319.75
599.028	306.75
599.237	313.75
599.446	292.75
599.655	312.75
599.864	296.75
600.073	312.75
600.282	318.75
600.491	304.75
600.7	320.75
600.909	298.75
601.118	303.75
601.327	295.75
601.536	304.75
601.745	291.75
601.953	297.75
602.162	309.75
602.371	303.75
602.58	306.75
602.789	300.75
602.997	289.75
603.206	314.75
603.415	298.75
603.623	269.75
603.832	289.75
604.041	284.75
604.249	288.75
604.458	289.75
604.666	292.75
604.875	294.75
605.084	280.75
605.292	288.75
605.501	284.75
605.709	275.75
605.918	300.75
606.126	280.75
606.334	288.75
606.543	279.75
606.751	276.75
606.96	266.75
607.168	286.75
607.376	278.75
607.585	287.75
607.793	283.75
608.001	269.75
608.21	277.75
608.418	289.75
608.626	278.75
608.834	272.75
609.043	281.75
609.251	299.75
609.459	278.75
609.667	288.75
609.875	271.75
610.083	264.75
610.291	290.75
610.499	286.75
610.707	282.75
610.916	289.75
611.124	272.75
611.332	283.75
611.54	283.75
611.748	284.75
611.955	280.75
612.163	277.75
612.371	279.75
612.579	288.75
612.787	269.75
612.995	283.75
613.203	303.75
613.411	271.75
613.618	272.75
613.826	280.75
614.034	271.75
614.242	272.75
614.449	268.75
614.657	280.75
614.865	278.75
615.072	274.75
615.28	280.75
615.488	258.75
615.695	264.75
615.903	282.75
616.111	251.75
616.318	282.75
616.526	278.75
616.733	268.75
616.941	286.75
617.148	269.75
617.356	274.75
617.563	245.75
617.771	260.75
617.978	265.75
618.185	268.75
618.393	263.75
618.6	258.75
618.807	279.75
619.015	268.75
619.222	253.75
619.429	275.75
619.637	268.75
619.844	260.75
620.051	255.75
620.258	245.75
620.466	266.75
620.673	251.75
620.88	245.75
621.087	246.75
621.294	254.75
621.501	239.75
621.708	252.75
621.915	264.75
622.122	250.75
622.329	247.75
622.536	261.75
622.743	239.75
622.95	251.75
623.157	251.75
623.364	244.75
623.571	232.75
623.778	248.75
623.985	241.75
624.192	264.75
624.399	245.75
624.606	244.75
624.812	244.75
625.019	249.75
625.226	246.75
625.433	252.75
625.639	250.75
625.846	233.75
626.053	252.75
626.259	233.75
626.466	246.75
626.673	249.75
626.879	225.75
627.086	238.75
627.293	227.75
627.499	251.75
627.706	237.75
627.912	214.75
628.119	217.75
628.325	220.75
628.532	220.75
628.738	226.75
628.945	240.75
629.151	232.75
629.357	216.75
629.564	238.75
629.77	214.75
629.976	222.75
630.183	217.75
630.389	229.75
630.595	232.75
630.802	245.75
631.008	224.75
631.214	234.75
631.42	225.75
631.627	226.75
631.833	226.75
632.039	226.75
632.245	220.75
632.451	224.75
632.657	216.75
632.863	221.75
633.069	207.75
633.275	204.75
633.481	206.75
633.688	218.75
633.893	221.75
634.099	228.75
634.305	226.75
634.511	221.75
634.717	226.75
634.923	197.75
635.129	212.75
635.335	222.75
635.541	188.75
635.747	205.75
635.952	203.75
636.158	206.75
636.364	217.75
636.57	205.75
636.775	206.75
636.981	200.75
637.187	196.75
637.392	200.75
637.598	190.75
637.804	206.75
638.009	216.75
638.215	214.75
638.421	208.75
638.626	207.75
638.832	199.75
639.037	188.75
639.243	193.75
639.448	198.75
639.654	194.75
639.859	201.75
640.065	189.75
640.27	210.75
640.475	184.75
640.681	191.75
640.886	192.75
641.091	184.75
641.297	200.75
641.502	202.75
641.707	202.75
641.913	202.75
642.118	199.75
642.323	194.75
642.528	182.75
642.733	192.75
642.939	187.75
643.144	207.75
643.349	190.75
643.554	196.75
643.759	184.75
643.964	184.75
644.169	183.75
644.374	185.75
644.579	175.75
644.784	201.75
644.989	191.75
645.194	182.75
645.399	196.75
645.604	185.75
645.809	190.75
646.014	189.75
646.219	175.75
646.423	193.75
646.628	183.75
646.833	185.75
647.038	189.75
647.243	188.75
647.447	184.75
647.652	177.75
647.857	186.75
648.062	164.75
648.266	188.75
648.471	172.75
648.676	191.75
648.88	201.75
649.085	192.75
649.289	194.75
649.494	204.75
649.698	211.75
649.903	208.75
650.107	188.75
650.312	190.75
650.516	158.75
650.721	177.75
650.925	181.75
651.13	176.75
651.334	160.75
651.539	174.75
651.743	153.75
651.947	176.75
652.152	180.75
652.356	169.75
652.56	162.75
652.764	156.75
652.969	158.75
653.173	152.75
653.377	157.75
653.581	161.75
653.785	160.75
653.99	167.75
654.194	168.75
654.398	143.75
654.602	150.75
654.806	155.75
655.01	167.75
655.214	143.75
655.418	158.75
655.622	129.75
655.826	133.75
656.03	141.75
656.234	144.75
656.438	158.75
656.642	155.75
656.846	145.75
657.049	146.75
657.253	137.75
657.457	143.75
657.661	128.75
657.865	123.75
658.068	124.75
658.272	114.75
658.476	114.75
658.68	106.75
658.883	105.75
659.087	110.75
659.291	103.75
659.494	109.75
659.698	93.75
659.901	89.75
660.105	101.75
660.309	97.75
660.512	84.75
660.716	83.75
660.919	86.75
661.123	102.75
661.326	94.75
661.53	88.75
661.733	88.75
661.936	97.75
662.14	88.75
662.343	90.75
662.546	96.75
662.75	95.75
662.953	90.75
663.156	92.75
663.36	95.75
663.563	83.75
663.766	78.75
663.969	75.75
664.173	92.75
664.376	92.75
664.579	82.75
664.782	84.75
664.985	87.75
665.188	90.75
665.391	85.75
665.594	85.75
665.797	97.75
666	84.75
666.203	86.75
666.406	77.75
666.609	78.75
666.812	83.75
667.015	82.75
667.218	84.75
667.421	78.75
667.624	93.75
667.827	82.75
668.03	78.75
668.232	95.75
668.435	88.75
668.638	66.75
668.841	91.75
669.043	96.75
669.246	75.75
669.449	87.75
669.651	88.75
669.854	87.75
670.057	85.75
670.259	88.75
670.462	82.75
670.665	87.75
670.867	82.75
671.07	92.75
671.272	84.75
671.475	88.75
671.677	87.75
671.88	98.75
672.082	86.75
672.284	90.75
672.487	80.75
672.689	90.75
672.892	90.75
