Data from 1966.PennyLincolnUp.Lamp.En5.5.200Scan.071719.P1._HRD10591_14-13-42-915.txt Node
Date: Thu Jul 18 14:13:42 EDT 2019
User: cochatt
Spectrometer: HR+D1059
Trigger mode: 1
Integration Time (sec): 1.000000E-1
Scans to average: 1
Electric dark correction enabled: true
Nonlinearity correction enabled: false
Boxcar width: 0
XAxis mode: Wavelengths
Number of Pixels in Spectrum: 2048
>>>>>Begin Spectral Data<<<<<
223.165	-5.12
223.4	-5.12
223.635	-5.12
223.869	-17.12
224.104	0.88
224.338	-28.12
224.573	-17.12
224.808	-0.12
225.042	-8.12
225.277	-12.12
225.511	2.88
225.746	-17.12
225.98	1.88
226.215	13.88
226.449	13.88
226.683	19.88
226.918	27.88
227.152	23.88
227.387	42.88
227.621	36.88
227.856	25.88
228.09	40.88
228.324	42.88
228.559	45.88
228.793	71.88
229.027	78.88
229.262	86.88
229.496	75.88
229.73	106.88
229.964	100.88
230.199	105.88
230.433	74.88
230.667	90.88
230.901	94.88
231.136	102.88
231.37	109.88
231.604	100.88
231.838	95.88
232.072	95.88
232.306	95.88
232.541	90.88
232.775	99.88
233.009	96.88
233.243	89.88
233.477	101.88
233.711	97.88
233.945	91.88
234.179	92.88
234.413	79.88
234.647	94.88
234.881	93.88
235.115	99.88
235.349	93.88
235.583	88.88
235.817	102.88
236.051	90.88
236.285	101.88
236.519	100.88
236.753	96.88
236.987	110.88
237.221	116.88
237.455	133.88
237.689	124.88
237.922	111.88
238.156	106.88
238.39	107.88
238.624	95.88
238.858	106.88
239.091	98.88
239.325	88.88
239.559	98.88
239.793	100.88
240.027	105.88
240.26	101.88
240.494	125.88
240.728	98.88
240.961	112.88
241.195	99.88
241.429	101.88
241.662	93.88
241.896	106.88
242.13	104.88
242.363	98.88
242.597	85.88
242.83	117.88
243.064	109.88
243.298	93.88
243.531	105.88
243.765	104.88
243.998	104.88
244.232	91.88
244.465	110.88
244.699	95.88
244.932	111.88
245.166	95.88
245.399	86.88
245.633	102.88
245.866	102.88
246.099	101.88
246.333	106.88
246.566	91.88
246.8	110.88
247.033	98.88
247.266	109.88
247.5	111.88
247.733	119.88
247.966	114.88
248.2	107.88
248.433	124.88
248.666	130.88
248.899	123.88
249.133	123.88
249.366	127.88
249.599	127.88
249.832	120.88
250.066	119.88
250.299	124.88
250.532	128.88
250.765	128.88
250.998	135.88
251.231	130.88
251.465	137.88
251.698	130.88
251.931	127.88
252.164	121.88
252.397	129.88
252.63	118.88
252.863	135.88
253.096	132.88
253.329	120.88
253.562	150.88
253.795	120.88
254.028	142.88
254.261	130.88
254.494	151.88
254.727	169.88
254.96	166.88
255.193	163.88
255.426	164.88
255.659	140.88
255.892	146.88
256.124	128.88
256.357	132.88
256.59	131.88
256.823	136.88
257.056	136.88
257.289	128.88
257.521	138.88
257.754	135.88
257.987	139.88
258.22	136.88
258.452	140.88
258.685	139.88
258.918	139.88
259.151	126.88
259.383	125.88
259.616	124.88
259.849	136.88
260.081	142.88
260.314	146.88
260.547	148.88
260.779	155.88
261.012	146.88
261.244	141.88
261.477	134.88
261.71	136.88
261.942	152.88
262.175	140.88
262.407	128.88
262.64	122.88
262.872	149.88
263.105	139.88
263.337	141.88
263.57	136.88
263.802	119.88
264.035	123.88
264.267	130.88
264.499	137.88
264.732	132.88
264.964	132.88
265.197	131.88
265.429	127.88
265.661	128.88
265.894	135.88
266.126	126.88
266.358	142.88
266.591	137.88
266.823	128.88
267.055	138.88
267.287	132.88
267.52	129.88
267.752	134.88
267.984	144.88
268.216	146.88
268.448	142.88
268.681	151.88
268.913	153.88
269.145	156.88
269.377	157.88
269.609	161.88
269.841	149.88
270.073	154.88
270.306	174.88
270.538	180.88
270.77	176.88
271.002	168.88
271.234	158.88
271.466	182.88
271.698	174.88
271.93	176.88
272.162	167.88
272.394	180.88
272.626	171.88
272.858	156.88
273.09	152.88
273.322	168.88
273.553	168.88
273.785	147.88
274.017	159.88
274.249	151.88
274.481	162.88
274.713	140.88
274.945	158.88
275.176	156.88
275.408	156.88
275.64	143.88
275.872	159.88
276.104	162.88
276.335	161.88
276.567	153.88
276.799	161.88
277.031	186.88
277.262	193.88
277.494	176.88
277.726	168.88
277.957	166.88
278.189	170.88
278.421	178.88
278.652	150.88
278.884	155.88
279.115	160.88
279.347	172.88
279.579	154.88
279.81	152.88
280.042	153.88
280.273	141.88
280.505	163.88
280.736	158.88
280.968	155.88
281.199	157.88
281.431	153.88
281.662	152.88
281.894	152.88
282.125	144.88
282.356	170.88
282.588	175.88
282.819	176.88
283.051	167.88
283.282	150.88
283.513	166.88
283.745	173.88
283.976	156.88
284.207	168.88
284.439	151.88
284.67	165.88
284.901	152.88
285.132	154.88
285.364	160.88
285.595	156.88
285.826	172.88
286.057	168.88
286.288	165.88
286.52	156.88
286.751	143.88
286.982	168.88
287.213	150.88
287.444	152.88
287.675	165.88
287.906	162.88
288.138	174.88
288.369	174.88
288.6	178.88
288.831	182.88
289.062	179.88
289.293	171.88
289.524	171.88
289.755	175.88
289.986	160.88
290.217	164.88
290.448	174.88
290.679	154.88
290.91	171.88
291.141	154.88
291.371	168.88
291.602	176.88
291.833	180.88
292.064	167.88
292.295	162.88
292.526	174.88
292.757	159.88
292.987	149.88
293.218	174.88
293.449	172.88
293.68	174.88
293.91	172.88
294.141	186.88
294.372	171.88
294.603	165.88
294.833	163.88
295.064	144.88
295.295	193.88
295.525	174.88
295.756	174.88
295.987	169.88
296.217	189.88
296.448	192.88
296.679	187.88
296.909	167.88
297.14	169.88
297.37	178.88
297.601	176.88
297.831	179.88
298.062	168.88
298.292	162.88
298.523	167.88
298.753	183.88
298.984	162.88
299.214	178.88
299.445	167.88
299.675	173.88
299.905	179.88
300.136	180.88
300.366	167.88
300.597	165.88
300.827	172.88
301.057	199.88
301.288	176.88
301.518	187.88
301.748	184.88
301.979	175.88
302.209	184.88
302.439	190.88
302.669	182.88
302.9	190.88
303.13	186.88
303.36	187.88
303.59	180.88
303.82	192.88
304.051	175.88
304.281	163.88
304.511	182.88
304.741	173.88
304.971	178.88
305.201	172.88
305.431	162.88
305.661	191.88
305.891	186.88
306.121	187.88
306.352	202.88
306.582	182.88
306.812	172.88
307.042	186.88
307.272	181.88
307.502	192.88
307.731	184.88
307.961	180.88
308.191	186.88
308.421	188.88
308.651	176.88
308.881	186.88
309.111	184.88
309.341	203.88
309.571	191.88
309.8	207.88
310.03	206.88
310.26	198.88
310.49	205.88
310.72	214.88
310.949	204.88
311.179	215.88
311.409	210.88
311.639	194.88
311.868	203.88
312.098	201.88
312.328	203.88
312.557	218.88
312.787	222.88
313.017	225.88
313.246	206.88
313.476	205.88
313.706	199.88
313.935	203.88
314.165	211.88
314.394	205.88
314.624	210.88
314.853	201.88
315.083	199.88
315.312	199.88
315.542	203.88
315.771	196.88
316.001	192.88
316.23	195.88
316.46	211.88
316.689	206.88
316.919	184.88
317.148	203.88
317.377	206.88
317.607	215.88
317.836	208.88
318.065	214.88
318.295	194.88
318.524	183.88
318.753	194.88
318.983	195.88
319.212	194.88
319.441	201.88
319.67	199.88
319.9	214.88
320.129	194.88
320.358	203.88
320.587	208.88
320.816	208.88
321.046	211.88
321.275	205.88
321.504	200.88
321.733	211.88
321.962	223.88
322.191	214.88
322.42	251.88
322.649	212.88
322.878	234.88
323.108	245.88
323.337	247.88
323.566	230.88
323.795	252.88
324.024	288.88
324.253	360.88
324.482	511.88
324.71	756.88
324.939	1026.88
325.168	838.88
325.397	406.88
325.626	300.88
325.855	262.88
326.084	232.88
326.313	232.88
326.542	233.88
326.77	269.88
326.999	339.88
327.228	464.88
327.457	677.88
327.686	732.88
327.914	499.88
328.143	353.88
328.372	323.88
328.6	304.88
328.829	280.88
329.058	290.88
329.287	325.88
329.515	281.88
329.744	256.88
329.972	260.88
330.201	276.88
330.43	317.88
330.658	300.88
330.887	320.88
331.115	310.88
331.344	276.88
331.572	250.88
331.801	266.88
332.03	258.88
332.258	231.88
332.486	224.88
332.715	219.88
332.943	238.88
333.172	228.88
333.4	238.88
333.629	244.88
333.857	242.88
334.085	250.88
334.314	264.88
334.542	302.88
334.771	308.88
334.999	267.88
335.227	243.88
335.455	234.88
335.684	224.88
335.912	212.88
336.14	237.88
336.369	230.88
336.597	239.88
336.825	236.88
337.053	223.88
337.281	220.88
337.51	231.88
337.738	215.88
337.966	198.88
338.194	231.88
338.422	234.88
338.65	228.88
338.878	212.88
339.106	215.88
339.334	223.88
339.562	209.88
339.79	233.88
340.018	207.88
340.246	217.88
340.474	229.88
340.702	206.88
340.93	224.88
341.158	215.88
341.386	218.88
341.614	243.88
341.842	232.88
342.07	228.88
342.298	217.88
342.526	218.88
342.754	203.88
342.981	211.88
343.209	190.88
343.437	206.88
343.665	227.88
343.893	218.88
344.12	239.88
344.348	215.88
344.576	221.88
344.804	216.88
345.031	205.88
345.259	228.88
345.487	232.88
345.714	222.88
345.942	232.88
346.17	211.88
346.397	197.88
346.625	198.88
346.853	213.88
347.08	204.88
347.308	210.88
347.535	198.88
347.763	220.88
347.99	224.88
348.218	212.88
348.445	205.88
348.673	207.88
348.9	217.88
349.128	228.88
349.355	194.88
349.583	195.88
349.81	215.88
350.037	222.88
350.265	197.88
350.492	194.88
350.72	199.88
350.947	207.88
351.174	207.88
351.402	211.88
351.629	213.88
351.856	214.88
352.083	207.88
352.311	215.88
352.538	215.88
352.765	235.88
352.992	214.88
353.22	218.88
353.447	200.88
353.674	186.88
353.901	205.88
354.128	194.88
354.355	210.88
354.583	223.88
354.81	228.88
355.037	187.88
355.264	198.88
355.491	187.88
355.718	188.88
355.945	197.88
356.172	184.88
356.399	198.88
356.626	197.88
356.853	200.88
357.08	214.88
357.307	203.88
357.534	189.88
357.761	190.88
357.988	196.88
358.215	206.88
358.441	180.88
358.668	197.88
358.895	211.88
359.122	192.88
359.349	215.88
359.576	214.88
359.802	233.88
360.029	249.88
360.256	233.88
360.483	230.88
360.709	211.88
360.936	226.88
361.163	201.88
361.39	216.88
361.616	205.88
361.843	204.88
362.07	209.88
362.296	219.88
362.523	216.88
362.749	212.88
362.976	199.88
363.203	208.88
363.429	217.88
363.656	208.88
363.882	212.88
364.109	198.88
364.335	209.88
364.562	201.88
364.788	203.88
365.015	197.88
365.241	218.88
365.468	204.88
365.694	198.88
365.92	210.88
366.147	205.88
366.373	209.88
366.599	205.88
366.826	193.88
367.052	210.88
367.278	221.88
367.505	224.88
367.731	222.88
367.957	203.88
368.184	199.88
368.41	206.88
368.636	239.88
368.862	202.88
369.089	199.88
369.315	196.88
369.541	203.88
369.767	191.88
369.993	194.88
370.219	198.88
370.445	200.88
370.672	192.88
370.898	197.88
371.124	198.88
371.35	199.88
371.576	192.88
371.802	209.88
372.028	200.88
372.254	215.88
372.48	208.88
372.706	206.88
372.932	185.88
373.158	201.88
373.384	203.88
373.61	203.88
373.835	194.88
374.061	208.88
374.287	200.88
374.513	209.88
374.739	211.88
374.965	198.88
375.191	208.88
375.416	219.88
375.642	201.88
375.868	192.88
376.094	201.88
376.319	211.88
376.545	202.88
376.771	193.88
376.997	193.88
377.222	201.88
377.448	204.88
377.674	201.88
377.899	202.88
378.125	206.88
378.35	190.88
378.576	204.88
378.802	195.88
379.027	190.88
379.253	197.88
379.478	193.88
379.704	195.88
379.929	197.88
380.155	194.88
380.38	196.88
380.606	207.88
380.831	215.88
381.057	197.88
381.282	208.88
381.507	199.88
381.733	196.88
381.958	209.88
382.184	208.88
382.409	199.88
382.634	213.88
382.86	210.88
383.085	196.88
383.31	213.88
383.535	209.88
383.761	197.88
383.986	207.88
384.211	214.88
384.436	201.88
384.662	206.88
384.887	195.88
385.112	209.88
385.337	214.88
385.562	218.88
385.787	219.88
386.013	232.88
386.238	216.88
386.463	217.88
386.688	208.88
386.913	224.88
387.138	218.88
387.363	216.88
387.588	222.88
387.813	214.88
388.038	227.88
388.263	225.88
388.488	209.88
388.713	206.88
388.938	210.88
389.163	206.88
389.387	220.88
389.612	218.88
389.837	211.88
390.062	205.88
390.287	219.88
390.512	224.88
390.736	215.88
390.961	218.88
391.186	216.88
391.411	203.88
391.636	232.88
391.86	230.88
392.085	236.88
392.31	219.88
392.534	224.88
392.759	234.88
392.984	221.88
393.208	226.88
393.433	203.88
393.658	228.88
393.882	205.88
394.107	218.88
394.331	219.88
394.556	232.88
394.78	208.88
395.005	209.88
395.229	215.88
395.454	217.88
395.678	227.88
395.903	222.88
396.127	252.88
396.352	233.88
396.576	217.88
396.801	211.88
397.025	236.88
397.249	232.88
397.474	236.88
397.698	218.88
397.922	230.88
398.147	245.88
398.371	245.88
398.595	234.88
398.82	238.88
399.044	243.88
399.268	264.88
399.492	271.88
399.717	279.88
399.941	288.88
400.165	289.88
400.389	293.88
400.613	268.88
400.837	254.88
401.062	246.88
401.286	238.88
401.51	256.88
401.734	248.88
401.958	235.88
402.182	256.88
402.406	264.88
402.63	246.88
402.854	252.88
403.078	234.88
403.302	260.88
403.526	258.88
403.75	250.88
403.974	243.88
404.198	234.88
404.422	260.88
404.645	247.88
404.869	262.88
405.093	258.88
405.317	287.88
405.541	296.88
405.765	274.88
405.988	266.88
406.212	273.88
406.436	287.88
406.66	289.88
406.883	291.88
407.107	298.88
407.331	299.88
407.555	321.88
407.778	325.88
408.002	295.88
408.226	287.88
408.449	275.88
408.673	258.88
408.896	274.88
409.12	286.88
409.344	284.88
409.567	261.88
409.791	247.88
410.014	242.88
410.238	240.88
410.461	255.88
410.685	256.88
410.908	247.88
411.132	267.88
411.355	286.88
411.578	285.88
411.802	262.88
412.025	260.88
412.249	244.88
412.472	263.88
412.695	295.88
412.919	272.88
413.142	253.88
413.365	246.88
413.589	245.88
413.812	244.88
414.035	244.88
414.258	249.88
414.482	254.88
414.705	251.88
414.928	258.88
415.151	246.88
415.374	250.88
415.597	239.88
415.821	238.88
416.044	254.88
416.267	229.88
416.49	242.88
416.713	234.88
416.936	236.88
417.159	248.88
417.382	228.88
417.605	245.88
417.828	264.88
418.051	260.88
418.274	250.88
418.497	249.88
418.72	235.88
418.943	245.88
419.166	247.88
419.389	255.88
419.611	263.88
419.834	251.88
420.057	265.88
420.28	234.88
420.503	252.88
420.726	248.88
420.948	265.88
421.171	273.88
421.394	297.88
421.617	260.88
421.839	258.88
422.062	250.88
422.285	260.88
422.507	293.88
422.73	319.88
422.953	291.88
423.175	272.88
423.398	246.88
423.621	255.88
423.843	255.88
424.066	263.88
424.288	266.88
424.511	267.88
424.733	294.88
424.956	338.88
425.178	302.88
425.401	304.88
425.623	304.88
425.846	273.88
426.068	274.88
426.291	264.88
426.513	244.88
426.735	275.88
426.958	293.88
427.18	310.88
427.402	366.88
427.625	406.88
427.847	347.88
428.069	318.88
428.292	301.88
428.514	253.88
428.736	246.88
428.958	254.88
429.181	245.88
429.403	269.88
429.625	248.88
429.847	276.88
430.069	298.88
430.292	275.88
430.514	248.88
430.736	254.88
430.958	234.88
431.18	234.88
431.402	248.88
431.624	236.88
431.846	224.88
432.068	250.88
432.29	230.88
432.512	251.88
432.734	239.88
432.956	236.88
433.178	247.88
433.4	237.88
433.622	236.88
433.844	244.88
434.066	247.88
434.287	245.88
434.509	238.88
434.731	238.88
434.953	250.88
435.175	270.88
435.397	286.88
435.618	285.88
435.84	289.88
436.062	326.88
436.284	348.88
436.505	302.88
436.727	269.88
436.949	247.88
437.17	236.88
437.392	238.88
437.614	256.88
437.835	267.88
438.057	325.88
438.278	344.88
438.5	334.88
438.721	352.88
438.943	342.88
439.165	287.88
439.386	285.88
439.608	275.88
439.829	271.88
440.05	286.88
440.272	292.88
440.493	286.88
440.715	263.88
440.936	263.88
441.158	261.88
441.379	240.88
441.6	272.88
441.822	284.88
442.043	267.88
442.264	343.88
442.486	323.88
442.707	297.88
442.928	268.88
443.149	272.88
443.371	302.88
443.592	307.88
443.813	345.88
444.034	359.88
444.255	315.88
444.476	284.88
444.698	261.88
444.919	275.88
445.14	354.88
445.361	300.88
445.582	291.88
445.803	314.88
446.024	343.88
446.245	355.88
446.466	348.88
446.687	280.88
446.908	270.88
447.129	273.88
447.35	260.88
447.571	246.88
447.792	251.88
448.013	225.88
448.234	243.88
448.455	277.88
448.675	310.88
448.896	381.88
449.117	299.88
449.338	296.88
449.559	373.88
449.779	376.88
450	313.88
450.221	267.88
450.442	264.88
450.662	244.88
450.883	266.88
451.104	269.88
451.324	282.88
451.545	243.88
451.766	230.88
451.986	231.88
452.207	218.88
452.428	231.88
452.648	238.88
452.869	237.88
453.089	243.88
453.31	239.88
453.53	232.88
453.751	236.88
453.971	231.88
454.192	241.88
454.412	239.88
454.633	217.88
454.853	221.88
455.073	227.88
455.294	236.88
455.514	262.88
455.734	263.88
455.955	218.88
456.175	204.88
456.395	226.88
456.616	211.88
456.836	216.88
457.056	207.88
457.276	211.88
457.497	221.88
457.717	205.88
457.937	226.88
458.157	226.88
458.377	244.88
458.598	238.88
458.818	286.88
459.038	304.88
459.258	310.88
459.478	271.88
459.698	244.88
459.918	229.88
460.138	258.88
460.358	252.88
460.578	242.88
460.798	243.88
461.018	239.88
461.238	223.88
461.458	235.88
461.678	212.88
461.898	243.88
462.118	239.88
462.338	239.88
462.558	256.88
462.777	244.88
462.997	246.88
463.217	242.88
463.437	251.88
463.657	264.88
463.876	266.88
464.096	263.88
464.316	262.88
464.536	255.88
464.755	250.88
464.975	249.88
465.195	290.88
465.414	341.88
465.634	275.88
465.854	238.88
466.073	255.88
466.293	243.88
466.512	243.88
466.732	220.88
466.951	231.88
467.171	231.88
467.391	235.88
467.61	240.88
467.829	237.88
468.049	239.88
468.268	257.88
468.488	227.88
468.707	237.88
468.927	222.88
469.146	211.88
469.365	247.88
469.585	234.88
469.804	266.88
470.023	252.88
470.243	242.88
470.462	259.88
470.681	265.88
470.901	234.88
471.12	242.88
471.339	237.88
471.558	248.88
471.777	236.88
471.997	240.88
472.216	234.88
472.435	285.88
472.654	238.88
472.873	242.88
473.092	222.88
473.311	214.88
473.53	231.88
473.749	239.88
473.968	245.88
474.187	308.88
474.406	312.88
474.625	267.88
474.844	236.88
475.063	232.88
475.282	246.88
475.501	226.88
475.72	237.88
475.939	249.88
476.158	257.88
476.377	258.88
476.596	232.88
476.814	244.88
477.033	243.88
477.252	246.88
477.471	248.88
477.69	260.88
477.908	230.88
478.127	256.88
478.346	262.88
478.564	247.88
478.783	238.88
479.002	270.88
479.22	271.88
479.439	274.88
479.658	282.88
479.876	292.88
480.095	282.88
480.313	300.88
480.532	298.88
480.751	286.88
480.969	303.88
481.188	344.88
481.406	362.88
481.624	306.88
481.843	291.88
482.061	286.88
482.28	270.88
482.498	257.88
482.717	258.88
482.935	278.88
483.153	268.88
483.372	261.88
483.59	264.88
483.808	265.88
484.027	260.88
484.245	260.88
484.463	276.88
484.681	286.88
484.9	291.88
485.118	298.88
485.336	266.88
485.554	275.88
485.772	292.88
485.99	267.88
486.209	284.88
486.427	302.88
486.645	288.88
486.863	294.88
487.081	288.88
487.299	288.88
487.517	302.88
487.735	269.88
487.953	278.88
488.171	286.88
488.389	295.88
488.607	286.88
488.825	291.88
489.043	288.88
489.261	299.88
489.479	295.88
489.696	275.88
489.914	299.88
490.132	290.88
490.35	287.88
490.568	311.88
490.786	336.88
491.003	323.88
491.221	315.88
491.439	323.88
491.657	342.88
491.874	331.88
492.092	336.88
492.31	351.88
492.527	347.88
492.745	328.88
492.963	336.88
493.18	340.88
493.398	348.88
493.615	349.88
493.833	369.88
494.05	335.88
494.268	342.88
494.485	353.88
494.703	336.88
494.92	345.88
495.138	334.88
495.355	325.88
495.573	333.88
495.79	336.88
496.008	352.88
496.225	350.88
496.442	340.88
496.66	334.88
496.877	351.88
497.094	325.88
497.312	319.88
497.529	340.88
497.746	350.88
497.963	345.88
498.181	362.88
498.398	347.88
498.615	363.88
498.832	370.88
499.049	383.88
499.267	393.88
499.484	392.88
499.701	384.88
499.918	418.88
500.135	423.88
500.352	426.88
500.569	425.88
500.786	435.88
501.003	443.88
501.22	425.88
501.437	422.88
501.654	426.88
501.871	404.88
502.088	406.88
502.305	378.88
502.522	372.88
502.739	367.88
502.956	354.88
503.172	360.88
503.389	324.88
503.606	346.88
503.823	351.88
504.04	336.88
504.256	344.88
504.473	322.88
504.69	329.88
504.907	326.88
505.123	331.88
505.34	344.88
505.557	324.88
505.773	314.88
505.99	325.88
506.207	311.88
506.423	328.88
506.64	327.88
506.856	320.88
507.073	326.88
507.289	317.88
507.506	304.88
507.722	308.88
507.939	333.88
508.155	321.88
508.372	319.88
508.588	311.88
508.805	323.88
509.021	302.88
509.238	296.88
509.454	333.88
509.67	307.88
509.887	314.88
510.103	294.88
510.319	328.88
510.536	399.88
510.752	727.88
510.968	512.88
511.184	315.88
511.401	294.88
511.617	278.88
511.833	302.88
512.049	289.88
512.265	285.88
512.481	296.88
512.698	286.88
512.914	290.88
513.13	280.88
513.346	283.88
513.562	294.88
513.778	311.88
513.994	280.88
514.21	288.88
514.426	300.88
514.642	335.88
514.858	360.88
515.074	387.88
515.29	470.88
515.506	796.88
515.721	605.88
515.937	354.88
516.153	315.88
516.369	320.88
516.585	296.88
516.801	284.88
517.016	292.88
517.232	316.88
517.448	288.88
517.664	308.88
517.879	298.88
518.095	290.88
518.311	301.88
518.527	290.88
518.742	302.88
518.958	296.88
519.173	295.88
519.389	298.88
519.605	270.88
519.82	293.88
520.036	296.88
520.251	310.88
520.467	319.88
520.682	316.88
520.898	294.88
521.113	348.88
521.329	383.88
521.544	410.88
521.76	574.88
521.975	1091.88
522.19	1060.88
522.406	523.88
522.621	354.88
522.836	298.88
523.052	293.88
523.267	292.88
523.482	254.88
523.698	256.88
523.913	258.88
524.128	260.88
524.343	260.88
524.559	239.88
524.774	264.88
524.989	262.88
525.204	245.88
525.419	261.88
525.634	236.88
525.849	237.88
526.064	237.88
526.28	251.88
526.495	255.88
526.71	229.88
526.925	236.88
527.14	243.88
527.355	226.88
527.57	234.88
527.785	246.88
527.999	251.88
528.214	245.88
528.429	235.88
528.644	258.88
528.859	237.88
529.074	242.88
529.289	233.88
529.503	311.88
529.718	280.88
529.933	265.88
530.148	246.88
530.363	252.88
530.577	233.88
530.792	248.88
531.007	229.88
531.221	248.88
531.436	240.88
531.651	229.88
531.865	228.88
532.08	224.88
532.295	227.88
532.509	224.88
532.724	227.88
532.938	238.88
533.153	239.88
533.367	222.88
533.582	228.88
533.796	237.88
534.011	232.88
534.225	217.88
534.44	218.88
534.654	209.88
534.868	221.88
535.083	217.88
535.297	230.88
535.511	224.88
535.726	235.88
535.94	248.88
536.154	228.88
536.369	236.88
536.583	228.88
536.797	238.88
537.011	228.88
537.225	218.88
537.44	228.88
537.654	210.88
537.868	211.88
538.082	230.88
538.296	215.88
538.51	229.88
538.724	220.88
538.938	228.88
539.153	229.88
539.367	224.88
539.581	244.88
539.795	223.88
540.009	232.88
540.222	236.88
540.436	235.88
540.65	228.88
540.864	223.88
541.078	238.88
541.292	221.88
541.506	228.88
541.72	225.88
541.934	235.88
542.147	223.88
542.361	240.88
542.575	229.88
542.789	205.88
543.002	221.88
543.216	215.88
543.43	227.88
543.644	220.88
543.857	214.88
544.071	222.88
544.285	225.88
544.498	215.88
544.712	231.88
544.925	220.88
545.139	208.88
545.352	215.88
545.566	199.88
545.779	212.88
545.993	242.88
546.206	237.88
546.42	232.88
546.633	251.88
546.847	218.88
547.06	225.88
547.274	227.88
547.487	207.88
547.7	222.88
547.914	207.88
548.127	209.88
548.34	208.88
548.554	211.88
548.767	239.88
548.98	223.88
549.193	216.88
549.407	214.88
549.62	217.88
549.833	216.88
550.046	226.88
550.259	218.88
550.473	216.88
550.686	215.88
550.899	213.88
551.112	198.88
551.325	209.88
551.538	204.88
551.751	203.88
551.964	213.88
552.177	211.88
552.39	218.88
552.603	198.88
552.816	224.88
553.029	226.88
553.242	216.88
553.455	220.88
553.667	237.88
553.88	247.88
554.093	216.88
554.306	226.88
554.519	217.88
554.732	199.88
554.944	194.88
555.157	203.88
555.37	205.88
555.583	216.88
555.795	209.88
556.008	203.88
556.221	204.88
556.433	205.88
556.646	189.88
556.859	193.88
557.071	201.88
557.284	204.88
557.496	203.88
557.709	206.88
557.921	189.88
558.134	206.88
558.346	189.88
558.559	195.88
558.771	197.88
558.984	211.88
559.196	191.88
559.409	198.88
559.621	191.88
559.833	184.88
560.046	196.88
560.258	200.88
560.47	200.88
560.683	186.88
560.895	196.88
561.107	173.88
561.32	188.88
561.532	194.88
561.744	190.88
561.956	190.88
562.168	203.88
562.381	200.88
562.593	198.88
562.805	202.88
563.017	195.88
563.229	193.88
563.441	198.88
563.653	190.88
563.865	196.88
564.077	195.88
564.289	211.88
564.501	193.88
564.713	217.88
564.925	206.88
565.137	215.88
565.349	211.88
565.561	202.88
565.773	207.88
565.985	211.88
566.197	229.88
566.408	230.88
566.62	230.88
566.832	224.88
567.044	220.88
567.255	217.88
567.467	218.88
567.679	217.88
567.891	232.88
568.102	232.88
568.314	239.88
568.526	231.88
568.737	223.88
568.949	207.88
569.161	204.88
569.372	182.88
569.584	216.88
569.795	196.88
570.007	212.88
570.218	231.88
570.43	208.88
570.641	192.88
570.853	189.88
571.064	183.88
571.276	179.88
571.487	186.88
571.698	195.88
571.91	184.88
572.121	184.88
572.333	179.88
572.544	186.88
572.755	171.88
572.966	173.88
573.178	165.88
573.389	174.88
573.6	172.88
573.811	157.88
574.023	182.88
574.234	167.88
574.445	163.88
574.656	165.88
574.867	162.88
575.078	156.88
575.289	162.88
575.501	163.88
575.712	171.88
575.923	163.88
576.134	158.88
576.345	182.88
576.556	157.88
576.767	171.88
576.978	171.88
577.188	175.88
577.399	182.88
577.61	164.88
577.821	166.88
578.032	167.88
578.243	192.88
578.454	369.88
578.665	241.88
578.875	168.88
579.086	154.88
579.297	150.88
579.508	166.88
579.718	169.88
579.929	164.88
580.14	155.88
580.35	162.88
580.561	158.88
580.772	173.88
580.982	153.88
581.193	168.88
581.403	150.88
581.614	174.88
581.825	157.88
582.035	153.88
582.246	158.88
582.456	162.88
582.667	165.88
582.877	182.88
583.087	165.88
583.298	156.88
583.508	158.88
583.719	159.88
583.929	171.88
584.139	157.88
584.35	160.88
584.56	164.88
584.77	154.88
584.981	142.88
585.191	165.88
585.401	151.88
585.611	149.88
585.821	170.88
586.032	150.88
586.242	164.88
586.452	159.88
586.662	160.88
586.872	159.88
587.082	149.88
587.292	150.88
587.502	157.88
587.713	158.88
587.923	163.88
588.133	157.88
588.343	150.88
588.553	146.88
588.762	164.88
588.972	149.88
589.182	161.88
589.392	168.88
589.602	152.88
589.812	148.88
590.022	152.88
590.232	156.88
590.441	152.88
590.651	154.88
590.861	145.88
591.071	146.88
591.281	173.88
591.49	147.88
591.7	148.88
591.91	146.88
592.119	154.88
592.329	161.88
592.539	170.88
592.748	172.88
592.958	166.88
593.167	154.88
593.377	157.88
593.587	164.88
593.796	162.88
594.006	171.88
594.215	161.88
594.424	159.88
594.634	158.88
594.843	152.88
595.053	164.88
595.262	182.88
595.472	154.88
595.681	157.88
595.89	131.88
596.1	148.88
596.309	152.88
596.518	154.88
596.727	173.88
596.937	158.88
597.146	145.88
597.355	166.88
597.564	161.88
597.774	143.88
597.983	144.88
598.192	159.88
598.401	141.88
598.61	135.88
598.819	140.88
599.028	123.88
599.237	139.88
599.446	148.88
599.655	145.88
599.864	153.88
600.073	154.88
600.282	148.88
600.491	138.88
600.7	146.88
600.909	142.88
601.118	159.88
601.327	155.88
601.536	155.88
601.745	135.88
601.953	135.88
602.162	153.88
602.371	130.88
602.58	152.88
602.789	146.88
602.997	130.88
603.206	144.88
603.415	150.88
603.623	144.88
603.832	144.88
604.041	128.88
604.249	140.88
604.458	144.88
604.666	146.88
604.875	135.88
605.084	134.88
605.292	159.88
605.501	107.88
605.709	140.88
605.918	156.88
606.126	140.88
606.334	126.88
606.543	138.88
606.751	134.88
606.96	146.88
607.168	128.88
607.376	145.88
607.585	148.88
607.793	136.88
608.001	138.88
608.21	133.88
608.418	134.88
608.626	126.88
608.834	139.88
609.043	150.88
609.251	144.88
609.459	134.88
609.667	143.88
609.875	130.88
610.083	134.88
610.291	139.88
610.499	131.88
610.707	150.88
610.916	134.88
611.124	142.88
611.332	148.88
611.54	154.88
611.748	137.88
611.955	129.88
612.163	139.88
612.371	132.88
612.579	139.88
612.787	137.88
612.995	152.88
613.203	140.88
613.411	136.88
613.618	116.88
613.826	135.88
614.034	141.88
614.242	150.88
614.449	154.88
614.657	139.88
614.865	136.88
615.072	149.88
615.28	136.88
615.488	136.88
615.695	140.88
615.903	152.88
616.111	139.88
616.318	148.88
616.526	140.88
616.733	145.88
616.941	129.88
617.148	120.88
617.356	131.88
617.563	142.88
617.771	127.88
617.978	121.88
618.185	133.88
618.393	134.88
618.6	125.88
618.807	135.88
619.015	139.88
619.222	129.88
619.429	135.88
619.637	134.88
619.844	125.88
620.051	132.88
620.258	141.88
620.466	135.88
620.673	143.88
620.88	118.88
621.087	140.88
621.294	134.88
621.501	126.88
621.708	136.88
621.915	129.88
622.122	116.88
622.329	146.88
622.536	141.88
622.743	134.88
622.95	132.88
623.157	130.88
623.364	128.88
623.571	119.88
623.778	150.88
623.985	132.88
624.192	144.88
624.399	127.88
624.606	135.88
624.812	126.88
625.019	134.88
625.226	123.88
625.433	123.88
625.639	118.88
625.846	123.88
626.053	126.88
626.259	135.88
626.466	130.88
626.673	119.88
626.879	112.88
627.086	126.88
627.293	125.88
627.499	120.88
627.706	127.88
627.912	112.88
628.119	112.88
628.325	129.88
628.532	122.88
628.738	121.88
628.945	135.88
629.151	143.88
629.357	127.88
629.564	134.88
629.77	118.88
629.976	118.88
630.183	120.88
630.389	137.88
630.595	126.88
630.802	118.88
631.008	121.88
631.214	133.88
631.42	122.88
631.627	120.88
631.833	111.88
632.039	121.88
632.245	131.88
632.451	129.88
632.657	119.88
632.863	112.88
633.069	108.88
633.275	120.88
633.481	129.88
633.688	134.88
633.893	127.88
634.099	110.88
634.305	120.88
634.511	126.88
634.717	123.88
634.923	130.88
635.129	118.88
635.335	110.88
635.541	120.88
635.747	124.88
635.952	126.88
636.158	121.88
636.364	105.88
636.57	120.88
636.775	130.88
636.981	123.88
637.187	131.88
637.392	125.88
637.598	122.88
637.804	117.88
638.009	126.88
638.215	110.88
638.421	109.88
638.626	112.88
638.832	122.88
639.037	106.88
639.243	116.88
639.448	124.88
639.654	109.88
639.859	103.88
640.065	119.88
640.27	125.88
640.475	106.88
640.681	118.88
640.886	111.88
641.091	119.88
641.297	119.88
641.502	120.88
641.707	127.88
641.913	117.88
642.118	104.88
642.323	129.88
642.528	106.88
642.733	120.88
642.939	120.88
643.144	107.88
643.349	109.88
643.554	109.88
643.759	122.88
643.964	100.88
644.169	124.88
644.374	126.88
644.579	111.88
644.784	117.88
644.989	109.88
645.194	108.88
645.399	123.88
645.604	117.88
645.809	99.88
646.014	102.88
646.219	115.88
646.423	112.88
646.628	110.88
646.833	120.88
647.038	104.88
647.243	118.88
647.447	118.88
647.652	121.88
647.857	115.88
648.062	130.88
648.266	98.88
648.471	116.88
648.676	109.88
648.88	104.88
649.085	124.88
649.289	102.88
649.494	110.88
649.698	111.88
649.903	126.88
650.107	127.88
650.312	117.88
650.516	95.88
650.721	110.88
650.925	107.88
651.13	125.88
651.334	119.88
651.539	103.88
651.743	106.88
651.947	106.88
652.152	123.88
652.356	110.88
652.56	112.88
652.764	119.88
652.969	107.88
653.173	107.88
653.377	96.88
653.581	112.88
653.785	115.88
653.99	111.88
654.194	103.88
654.398	106.88
654.602	116.88
654.806	102.88
655.01	116.88
655.214	103.88
655.418	99.88
655.622	110.88
655.826	121.88
656.03	115.88
656.234	109.88
656.438	124.88
656.642	122.88
656.846	103.88
657.049	103.88
657.253	111.88
657.457	93.88
657.661	85.88
657.865	86.88
658.068	98.88
658.272	105.88
658.476	82.88
658.68	90.88
658.883	104.88
659.087	87.88
659.291	89.88
659.494	96.88
659.698	92.88
659.901	94.88
660.105	85.88
660.309	89.88
660.512	86.88
660.716	85.88
660.919	79.88
661.123	98.88
661.326	74.88
661.53	80.88
661.733	96.88
661.936	93.88
662.14	89.88
662.343	79.88
662.546	86.88
662.75	101.88
662.953	91.88
663.156	83.88
663.36	83.88
663.563	95.88
663.766	83.88
663.969	87.88
664.173	84.88
664.376	86.88
664.579	83.88
664.782	96.88
664.985	80.88
665.188	77.88
665.391	92.88
665.594	84.88
665.797	76.88
666	91.88
666.203	82.88
666.406	84.88
666.609	86.88
666.812	77.88
667.015	81.88
667.218	86.88
667.421	88.88
667.624	85.88
667.827	63.88
668.03	72.88
668.232	84.88
668.435	71.88
668.638	86.88
668.841	88.88
669.043	78.88
669.246	70.88
669.449	84.88
669.651	91.88
669.854	80.88
670.057	86.88
670.259	89.88
670.462	84.88
670.665	91.88
670.867	68.88
671.07	73.88
671.272	87.88
671.475	90.88
671.677	76.88
671.88	82.88
672.082	76.88
672.284	83.88
672.487	89.88
672.689	79.88
672.892	77.88
