Data from 1966.PennyLincolnUp.Lamp.En5.5.200Scan.071719.P1.Scan2.head_HRD10591_14-16-32-036.txt Node
Date: Thu Jul 18 14:16:32 EDT 2019
User: cochatt
Spectrometer: HR+D1059
Trigger mode: 1
Integration Time (sec): 1.000000E-1
Scans to average: 1
Electric dark correction enabled: true
Nonlinearity correction enabled: false
Boxcar width: 0
XAxis mode: Wavelengths
Number of Pixels in Spectrum: 2048
>>>>>Begin Spectral Data<<<<<
223.165	-18.62
223.4	-18.62
223.635	-18.62
223.869	-8.62
224.104	-13.62
224.338	-35.62
224.573	-13.62
224.808	-5.62
225.042	4.38
225.277	-11.62
225.511	3.38
225.746	5.38
225.98	4.38
226.215	1.38
226.449	29.38
226.683	0.38
226.918	21.38
227.152	37.38
227.387	44.38
227.621	45.38
227.856	44.38
228.09	38.38
228.324	58.38
228.559	68.38
228.793	57.38
229.027	88.38
229.262	88.38
229.496	97.38
229.73	126.38
229.964	129.38
230.199	118.38
230.433	116.38
230.667	107.38
230.901	114.38
231.136	103.38
231.37	101.38
231.604	98.38
231.838	106.38
232.072	105.38
232.306	111.38
232.541	112.38
232.775	105.38
233.009	116.38
233.243	104.38
233.477	110.38
233.711	115.38
233.945	95.38
234.179	106.38
234.413	122.38
234.647	122.38
234.881	123.38
235.115	125.38
235.349	108.38
235.583	127.38
235.817	101.38
236.051	114.38
236.285	123.38
236.519	88.38
236.753	107.38
236.987	118.38
237.221	160.38
237.455	196.38
237.689	164.38
237.922	122.38
238.156	129.38
238.39	128.38
238.624	120.38
238.858	118.38
239.091	130.38
239.325	116.38
239.559	125.38
239.793	120.38
240.027	116.38
240.26	124.38
240.494	126.38
240.728	136.38
240.961	139.38
241.195	139.38
241.429	122.38
241.662	128.38
241.896	143.38
242.13	116.38
242.363	129.38
242.597	130.38
242.83	120.38
243.064	133.38
243.298	124.38
243.531	126.38
243.765	137.38
243.998	140.38
244.232	149.38
244.465	139.38
244.699	140.38
244.932	142.38
245.166	143.38
245.399	126.38
245.633	155.38
245.866	141.38
246.099	146.38
246.333	137.38
246.566	139.38
246.8	151.38
247.033	152.38
247.266	140.38
247.5	150.38
247.733	158.38
247.966	181.38
248.2	156.38
248.433	153.38
248.666	172.38
248.899	146.38
249.133	184.38
249.366	177.38
249.599	177.38
249.832	173.38
250.066	178.38
250.299	164.38
250.532	165.38
250.765	180.38
250.998	182.38
251.231	193.38
251.465	184.38
251.698	183.38
251.931	187.38
252.164	153.38
252.397	172.38
252.63	172.38
252.863	177.38
253.096	184.38
253.329	211.38
253.562	176.38
253.795	198.38
254.028	184.38
254.261	172.38
254.494	196.38
254.727	193.38
254.96	220.38
255.193	217.38
255.426	210.38
255.659	192.38
255.892	194.38
256.124	190.38
256.357	205.38
256.59	197.38
256.823	184.38
257.056	191.38
257.289	193.38
257.521	183.38
257.754	176.38
257.987	181.38
258.22	166.38
258.452	192.38
258.685	187.38
258.918	176.38
259.151	182.38
259.383	185.38
259.616	193.38
259.849	192.38
260.081	199.38
260.314	208.38
260.547	220.38
260.779	204.38
261.012	202.38
261.244	219.38
261.477	215.38
261.71	191.38
261.942	218.38
262.175	202.38
262.407	201.38
262.64	189.38
262.872	191.38
263.105	193.38
263.337	192.38
263.57	188.38
263.802	199.38
264.035	204.38
264.267	185.38
264.499	202.38
264.732	186.38
264.964	205.38
265.197	195.38
265.429	185.38
265.661	186.38
265.894	199.38
266.126	192.38
266.358	189.38
266.591	209.38
266.823	178.38
267.055	214.38
267.287	221.38
267.52	190.38
267.752	206.38
267.984	214.38
268.216	188.38
268.448	222.38
268.681	196.38
268.913	206.38
269.145	220.38
269.377	232.38
269.609	223.38
269.841	226.38
270.073	214.38
270.306	230.38
270.538	266.38
270.77	248.38
271.002	245.38
271.234	240.38
271.466	227.38
271.698	257.38
271.93	251.38
272.162	258.38
272.394	257.38
272.626	249.38
272.858	233.38
273.09	218.38
273.322	226.38
273.553	217.38
273.785	227.38
274.017	238.38
274.249	233.38
274.481	234.38
274.713	230.38
274.945	230.38
275.176	246.38
275.408	232.38
275.64	238.38
275.872	246.38
276.104	230.38
276.335	247.38
276.567	233.38
276.799	245.38
277.031	234.38
277.262	256.38
277.494	244.38
277.726	240.38
277.957	257.38
278.189	228.38
278.421	231.38
278.652	246.38
278.884	238.38
279.115	228.38
279.347	222.38
279.579	242.38
279.81	265.38
280.042	231.38
280.273	250.38
280.505	256.38
280.736	239.38
280.968	234.38
281.199	255.38
281.431	238.38
281.662	232.38
281.894	231.38
282.125	251.38
282.356	244.38
282.588	265.38
282.819	256.38
283.051	239.38
283.282	256.38
283.513	226.38
283.745	243.38
283.976	241.38
284.207	244.38
284.439	259.38
284.67	247.38
284.901	249.38
285.132	249.38
285.364	239.38
285.595	239.38
285.826	250.38
286.057	272.38
286.288	244.38
286.52	262.38
286.751	245.38
286.982	247.38
287.213	235.38
287.444	238.38
287.675	263.38
287.906	264.38
288.138	273.38
288.369	261.38
288.6	265.38
288.831	265.38
289.062	250.38
289.293	253.38
289.524	249.38
289.755	273.38
289.986	264.38
290.217	271.38
290.448	253.38
290.679	262.38
290.91	243.38
291.141	243.38
291.371	256.38
291.602	250.38
291.833	252.38
292.064	271.38
292.295	264.38
292.526	281.38
292.757	260.38
292.987	269.38
293.218	257.38
293.449	262.38
293.68	258.38
293.91	246.38
294.141	274.38
294.372	273.38
294.603	250.38
294.833	255.38
295.064	268.38
295.295	249.38
295.525	246.38
295.756	269.38
295.987	254.38
296.217	277.38
296.448	270.38
296.679	264.38
296.909	274.38
297.14	273.38
297.37	267.38
297.601	280.38
297.831	264.38
298.062	274.38
298.292	271.38
298.523	291.38
298.753	286.38
298.984	285.38
299.214	271.38
299.445	264.38
299.675	260.38
299.905	288.38
300.136	273.38
300.366	276.38
300.597	270.38
300.827	281.38
301.057	297.38
301.288	293.38
301.518	288.38
301.748	280.38
301.979	278.38
302.209	298.38
302.439	302.38
302.669	295.38
302.9	290.38
303.13	288.38
303.36	303.38
303.59	289.38
303.82	311.38
304.051	297.38
304.281	289.38
304.511	301.38
304.741	286.38
304.971	288.38
305.201	310.38
305.431	291.38
305.661	300.38
305.891	304.38
306.121	285.38
306.352	274.38
306.582	295.38
306.812	292.38
307.042	282.38
307.272	297.38
307.502	294.38
307.731	288.38
307.961	288.38
308.191	279.38
308.421	296.38
308.651	316.38
308.881	295.38
309.111	303.38
309.341	295.38
309.571	277.38
309.8	290.38
310.03	302.38
310.26	332.38
310.49	331.38
310.72	304.38
310.949	345.38
311.179	325.38
311.409	320.38
311.639	331.38
311.868	329.38
312.098	333.38
312.328	326.38
312.557	324.38
312.787	356.38
313.017	337.38
313.246	330.38
313.476	320.38
313.706	306.38
313.935	324.38
314.165	346.38
314.394	320.38
314.624	327.38
314.853	344.38
315.083	331.38
315.312	336.38
315.542	326.38
315.771	336.38
316.001	333.38
316.23	326.38
316.46	317.38
316.689	306.38
316.919	335.38
317.148	347.38
317.377	331.38
317.607	326.38
317.836	337.38
318.065	323.38
318.295	332.38
318.524	336.38
318.753	334.38
318.983	316.38
319.212	338.38
319.441	346.38
319.67	347.38
319.9	342.38
320.129	357.38
320.358	339.38
320.587	331.38
320.816	356.38
321.046	360.38
321.275	342.38
321.504	348.38
321.733	347.38
321.962	358.38
322.191	373.38
322.42	369.38
322.649	372.38
322.878	354.38
323.108	372.38
323.337	388.38
323.566	421.38
323.795	396.38
324.024	416.38
324.253	495.38
324.482	680.38
324.71	1054.38
324.939	1578.38
325.168	1372.38
325.397	676.38
325.626	446.38
325.855	425.38
326.084	379.38
326.313	381.38
326.542	391.38
326.77	420.38
326.999	510.38
327.228	655.38
327.457	954.38
327.686	1208.38
327.914	774.38
328.143	514.38
328.372	466.38
328.6	437.38
328.829	453.38
329.058	446.38
329.287	466.38
329.515	424.38
329.744	395.38
329.972	400.38
330.201	397.38
330.43	444.38
330.658	451.38
330.887	473.38
331.115	425.38
331.344	426.38
331.572	412.38
331.801	404.38
332.03	394.38
332.258	400.38
332.486	388.38
332.715	393.38
332.943	392.38
333.172	389.38
333.4	408.38
333.629	410.38
333.857	411.38
334.085	390.38
334.314	414.38
334.542	451.38
334.771	452.38
334.999	437.38
335.227	410.38
335.455	400.38
335.684	408.38
335.912	382.38
336.14	380.38
336.369	393.38
336.597	408.38
336.825	410.38
337.053	388.38
337.281	389.38
337.51	395.38
337.738	403.38
337.966	396.38
338.194	399.38
338.422	378.38
338.65	394.38
338.878	386.38
339.106	381.38
339.334	369.38
339.562	384.38
339.79	376.38
340.018	374.38
340.246	390.38
340.474	376.38
340.702	396.38
340.93	364.38
341.158	377.38
341.386	374.38
341.614	391.38
341.842	387.38
342.07	374.38
342.298	368.38
342.526	376.38
342.754	386.38
342.981	390.38
343.209	394.38
343.437	392.38
343.665	384.38
343.893	398.38
344.12	372.38
344.348	405.38
344.576	374.38
344.804	406.38
345.031	394.38
345.259	388.38
345.487	387.38
345.714	400.38
345.942	402.38
346.17	365.38
346.397	369.38
346.625	364.38
346.853	387.38
347.08	378.38
347.308	379.38
347.535	377.38
347.763	373.38
347.99	397.38
348.218	391.38
348.445	391.38
348.673	381.38
348.9	372.38
349.128	373.38
349.355	365.38
349.583	348.38
349.81	362.38
350.037	348.38
350.265	364.38
350.492	363.38
350.72	365.38
350.947	359.38
351.174	382.38
351.402	369.38
351.629	390.38
351.856	380.38
352.083	404.38
352.311	386.38
352.538	368.38
352.765	392.38
352.992	377.38
353.22	376.38
353.447	363.38
353.674	367.38
353.901	383.38
354.128	396.38
354.355	352.38
354.583	373.38
354.81	360.38
355.037	358.38
355.264	356.38
355.491	346.38
355.718	359.38
355.945	377.38
356.172	374.38
356.399	366.38
356.626	352.38
356.853	358.38
357.08	369.38
357.307	347.38
357.534	353.38
357.761	373.38
357.988	364.38
358.215	366.38
358.441	352.38
358.668	367.38
358.895	366.38
359.122	368.38
359.349	377.38
359.576	376.38
359.802	383.38
360.029	409.38
360.256	409.38
360.483	402.38
360.709	398.38
360.936	383.38
361.163	364.38
361.39	381.38
361.616	376.38
361.843	396.38
362.07	361.38
362.296	396.38
362.523	378.38
362.749	369.38
362.976	380.38
363.203	364.38
363.429	372.38
363.656	374.38
363.882	377.38
364.109	363.38
364.335	374.38
364.562	369.38
364.788	376.38
365.015	358.38
365.241	371.38
365.468	368.38
365.694	384.38
365.92	377.38
366.147	372.38
366.373	357.38
366.599	375.38
366.826	377.38
367.052	374.38
367.278	376.38
367.505	356.38
367.731	382.38
367.957	384.38
368.184	376.38
368.41	377.38
368.636	376.38
368.862	386.38
369.089	392.38
369.315	380.38
369.541	380.38
369.767	376.38
369.993	374.38
370.219	380.38
370.445	362.38
370.672	390.38
370.898	370.38
371.124	403.38
371.35	386.38
371.576	380.38
371.802	366.38
372.028	392.38
372.254	396.38
372.48	393.38
372.706	386.38
372.932	391.38
373.158	395.38
373.384	377.38
373.61	417.38
373.835	390.38
374.061	386.38
374.287	381.38
374.513	393.38
374.739	378.38
374.965	407.38
375.191	422.38
375.416	395.38
375.642	384.38
375.868	389.38
376.094	388.38
376.319	397.38
376.545	390.38
376.771	365.38
376.997	384.38
377.222	394.38
377.448	392.38
377.674	379.38
377.899	374.38
378.125	380.38
378.35	386.38
378.576	379.38
378.802	385.38
379.027	381.38
379.253	375.38
379.478	390.38
379.704	395.38
379.929	389.38
380.155	367.38
380.38	396.38
380.606	410.38
380.831	388.38
381.057	374.38
381.282	385.38
381.507	373.38
381.733	402.38
381.958	424.38
382.184	426.38
382.409	401.38
382.634	389.38
382.86	417.38
383.085	412.38
383.31	418.38
383.535	411.38
383.761	385.38
383.986	401.38
384.211	413.38
384.436	412.38
384.662	428.38
384.887	417.38
385.112	408.38
385.337	432.38
385.562	421.38
385.787	441.38
386.013	434.38
386.238	442.38
386.463	430.38
386.688	418.38
386.913	406.38
387.138	446.38
387.363	455.38
387.588	421.38
387.813	426.38
388.038	431.38
388.263	446.38
388.488	428.38
388.713	428.38
388.938	455.38
389.163	438.38
389.387	446.38
389.612	419.38
389.837	407.38
390.062	421.38
390.287	422.38
390.512	434.38
390.736	430.38
390.961	435.38
391.186	440.38
391.411	428.38
391.636	444.38
391.86	452.38
392.085	456.38
392.31	439.38
392.534	453.38
392.759	445.38
392.984	456.38
393.208	457.38
393.433	494.38
393.658	502.38
393.882	466.38
394.107	425.38
394.331	448.38
394.556	446.38
394.78	452.38
395.005	441.38
395.229	454.38
395.454	460.38
395.678	469.38
395.903	458.38
396.127	482.38
396.352	494.38
396.576	464.38
396.801	470.38
397.025	466.38
397.249	470.38
397.474	482.38
397.698	471.38
397.922	484.38
398.147	489.38
398.371	479.38
398.595	520.38
398.82	500.38
399.044	508.38
399.268	537.38
399.492	555.38
399.717	581.38
399.941	612.38
400.165	615.38
400.389	632.38
400.613	576.38
400.837	528.38
401.062	528.38
401.286	506.38
401.51	520.38
401.734	507.38
401.958	497.38
402.182	508.38
402.406	512.38
402.63	513.38
402.854	518.38
403.078	502.38
403.302	524.38
403.526	521.38
403.75	503.38
403.974	516.38
404.198	517.38
404.422	521.38
404.645	513.38
404.869	531.38
405.093	553.38
405.317	584.38
405.541	616.38
405.765	554.38
405.988	550.38
406.212	561.38
406.436	536.38
406.66	581.38
406.883	543.38
407.107	581.38
407.331	612.38
407.555	675.38
407.778	671.38
408.002	628.38
408.226	582.38
408.449	549.38
408.673	573.38
408.896	574.38
409.12	622.38
409.344	592.38
409.567	544.38
409.791	518.38
410.014	507.38
410.238	513.38
410.461	537.38
410.685	550.38
410.908	535.38
411.132	570.38
411.355	610.38
411.578	595.38
411.802	533.38
412.025	520.38
412.249	532.38
412.472	544.38
412.695	564.38
412.919	542.38
413.142	513.38
413.365	510.38
413.589	529.38
413.812	500.38
414.035	482.38
414.258	459.38
414.482	517.38
414.705	502.38
414.928	485.38
415.151	508.38
415.374	506.38
415.597	501.38
415.821	486.38
416.044	492.38
416.267	516.38
416.49	512.38
416.713	474.38
416.936	488.38
417.159	487.38
417.382	510.38
417.605	496.38
417.828	505.38
418.051	521.38
418.274	495.38
418.497	504.38
418.72	480.38
418.943	477.38
419.166	480.38
419.389	536.38
419.611	524.38
419.834	523.38
420.057	526.38
420.28	533.38
420.503	503.38
420.726	529.38
420.948	513.38
421.171	552.38
421.394	585.38
421.617	525.38
421.839	525.38
422.062	523.38
422.285	516.38
422.507	580.38
422.73	658.38
422.953	640.38
423.175	531.38
423.398	514.38
423.621	509.38
423.843	543.38
424.066	552.38
424.288	542.38
424.511	556.38
424.733	581.38
424.956	652.38
425.178	650.38
425.401	630.38
425.623	635.38
425.846	583.38
426.068	530.38
426.291	544.38
426.513	525.38
426.735	538.38
426.958	554.38
427.18	641.38
427.402	779.38
427.625	844.38
427.847	715.38
428.069	631.38
428.292	555.38
428.514	516.38
428.736	510.38
428.958	509.38
429.181	503.38
429.403	477.38
429.625	515.38
429.847	525.38
430.069	574.38
430.292	573.38
430.514	503.38
430.736	518.38
430.958	491.38
431.18	501.38
431.402	497.38
431.624	487.38
431.846	472.38
432.068	471.38
432.29	505.38
432.512	479.38
432.734	493.38
432.956	481.38
433.178	501.38
433.4	493.38
433.622	498.38
433.844	504.38
434.066	483.38
434.287	479.38
434.509	493.38
434.731	504.38
434.953	519.38
435.175	509.38
435.397	538.38
435.618	537.38
435.84	583.38
436.062	653.38
436.284	720.38
436.505	609.38
436.727	550.38
436.949	538.38
437.17	490.38
437.392	470.38
437.614	489.38
437.835	553.38
438.057	615.38
438.278	721.38
438.5	692.38
438.721	773.38
438.943	747.38
439.165	606.38
439.386	531.38
439.608	549.38
439.829	551.38
440.05	557.38
440.272	592.38
440.493	564.38
440.715	527.38
440.936	522.38
441.158	488.38
441.379	504.38
441.6	513.38
441.822	529.38
442.043	572.38
442.264	630.38
442.486	672.38
442.707	590.38
442.928	560.38
443.149	556.38
443.371	568.38
443.592	618.38
443.813	682.38
444.034	727.38
444.255	659.38
444.476	565.38
444.698	542.38
444.919	549.38
445.14	658.38
445.361	606.38
445.582	566.38
445.803	598.38
446.024	718.38
446.245	716.38
446.466	641.38
446.687	559.38
446.908	541.38
447.129	523.38
447.35	493.38
447.571	497.38
447.792	462.38
448.013	494.38
448.234	512.38
448.455	564.38
448.675	653.38
448.896	745.38
449.117	636.38
449.338	596.38
449.559	711.38
449.779	817.38
450	624.38
450.221	527.38
450.442	492.38
450.662	465.38
450.883	479.38
451.104	500.38
451.324	497.38
451.545	472.38
451.766	474.38
451.986	445.38
452.207	470.38
452.428	456.38
452.648	428.38
452.869	439.38
453.089	452.38
453.31	462.38
453.53	460.38
453.751	424.38
453.971	448.38
454.192	461.38
454.412	432.38
454.633	459.38
454.853	450.38
455.073	452.38
455.294	457.38
455.514	519.38
455.734	515.38
455.955	453.38
456.175	440.38
456.395	423.38
456.616	443.38
456.836	417.38
457.056	424.38
457.276	410.38
457.497	439.38
457.717	426.38
457.937	438.38
458.157	442.38
458.377	438.38
458.598	461.38
458.818	498.38
459.038	562.38
459.258	589.38
459.478	514.38
459.698	489.38
459.918	486.38
460.138	487.38
460.358	499.38
460.578	518.38
460.798	485.38
461.018	486.38
461.238	495.38
461.458	508.38
461.678	476.38
461.898	530.38
462.118	508.38
462.338	509.38
462.558	516.38
462.777	530.38
462.997	529.38
463.217	586.38
463.437	578.38
463.657	552.38
463.876	548.38
464.096	579.38
464.316	532.38
464.536	529.38
464.755	530.38
464.975	535.38
465.195	548.38
465.414	564.38
465.634	538.38
465.854	501.38
466.073	484.38
466.293	497.38
466.512	468.38
466.732	465.38
466.951	487.38
467.171	491.38
467.391	467.38
467.61	479.38
467.829	509.38
468.049	457.38
468.268	460.38
468.488	478.38
468.707	449.38
468.927	441.38
469.146	454.38
469.365	461.38
469.585	453.38
469.804	447.38
470.023	494.38
470.243	477.38
470.462	484.38
470.681	486.38
470.901	484.38
471.12	477.38
471.339	478.38
471.558	469.38
471.777	475.38
471.997	473.38
472.216	463.38
472.435	485.38
472.654	476.38
472.873	479.38
473.092	466.38
473.311	461.38
473.53	464.38
473.749	473.38
473.968	508.38
474.187	582.38
474.406	619.38
474.625	538.38
474.844	482.38
475.063	466.38
475.282	470.38
475.501	470.38
475.72	480.38
475.939	484.38
476.158	489.38
476.377	503.38
476.596	488.38
476.814	482.38
477.033	496.38
477.252	488.38
477.471	510.38
477.69	511.38
477.908	517.38
478.127	534.38
478.346	527.38
478.564	533.38
478.783	555.38
479.002	537.38
479.22	560.38
479.439	568.38
479.658	553.38
479.876	584.38
480.095	561.38
480.313	594.38
480.532	582.38
480.751	585.38
480.969	596.38
481.188	592.38
481.406	644.38
481.624	589.38
481.843	552.38
482.061	562.38
482.28	560.38
482.498	547.38
482.717	564.38
482.935	559.38
483.153	560.38
483.372	542.38
483.59	569.38
483.808	558.38
484.027	548.38
484.245	584.38
484.463	553.38
484.681	573.38
484.9	571.38
485.118	616.38
485.336	580.38
485.554	578.38
485.772	591.38
485.99	583.38
486.209	562.38
486.427	596.38
486.645	608.38
486.863	600.38
487.081	593.38
487.299	607.38
487.517	600.38
487.735	589.38
487.953	598.38
488.171	600.38
488.389	621.38
488.607	609.38
488.825	609.38
489.043	603.38
489.261	598.38
489.479	608.38
489.696	612.38
489.914	624.38
490.132	614.38
490.35	629.38
490.568	637.38
490.786	620.38
491.003	644.38
491.221	646.38
491.439	672.38
491.657	644.38
491.874	654.38
492.092	681.38
492.31	668.38
492.527	682.38
492.745	664.38
492.963	680.38
493.18	681.38
493.398	699.38
493.615	687.38
493.833	684.38
494.05	677.38
494.268	684.38
494.485	680.38
494.703	658.38
494.92	702.38
495.138	689.38
495.355	711.38
495.573	698.38
495.79	713.38
496.008	708.38
496.225	721.38
496.442	698.38
496.66	694.38
496.877	704.38
497.094	720.38
497.312	725.38
497.529	716.38
497.746	729.38
497.963	742.38
498.181	743.38
498.398	777.38
498.615	785.38
498.832	814.38
499.049	834.38
499.267	822.38
499.484	862.38
499.701	911.38
499.918	948.38
500.135	1009.38
500.352	1027.38
500.569	1046.38
500.786	1090.38
501.003	1052.38
501.22	1048.38
501.437	940.38
501.654	938.38
501.871	917.38
502.088	891.38
502.305	844.38
502.522	789.38
502.739	796.38
502.956	794.38
503.172	778.38
503.389	742.38
503.606	728.38
503.823	759.38
504.04	726.38
504.256	716.38
504.473	697.38
504.69	736.38
504.907	727.38
505.123	692.38
505.34	679.38
505.557	682.38
505.773	658.38
505.99	683.38
506.207	665.38
506.423	644.38
506.64	649.38
506.856	650.38
507.073	639.38
507.289	644.38
507.506	629.38
507.722	655.38
507.939	658.38
508.155	615.38
508.372	614.38
508.588	626.38
508.805	628.38
509.021	604.38
509.238	611.38
509.454	644.38
509.67	636.38
509.887	613.38
510.103	618.38
510.319	607.38
510.536	652.38
510.752	915.38
510.968	795.38
511.184	596.38
511.401	608.38
511.617	596.38
511.833	592.38
512.049	554.38
512.265	582.38
512.481	594.38
512.698	588.38
512.914	585.38
513.13	586.38
513.346	580.38
513.562	582.38
513.778	600.38
513.994	601.38
514.21	592.38
514.426	599.38
514.642	609.38
514.858	641.38
515.074	657.38
515.29	728.38
515.506	921.38
515.721	813.38
515.937	644.38
516.153	604.38
516.369	624.38
516.585	620.38
516.801	620.38
517.016	624.38
517.232	620.38
517.448	650.38
517.664	629.38
517.879	636.38
518.095	634.38
518.311	639.38
518.527	583.38
518.742	616.38
518.958	609.38
519.173	589.38
519.389	594.38
519.605	590.38
519.82	615.38
520.036	602.38
520.251	594.38
520.467	606.38
520.682	594.38
520.898	624.38
521.113	632.38
521.329	640.38
521.544	689.38
521.76	809.38
521.975	1114.38
522.19	1094.38
522.406	705.38
522.621	614.38
522.836	591.38
523.052	550.38
523.267	527.38
523.482	545.38
523.698	555.38
523.913	525.38
524.128	535.38
524.343	534.38
524.559	518.38
524.774	527.38
524.989	554.38
525.204	523.38
525.419	511.38
525.634	509.38
525.849	526.38
526.064	513.38
526.28	500.38
526.495	497.38
526.71	486.38
526.925	493.38
527.14	484.38
527.355	482.38
527.57	484.38
527.785	486.38
527.999	519.38
528.214	486.38
528.429	514.38
528.644	484.38
528.859	505.38
529.074	500.38
529.289	522.38
529.503	564.38
529.718	535.38
529.933	511.38
530.148	493.38
530.363	505.38
530.577	497.38
530.792	509.38
531.007	478.38
531.221	480.38
531.436	481.38
531.651	493.38
531.865	494.38
532.08	493.38
532.295	503.38
532.509	504.38
532.724	477.38
532.938	476.38
533.153	462.38
533.367	474.38
533.582	479.38
533.796	478.38
534.011	462.38
534.225	470.38
534.44	479.38
534.654	466.38
534.868	487.38
535.083	472.38
535.297	481.38
535.511	488.38
535.726	486.38
535.94	476.38
536.154	470.38
536.369	468.38
536.583	490.38
536.797	456.38
537.011	463.38
537.225	440.38
537.44	461.38
537.654	465.38
537.868	441.38
538.082	453.38
538.296	462.38
538.51	458.38
538.724	464.38
538.938	455.38
539.153	461.38
539.367	459.38
539.581	470.38
539.795	443.38
540.009	475.38
540.222	448.38
540.436	474.38
540.65	450.38
540.864	445.38
541.078	479.38
541.292	473.38
541.506	479.38
541.72	456.38
541.934	469.38
542.147	462.38
542.361	466.38
542.575	442.38
542.789	462.38
543.002	453.38
543.216	476.38
543.43	466.38
543.644	453.38
543.857	467.38
544.071	473.38
544.285	470.38
544.498	458.38
544.712	466.38
544.925	471.38
545.139	462.38
545.352	459.38
545.566	464.38
545.779	446.38
545.993	469.38
546.206	454.38
546.42	463.38
546.633	458.38
546.847	447.38
547.06	442.38
547.274	450.38
547.487	436.38
547.7	462.38
547.914	451.38
548.127	473.38
548.34	473.38
548.554	435.38
548.767	442.38
548.98	454.38
549.193	463.38
549.407	453.38
549.62	445.38
549.833	449.38
550.046	443.38
550.259	442.38
550.473	457.38
550.686	456.38
550.899	431.38
551.112	431.38
551.325	433.38
551.538	459.38
551.751	457.38
551.964	449.38
552.177	458.38
552.39	457.38
552.603	438.38
552.816	460.38
553.029	420.38
553.242	446.38
553.455	468.38
553.667	473.38
553.88	480.38
554.093	476.38
554.306	465.38
554.519	452.38
554.732	447.38
554.944	456.38
555.157	428.38
555.37	438.38
555.583	436.38
555.795	425.38
556.008	439.38
556.221	412.38
556.433	421.38
556.646	410.38
556.859	425.38
557.071	413.38
557.284	398.38
557.496	422.38
557.709	424.38
557.921	420.38
558.134	412.38
558.346	399.38
558.559	407.38
558.771	403.38
558.984	410.38
559.196	410.38
559.409	393.38
559.621	406.38
559.833	407.38
560.046	418.38
560.258	409.38
560.47	417.38
560.683	406.38
560.895	416.38
561.107	391.38
561.32	393.38
561.532	408.38
561.744	405.38
561.956	416.38
562.168	405.38
562.381	418.38
562.593	427.38
562.805	411.38
563.017	398.38
563.229	399.38
563.441	436.38
563.653	398.38
563.865	412.38
564.077	422.38
564.289	412.38
564.501	420.38
564.713	469.38
564.925	428.38
565.137	449.38
565.349	446.38
565.561	454.38
565.773	452.38
565.985	446.38
566.197	464.38
566.408	476.38
566.62	475.38
566.832	505.38
567.044	510.38
567.255	518.38
567.467	537.38
567.679	520.38
567.891	536.38
568.102	541.38
568.314	546.38
568.526	518.38
568.737	484.38
568.949	471.38
569.161	486.38
569.372	445.38
569.584	425.38
569.795	423.38
570.007	420.38
570.218	455.38
570.43	438.38
570.641	426.38
570.853	389.38
571.064	403.38
571.276	394.38
571.487	392.38
571.698	381.38
571.91	380.38
572.121	375.38
572.333	355.38
572.544	388.38
572.755	373.38
572.966	349.38
573.178	359.38
573.389	348.38
573.6	369.38
573.811	356.38
574.023	361.38
574.234	350.38
574.445	356.38
574.656	346.38
574.867	345.38
575.078	349.38
575.289	388.38
575.501	346.38
575.712	353.38
575.923	363.38
576.134	350.38
576.345	352.38
576.556	341.38
576.767	349.38
576.978	337.38
577.188	361.38
577.399	346.38
577.61	332.38
577.821	334.38
578.032	349.38
578.243	361.38
578.454	474.38
578.665	391.38
578.875	332.38
579.086	342.38
579.297	325.38
579.508	330.38
579.718	352.38
579.929	333.38
580.14	320.38
580.35	312.38
580.561	316.38
580.772	324.38
580.982	328.38
581.193	315.38
581.403	315.38
581.614	311.38
581.825	325.38
582.035	325.38
582.246	321.38
582.456	319.38
582.667	317.38
582.877	298.38
583.087	336.38
583.298	313.38
583.508	306.38
583.719	302.38
583.929	290.38
584.139	308.38
584.35	322.38
584.56	312.38
584.77	316.38
584.981	324.38
585.191	324.38
585.401	320.38
585.611	325.38
585.821	332.38
586.032	328.38
586.242	312.38
586.452	304.38
586.662	297.38
586.872	309.38
587.082	303.38
587.292	318.38
587.502	320.38
587.713	312.38
587.923	314.38
588.133	344.38
588.343	312.38
588.553	308.38
588.762	322.38
588.972	320.38
589.182	361.38
589.392	373.38
589.602	325.38
589.812	360.38
590.022	332.38
590.232	314.38
590.441	316.38
590.651	310.38
590.861	322.38
591.071	326.38
591.281	334.38
591.49	308.38
591.7	322.38
591.91	326.38
592.119	334.38
592.329	332.38
592.539	320.38
592.748	335.38
592.958	331.38
593.167	337.38
593.377	327.38
593.587	337.38
593.796	346.38
594.006	326.38
594.215	332.38
594.424	332.38
594.634	347.38
594.843	327.38
595.053	339.38
595.262	321.38
595.472	317.38
595.681	315.38
595.89	322.38
596.1	340.38
596.309	299.38
596.518	306.38
596.727	299.38
596.937	299.38
597.146	312.38
597.355	300.38
597.564	291.38
597.774	296.38
597.983	279.38
598.192	288.38
598.401	296.38
598.61	288.38
598.819	287.38
599.028	295.38
599.237	270.38
599.446	308.38
599.655	280.38
599.864	267.38
600.073	273.38
600.282	277.38
600.491	305.38
600.7	292.38
600.909	278.38
601.118	273.38
601.327	287.38
601.536	267.38
601.745	287.38
601.953	273.38
602.162	280.38
602.371	262.38
602.58	278.38
602.789	268.38
602.997	268.38
603.206	251.38
603.415	252.38
603.623	274.38
603.832	290.38
604.041	262.38
604.249	253.38
604.458	256.38
604.666	263.38
604.875	272.38
605.084	256.38
605.292	271.38
605.501	254.38
605.709	248.38
605.918	240.38
606.126	250.38
606.334	249.38
606.543	258.38
606.751	266.38
606.96	274.38
607.168	250.38
607.376	246.38
607.585	264.38
607.793	247.38
608.001	251.38
608.21	256.38
608.418	264.38
608.626	266.38
608.834	254.38
609.043	246.38
609.251	251.38
609.459	235.38
609.667	268.38
609.875	257.38
610.083	262.38
610.291	244.38
610.499	248.38
610.707	256.38
610.916	254.38
611.124	250.38
611.332	251.38
611.54	249.38
611.748	252.38
611.955	253.38
612.163	272.38
612.371	246.38
612.579	238.38
612.787	264.38
612.995	243.38
613.203	246.38
613.411	240.38
613.618	258.38
613.826	273.38
614.034	254.38
614.242	242.38
614.449	260.38
614.657	264.38
614.865	249.38
615.072	241.38
615.28	248.38
615.488	271.38
615.695	245.38
615.903	242.38
616.111	252.38
616.318	266.38
616.526	240.38
616.733	252.38
616.941	237.38
617.148	243.38
617.356	256.38
617.563	241.38
617.771	239.38
617.978	222.38
618.185	251.38
618.393	230.38
618.6	237.38
618.807	236.38
619.015	260.38
619.222	248.38
619.429	241.38
619.637	248.38
619.844	244.38
620.051	237.38
620.258	230.38
620.466	230.38
620.673	233.38
620.88	244.38
621.087	237.38
621.294	236.38
621.501	229.38
621.708	231.38
621.915	244.38
622.122	244.38
622.329	237.38
622.536	247.38
622.743	222.38
622.95	240.38
623.157	238.38
623.364	246.38
623.571	222.38
623.778	233.38
623.985	211.38
624.192	222.38
624.399	232.38
624.606	224.38
624.812	229.38
625.019	219.38
625.226	228.38
625.433	238.38
625.639	206.38
625.846	223.38
626.053	227.38
626.259	214.38
626.466	211.38
626.673	212.38
626.879	199.38
627.086	225.38
627.293	225.38
627.499	234.38
627.706	215.38
627.912	213.38
628.119	216.38
628.325	207.38
628.532	223.38
628.738	209.38
628.945	222.38
629.151	219.38
629.357	201.38
629.564	213.38
629.77	208.38
629.976	217.38
630.183	201.38
630.389	198.38
630.595	203.38
630.802	206.38
631.008	230.38
631.214	185.38
631.42	206.38
631.627	208.38
631.833	198.38
632.039	204.38
632.245	202.38
632.451	221.38
632.657	207.38
632.863	209.38
633.069	201.38
633.275	207.38
633.481	185.38
633.688	189.38
633.893	208.38
634.099	197.38
634.305	201.38
634.511	202.38
634.717	198.38
634.923	202.38
635.129	200.38
635.335	199.38
635.541	176.38
635.747	190.38
635.952	188.38
636.158	180.38
636.364	197.38
636.57	204.38
636.775	190.38
636.981	194.38
637.187	187.38
637.392	181.38
637.598	203.38
637.804	201.38
638.009	206.38
638.215	198.38
638.421	181.38
638.626	189.38
638.832	181.38
639.037	180.38
639.243	193.38
639.448	180.38
639.654	186.38
639.859	178.38
640.065	190.38
640.27	187.38
640.475	192.38
640.681	185.38
640.886	197.38
641.091	179.38
641.297	191.38
641.502	191.38
641.707	176.38
641.913	180.38
642.118	188.38
642.323	180.38
642.528	180.38
642.733	178.38
642.939	182.38
643.144	173.38
643.349	188.38
643.554	183.38
643.759	190.38
643.964	178.38
644.169	170.38
644.374	166.38
644.579	183.38
644.784	165.38
644.989	176.38
645.194	178.38
645.399	176.38
645.604	177.38
645.809	160.38
646.014	176.38
646.219	197.38
646.423	173.38
646.628	187.38
646.833	180.38
647.038	162.38
647.243	172.38
647.447	178.38
647.652	183.38
647.857	169.38
648.062	190.38
648.266	162.38
648.471	189.38
648.676	184.38
648.88	180.38
649.085	182.38
649.289	198.38
649.494	177.38
649.698	200.38
649.903	189.38
650.107	180.38
650.312	181.38
650.516	181.38
650.721	184.38
650.925	166.38
651.13	181.38
651.334	168.38
651.539	159.38
651.743	163.38
651.947	145.38
652.152	159.38
652.356	164.38
652.56	156.38
652.764	161.38
652.969	154.38
653.173	169.38
653.377	156.38
653.581	165.38
653.785	149.38
653.99	150.38
654.194	150.38
654.398	152.38
654.602	150.38
654.806	139.38
655.01	158.38
655.214	157.38
655.418	146.38
655.622	150.38
655.826	158.38
656.03	151.38
656.234	146.38
656.438	164.38
656.642	150.38
656.846	156.38
657.049	145.38
657.253	144.38
657.457	151.38
657.661	121.38
657.865	126.38
658.068	124.38
658.272	132.38
658.476	121.38
658.68	128.38
658.883	113.38
659.087	104.38
659.291	121.38
659.494	97.38
659.698	107.38
659.901	97.38
660.105	101.38
660.309	109.38
660.512	105.38
660.716	94.38
660.919	90.38
661.123	93.38
661.326	76.38
661.53	96.38
661.733	104.38
661.936	102.38
662.14	103.38
662.343	86.38
662.546	95.38
662.75	80.38
662.953	86.38
663.156	88.38
663.36	82.38
663.563	81.38
663.766	88.38
663.969	83.38
664.173	84.38
664.376	85.38
664.579	76.38
664.782	95.38
664.985	89.38
665.188	78.38
665.391	81.38
665.594	87.38
665.797	80.38
666	88.38
666.203	85.38
666.406	97.38
666.609	90.38
666.812	84.38
667.015	82.38
667.218	82.38
667.421	96.38
667.624	102.38
667.827	96.38
668.03	86.38
668.232	71.38
668.435	90.38
668.638	88.38
668.841	81.38
669.043	91.38
669.246	88.38
669.449	90.38
669.651	93.38
669.854	81.38
670.057	84.38
670.259	90.38
670.462	81.38
670.665	82.38
670.867	84.38
671.07	95.38
671.272	89.38
671.475	95.38
671.677	84.38
671.88	83.38
672.082	80.38
672.284	80.38
672.487	91.38
672.689	72.38
672.892	69.38
