Data from 1966.PennyLincolnUp.Lamp.En5.5.200Scan.071719.P1.Scan2.head_HRD10591_14-18-22-183.txt Node
Date: Thu Jul 18 14:18:22 EDT 2019
User: cochatt
Spectrometer: HR+D1059
Trigger mode: 1
Integration Time (sec): 1.000000E-1
Scans to average: 1
Electric dark correction enabled: true
Nonlinearity correction enabled: false
Boxcar width: 0
XAxis mode: Wavelengths
Number of Pixels in Spectrum: 2048
>>>>>Begin Spectral Data<<<<<
223.165	-16.62
223.4	-16.62
223.635	-16.62
223.869	-5.62
224.104	-12.62
224.338	-29.62
224.573	-9.62
224.808	-25.62
225.042	-0.62
225.277	9.38
225.511	-9.62
225.746	-5.62
225.98	8.38
226.215	11.38
226.449	9.38
226.683	22.38
226.918	15.38
227.152	39.38
227.387	37.38
227.621	19.38
227.856	38.38
228.09	38.38
228.324	46.38
228.559	59.38
228.793	70.38
229.027	90.38
229.262	88.38
229.496	96.38
229.73	122.38
229.964	166.38
230.199	126.38
230.433	127.38
230.667	102.38
230.901	109.38
231.136	103.38
231.37	131.38
231.604	114.38
231.838	122.38
232.072	110.38
232.306	109.38
232.541	119.38
232.775	105.38
233.009	112.38
233.243	112.38
233.477	105.38
233.711	105.38
233.945	105.38
234.179	103.38
234.413	112.38
234.647	106.38
234.881	104.38
235.115	113.38
235.349	119.38
235.583	129.38
235.817	126.38
236.051	105.38
236.285	101.38
236.519	114.38
236.753	120.38
236.987	138.38
237.221	183.38
237.455	241.38
237.689	190.38
237.922	131.38
238.156	123.38
238.39	122.38
238.624	120.38
238.858	125.38
239.091	144.38
239.325	111.38
239.559	116.38
239.793	131.38
240.027	149.38
240.26	151.38
240.494	152.38
240.728	146.38
240.961	163.38
241.195	147.38
241.429	133.38
241.662	133.38
241.896	135.38
242.13	138.38
242.363	133.38
242.597	143.38
242.83	151.38
243.064	145.38
243.298	139.38
243.531	142.38
243.765	128.38
243.998	147.38
244.232	141.38
244.465	151.38
244.699	139.38
244.932	137.38
245.166	158.38
245.399	147.38
245.633	149.38
245.866	137.38
246.099	159.38
246.333	146.38
246.566	137.38
246.8	151.38
247.033	153.38
247.266	161.38
247.5	163.38
247.733	173.38
247.966	163.38
248.2	172.38
248.433	177.38
248.666	169.38
248.899	193.38
249.133	201.38
249.366	207.38
249.599	195.38
249.832	156.38
250.066	191.38
250.299	191.38
250.532	193.38
250.765	200.38
250.998	238.38
251.231	216.38
251.465	216.38
251.698	213.38
251.931	192.38
252.164	185.38
252.397	201.38
252.63	194.38
252.863	201.38
253.096	219.38
253.329	213.38
253.562	216.38
253.795	225.38
254.028	226.38
254.261	213.38
254.494	213.38
254.727	237.38
254.96	270.38
255.193	264.38
255.426	253.38
255.659	236.38
255.892	225.38
256.124	213.38
256.357	218.38
256.59	225.38
256.823	223.38
257.056	220.38
257.289	218.38
257.521	215.38
257.754	201.38
257.987	206.38
258.22	207.38
258.452	197.38
258.685	208.38
258.918	213.38
259.151	219.38
259.383	227.38
259.616	196.38
259.849	226.38
260.081	241.38
260.314	261.38
260.547	247.38
260.779	242.38
261.012	232.38
261.244	227.38
261.477	219.38
261.71	223.38
261.942	210.38
262.175	241.38
262.407	226.38
262.64	218.38
262.872	210.38
263.105	210.38
263.337	212.38
263.57	216.38
263.802	203.38
264.035	207.38
264.267	209.38
264.499	206.38
264.732	215.38
264.964	209.38
265.197	202.38
265.429	222.38
265.661	213.38
265.894	229.38
266.126	226.38
266.358	195.38
266.591	226.38
266.823	229.38
267.055	227.38
267.287	247.38
267.52	224.38
267.752	225.38
267.984	218.38
268.216	226.38
268.448	254.38
268.681	240.38
268.913	249.38
269.145	258.38
269.377	294.38
269.609	287.38
269.841	277.38
270.073	266.38
270.306	295.38
270.538	314.38
270.77	307.38
271.002	314.38
271.234	289.38
271.466	285.38
271.698	318.38
271.93	323.38
272.162	313.38
272.394	312.38
272.626	310.38
272.858	287.38
273.09	274.38
273.322	269.38
273.553	267.38
273.785	232.38
274.017	241.38
274.249	259.38
274.481	256.38
274.713	265.38
274.945	277.38
275.176	268.38
275.408	262.38
275.64	271.38
275.872	266.38
276.104	270.38
276.335	247.38
276.567	254.38
276.799	278.38
277.031	318.38
277.262	321.38
277.494	313.38
277.726	299.38
277.957	283.38
278.189	298.38
278.421	275.38
278.652	276.38
278.884	267.38
279.115	270.38
279.347	271.38
279.579	259.38
279.81	265.38
280.042	255.38
280.273	272.38
280.505	278.38
280.736	265.38
280.968	258.38
281.199	257.38
281.431	278.38
281.662	267.38
281.894	282.38
282.125	288.38
282.356	283.38
282.588	301.38
282.819	311.38
283.051	295.38
283.282	263.38
283.513	265.38
283.745	278.38
283.976	280.38
284.207	305.38
284.439	279.38
284.67	277.38
284.901	273.38
285.132	261.38
285.364	274.38
285.595	263.38
285.826	268.38
286.057	274.38
286.288	282.38
286.52	299.38
286.751	284.38
286.982	285.38
287.213	285.38
287.444	281.38
287.675	279.38
287.906	295.38
288.138	307.38
288.369	305.38
288.6	317.38
288.831	301.38
289.062	303.38
289.293	295.38
289.524	286.38
289.755	293.38
289.986	283.38
290.217	284.38
290.448	282.38
290.679	288.38
290.91	295.38
291.141	286.38
291.371	302.38
291.602	291.38
291.833	282.38
292.064	288.38
292.295	285.38
292.526	293.38
292.757	283.38
292.987	296.38
293.218	290.38
293.449	297.38
293.68	291.38
293.91	292.38
294.141	297.38
294.372	287.38
294.603	323.38
294.833	311.38
295.064	309.38
295.295	296.38
295.525	301.38
295.756	307.38
295.987	330.38
296.217	314.38
296.448	334.38
296.679	317.38
296.909	299.38
297.14	282.38
297.37	295.38
297.601	290.38
297.831	307.38
298.062	294.38
298.292	303.38
298.523	293.38
298.753	313.38
298.984	311.38
299.214	311.38
299.445	310.38
299.675	305.38
299.905	327.38
300.136	319.38
300.366	314.38
300.597	325.38
300.827	314.38
301.057	313.38
301.288	329.38
301.518	346.38
301.748	325.38
301.979	329.38
302.209	339.38
302.439	338.38
302.669	319.38
302.9	319.38
303.13	329.38
303.36	338.38
303.59	325.38
303.82	333.38
304.051	337.38
304.281	329.38
304.511	335.38
304.741	329.38
304.971	345.38
305.201	329.38
305.431	325.38
305.661	329.38
305.891	337.38
306.121	332.38
306.352	342.38
306.582	350.38
306.812	335.38
307.042	331.38
307.272	331.38
307.502	340.38
307.731	332.38
307.961	340.38
308.191	335.38
308.421	343.38
308.651	335.38
308.881	346.38
309.111	333.38
309.341	343.38
309.571	345.38
309.8	351.38
310.03	389.38
310.26	374.38
310.49	365.38
310.72	386.38
310.949	390.38
311.179	387.38
311.409	374.38
311.639	367.38
311.868	389.38
312.098	396.38
312.328	397.38
312.557	405.38
312.787	402.38
313.017	409.38
313.246	383.38
313.476	365.38
313.706	369.38
313.935	401.38
314.165	395.38
314.394	398.38
314.624	399.38
314.853	394.38
315.083	387.38
315.312	387.38
315.542	377.38
315.771	383.38
316.001	375.38
316.23	389.38
316.46	362.38
316.689	383.38
316.919	371.38
317.148	376.38
317.377	394.38
317.607	379.38
317.836	363.38
318.065	384.38
318.295	373.38
318.524	370.38
318.753	404.38
318.983	399.38
319.212	403.38
319.441	388.38
319.67	407.38
319.9	412.38
320.129	383.38
320.358	389.38
320.587	395.38
320.816	395.38
321.046	404.38
321.275	413.38
321.504	394.38
321.733	409.38
321.962	399.38
322.191	433.38
322.42	430.38
322.649	439.38
322.878	444.38
323.108	465.38
323.337	493.38
323.566	517.38
323.795	510.38
324.024	573.38
324.253	668.38
324.482	943.38
324.71	1492.38
324.939	2237.38
325.168	1916.38
325.397	967.38
325.626	647.38
325.855	541.38
326.084	501.38
326.313	496.38
326.542	497.38
326.77	560.38
326.999	630.38
327.228	850.38
327.457	1353.38
327.686	1686.38
327.914	1056.38
328.143	707.38
328.372	633.38
328.6	590.38
328.829	566.38
329.058	594.38
329.287	581.38
329.515	545.38
329.744	519.38
329.972	521.38
330.201	529.38
330.43	587.38
330.658	586.38
330.887	602.38
331.115	595.38
331.344	520.38
331.572	508.38
331.801	499.38
332.03	481.38
332.258	479.38
332.486	472.38
332.715	458.38
332.943	465.38
333.172	454.38
333.4	454.38
333.629	485.38
333.857	477.38
334.085	487.38
334.314	530.38
334.542	552.38
334.771	567.38
334.999	526.38
335.227	503.38
335.455	488.38
335.684	472.38
335.912	481.38
336.14	465.38
336.369	458.38
336.597	491.38
336.825	454.38
337.053	462.38
337.281	448.38
337.51	440.38
337.738	454.38
337.966	434.38
338.194	463.38
338.422	461.38
338.65	439.38
338.878	449.38
339.106	442.38
339.334	446.38
339.562	451.38
339.79	451.38
340.018	448.38
340.246	438.38
340.474	437.38
340.702	443.38
340.93	443.38
341.158	421.38
341.386	457.38
341.614	449.38
341.842	447.38
342.07	442.38
342.298	440.38
342.526	442.38
342.754	426.38
342.981	424.38
343.209	391.38
343.437	447.38
343.665	439.38
343.893	474.38
344.12	446.38
344.348	433.38
344.576	454.38
344.804	468.38
345.031	460.38
345.259	472.38
345.487	426.38
345.714	456.38
345.942	443.38
346.17	435.38
346.397	420.38
346.625	416.38
346.853	433.38
347.08	431.38
347.308	423.38
347.535	435.38
347.763	442.38
347.99	450.38
348.218	437.38
348.445	431.38
348.673	439.38
348.9	432.38
349.128	423.38
349.355	410.38
349.583	439.38
349.81	425.38
350.037	407.38
350.265	418.38
350.492	421.38
350.72	441.38
350.947	439.38
351.174	431.38
351.402	456.38
351.629	438.38
351.856	444.38
352.083	463.38
352.311	457.38
352.538	433.38
352.765	460.38
352.992	445.38
353.22	453.38
353.447	439.38
353.674	437.38
353.901	418.38
354.128	401.38
354.355	411.38
354.583	429.38
354.81	409.38
355.037	401.38
355.264	409.38
355.491	394.38
355.718	408.38
355.945	416.38
356.172	393.38
356.399	396.38
356.626	422.38
356.853	407.38
357.08	405.38
357.307	401.38
357.534	408.38
357.761	409.38
357.988	403.38
358.215	382.38
358.441	406.38
358.668	409.38
358.895	408.38
359.122	416.38
359.349	424.38
359.576	434.38
359.802	441.38
360.029	474.38
360.256	499.38
360.483	501.38
360.709	442.38
360.936	439.38
361.163	447.38
361.39	448.38
361.616	438.38
361.843	426.38
362.07	417.38
362.296	445.38
362.523	433.38
362.749	450.38
362.976	413.38
363.203	417.38
363.429	423.38
363.656	430.38
363.882	425.38
364.109	439.38
364.335	410.38
364.562	433.38
364.788	417.38
365.015	426.38
365.241	418.38
365.468	432.38
365.694	434.38
365.92	438.38
366.147	433.38
366.373	435.38
366.599	400.38
366.826	411.38
367.052	428.38
367.278	434.38
367.505	411.38
367.731	405.38
367.957	445.38
368.184	446.38
368.41	453.38
368.636	439.38
368.862	447.38
369.089	442.38
369.315	449.38
369.541	439.38
369.767	429.38
369.993	420.38
370.219	444.38
370.445	445.38
370.672	432.38
370.898	426.38
371.124	408.38
371.35	418.38
371.576	423.38
371.802	448.38
372.028	426.38
372.254	430.38
372.48	411.38
372.706	433.38
372.932	431.38
373.158	441.38
373.384	446.38
373.61	426.38
373.835	416.38
374.061	433.38
374.287	463.38
374.513	446.38
374.739	442.38
374.965	423.38
375.191	430.38
375.416	422.38
375.642	435.38
375.868	457.38
376.094	441.38
376.319	407.38
376.545	436.38
376.771	426.38
376.997	424.38
377.222	420.38
377.448	438.38
377.674	433.38
377.899	422.38
378.125	408.38
378.35	405.38
378.576	423.38
378.802	421.38
379.027	426.38
379.253	423.38
379.478	444.38
379.704	437.38
379.929	429.38
380.155	422.38
380.38	419.38
380.606	414.38
380.831	458.38
381.057	466.38
381.282	422.38
381.507	421.38
381.733	457.38
381.958	427.38
382.184	424.38
382.409	448.38
382.634	443.38
382.86	434.38
383.085	454.38
383.31	450.38
383.535	463.38
383.761	463.38
383.986	454.38
384.211	458.38
384.436	467.38
384.662	458.38
384.887	469.38
385.112	457.38
385.337	449.38
385.562	487.38
385.787	457.38
386.013	481.38
386.238	484.38
386.463	492.38
386.688	480.38
386.913	462.38
387.138	473.38
387.363	486.38
387.588	489.38
387.813	515.38
388.038	495.38
388.263	477.38
388.488	492.38
388.713	490.38
388.938	489.38
389.163	495.38
389.387	500.38
389.612	470.38
389.837	496.38
390.062	463.38
390.287	490.38
390.512	464.38
390.736	488.38
390.961	464.38
391.186	493.38
391.411	486.38
391.636	505.38
391.86	486.38
392.085	515.38
392.31	496.38
392.534	481.38
392.759	499.38
392.984	491.38
393.208	509.38
393.433	488.38
393.658	485.38
393.882	481.38
394.107	495.38
394.331	504.38
394.556	486.38
394.78	494.38
395.005	517.38
395.229	485.38
395.454	491.38
395.678	508.38
395.903	505.38
396.127	546.38
396.352	527.38
396.576	527.38
396.801	528.38
397.025	517.38
397.249	497.38
397.474	541.38
397.698	505.38
397.922	518.38
398.147	552.38
398.371	560.38
398.595	561.38
398.82	553.38
399.044	586.38
399.268	585.38
399.492	621.38
399.717	664.38
399.941	679.38
400.165	711.38
400.389	715.38
400.613	651.38
400.837	601.38
401.062	595.38
401.286	563.38
401.51	569.38
401.734	580.38
401.958	575.38
402.182	549.38
402.406	591.38
402.63	575.38
402.854	578.38
403.078	568.38
403.302	562.38
403.526	581.38
403.75	595.38
403.974	582.38
404.198	562.38
404.422	596.38
404.645	601.38
404.869	621.38
405.093	648.38
405.317	680.38
405.541	715.38
405.765	642.38
405.988	626.38
406.212	613.38
406.436	647.38
406.66	635.38
406.883	644.38
407.107	647.38
407.331	668.38
407.555	778.38
407.778	785.38
408.002	712.38
408.226	675.38
408.449	645.38
408.673	660.38
408.896	665.38
409.12	729.38
409.344	704.38
409.567	606.38
409.791	598.38
410.014	596.38
410.238	587.38
410.461	584.38
410.685	592.38
410.908	612.38
411.132	633.38
411.355	689.38
411.578	642.38
411.802	612.38
412.025	590.38
412.249	611.38
412.472	625.38
412.695	653.38
412.919	633.38
413.142	591.38
413.365	599.38
413.589	604.38
413.812	563.38
414.035	555.38
414.258	552.38
414.482	566.38
414.705	549.38
414.928	547.38
415.151	560.38
415.374	562.38
415.597	553.38
415.821	548.38
416.044	552.38
416.267	553.38
416.49	549.38
416.713	564.38
416.936	542.38
417.159	535.38
417.382	566.38
417.605	571.38
417.828	556.38
418.051	578.38
418.274	562.38
418.497	569.38
418.72	563.38
418.943	534.38
419.166	595.38
419.389	609.38
419.611	570.38
419.834	591.38
420.057	587.38
420.28	587.38
420.503	592.38
420.726	597.38
420.948	609.38
421.171	654.38
421.394	669.38
421.617	624.38
421.839	579.38
422.062	602.38
422.285	587.38
422.507	637.38
422.73	737.38
422.953	706.38
423.175	634.38
423.398	607.38
423.621	626.38
423.843	633.38
424.066	617.38
424.288	615.38
424.511	643.38
424.733	731.38
424.956	770.38
425.178	774.38
425.401	763.38
425.623	784.38
425.846	669.38
426.068	629.38
426.291	615.38
426.513	608.38
426.735	626.38
426.958	681.38
427.18	783.38
427.402	917.38
427.625	999.38
427.847	840.38
428.069	767.38
428.292	685.38
428.514	611.38
428.736	599.38
428.958	587.38
429.181	571.38
429.403	585.38
429.625	598.38
429.847	618.38
430.069	680.38
430.292	695.38
430.514	592.38
430.736	579.38
430.958	561.38
431.18	549.38
431.402	544.38
431.624	548.38
431.846	537.38
432.068	537.38
432.29	552.38
432.512	551.38
432.734	553.38
432.956	559.38
433.178	575.38
433.4	574.38
433.622	581.38
433.844	563.38
434.066	520.38
434.287	517.38
434.509	553.38
434.731	577.38
434.953	546.38
435.175	599.38
435.397	609.38
435.618	621.38
435.84	678.38
436.062	784.38
436.284	845.38
436.505	733.38
436.727	627.38
436.949	602.38
437.17	597.38
437.392	577.38
437.614	593.38
437.835	648.38
438.057	724.38
438.278	833.38
438.5	839.38
438.721	903.38
438.943	885.38
439.165	710.38
439.386	657.38
439.608	641.38
439.829	607.38
440.05	667.38
440.272	698.38
440.493	665.38
440.715	606.38
440.936	604.38
441.158	574.38
441.379	589.38
441.6	607.38
441.822	604.38
442.043	685.38
442.264	773.38
442.486	831.38
442.707	688.38
442.928	621.38
443.149	617.38
443.371	677.38
443.592	722.38
443.813	826.38
444.034	926.38
444.255	750.38
444.476	657.38
444.698	643.38
444.919	639.38
445.14	738.38
445.361	707.38
445.582	690.38
445.803	734.38
446.024	869.38
446.245	877.38
446.466	788.38
446.687	677.38
446.908	614.38
447.129	575.38
447.35	567.38
447.571	569.38
447.792	576.38
448.013	579.38
448.234	599.38
448.455	658.38
448.675	779.38
448.896	856.38
449.117	750.38
449.338	710.38
449.559	834.38
449.779	930.38
450	765.38
450.221	648.38
450.442	565.38
450.662	557.38
450.883	584.38
451.104	566.38
451.324	561.38
451.545	567.38
451.766	535.38
451.986	517.38
452.207	543.38
452.428	515.38
452.648	497.38
452.869	515.38
453.089	525.38
453.31	549.38
453.53	521.38
453.751	532.38
453.971	523.38
454.192	534.38
454.412	542.38
454.633	530.38
454.853	498.38
455.073	495.38
455.294	549.38
455.514	633.38
455.734	617.38
455.955	512.38
456.175	484.38
456.395	487.38
456.616	480.38
456.836	493.38
457.056	490.38
457.276	485.38
457.497	481.38
457.717	506.38
457.937	496.38
458.157	494.38
458.377	518.38
458.598	543.38
458.818	596.38
459.038	681.38
459.258	689.38
459.478	593.38
459.698	553.38
459.918	544.38
460.138	547.38
460.358	565.38
460.578	568.38
460.798	594.38
461.018	581.38
461.238	589.38
461.458	570.38
461.678	557.38
461.898	577.38
462.118	577.38
462.338	593.38
462.558	576.38
462.777	584.38
462.997	618.38
463.217	630.38
463.437	625.38
463.657	607.38
463.876	621.38
464.096	592.38
464.316	589.38
464.536	600.38
464.755	600.38
464.975	588.38
465.195	634.38
465.414	723.38
465.634	637.38
465.854	565.38
466.073	582.38
466.293	546.38
466.512	559.38
466.732	531.38
466.951	532.38
467.171	530.38
467.391	547.38
467.61	551.38
467.829	542.38
468.049	549.38
468.268	543.38
468.488	527.38
468.707	538.38
468.927	514.38
469.146	493.38
469.365	528.38
469.585	506.38
469.804	522.38
470.023	537.38
470.243	545.38
470.462	534.38
470.681	563.38
470.901	551.38
471.12	553.38
471.339	545.38
471.558	545.38
471.777	569.38
471.997	552.38
472.216	533.38
472.435	587.38
472.654	574.38
472.873	532.38
473.092	539.38
473.311	526.38
473.53	511.38
473.749	567.38
473.968	590.38
474.187	693.38
474.406	722.38
474.625	593.38
474.844	578.38
475.063	543.38
475.282	532.38
475.501	554.38
475.72	557.38
475.939	549.38
476.158	552.38
476.377	547.38
476.596	550.38
476.814	563.38
477.033	565.38
477.252	574.38
477.471	571.38
477.69	602.38
477.908	577.38
478.127	579.38
478.346	591.38
478.564	607.38
478.783	613.38
479.002	640.38
479.22	611.38
479.439	626.38
479.658	652.38
479.876	672.38
480.095	652.38
480.313	677.38
480.532	686.38
480.751	647.38
480.969	690.38
481.188	727.38
481.406	794.38
481.624	721.38
481.843	668.38
482.061	661.38
482.28	658.38
482.498	624.38
482.717	662.38
482.935	659.38
483.153	641.38
483.372	636.38
483.59	622.38
483.808	647.38
484.027	647.38
484.245	633.38
484.463	626.38
484.681	647.38
484.9	655.38
485.118	654.38
485.336	647.38
485.554	662.38
485.772	664.38
485.99	643.38
486.209	667.38
486.427	655.38
486.645	673.38
486.863	721.38
487.081	690.38
487.299	669.38
487.517	695.38
487.735	676.38
487.953	675.38
488.171	681.38
488.389	693.38
488.607	700.38
488.825	702.38
489.043	692.38
489.261	679.38
489.479	697.38
489.696	701.38
489.914	702.38
490.132	711.38
490.35	692.38
490.568	711.38
490.786	729.38
491.003	730.38
491.221	757.38
491.439	750.38
491.657	752.38
491.874	785.38
492.092	791.38
492.31	794.38
492.527	799.38
492.745	807.38
492.963	775.38
493.18	795.38
493.398	790.38
493.615	829.38
493.833	835.38
494.05	801.38
494.268	823.38
494.485	813.38
494.703	785.38
494.92	798.38
495.138	822.38
495.355	801.38
495.573	831.38
495.79	833.38
496.008	840.38
496.225	813.38
496.442	816.38
496.66	819.38
496.877	820.38
497.094	835.38
497.312	816.38
497.529	835.38
497.746	854.38
497.963	857.38
498.181	895.38
498.398	899.38
498.615	899.38
498.832	936.38
499.049	953.38
499.267	969.38
499.484	1011.38
499.701	1040.38
499.918	1081.38
500.135	1120.38
500.352	1175.38
500.569	1175.38
500.786	1210.38
501.003	1172.38
501.22	1119.38
501.437	1106.38
501.654	1075.38
501.871	1053.38
502.088	1013.38
502.305	965.38
502.522	920.38
502.739	905.38
502.956	935.38
503.172	903.38
503.389	867.38
503.606	884.38
503.823	873.38
504.04	849.38
504.256	854.38
504.473	818.38
504.69	816.38
504.907	817.38
505.123	806.38
505.34	781.38
505.557	822.38
505.773	790.38
505.99	787.38
506.207	794.38
506.423	777.38
506.64	757.38
506.856	753.38
507.073	749.38
507.289	718.38
507.506	749.38
507.722	761.38
507.939	787.38
508.155	752.38
508.372	728.38
508.588	733.38
508.805	727.38
509.021	706.38
509.238	758.38
509.454	742.38
509.67	734.38
509.887	749.38
510.103	730.38
510.319	739.38
510.536	822.38
510.752	1274.38
510.968	1039.38
511.184	733.38
511.401	711.38
511.617	711.38
511.833	684.38
512.049	687.38
512.265	702.38
512.481	689.38
512.698	680.38
512.914	708.38
513.13	681.38
513.346	657.38
513.562	678.38
513.778	674.38
513.994	692.38
514.21	701.38
514.426	722.38
514.642	755.38
514.858	744.38
515.074	824.38
515.29	910.38
515.506	1312.38
515.721	1104.38
515.937	810.38
516.153	744.38
516.369	720.38
516.585	709.38
516.801	725.38
517.016	707.38
517.232	709.38
517.448	741.38
517.664	734.38
517.879	724.38
518.095	714.38
518.311	702.38
518.527	706.38
518.742	719.38
518.958	701.38
519.173	698.38
519.389	706.38
519.605	701.38
519.82	699.38
520.036	694.38
520.251	735.38
520.467	735.38
520.682	770.38
520.898	737.38
521.113	754.38
521.329	816.38
521.544	841.38
521.76	1065.38
521.975	1668.38
522.19	1631.38
522.406	941.38
522.621	767.38
522.836	718.38
523.052	690.38
523.267	675.38
523.482	627.38
523.698	622.38
523.913	643.38
524.128	649.38
524.343	610.38
524.559	601.38
524.774	611.38
524.989	583.38
525.204	597.38
525.419	608.38
525.634	585.38
525.849	567.38
526.064	595.38
526.28	569.38
526.495	571.38
526.71	606.38
526.925	569.38
527.14	576.38
527.355	571.38
527.57	576.38
527.785	563.38
527.999	562.38
528.214	545.38
528.429	570.38
528.644	567.38
528.859	567.38
529.074	605.38
529.289	583.38
529.503	647.38
529.718	648.38
529.933	614.38
530.148	590.38
530.363	579.38
530.577	558.38
530.792	561.38
531.007	557.38
531.221	562.38
531.436	558.38
531.651	559.38
531.865	527.38
532.08	552.38
532.295	557.38
532.509	543.38
532.724	555.38
532.938	554.38
533.153	537.38
533.367	549.38
533.582	561.38
533.796	567.38
534.011	557.38
534.225	558.38
534.44	537.38
534.654	537.38
534.868	510.38
535.083	544.38
535.297	539.38
535.511	544.38
535.726	544.38
535.94	556.38
536.154	537.38
536.369	537.38
536.583	550.38
536.797	522.38
537.011	522.38
537.225	522.38
537.44	511.38
537.654	507.38
537.868	525.38
538.082	521.38
538.296	514.38
538.51	509.38
538.724	540.38
538.938	526.38
539.153	529.38
539.367	533.38
539.581	555.38
539.795	517.38
540.009	525.38
540.222	499.38
540.436	510.38
540.65	506.38
540.864	518.38
541.078	514.38
541.292	527.38
541.506	531.38
541.72	520.38
541.934	519.38
542.147	525.38
542.361	517.38
542.575	498.38
542.789	507.38
543.002	515.38
543.216	525.38
543.43	511.38
543.644	509.38
543.857	495.38
544.071	511.38
544.285	529.38
544.498	521.38
544.712	499.38
544.925	522.38
545.139	511.38
545.352	514.38
545.566	490.38
545.779	504.38
545.993	505.38
546.206	514.38
546.42	523.38
546.633	506.38
546.847	515.38
547.06	511.38
547.274	509.38
547.487	513.38
547.7	475.38
547.914	493.38
548.127	491.38
548.34	484.38
548.554	502.38
548.767	530.38
548.98	498.38
549.193	498.38
549.407	495.38
549.62	498.38
549.833	512.38
550.046	499.38
550.259	505.38
550.473	472.38
550.686	471.38
550.899	487.38
551.112	476.38
551.325	518.38
551.538	481.38
551.751	494.38
551.964	491.38
552.177	495.38
552.39	481.38
552.603	489.38
552.816	515.38
553.029	511.38
553.242	496.38
553.455	498.38
553.667	510.38
553.88	483.38
554.093	505.38
554.306	479.38
554.519	497.38
554.732	499.38
554.944	461.38
555.157	477.38
555.37	458.38
555.583	485.38
555.795	463.38
556.008	456.38
556.221	468.38
556.433	443.38
556.646	441.38
556.859	448.38
557.071	457.38
557.284	437.38
557.496	450.38
557.709	470.38
557.921	432.38
558.134	437.38
558.346	443.38
558.559	443.38
558.771	450.38
558.984	433.38
559.196	463.38
559.409	454.38
559.621	441.38
559.833	427.38
560.046	441.38
560.258	439.38
560.47	439.38
560.683	440.38
560.895	426.38
561.107	441.38
561.32	433.38
561.532	439.38
561.744	465.38
561.956	437.38
562.168	440.38
562.381	424.38
562.593	438.38
562.805	441.38
563.017	437.38
563.229	423.38
563.441	444.38
563.653	459.38
563.865	454.38
564.077	455.38
564.289	467.38
564.501	450.38
564.713	468.38
564.925	455.38
565.137	481.38
565.349	465.38
565.561	479.38
565.773	455.38
565.985	496.38
566.197	507.38
566.408	508.38
566.62	550.38
566.832	536.38
567.044	545.38
567.255	559.38
567.467	551.38
567.679	558.38
567.891	569.38
568.102	604.38
568.314	567.38
568.526	567.38
568.737	536.38
568.949	490.38
569.161	510.38
569.372	478.38
569.584	478.38
569.795	465.38
570.007	446.38
570.218	503.38
570.43	470.38
570.641	452.38
570.853	441.38
571.064	425.38
571.276	436.38
571.487	433.38
571.698	434.38
571.91	421.38
572.121	409.38
572.333	397.38
572.544	401.38
572.755	392.38
572.966	400.38
573.178	393.38
573.389	396.38
573.6	378.38
573.811	396.38
574.023	373.38
574.234	389.38
574.445	400.38
574.656	358.38
574.867	397.38
575.078	389.38
575.289	381.38
575.501	379.38
575.712	365.38
575.923	370.38
576.134	367.38
576.345	370.38
576.556	380.38
576.767	377.38
576.978	375.38
577.188	371.38
577.399	362.38
577.61	367.38
577.821	357.38
578.032	370.38
578.243	407.38
578.454	594.38
578.665	466.38
578.875	383.38
579.086	368.38
579.297	368.38
579.508	336.38
579.718	359.38
579.929	365.38
580.14	344.38
580.35	351.38
580.561	333.38
580.772	339.38
580.982	328.38
581.193	341.38
581.403	361.38
581.614	324.38
581.825	319.38
582.035	335.38
582.246	334.38
582.456	330.38
582.667	331.38
582.877	341.38
583.087	348.38
583.298	320.38
583.508	341.38
583.719	352.38
583.929	339.38
584.139	335.38
584.35	336.38
584.56	341.38
584.77	320.38
584.981	344.38
585.191	358.38
585.401	337.38
585.611	318.38
585.821	350.38
586.032	318.38
586.242	326.38
586.452	313.38
586.662	321.38
586.872	327.38
587.082	314.38
587.292	331.38
587.502	321.38
587.713	325.38
587.923	321.38
588.133	322.38
588.343	344.38
588.553	321.38
588.762	319.38
588.972	354.38
589.182	328.38
589.392	327.38
589.602	329.38
589.812	338.38
590.022	309.38
590.232	320.38
590.441	335.38
590.651	338.38
590.861	330.38
591.071	346.38
591.281	327.38
591.49	335.38
591.7	338.38
591.91	331.38
592.119	332.38
592.329	341.38
592.539	356.38
592.748	349.38
592.958	368.38
593.167	353.38
593.377	351.38
593.587	358.38
593.796	341.38
594.006	371.38
594.215	327.38
594.424	351.38
594.634	352.38
594.843	341.38
595.053	334.38
595.262	334.38
595.472	339.38
595.681	333.38
595.89	321.38
596.1	311.38
596.309	316.38
596.518	340.38
596.727	317.38
596.937	304.38
597.146	310.38
597.355	311.38
597.564	274.38
597.774	308.38
597.983	311.38
598.192	312.38
598.401	290.38
598.61	281.38
598.819	301.38
599.028	290.38
599.237	296.38
599.446	286.38
599.655	281.38
599.864	280.38
600.073	290.38
600.282	276.38
600.491	299.38
600.7	298.38
600.909	284.38
601.118	296.38
601.327	309.38
601.536	275.38
601.745	283.38
601.953	287.38
602.162	312.38
602.371	297.38
602.58	280.38
602.789	278.38
602.997	283.38
603.206	281.38
603.415	282.38
603.623	270.38
603.832	263.38
604.041	286.38
604.249	261.38
604.458	265.38
604.666	271.38
604.875	277.38
605.084	274.38
605.292	284.38
605.501	266.38
605.709	276.38
605.918	273.38
606.126	273.38
606.334	260.38
606.543	272.38
606.751	267.38
606.96	270.38
607.168	261.38
607.376	279.38
607.585	271.38
607.793	281.38
608.001	274.38
608.21	274.38
608.418	263.38
608.626	266.38
608.834	267.38
609.043	274.38
609.251	285.38
609.459	265.38
609.667	267.38
609.875	273.38
610.083	262.38
610.291	258.38
610.499	266.38
610.707	251.38
610.916	282.38
611.124	258.38
611.332	274.38
611.54	282.38
611.748	274.38
611.955	280.38
612.163	273.38
612.371	265.38
612.579	274.38
612.787	251.38
612.995	243.38
613.203	255.38
613.411	264.38
613.618	261.38
613.826	271.38
614.034	268.38
614.242	255.38
614.449	258.38
614.657	267.38
614.865	260.38
615.072	277.38
615.28	251.38
615.488	252.38
615.695	258.38
615.903	252.38
616.111	258.38
616.318	271.38
616.526	251.38
616.733	256.38
616.941	253.38
617.148	261.38
617.356	277.38
617.563	261.38
617.771	262.38
617.978	265.38
618.185	243.38
618.393	233.38
618.6	232.38
618.807	252.38
619.015	253.38
619.222	286.38
619.429	244.38
619.637	269.38
619.844	252.38
620.051	237.38
620.258	231.38
620.466	239.38
620.673	248.38
620.88	261.38
621.087	241.38
621.294	228.38
621.501	244.38
621.708	238.38
621.915	257.38
622.122	245.38
622.329	239.38
622.536	253.38
622.743	245.38
622.95	271.38
623.157	234.38
623.364	233.38
623.571	220.38
623.778	240.38
623.985	232.38
624.192	232.38
624.399	240.38
624.606	247.38
624.812	220.38
625.019	238.38
625.226	236.38
625.433	242.38
625.639	251.38
625.846	229.38
626.053	241.38
626.259	240.38
626.466	219.38
626.673	215.38
626.879	223.38
627.086	220.38
627.293	218.38
627.499	195.38
627.706	226.38
627.912	218.38
628.119	227.38
628.325	219.38
628.532	204.38
628.738	243.38
628.945	218.38
629.151	216.38
629.357	227.38
629.564	214.38
629.77	212.38
629.976	203.38
630.183	203.38
630.389	214.38
630.595	209.38
630.802	217.38
631.008	217.38
631.214	202.38
631.42	213.38
631.627	216.38
631.833	223.38
632.039	201.38
632.245	214.38
632.451	203.38
632.657	195.38
632.863	198.38
633.069	204.38
633.275	222.38
633.481	201.38
633.688	211.38
633.893	202.38
634.099	192.38
634.305	198.38
634.511	193.38
634.717	167.38
634.923	187.38
635.129	190.38
635.335	203.38
635.541	207.38
635.747	213.38
635.952	202.38
636.158	201.38
636.364	191.38
636.57	183.38
636.775	197.38
636.981	187.38
637.187	199.38
637.392	186.38
637.598	186.38
637.804	170.38
638.009	197.38
638.215	200.38
638.421	190.38
638.626	181.38
638.832	183.38
639.037	173.38
639.243	183.38
639.448	201.38
639.654	205.38
639.859	205.38
640.065	180.38
640.27	186.38
640.475	176.38
640.681	194.38
640.886	177.38
641.091	192.38
641.297	177.38
641.502	188.38
641.707	175.38
641.913	176.38
642.118	194.38
642.323	193.38
642.528	187.38
642.733	168.38
642.939	184.38
643.144	177.38
643.349	182.38
643.554	188.38
643.759	174.38
643.964	169.38
644.169	174.38
644.374	173.38
644.579	191.38
644.784	179.38
644.989	191.38
645.194	185.38
645.399	190.38
645.604	164.38
645.809	178.38
646.014	188.38
646.219	176.38
646.423	168.38
646.628	178.38
646.833	177.38
647.038	185.38
647.243	184.38
647.447	183.38
647.652	179.38
647.857	178.38
648.062	190.38
648.266	164.38
648.471	197.38
648.676	167.38
648.88	200.38
649.085	169.38
649.289	167.38
649.494	193.38
649.698	191.38
649.903	185.38
650.107	182.38
650.312	181.38
650.516	172.38
650.721	169.38
650.925	153.38
651.13	160.38
651.334	141.38
651.539	169.38
651.743	157.38
651.947	152.38
652.152	149.38
652.356	146.38
652.56	142.38
652.764	148.38
652.969	156.38
653.173	150.38
653.377	153.38
653.581	130.38
653.785	127.38
653.99	156.38
654.194	149.38
654.398	130.38
654.602	143.38
654.806	150.38
655.01	159.38
655.214	136.38
655.418	139.38
655.622	140.38
655.826	129.38
656.03	130.38
656.234	126.38
656.438	133.38
656.642	148.38
656.846	139.38
657.049	127.38
657.253	133.38
657.457	131.38
657.661	121.38
657.865	103.38
658.068	122.38
658.272	125.38
658.476	111.38
658.68	105.38
658.883	106.38
659.087	96.38
659.291	105.38
659.494	79.38
659.698	95.38
659.901	94.38
660.105	86.38
660.309	83.38
660.512	96.38
660.716	96.38
660.919	84.38
661.123	79.38
661.326	73.38
661.53	90.38
661.733	79.38
661.936	90.38
662.14	82.38
662.343	80.38
662.546	80.38
662.75	72.38
662.953	91.38
663.156	77.38
663.36	89.38
663.563	74.38
663.766	69.38
663.969	81.38
664.173	73.38
664.376	77.38
664.579	79.38
664.782	78.38
664.985	74.38
665.188	72.38
665.391	82.38
665.594	79.38
665.797	77.38
666	81.38
666.203	78.38
666.406	75.38
666.609	82.38
666.812	74.38
667.015	73.38
667.218	80.38
667.421	81.38
667.624	67.38
667.827	82.38
668.03	72.38
668.232	80.38
668.435	85.38
668.638	84.38
668.841	83.38
669.043	84.38
669.246	75.38
669.449	77.38
669.651	77.38
669.854	71.38
670.057	65.38
670.259	71.38
670.462	78.38
670.665	75.38
670.867	76.38
671.07	82.38
671.272	85.38
671.475	80.38
671.677	65.38
671.88	77.38
672.082	75.38
672.284	71.38
672.487	66.38
672.689	71.38
672.892	87.38
