Data from 1966.PennyLincolnUp.Lamp.En5.5.200Scan.071719.P1.Scan2.head_HRD10591_14-17-15-093.txt Node
Date: Thu Jul 18 14:17:15 EDT 2019
User: cochatt
Spectrometer: HR+D1059
Trigger mode: 1
Integration Time (sec): 1.000000E-1
Scans to average: 1
Electric dark correction enabled: true
Nonlinearity correction enabled: false
Boxcar width: 0
XAxis mode: Wavelengths
Number of Pixels in Spectrum: 2048
>>>>>Begin Spectral Data<<<<<
223.165	-15.06
223.4	-15.06
223.635	-15.06
223.869	-18.06
224.104	-29.06
224.338	-6.06
224.573	5.94
224.808	-24.06
225.042	-18.06
225.277	4.94
225.511	1.94
225.746	-0.06
225.98	9.94
226.215	1.94
226.449	13.94
226.683	29.94
226.918	29.94
227.152	11.94
227.387	28.94
227.621	46.94
227.856	47.94
228.09	53.94
228.324	52.94
228.559	53.94
228.793	65.94
229.027	98.94
229.262	107.94
229.496	101.94
229.73	127.94
229.964	146.94
230.199	130.94
230.433	111.94
230.667	109.94
230.901	110.94
231.136	104.94
231.37	121.94
231.604	122.94
231.838	123.94
232.072	112.94
232.306	111.94
232.541	115.94
232.775	120.94
233.009	121.94
233.243	119.94
233.477	105.94
233.711	123.94
233.945	108.94
234.179	114.94
234.413	104.94
234.647	109.94
234.881	121.94
235.115	118.94
235.349	123.94
235.583	128.94
235.817	136.94
236.051	121.94
236.285	121.94
236.519	109.94
236.753	127.94
236.987	145.94
237.221	184.94
237.455	226.94
237.689	200.94
237.922	136.94
238.156	126.94
238.39	126.94
238.624	109.94
238.858	135.94
239.091	116.94
239.325	135.94
239.559	138.94
239.793	142.94
240.027	149.94
240.26	146.94
240.494	164.94
240.728	168.94
240.961	142.94
241.195	151.94
241.429	131.94
241.662	137.94
241.896	144.94
242.13	140.94
242.363	148.94
242.597	140.94
242.83	149.94
243.064	134.94
243.298	138.94
243.531	136.94
243.765	145.94
243.998	148.94
244.232	154.94
244.465	136.94
244.699	160.94
244.932	148.94
245.166	144.94
245.399	160.94
245.633	125.94
245.866	168.94
246.099	152.94
246.333	142.94
246.566	146.94
246.8	161.94
247.033	140.94
247.266	150.94
247.5	148.94
247.733	166.94
247.966	174.94
248.2	167.94
248.433	167.94
248.666	164.94
248.899	166.94
249.133	184.94
249.366	192.94
249.599	184.94
249.832	194.94
250.066	196.94
250.299	191.94
250.532	182.94
250.765	203.94
250.998	215.94
251.231	229.94
251.465	223.94
251.698	208.94
251.931	206.94
252.164	185.94
252.397	191.94
252.63	198.94
252.863	205.94
253.096	198.94
253.329	228.94
253.562	209.94
253.795	205.94
254.028	198.94
254.261	206.94
254.494	220.94
254.727	239.94
254.96	259.94
255.193	267.94
255.426	240.94
255.659	223.94
255.892	208.94
256.124	207.94
256.357	220.94
256.59	230.94
256.823	214.94
257.056	209.94
257.289	207.94
257.521	209.94
257.754	197.94
257.987	214.94
258.22	222.94
258.452	225.94
258.685	214.94
258.918	199.94
259.151	213.94
259.383	214.94
259.616	205.94
259.849	218.94
260.081	235.94
260.314	246.94
260.547	230.94
260.779	231.94
261.012	226.94
261.244	225.94
261.477	210.94
261.71	206.94
261.942	221.94
262.175	233.94
262.407	219.94
262.64	212.94
262.872	226.94
263.105	230.94
263.337	216.94
263.57	221.94
263.802	210.94
264.035	221.94
264.267	212.94
264.499	212.94
264.732	219.94
264.964	208.94
265.197	201.94
265.429	204.94
265.661	228.94
265.894	223.94
266.126	230.94
266.358	223.94
266.591	225.94
266.823	218.94
267.055	221.94
267.287	229.94
267.52	218.94
267.752	217.94
267.984	224.94
268.216	224.94
268.448	225.94
268.681	231.94
268.913	237.94
269.145	248.94
269.377	268.94
269.609	277.94
269.841	273.94
270.073	258.94
270.306	277.94
270.538	299.94
270.77	272.94
271.002	309.94
271.234	287.94
271.466	285.94
271.698	300.94
271.93	302.94
272.162	308.94
272.394	294.94
272.626	285.94
272.858	281.94
273.09	260.94
273.322	267.94
273.553	270.94
273.785	261.94
274.017	267.94
274.249	256.94
274.481	265.94
274.713	270.94
274.945	283.94
275.176	268.94
275.408	254.94
275.64	266.94
275.872	270.94
276.104	253.94
276.335	268.94
276.567	252.94
276.799	278.94
277.031	292.94
277.262	304.94
277.494	311.94
277.726	284.94
277.957	287.94
278.189	284.94
278.421	263.94
278.652	280.94
278.884	286.94
279.115	252.94
279.347	283.94
279.579	266.94
279.81	262.94
280.042	266.94
280.273	251.94
280.505	264.94
280.736	267.94
280.968	287.94
281.199	265.94
281.431	270.94
281.662	269.94
281.894	258.94
282.125	272.94
282.356	284.94
282.588	298.94
282.819	302.94
283.051	268.94
283.282	268.94
283.513	267.94
283.745	273.94
283.976	272.94
284.207	286.94
284.439	264.94
284.67	279.94
284.901	271.94
285.132	264.94
285.364	273.94
285.595	269.94
285.826	279.94
286.057	288.94
286.288	274.94
286.52	297.94
286.751	294.94
286.982	298.94
287.213	286.94
287.444	288.94
287.675	271.94
287.906	301.94
288.138	292.94
288.369	309.94
288.6	286.94
288.831	289.94
289.062	282.94
289.293	304.94
289.524	316.94
289.755	314.94
289.986	279.94
290.217	297.94
290.448	300.94
290.679	296.94
290.91	290.94
291.141	286.94
291.371	296.94
291.602	283.94
291.833	288.94
292.064	301.94
292.295	292.94
292.526	272.94
292.757	286.94
292.987	306.94
293.218	286.94
293.449	292.94
293.68	279.94
293.91	280.94
294.141	288.94
294.372	293.94
294.603	287.94
294.833	292.94
295.064	310.94
295.295	303.94
295.525	316.94
295.756	320.94
295.987	303.94
296.217	333.94
296.448	327.94
296.679	303.94
296.909	308.94
297.14	315.94
297.37	321.94
297.601	301.94
297.831	300.94
298.062	320.94
298.292	295.94
298.523	297.94
298.753	319.94
298.984	296.94
299.214	304.94
299.445	315.94
299.675	313.94
299.905	316.94
300.136	324.94
300.366	313.94
300.597	297.94
300.827	327.94
301.057	319.94
301.288	341.94
301.518	324.94
301.748	330.94
301.979	327.94
302.209	314.94
302.439	319.94
302.669	316.94
302.9	337.94
303.13	323.94
303.36	326.94
303.59	326.94
303.82	343.94
304.051	322.94
304.281	308.94
304.511	301.94
304.741	343.94
304.971	317.94
305.201	334.94
305.431	332.94
305.661	326.94
305.891	336.94
306.121	359.94
306.352	331.94
306.582	338.94
306.812	305.94
307.042	329.94
307.272	316.94
307.502	337.94
307.731	345.94
307.961	347.94
308.191	340.94
308.421	334.94
308.651	315.94
308.881	324.94
309.111	339.94
309.341	359.94
309.571	354.94
309.8	361.94
310.03	351.94
310.26	360.94
310.49	383.94
310.72	376.94
310.949	378.94
311.179	380.94
311.409	369.94
311.639	361.94
311.868	358.94
312.098	377.94
312.328	359.94
312.557	385.94
312.787	390.94
313.017	392.94
313.246	390.94
313.476	378.94
313.706	382.94
313.935	367.94
314.165	398.94
314.394	408.94
314.624	386.94
314.853	364.94
315.083	404.94
315.312	382.94
315.542	356.94
315.771	382.94
316.001	360.94
316.23	360.94
316.46	362.94
316.689	387.94
316.919	382.94
317.148	383.94
317.377	388.94
317.607	391.94
317.836	389.94
318.065	365.94
318.295	393.94
318.524	361.94
318.753	352.94
318.983	363.94
319.212	379.94
319.441	382.94
319.67	396.94
319.9	403.94
320.129	395.94
320.358	372.94
320.587	365.94
320.816	386.94
321.046	382.94
321.275	394.94
321.504	394.94
321.733	389.94
321.962	395.94
322.191	400.94
322.42	405.94
322.649	427.94
322.878	429.94
323.108	440.94
323.337	469.94
323.566	475.94
323.795	495.94
324.024	547.94
324.253	615.94
324.482	876.94
324.71	1328.94
324.939	1994.94
325.168	1731.94
325.397	879.94
325.626	596.94
325.855	515.94
326.084	484.94
326.313	463.94
326.542	474.94
326.77	499.94
326.999	572.94
327.228	807.94
327.457	1192.94
327.686	1540.94
327.914	992.94
328.143	658.94
328.372	588.94
328.6	553.94
328.829	534.94
329.058	536.94
329.287	543.94
329.515	514.94
329.744	487.94
329.972	496.94
330.201	515.94
330.43	556.94
330.658	540.94
330.887	569.94
331.115	582.94
331.344	516.94
331.572	485.94
331.801	483.94
332.03	462.94
332.258	465.94
332.486	460.94
332.715	456.94
332.943	446.94
333.172	458.94
333.4	452.94
333.629	492.94
333.857	489.94
334.085	463.94
334.314	485.94
334.542	488.94
334.771	552.94
334.999	514.94
335.227	487.94
335.455	460.94
335.684	478.94
335.912	455.94
336.14	437.94
336.369	472.94
336.597	466.94
336.825	461.94
337.053	454.94
337.281	453.94
337.51	434.94
337.738	442.94
337.966	460.94
338.194	456.94
338.422	454.94
338.65	453.94
338.878	451.94
339.106	439.94
339.334	445.94
339.562	439.94
339.79	449.94
340.018	442.94
340.246	424.94
340.474	458.94
340.702	434.94
340.93	419.94
341.158	434.94
341.386	438.94
341.614	450.94
341.842	427.94
342.07	425.94
342.298	448.94
342.526	420.94
342.754	434.94
342.981	415.94
343.209	418.94
343.437	438.94
343.665	439.94
343.893	435.94
344.12	464.94
344.348	441.94
344.576	465.94
344.804	472.94
345.031	454.94
345.259	452.94
345.487	460.94
345.714	466.94
345.942	454.94
346.17	427.94
346.397	422.94
346.625	409.94
346.853	432.94
347.08	433.94
347.308	424.94
347.535	448.94
347.763	430.94
347.99	433.94
348.218	436.94
348.445	453.94
348.673	446.94
348.9	430.94
349.128	407.94
349.355	428.94
349.583	431.94
349.81	423.94
350.037	406.94
350.265	413.94
350.492	418.94
350.72	442.94
350.947	421.94
351.174	421.94
351.402	425.94
351.629	447.94
351.856	427.94
352.083	425.94
352.311	433.94
352.538	437.94
352.765	431.94
352.992	443.94
353.22	423.94
353.447	412.94
353.674	419.94
353.901	412.94
354.128	406.94
354.355	415.94
354.583	413.94
354.81	410.94
355.037	413.94
355.264	421.94
355.491	388.94
355.718	408.94
355.945	421.94
356.172	412.94
356.399	390.94
356.626	415.94
356.853	391.94
357.08	419.94
357.307	419.94
357.534	396.94
357.761	411.94
357.988	395.94
358.215	407.94
358.441	396.94
358.668	404.94
358.895	408.94
359.122	403.94
359.349	403.94
359.576	456.94
359.802	434.94
360.029	470.94
360.256	476.94
360.483	471.94
360.709	436.94
360.936	438.94
361.163	449.94
361.39	437.94
361.616	411.94
361.843	422.94
362.07	418.94
362.296	431.94
362.523	434.94
362.749	409.94
362.976	405.94
363.203	425.94
363.429	416.94
363.656	424.94
363.882	403.94
364.109	420.94
364.335	405.94
364.562	405.94
364.788	414.94
365.015	421.94
365.241	410.94
365.468	415.94
365.694	412.94
365.92	423.94
366.147	424.94
366.373	413.94
366.599	409.94
366.826	420.94
367.052	408.94
367.278	400.94
367.505	419.94
367.731	426.94
367.957	412.94
368.184	418.94
368.41	415.94
368.636	438.94
368.862	459.94
369.089	420.94
369.315	428.94
369.541	428.94
369.767	420.94
369.993	406.94
370.219	412.94
370.445	425.94
370.672	436.94
370.898	418.94
371.124	421.94
371.35	424.94
371.576	415.94
371.802	408.94
372.028	436.94
372.254	429.94
372.48	439.94
372.706	432.94
372.932	420.94
373.158	430.94
373.384	439.94
373.61	440.94
373.835	411.94
374.061	424.94
374.287	437.94
374.513	436.94
374.739	425.94
374.965	431.94
375.191	458.94
375.416	440.94
375.642	423.94
375.868	425.94
376.094	440.94
376.319	446.94
376.545	425.94
376.771	438.94
376.997	412.94
377.222	438.94
377.448	433.94
377.674	393.94
377.899	418.94
378.125	431.94
378.35	452.94
378.576	418.94
378.802	428.94
379.027	445.94
379.253	441.94
379.478	412.94
379.704	430.94
379.929	436.94
380.155	436.94
380.38	430.94
380.606	421.94
380.831	451.94
381.057	448.94
381.282	436.94
381.507	428.94
381.733	461.94
381.958	431.94
382.184	425.94
382.409	430.94
382.634	442.94
382.86	440.94
383.085	443.94
383.31	432.94
383.535	454.94
383.761	453.94
383.986	447.94
384.211	440.94
384.436	454.94
384.662	462.94
384.887	489.94
385.112	454.94
385.337	465.94
385.562	458.94
385.787	481.94
386.013	475.94
386.238	480.94
386.463	476.94
386.688	488.94
386.913	474.94
387.138	477.94
387.363	479.94
387.588	460.94
387.813	479.94
388.038	479.94
388.263	468.94
388.488	505.94
388.713	481.94
388.938	493.94
389.163	484.94
389.387	485.94
389.612	482.94
389.837	482.94
390.062	483.94
390.287	477.94
390.512	476.94
390.736	468.94
390.961	491.94
391.186	479.94
391.411	482.94
391.636	498.94
391.86	485.94
392.085	488.94
392.31	487.94
392.534	477.94
392.759	481.94
392.984	513.94
393.208	496.94
393.433	486.94
393.658	487.94
393.882	478.94
394.107	482.94
394.331	489.94
394.556	504.94
394.78	503.94
395.005	470.94
395.229	484.94
395.454	492.94
395.678	496.94
395.903	516.94
396.127	539.94
396.352	537.94
396.576	526.94
396.801	516.94
397.025	524.94
397.249	507.94
397.474	501.94
397.698	505.94
397.922	537.94
398.147	536.94
398.371	560.94
398.595	551.94
398.82	539.94
399.044	566.94
399.268	582.94
399.492	625.94
399.717	616.94
399.941	680.94
400.165	698.94
400.389	696.94
400.613	648.94
400.837	591.94
401.062	562.94
401.286	562.94
401.51	559.94
401.734	559.94
401.958	564.94
402.182	561.94
402.406	593.94
402.63	562.94
402.854	559.94
403.078	599.94
403.302	588.94
403.526	582.94
403.75	583.94
403.974	591.94
404.198	587.94
404.422	601.94
404.645	584.94
404.869	595.94
405.093	612.94
405.317	678.94
405.541	684.94
405.765	635.94
405.988	602.94
406.212	612.94
406.436	644.94
406.66	640.94
406.883	625.94
407.107	638.94
407.331	669.94
407.555	776.94
407.778	768.94
408.002	690.94
408.226	639.94
408.449	624.94
408.673	637.94
408.896	661.94
409.12	697.94
409.344	660.94
409.567	602.94
409.791	598.94
410.014	583.94
410.238	596.94
410.461	577.94
410.685	576.94
410.908	617.94
411.132	638.94
411.355	654.94
411.578	622.94
411.802	595.94
412.025	596.94
412.249	593.94
412.472	615.94
412.695	662.94
412.919	646.94
413.142	589.94
413.365	609.94
413.589	587.94
413.812	556.94
414.035	556.94
414.258	552.94
414.482	543.94
414.705	542.94
414.928	569.94
415.151	537.94
415.374	574.94
415.597	572.94
415.821	550.94
416.044	555.94
416.267	564.94
416.49	538.94
416.713	532.94
416.936	569.94
417.159	550.94
417.382	545.94
417.605	562.94
417.828	569.94
418.051	578.94
418.274	570.94
418.497	554.94
418.72	555.94
418.943	556.94
419.166	566.94
419.389	611.94
419.611	577.94
419.834	590.94
420.057	568.94
420.28	594.94
420.503	567.94
420.726	578.94
420.948	582.94
421.171	620.94
421.394	653.94
421.617	588.94
421.839	575.94
422.062	572.94
422.285	591.94
422.507	657.94
422.73	722.94
422.953	692.94
423.175	616.94
423.398	604.94
423.621	594.94
423.843	619.94
424.066	589.94
424.288	600.94
424.511	620.94
424.733	667.94
424.956	789.94
425.178	708.94
425.401	728.94
425.623	749.94
425.846	638.94
426.068	618.94
426.291	609.94
426.513	600.94
426.735	601.94
426.958	653.94
427.18	728.94
427.402	876.94
427.625	961.94
427.847	828.94
428.069	697.94
428.292	679.94
428.514	617.94
428.736	563.94
428.958	597.94
429.181	572.94
429.403	568.94
429.625	602.94
429.847	598.94
430.069	684.94
430.292	688.94
430.514	562.94
430.736	591.94
430.958	576.94
431.18	554.94
431.402	538.94
431.624	521.94
431.846	536.94
432.068	548.94
432.29	552.94
432.512	528.94
432.734	566.94
432.956	540.94
433.178	526.94
433.4	553.94
433.622	549.94
433.844	517.94
434.066	549.94
434.287	521.94
434.509	525.94
434.731	564.94
434.953	552.94
435.175	593.94
435.397	590.94
435.618	598.94
435.84	670.94
436.062	741.94
436.284	830.94
436.505	693.94
436.727	626.94
436.949	584.94
437.17	578.94
437.392	575.94
437.614	582.94
437.835	600.94
438.057	707.94
438.278	802.94
438.5	806.94
438.721	899.94
438.943	875.94
439.165	682.94
439.386	623.94
439.608	613.94
439.829	625.94
440.05	604.94
440.272	689.94
440.493	641.94
440.715	603.94
440.936	571.94
441.158	568.94
441.379	574.94
441.6	578.94
441.822	606.94
442.043	644.94
442.264	753.94
442.486	760.94
442.707	676.94
442.928	647.94
443.149	626.94
443.371	656.94
443.592	682.94
443.813	798.94
444.034	834.94
444.255	732.94
444.476	656.94
444.698	621.94
444.919	620.94
445.14	722.94
445.361	667.94
445.582	670.94
445.803	733.94
446.024	847.94
446.245	816.94
446.466	750.94
446.687	660.94
446.908	626.94
447.129	589.94
447.35	561.94
447.571	557.94
447.792	556.94
448.013	559.94
448.234	562.94
448.455	635.94
448.675	722.94
448.896	846.94
449.117	747.94
449.338	698.94
449.559	819.94
449.779	932.94
450	738.94
450.221	589.94
450.442	560.94
450.662	546.94
450.883	543.94
451.104	562.94
451.324	544.94
451.545	528.94
451.766	499.94
451.986	499.94
452.207	511.94
452.428	510.94
452.648	498.94
452.869	510.94
453.089	514.94
453.31	529.94
453.53	502.94
453.751	492.94
453.971	520.94
454.192	529.94
454.412	505.94
454.633	488.94
454.853	474.94
455.073	496.94
455.294	508.94
455.514	617.94
455.734	564.94
455.955	504.94
456.175	497.94
456.395	492.94
456.616	479.94
456.836	481.94
457.056	467.94
457.276	470.94
457.497	478.94
457.717	480.94
457.937	482.94
458.157	496.94
458.377	484.94
458.598	513.94
458.818	578.94
459.038	647.94
459.258	688.94
459.478	589.94
459.698	556.94
459.918	536.94
460.138	550.94
460.358	537.94
460.578	560.94
460.798	548.94
461.018	558.94
461.238	572.94
461.458	545.94
461.678	540.94
461.898	564.94
462.118	542.94
462.338	588.94
462.558	585.94
462.777	603.94
462.997	603.94
463.217	602.94
463.437	612.94
463.657	617.94
463.876	590.94
464.096	617.94
464.316	585.94
464.536	618.94
464.755	588.94
464.975	595.94
465.195	640.94
465.414	702.94
465.634	609.94
465.854	569.94
466.073	564.94
466.293	549.94
466.512	522.94
466.732	523.94
466.951	506.94
467.171	516.94
467.391	542.94
467.61	537.94
467.829	540.94
468.049	514.94
468.268	524.94
468.488	505.94
468.707	504.94
468.927	510.94
469.146	503.94
469.365	511.94
469.585	536.94
469.804	544.94
470.023	512.94
470.243	524.94
470.462	520.94
470.681	542.94
470.901	560.94
471.12	521.94
471.339	542.94
471.558	527.94
471.777	548.94
471.997	533.94
472.216	509.94
472.435	546.94
472.654	580.94
472.873	543.94
473.092	549.94
473.311	552.94
473.53	515.94
473.749	534.94
473.968	583.94
474.187	656.94
474.406	688.94
474.625	583.94
474.844	540.94
475.063	522.94
475.282	525.94
475.501	545.94
475.72	557.94
475.939	549.94
476.158	547.94
476.377	546.94
476.596	546.94
476.814	561.94
477.033	560.94
477.252	545.94
477.471	582.94
477.69	568.94
477.908	587.94
478.127	593.94
478.346	570.94
478.564	604.94
478.783	604.94
479.002	609.94
479.22	608.94
479.439	632.94
479.658	630.94
479.876	647.94
480.095	642.94
480.313	681.94
480.532	665.94
480.751	657.94
480.969	648.94
481.188	706.94
481.406	723.94
481.624	714.94
481.843	665.94
482.061	640.94
482.28	641.94
482.498	622.94
482.717	636.94
482.935	636.94
483.153	637.94
483.372	626.94
483.59	636.94
483.808	632.94
484.027	639.94
484.245	629.94
484.463	662.94
484.681	632.94
484.9	664.94
485.118	648.94
485.336	639.94
485.554	657.94
485.772	641.94
485.99	633.94
486.209	647.94
486.427	648.94
486.645	668.94
486.863	644.94
487.081	663.94
487.299	652.94
487.517	664.94
487.735	659.94
487.953	700.94
488.171	668.94
488.389	659.94
488.607	657.94
488.825	630.94
489.043	682.94
489.261	682.94
489.479	682.94
489.696	687.94
489.914	666.94
490.132	684.94
490.35	703.94
490.568	703.94
490.786	714.94
491.003	729.94
491.221	744.94
491.439	736.94
491.657	730.94
491.874	785.94
492.092	753.94
492.31	779.94
492.527	768.94
492.745	764.94
492.963	797.94
493.18	803.94
493.398	780.94
493.615	799.94
493.833	795.94
494.05	735.94
494.268	798.94
494.485	783.94
494.703	774.94
494.92	771.94
495.138	791.94
495.355	792.94
495.573	807.94
495.79	795.94
496.008	821.94
496.225	787.94
496.442	791.94
496.66	801.94
496.877	795.94
497.094	801.94
497.312	827.94
497.529	824.94
497.746	791.94
497.963	830.94
498.181	875.94
498.398	882.94
498.615	896.94
498.832	922.94
499.049	944.94
499.267	942.94
499.484	1004.94
499.701	1037.94
499.918	1060.94
500.135	1106.94
500.352	1137.94
500.569	1150.94
500.786	1196.94
501.003	1142.94
501.22	1129.94
501.437	1080.94
501.654	1049.94
501.871	1034.94
502.088	975.94
502.305	942.94
502.522	925.94
502.739	895.94
502.956	874.94
503.172	868.94
503.389	874.94
503.606	861.94
503.823	856.94
504.04	814.94
504.256	807.94
504.473	782.94
504.69	792.94
504.907	792.94
505.123	797.94
505.34	784.94
505.557	774.94
505.773	797.94
505.99	757.94
506.207	769.94
506.423	764.94
506.64	748.94
506.856	721.94
507.073	733.94
507.289	745.94
507.506	743.94
507.722	746.94
507.939	733.94
508.155	756.94
508.372	715.94
508.588	688.94
508.805	702.94
509.021	738.94
509.238	748.94
509.454	704.94
509.67	695.94
509.887	678.94
510.103	706.94
510.319	720.94
510.536	783.94
510.752	1156.94
510.968	996.94
511.184	708.94
511.401	680.94
511.617	662.94
511.833	656.94
512.049	668.94
512.265	662.94
512.481	675.94
512.698	676.94
512.914	654.94
513.13	664.94
513.346	665.94
513.562	655.94
513.778	668.94
513.994	679.94
514.21	675.94
514.426	677.94
514.642	732.94
514.858	753.94
515.074	812.94
515.29	888.94
515.506	1184.94
515.721	1059.94
515.937	776.94
516.153	726.94
516.369	697.94
516.585	690.94
516.801	700.94
517.016	699.94
517.232	705.94
517.448	697.94
517.664	727.94
517.879	714.94
518.095	697.94
518.311	700.94
518.527	706.94
518.742	694.94
518.958	682.94
519.173	674.94
519.389	697.94
519.605	676.94
519.82	674.94
520.036	682.94
520.251	705.94
520.467	711.94
520.682	713.94
520.898	717.94
521.113	718.94
521.329	769.94
521.544	796.94
521.76	984.94
521.975	1502.94
522.19	1524.94
522.406	910.94
522.621	748.94
522.836	648.94
523.052	663.94
523.267	631.94
523.482	593.94
523.698	607.94
523.913	598.94
524.128	612.94
524.343	591.94
524.559	602.94
524.774	582.94
524.989	593.94
525.204	600.94
525.419	577.94
525.634	586.94
525.849	555.94
526.064	574.94
526.28	546.94
526.495	546.94
526.71	578.94
526.925	568.94
527.14	544.94
527.355	540.94
527.57	565.94
527.785	570.94
527.999	538.94
528.214	533.94
528.429	549.94
528.644	546.94
528.859	555.94
529.074	563.94
529.289	570.94
529.503	646.94
529.718	613.94
529.933	598.94
530.148	554.94
530.363	562.94
530.577	561.94
530.792	555.94
531.007	555.94
531.221	532.94
531.436	528.94
531.651	556.94
531.865	548.94
532.08	521.94
532.295	529.94
532.509	535.94
532.724	542.94
532.938	548.94
533.153	543.94
533.367	546.94
533.582	522.94
533.796	531.94
534.011	499.94
534.225	536.94
534.44	538.94
534.654	514.94
534.868	520.94
535.083	504.94
535.297	543.94
535.511	521.94
535.726	534.94
535.94	538.94
536.154	539.94
536.369	538.94
536.583	524.94
536.797	521.94
537.011	538.94
537.225	519.94
537.44	508.94
537.654	534.94
537.868	518.94
538.082	493.94
538.296	505.94
538.51	523.94
538.724	483.94
538.938	504.94
539.153	520.94
539.367	506.94
539.581	511.94
539.795	516.94
540.009	518.94
540.222	524.94
540.436	520.94
540.65	500.94
540.864	516.94
541.078	492.94
541.292	527.94
541.506	523.94
541.72	502.94
541.934	496.94
542.147	510.94
542.361	480.94
542.575	481.94
542.789	522.94
543.002	503.94
543.216	538.94
543.43	506.94
543.644	504.94
543.857	514.94
544.071	509.94
544.285	517.94
544.498	524.94
544.712	527.94
544.925	512.94
545.139	508.94
545.352	489.94
545.566	480.94
545.779	502.94
545.993	497.94
546.206	510.94
546.42	502.94
546.633	505.94
546.847	508.94
547.06	500.94
547.274	511.94
547.487	517.94
547.7	478.94
547.914	523.94
548.127	471.94
548.34	491.94
548.554	493.94
548.767	486.94
548.98	476.94
549.193	495.94
549.407	492.94
549.62	504.94
549.833	489.94
550.046	498.94
550.259	495.94
550.473	481.94
550.686	480.94
550.899	490.94
551.112	484.94
551.325	486.94
551.538	473.94
551.751	494.94
551.964	471.94
552.177	476.94
552.39	494.94
552.603	493.94
552.816	527.94
553.029	507.94
553.242	494.94
553.455	496.94
553.667	505.94
553.88	506.94
554.093	509.94
554.306	522.94
554.519	520.94
554.732	495.94
554.944	485.94
555.157	460.94
555.37	451.94
555.583	480.94
555.795	482.94
556.008	459.94
556.221	445.94
556.433	474.94
556.646	469.94
556.859	438.94
557.071	453.94
557.284	457.94
557.496	452.94
557.709	443.94
557.921	451.94
558.134	449.94
558.346	443.94
558.559	440.94
558.771	436.94
558.984	448.94
559.196	448.94
559.409	437.94
559.621	451.94
559.833	430.94
560.046	434.94
560.258	445.94
560.47	424.94
560.683	427.94
560.895	426.94
561.107	434.94
561.32	436.94
561.532	458.94
561.744	430.94
561.956	436.94
562.168	454.94
562.381	449.94
562.593	430.94
562.805	450.94
563.017	447.94
563.229	442.94
563.441	450.94
563.653	439.94
563.865	448.94
564.077	456.94
564.289	452.94
564.501	459.94
564.713	491.94
564.925	470.94
565.137	483.94
565.349	486.94
565.561	480.94
565.773	479.94
565.985	500.94
566.197	487.94
566.408	521.94
566.62	530.94
566.832	541.94
567.044	570.94
567.255	555.94
567.467	558.94
567.679	573.94
567.891	573.94
568.102	581.94
568.314	561.94
568.526	551.94
568.737	516.94
568.949	512.94
569.161	507.94
569.372	476.94
569.584	492.94
569.795	451.94
570.007	442.94
570.218	469.94
570.43	474.94
570.641	446.94
570.853	434.94
571.064	451.94
571.276	438.94
571.487	402.94
571.698	390.94
571.91	416.94
572.121	412.94
572.333	410.94
572.544	413.94
572.755	398.94
572.966	413.94
573.178	417.94
573.389	392.94
573.6	390.94
573.811	412.94
574.023	376.94
574.234	409.94
574.445	356.94
574.656	378.94
574.867	372.94
575.078	386.94
575.289	388.94
575.501	375.94
575.712	386.94
575.923	382.94
576.134	359.94
576.345	374.94
576.556	374.94
576.767	362.94
576.978	384.94
577.188	375.94
577.399	373.94
577.61	364.94
577.821	356.94
578.032	375.94
578.243	401.94
578.454	558.94
578.665	445.94
578.875	362.94
579.086	355.94
579.297	354.94
579.508	342.94
579.718	333.94
579.929	363.94
580.14	357.94
580.35	333.94
580.561	348.94
580.772	341.94
580.982	353.94
581.193	340.94
581.403	327.94
581.614	351.94
581.825	338.94
582.035	352.94
582.246	343.94
582.456	340.94
582.667	338.94
582.877	358.94
583.087	342.94
583.298	353.94
583.508	352.94
583.719	331.94
583.929	340.94
584.139	350.94
584.35	340.94
584.56	349.94
584.77	327.94
584.981	343.94
585.191	327.94
585.401	343.94
585.611	324.94
585.821	333.94
586.032	351.94
586.242	336.94
586.452	334.94
586.662	334.94
586.872	321.94
587.082	333.94
587.292	320.94
587.502	340.94
587.713	326.94
587.923	342.94
588.133	316.94
588.343	349.94
588.553	337.94
588.762	334.94
588.972	326.94
589.182	345.94
589.392	341.94
589.602	341.94
589.812	360.94
590.022	344.94
590.232	341.94
590.441	330.94
590.651	331.94
590.861	313.94
591.071	332.94
591.281	336.94
591.49	353.94
591.7	332.94
591.91	342.94
592.119	341.94
592.329	356.94
592.539	364.94
592.748	346.94
592.958	347.94
593.167	365.94
593.377	334.94
593.587	368.94
593.796	365.94
594.006	367.94
594.215	358.94
594.424	352.94
594.634	344.94
594.843	345.94
595.053	340.94
595.262	369.94
595.472	319.94
595.681	354.94
595.89	330.94
596.1	323.94
596.309	338.94
596.518	322.94
596.727	313.94
596.937	318.94
597.146	316.94
597.355	313.94
597.564	308.94
597.774	306.94
597.983	316.94
598.192	299.94
598.401	310.94
598.61	332.94
598.819	317.94
599.028	318.94
599.237	292.94
599.446	299.94
599.655	297.94
599.864	301.94
600.073	301.94
600.282	294.94
600.491	288.94
600.7	310.94
600.909	283.94
601.118	293.94
601.327	283.94
601.536	279.94
601.745	279.94
601.953	293.94
602.162	294.94
602.371	283.94
602.58	280.94
602.789	292.94
602.997	284.94
603.206	288.94
603.415	286.94
603.623	287.94
603.832	263.94
604.041	270.94
604.249	293.94
604.458	287.94
604.666	269.94
604.875	269.94
605.084	266.94
605.292	280.94
605.501	269.94
605.709	278.94
605.918	270.94
606.126	272.94
606.334	284.94
606.543	296.94
606.751	294.94
606.96	278.94
607.168	266.94
607.376	251.94
607.585	276.94
607.793	262.94
608.001	272.94
608.21	266.94
608.418	270.94
608.626	274.94
608.834	273.94
609.043	265.94
609.251	257.94
609.459	268.94
609.667	282.94
609.875	279.94
610.083	275.94
610.291	265.94
610.499	280.94
610.707	292.94
610.916	271.94
611.124	286.94
611.332	275.94
611.54	271.94
611.748	283.94
611.955	270.94
612.163	277.94
612.371	273.94
612.579	281.94
612.787	270.94
612.995	265.94
613.203	264.94
613.411	259.94
613.618	260.94
613.826	263.94
614.034	257.94
614.242	266.94
614.449	264.94
614.657	267.94
614.865	250.94
615.072	264.94
615.28	256.94
615.488	267.94
615.695	249.94
615.903	268.94
616.111	280.94
616.318	274.94
616.526	270.94
616.733	264.94
616.941	277.94
617.148	276.94
617.356	261.94
617.563	258.94
617.771	252.94
617.978	268.94
618.185	277.94
618.393	266.94
618.6	266.94
618.807	250.94
619.015	243.94
619.222	250.94
619.429	236.94
619.637	249.94
619.844	262.94
620.051	256.94
620.258	259.94
620.466	244.94
620.673	245.94
620.88	248.94
621.087	254.94
621.294	264.94
621.501	244.94
621.708	256.94
621.915	252.94
622.122	257.94
622.329	266.94
622.536	248.94
622.743	245.94
622.95	241.94
623.157	228.94
623.364	235.94
623.571	257.94
623.778	228.94
623.985	220.94
624.192	229.94
624.399	247.94
624.606	234.94
624.812	239.94
625.019	239.94
625.226	235.94
625.433	247.94
625.639	256.94
625.846	233.94
626.053	233.94
626.259	230.94
626.466	230.94
626.673	235.94
626.879	237.94
627.086	236.94
627.293	231.94
627.499	222.94
627.706	232.94
627.912	214.94
628.119	220.94
628.325	222.94
628.532	218.94
628.738	219.94
628.945	214.94
629.151	241.94
629.357	221.94
629.564	226.94
629.77	220.94
629.976	205.94
630.183	217.94
630.389	214.94
630.595	215.94
630.802	216.94
631.008	223.94
631.214	202.94
631.42	219.94
631.627	225.94
631.833	213.94
632.039	222.94
632.245	205.94
632.451	200.94
632.657	213.94
632.863	207.94
633.069	211.94
633.275	222.94
633.481	204.94
633.688	215.94
633.893	221.94
634.099	213.94
634.305	211.94
634.511	199.94
634.717	216.94
634.923	196.94
635.129	204.94
635.335	197.94
635.541	195.94
635.747	189.94
635.952	192.94
636.158	213.94
636.364	195.94
636.57	200.94
636.775	222.94
636.981	186.94
637.187	200.94
637.392	222.94
637.598	209.94
637.804	201.94
638.009	214.94
638.215	182.94
638.421	201.94
638.626	181.94
638.832	199.94
639.037	192.94
639.243	191.94
639.448	168.94
639.654	198.94
639.859	181.94
640.065	195.94
640.27	181.94
640.475	193.94
640.681	190.94
640.886	195.94
641.091	173.94
641.297	203.94
641.502	186.94
641.707	196.94
641.913	198.94
642.118	196.94
642.323	199.94
642.528	204.94
642.733	196.94
642.939	191.94
643.144	169.94
643.349	202.94
643.554	186.94
643.759	196.94
643.964	178.94
644.169	193.94
644.374	180.94
644.579	184.94
644.784	166.94
644.989	163.94
645.194	172.94
645.399	190.94
645.604	182.94
645.809	184.94
646.014	190.94
646.219	184.94
646.423	183.94
646.628	173.94
646.833	183.94
647.038	198.94
647.243	186.94
647.447	189.94
647.652	176.94
647.857	175.94
648.062	190.94
648.266	188.94
648.471	197.94
648.676	188.94
648.88	170.94
649.085	198.94
649.289	175.94
649.494	185.94
649.698	206.94
649.903	192.94
650.107	177.94
650.312	187.94
650.516	169.94
650.721	184.94
650.925	171.94
651.13	166.94
651.334	173.94
651.539	168.94
651.743	168.94
651.947	165.94
652.152	166.94
652.356	144.94
652.56	160.94
652.764	156.94
652.969	167.94
653.173	163.94
653.377	150.94
653.581	148.94
653.785	159.94
653.99	153.94
654.194	151.94
654.398	142.94
654.602	142.94
654.806	159.94
655.01	138.94
655.214	152.94
655.418	144.94
655.622	163.94
655.826	144.94
656.03	156.94
656.234	142.94
656.438	142.94
656.642	147.94
656.846	136.94
657.049	156.94
657.253	143.94
657.457	128.94
657.661	131.94
657.865	120.94
658.068	124.94
658.272	122.94
658.476	124.94
658.68	122.94
658.883	109.94
659.087	120.94
659.291	106.94
659.494	125.94
659.698	98.94
659.901	116.94
660.105	94.94
660.309	97.94
660.512	101.94
660.716	98.94
660.919	89.94
661.123	113.94
661.326	83.94
661.53	82.94
661.733	94.94
661.936	99.94
662.14	93.94
662.343	109.94
662.546	80.94
662.75	88.94
662.953	86.94
663.156	87.94
663.36	87.94
663.563	84.94
663.766	82.94
663.969	87.94
664.173	80.94
664.376	81.94
664.579	90.94
664.782	88.94
664.985	95.94
665.188	82.94
665.391	78.94
665.594	81.94
665.797	91.94
666	94.94
666.203	84.94
666.406	66.94
666.609	83.94
666.812	92.94
667.015	77.94
667.218	84.94
667.421	88.94
667.624	72.94
667.827	81.94
668.03	85.94
668.232	78.94
668.435	84.94
668.638	79.94
668.841	86.94
669.043	75.94
669.246	78.94
669.449	98.94
669.651	78.94
669.854	82.94
670.057	82.94
670.259	82.94
670.462	79.94
670.665	87.94
670.867	94.94
671.07	96.94
671.272	97.94
671.475	87.94
671.677	89.94
671.88	78.94
672.082	70.94
672.284	88.94
672.487	80.94
672.689	80.94
672.892	85.94
