Data from 1966.PennyLincolnUp.Lamp.En5.5.200Scan.071719.P1.Scan2.head_HRD10591_14-19-05-239.txt Node
Date: Thu Jul 18 14:19:05 EDT 2019
User: cochatt
Spectrometer: HR+D1059
Trigger mode: 1
Integration Time (sec): 1.000000E-1
Scans to average: 1
Electric dark correction enabled: true
Nonlinearity correction enabled: false
Boxcar width: 0
XAxis mode: Wavelengths
Number of Pixels in Spectrum: 2048
>>>>>Begin Spectral Data<<<<<
223.165	-11.19
223.4	-11.19
223.635	-11.19
223.869	-8.19
224.104	-22.19
224.338	-25.19
224.573	-27.19
224.808	-6.19
225.042	-3.19
225.277	-14.19
225.511	-10.19
225.746	6.81
225.98	6.81
226.215	8.81
226.449	24.81
226.683	23.81
226.918	31.81
227.152	24.81
227.387	29.81
227.621	35.81
227.856	45.81
228.09	44.81
228.324	40.81
228.559	51.81
228.793	85.81
229.027	89.81
229.262	116.81
229.496	119.81
229.73	132.81
229.964	148.81
230.199	136.81
230.433	115.81
230.667	117.81
230.901	120.81
231.136	93.81
231.37	112.81
231.604	108.81
231.838	114.81
232.072	114.81
232.306	109.81
232.541	109.81
232.775	123.81
233.009	109.81
233.243	124.81
233.477	105.81
233.711	105.81
233.945	132.81
234.179	104.81
234.413	119.81
234.647	109.81
234.881	118.81
235.115	130.81
235.349	107.81
235.583	116.81
235.817	131.81
236.051	131.81
236.285	124.81
236.519	123.81
236.753	131.81
236.987	154.81
237.221	184.81
237.455	240.81
237.689	204.81
237.922	143.81
238.156	143.81
238.39	155.81
238.624	121.81
238.858	126.81
239.091	140.81
239.325	125.81
239.559	121.81
239.793	128.81
240.027	142.81
240.26	134.81
240.494	146.81
240.728	158.81
240.961	156.81
241.195	152.81
241.429	154.81
241.662	138.81
241.896	137.81
242.13	141.81
242.363	132.81
242.597	138.81
242.83	128.81
243.064	132.81
243.298	159.81
243.531	139.81
243.765	126.81
243.998	146.81
244.232	154.81
244.465	148.81
244.699	164.81
244.932	150.81
245.166	148.81
245.399	154.81
245.633	148.81
245.866	136.81
246.099	140.81
246.333	152.81
246.566	170.81
246.8	142.81
247.033	164.81
247.266	155.81
247.5	155.81
247.733	173.81
247.966	174.81
248.2	164.81
248.433	204.81
248.666	179.81
248.899	177.81
249.133	203.81
249.366	211.81
249.599	191.81
249.832	165.81
250.066	191.81
250.299	199.81
250.532	211.81
250.765	212.81
250.998	228.81
251.231	214.81
251.465	213.81
251.698	205.81
251.931	214.81
252.164	192.81
252.397	191.81
252.63	215.81
252.863	210.81
253.096	226.81
253.329	241.81
253.562	232.81
253.795	237.81
254.028	220.81
254.261	213.81
254.494	234.81
254.727	272.81
254.96	278.81
255.193	278.81
255.426	267.81
255.659	265.81
255.892	236.81
256.124	245.81
256.357	241.81
256.59	253.81
256.823	224.81
257.056	228.81
257.289	242.81
257.521	216.81
257.754	219.81
257.987	216.81
258.22	226.81
258.452	207.81
258.685	217.81
258.918	215.81
259.151	229.81
259.383	243.81
259.616	220.81
259.849	235.81
260.081	238.81
260.314	262.81
260.547	259.81
260.779	248.81
261.012	259.81
261.244	238.81
261.477	231.81
261.71	212.81
261.942	227.81
262.175	212.81
262.407	236.81
262.64	225.81
262.872	218.81
263.105	214.81
263.337	217.81
263.57	224.81
263.802	225.81
264.035	209.81
264.267	208.81
264.499	228.81
264.732	216.81
264.964	216.81
265.197	219.81
265.429	208.81
265.661	214.81
265.894	226.81
266.126	243.81
266.358	202.81
266.591	222.81
266.823	224.81
267.055	227.81
267.287	236.81
267.52	242.81
267.752	231.81
267.984	233.81
268.216	238.81
268.448	214.81
268.681	250.81
268.913	251.81
269.145	282.81
269.377	292.81
269.609	285.81
269.841	285.81
270.073	291.81
270.306	299.81
270.538	316.81
270.77	341.81
271.002	323.81
271.234	322.81
271.466	306.81
271.698	339.81
271.93	331.81
272.162	334.81
272.394	329.81
272.626	323.81
272.858	291.81
273.09	283.81
273.322	278.81
273.553	281.81
273.785	272.81
274.017	273.81
274.249	273.81
274.481	254.81
274.713	274.81
274.945	282.81
275.176	275.81
275.408	293.81
275.64	283.81
275.872	285.81
276.104	282.81
276.335	284.81
276.567	287.81
276.799	300.81
277.031	306.81
277.262	327.81
277.494	322.81
277.726	308.81
277.957	295.81
278.189	283.81
278.421	285.81
278.652	277.81
278.884	284.81
279.115	272.81
279.347	279.81
279.579	264.81
279.81	278.81
280.042	288.81
280.273	286.81
280.505	277.81
280.736	274.81
280.968	278.81
281.199	276.81
281.431	284.81
281.662	278.81
281.894	261.81
282.125	282.81
282.356	296.81
282.588	299.81
282.819	299.81
283.051	285.81
283.282	284.81
283.513	275.81
283.745	305.81
283.976	284.81
284.207	295.81
284.439	278.81
284.67	296.81
284.901	294.81
285.132	289.81
285.364	284.81
285.595	296.81
285.826	284.81
286.057	296.81
286.288	298.81
286.52	295.81
286.751	283.81
286.982	282.81
287.213	315.81
287.444	284.81
287.675	294.81
287.906	293.81
288.138	284.81
288.369	309.81
288.6	319.81
288.831	306.81
289.062	300.81
289.293	304.81
289.524	297.81
289.755	301.81
289.986	287.81
290.217	298.81
290.448	295.81
290.679	292.81
290.91	304.81
291.141	295.81
291.371	305.81
291.602	315.81
291.833	312.81
292.064	292.81
292.295	290.81
292.526	296.81
292.757	308.81
292.987	302.81
293.218	309.81
293.449	321.81
293.68	290.81
293.91	318.81
294.141	291.81
294.372	303.81
294.603	306.81
294.833	296.81
295.064	294.81
295.295	288.81
295.525	304.81
295.756	307.81
295.987	316.81
296.217	359.81
296.448	338.81
296.679	343.81
296.909	312.81
297.14	306.81
297.37	310.81
297.601	338.81
297.831	310.81
298.062	322.81
298.292	297.81
298.523	324.81
298.753	334.81
298.984	314.81
299.214	323.81
299.445	308.81
299.675	324.81
299.905	331.81
300.136	320.81
300.366	330.81
300.597	322.81
300.827	349.81
301.057	326.81
301.288	342.81
301.518	341.81
301.748	324.81
301.979	322.81
302.209	332.81
302.439	325.81
302.669	346.81
302.9	325.81
303.13	335.81
303.36	335.81
303.59	337.81
303.82	337.81
304.051	350.81
304.281	354.81
304.511	324.81
304.741	342.81
304.971	333.81
305.201	340.81
305.431	340.81
305.661	355.81
305.891	341.81
306.121	337.81
306.352	358.81
306.582	332.81
306.812	357.81
307.042	343.81
307.272	337.81
307.502	336.81
307.731	347.81
307.961	350.81
308.191	354.81
308.421	348.81
308.651	362.81
308.881	355.81
309.111	339.81
309.341	361.81
309.571	338.81
309.8	375.81
310.03	390.81
310.26	376.81
310.49	377.81
310.72	406.81
310.949	395.81
311.179	427.81
311.409	406.81
311.639	402.81
311.868	392.81
312.098	401.81
312.328	394.81
312.557	438.81
312.787	424.81
313.017	440.81
313.246	424.81
313.476	379.81
313.706	374.81
313.935	396.81
314.165	419.81
314.394	436.81
314.624	399.81
314.853	402.81
315.083	410.81
315.312	404.81
315.542	401.81
315.771	397.81
316.001	381.81
316.23	388.81
316.46	389.81
316.689	399.81
316.919	382.81
317.148	410.81
317.377	397.81
317.607	418.81
317.836	410.81
318.065	387.81
318.295	390.81
318.524	402.81
318.753	388.81
318.983	398.81
319.212	403.81
319.441	395.81
319.67	412.81
319.9	403.81
320.129	382.81
320.358	402.81
320.587	396.81
320.816	389.81
321.046	414.81
321.275	396.81
321.504	402.81
321.733	416.81
321.962	432.81
322.191	426.81
322.42	444.81
322.649	464.81
322.878	461.81
323.108	473.81
323.337	478.81
323.566	510.81
323.795	532.81
324.024	574.81
324.253	690.81
324.482	1022.81
324.71	1556.81
324.939	2347.81
325.168	2046.81
325.397	1012.81
325.626	666.81
325.855	568.81
326.084	536.81
326.313	516.81
326.542	517.81
326.77	570.81
326.999	686.81
327.228	911.81
327.457	1376.81
327.686	1733.81
327.914	1144.81
328.143	732.81
328.372	647.81
328.6	616.81
328.829	611.81
329.058	597.81
329.287	617.81
329.515	593.81
329.744	521.81
329.972	528.81
330.201	549.81
330.43	582.81
330.658	598.81
330.887	649.81
331.115	608.81
331.344	560.81
331.572	521.81
331.801	533.81
332.03	513.81
332.258	492.81
332.486	479.81
332.715	497.81
332.943	498.81
333.172	466.81
333.4	482.81
333.629	472.81
333.857	514.81
334.085	520.81
334.314	538.81
334.542	586.81
334.771	607.81
334.999	541.81
335.227	508.81
335.455	482.81
335.684	482.81
335.912	466.81
336.14	471.81
336.369	468.81
336.597	482.81
336.825	484.81
337.053	452.81
337.281	480.81
337.51	477.81
337.738	471.81
337.966	481.81
338.194	471.81
338.422	455.81
338.65	479.81
338.878	476.81
339.106	450.81
339.334	464.81
339.562	462.81
339.79	450.81
340.018	453.81
340.246	451.81
340.474	455.81
340.702	457.81
340.93	455.81
341.158	436.81
341.386	464.81
341.614	476.81
341.842	447.81
342.07	454.81
342.298	439.81
342.526	446.81
342.754	445.81
342.981	437.81
343.209	461.81
343.437	448.81
343.665	459.81
343.893	484.81
344.12	473.81
344.348	470.81
344.576	477.81
344.804	466.81
345.031	485.81
345.259	496.81
345.487	483.81
345.714	453.81
345.942	460.81
346.17	458.81
346.397	448.81
346.625	426.81
346.853	434.81
347.08	450.81
347.308	445.81
347.535	466.81
347.763	469.81
347.99	451.81
348.218	452.81
348.445	453.81
348.673	456.81
348.9	444.81
349.128	426.81
349.355	442.81
349.583	411.81
349.81	456.81
350.037	448.81
350.265	424.81
350.492	432.81
350.72	456.81
350.947	454.81
351.174	444.81
351.402	467.81
351.629	448.81
351.856	445.81
352.083	461.81
352.311	452.81
352.538	474.81
352.765	454.81
352.992	466.81
353.22	431.81
353.447	438.81
353.674	425.81
353.901	423.81
354.128	435.81
354.355	421.81
354.583	431.81
354.81	426.81
355.037	426.81
355.264	407.81
355.491	409.81
355.718	434.81
355.945	412.81
356.172	436.81
356.399	421.81
356.626	440.81
356.853	423.81
357.08	408.81
357.307	433.81
357.534	397.81
357.761	420.81
357.988	434.81
358.215	418.81
358.441	424.81
358.668	406.81
358.895	418.81
359.122	410.81
359.349	434.81
359.576	447.81
359.802	470.81
360.029	516.81
360.256	516.81
360.483	517.81
360.709	463.81
360.936	458.81
361.163	437.81
361.39	450.81
361.616	456.81
361.843	446.81
362.07	449.81
362.296	464.81
362.523	446.81
362.749	461.81
362.976	442.81
363.203	439.81
363.429	439.81
363.656	434.81
363.882	437.81
364.109	456.81
364.335	421.81
364.562	419.81
364.788	425.81
365.015	422.81
365.241	440.81
365.468	448.81
365.694	448.81
365.92	459.81
366.147	441.81
366.373	425.81
366.599	441.81
366.826	442.81
367.052	445.81
367.278	442.81
367.505	448.81
367.731	436.81
367.957	436.81
368.184	445.81
368.41	440.81
368.636	460.81
368.862	456.81
369.089	441.81
369.315	442.81
369.541	453.81
369.767	445.81
369.993	428.81
370.219	433.81
370.445	442.81
370.672	439.81
370.898	430.81
371.124	441.81
371.35	422.81
371.576	450.81
371.802	452.81
372.028	446.81
372.254	440.81
372.48	445.81
372.706	419.81
372.932	435.81
373.158	426.81
373.384	457.81
373.61	451.81
373.835	452.81
374.061	452.81
374.287	447.81
374.513	445.81
374.739	445.81
374.965	461.81
375.191	444.81
375.416	443.81
375.642	444.81
375.868	460.81
376.094	429.81
376.319	444.81
376.545	442.81
376.771	455.81
376.997	440.81
377.222	436.81
377.448	450.81
377.674	434.81
377.899	438.81
378.125	436.81
378.35	432.81
378.576	425.81
378.802	424.81
379.027	428.81
379.253	442.81
379.478	437.81
379.704	455.81
379.929	448.81
380.155	426.81
380.38	436.81
380.606	460.81
380.831	452.81
381.057	443.81
381.282	430.81
381.507	443.81
381.733	449.81
381.958	445.81
382.184	452.81
382.409	465.81
382.634	451.81
382.86	455.81
383.085	449.81
383.31	459.81
383.535	468.81
383.761	468.81
383.986	453.81
384.211	476.81
384.436	482.81
384.662	485.81
384.887	475.81
385.112	466.81
385.337	468.81
385.562	507.81
385.787	505.81
386.013	494.81
386.238	511.81
386.463	494.81
386.688	491.81
386.913	493.81
387.138	499.81
387.363	508.81
387.588	501.81
387.813	474.81
388.038	505.81
388.263	489.81
388.488	503.81
388.713	490.81
388.938	512.81
389.163	484.81
389.387	493.81
389.612	486.81
389.837	489.81
390.062	486.81
390.287	471.81
390.512	488.81
390.736	502.81
390.961	494.81
391.186	482.81
391.411	497.81
391.636	492.81
391.86	524.81
392.085	512.81
392.31	522.81
392.534	525.81
392.759	517.81
392.984	485.81
393.208	492.81
393.433	493.81
393.658	518.81
393.882	498.81
394.107	526.81
394.331	514.81
394.556	520.81
394.78	488.81
395.005	501.81
395.229	510.81
395.454	516.81
395.678	519.81
395.903	533.81
396.127	551.81
396.352	576.81
396.576	511.81
396.801	505.81
397.025	520.81
397.249	542.81
397.474	527.81
397.698	526.81
397.922	556.81
398.147	562.81
398.371	566.81
398.595	581.81
398.82	586.81
399.044	587.81
399.268	610.81
399.492	629.81
399.717	662.81
399.941	708.81
400.165	706.81
400.389	724.81
400.613	658.81
400.837	606.81
401.062	586.81
401.286	576.81
401.51	596.81
401.734	562.81
401.958	572.81
402.182	602.81
402.406	580.81
402.63	581.81
402.854	585.81
403.078	580.81
403.302	578.81
403.526	601.81
403.75	588.81
403.974	606.81
404.198	570.81
404.422	611.81
404.645	588.81
404.869	608.81
405.093	652.81
405.317	685.81
405.541	734.81
405.765	680.81
405.988	629.81
406.212	652.81
406.436	658.81
406.66	676.81
406.883	646.81
407.107	705.81
407.331	718.81
407.555	804.81
407.778	801.81
408.002	726.81
408.226	664.81
408.449	637.81
408.673	674.81
408.896	677.81
409.12	758.81
409.344	712.81
409.567	644.81
409.791	608.81
410.014	620.81
410.238	614.81
410.461	604.81
410.685	617.81
410.908	607.81
411.132	658.81
411.355	704.81
411.578	665.81
411.802	604.81
412.025	604.81
412.249	616.81
412.472	653.81
412.695	681.81
412.919	673.81
413.142	650.81
413.365	586.81
413.589	582.81
413.812	576.81
414.035	576.81
414.258	568.81
414.482	573.81
414.705	564.81
414.928	562.81
415.151	564.81
415.374	554.81
415.597	574.81
415.821	566.81
416.044	573.81
416.267	586.81
416.49	573.81
416.713	533.81
416.936	566.81
417.159	582.81
417.382	571.81
417.605	580.81
417.828	555.81
418.051	594.81
418.274	576.81
418.497	563.81
418.72	568.81
418.943	580.81
419.166	595.81
419.389	620.81
419.611	636.81
419.834	628.81
420.057	615.81
420.28	614.81
420.503	588.81
420.726	599.81
420.948	601.81
421.171	658.81
421.394	698.81
421.617	610.81
421.839	624.81
422.062	607.81
422.285	613.81
422.507	676.81
422.73	775.81
422.953	744.81
423.175	649.81
423.398	640.81
423.621	618.81
423.843	631.81
424.066	638.81
424.288	619.81
424.511	658.81
424.733	698.81
424.956	805.81
425.178	768.81
425.401	781.81
425.623	792.81
425.846	696.81
426.068	639.81
426.291	641.81
426.513	649.81
426.735	645.81
426.958	688.81
427.18	790.81
427.402	968.81
427.625	1038.81
427.847	885.81
428.069	783.81
428.292	709.81
428.514	646.81
428.736	614.81
428.958	627.81
429.181	593.81
429.403	594.81
429.625	602.81
429.847	635.81
430.069	708.81
430.292	701.81
430.514	588.81
430.736	569.81
430.958	590.81
431.18	580.81
431.402	581.81
431.624	540.81
431.846	565.81
432.068	557.81
432.29	586.81
432.512	560.81
432.734	568.81
432.956	548.81
433.178	584.81
433.4	602.81
433.622	565.81
433.844	541.81
434.066	544.81
434.287	583.81
434.509	568.81
434.731	582.81
434.953	589.81
435.175	584.81
435.397	632.81
435.618	630.81
435.84	693.81
436.062	780.81
436.284	888.81
436.505	715.81
436.727	650.81
436.949	621.81
437.17	615.81
437.392	586.81
437.614	596.81
437.835	673.81
438.057	739.81
438.278	858.81
438.5	860.81
438.721	969.81
438.943	903.81
439.165	732.81
439.386	677.81
439.608	640.81
439.829	628.81
440.05	680.81
440.272	737.81
440.493	668.81
440.715	636.81
440.936	603.81
441.158	594.81
441.379	584.81
441.6	608.81
441.822	648.81
442.043	666.81
442.264	775.81
442.486	814.81
442.707	699.81
442.928	655.81
443.149	674.81
443.371	680.81
443.592	723.81
443.813	877.81
444.034	907.81
444.255	764.81
444.476	692.81
444.698	653.81
444.919	659.81
445.14	769.81
445.361	718.81
445.582	688.81
445.803	788.81
446.024	909.81
446.245	878.81
446.466	781.81
446.687	685.81
446.908	624.81
447.129	602.81
447.35	576.81
447.571	608.81
447.792	566.81
448.013	569.81
448.234	636.81
448.455	658.81
448.675	806.81
448.896	944.81
449.117	805.81
449.338	761.81
449.559	848.81
449.779	990.81
450	778.81
450.221	654.81
450.442	596.81
450.662	586.81
450.883	590.81
451.104	580.81
451.324	605.81
451.545	558.81
451.766	537.81
451.986	519.81
452.207	521.81
452.428	529.81
452.648	525.81
452.869	520.81
453.089	525.81
453.31	553.81
453.53	541.81
453.751	542.81
453.971	529.81
454.192	540.81
454.412	515.81
454.633	516.81
454.853	510.81
455.073	527.81
455.294	573.81
455.514	629.81
455.734	619.81
455.955	540.81
456.175	526.81
456.395	507.81
456.616	503.81
456.836	498.81
457.056	493.81
457.276	475.81
457.497	478.81
457.717	511.81
457.937	519.81
458.157	519.81
458.377	516.81
458.598	537.81
458.818	609.81
459.038	698.81
459.258	715.81
459.478	630.81
459.698	581.81
459.918	555.81
460.138	561.81
460.358	592.81
460.578	581.81
460.798	559.81
461.018	574.81
461.238	572.81
461.458	572.81
461.678	570.81
461.898	587.81
462.118	576.81
462.338	595.81
462.558	626.81
462.777	598.81
462.997	634.81
463.217	659.81
463.437	640.81
463.657	639.81
463.876	607.81
464.096	615.81
464.316	618.81
464.536	615.81
464.755	617.81
464.975	620.81
465.195	632.81
465.414	739.81
465.634	660.81
465.854	601.81
466.073	590.81
466.293	574.81
466.512	562.81
466.732	570.81
466.951	541.81
467.171	538.81
467.391	539.81
467.61	571.81
467.829	566.81
468.049	571.81
468.268	538.81
468.488	547.81
468.707	543.81
468.927	537.81
469.146	527.81
469.365	514.81
469.585	532.81
469.804	557.81
470.023	560.81
470.243	557.81
470.462	568.81
470.681	599.81
470.901	555.81
471.12	574.81
471.339	568.81
471.558	532.81
471.777	567.81
471.997	526.81
472.216	553.81
472.435	586.81
472.654	585.81
472.873	550.81
473.092	551.81
473.311	537.81
473.53	537.81
473.749	576.81
473.968	607.81
474.187	732.81
474.406	756.81
474.625	618.81
474.844	584.81
475.063	547.81
475.282	582.81
475.501	568.81
475.72	560.81
475.939	589.81
476.158	548.81
476.377	549.81
476.596	560.81
476.814	594.81
477.033	598.81
477.252	599.81
477.471	579.81
477.69	597.81
477.908	600.81
478.127	589.81
478.346	594.81
478.564	637.81
478.783	621.81
479.002	643.81
479.22	636.81
479.439	653.81
479.658	658.81
479.876	664.81
480.095	681.81
480.313	705.81
480.532	712.81
480.751	677.81
480.969	694.81
481.188	778.81
481.406	811.81
481.624	732.81
481.843	687.81
482.061	682.81
482.28	668.81
482.498	666.81
482.717	640.81
482.935	653.81
483.153	613.81
483.372	639.81
483.59	652.81
483.808	661.81
484.027	633.81
484.245	644.81
484.463	656.81
484.681	678.81
484.9	668.81
485.118	643.81
485.336	670.81
485.554	662.81
485.772	677.81
485.99	690.81
486.209	643.81
486.427	669.81
486.645	686.81
486.863	685.81
487.081	708.81
487.299	698.81
487.517	659.81
487.735	692.81
487.953	723.81
488.171	675.81
488.389	704.81
488.607	717.81
488.825	722.81
489.043	683.81
489.261	734.81
489.479	695.81
489.696	734.81
489.914	720.81
490.132	712.81
490.35	722.81
490.568	750.81
490.786	752.81
491.003	734.81
491.221	754.81
491.439	802.81
491.657	781.81
491.874	782.81
492.092	812.81
492.31	832.81
492.527	803.81
492.745	804.81
492.963	817.81
493.18	812.81
493.398	870.81
493.615	860.81
493.833	826.81
494.05	834.81
494.268	819.81
494.485	845.81
494.703	832.81
494.92	818.81
495.138	848.81
495.355	849.81
495.573	836.81
495.79	827.81
496.008	850.81
496.225	816.81
496.442	818.81
496.66	843.81
496.877	831.81
497.094	842.81
497.312	863.81
497.529	872.81
497.746	868.81
497.963	869.81
498.181	904.81
498.398	905.81
498.615	936.81
498.832	973.81
499.049	966.81
499.267	999.81
499.484	1003.81
499.701	1065.81
499.918	1096.81
500.135	1157.81
500.352	1145.81
500.569	1205.81
500.786	1202.81
501.003	1183.81
501.22	1122.81
501.437	1156.81
501.654	1105.81
501.871	1104.81
502.088	1024.81
502.305	1014.81
502.522	973.81
502.739	924.81
502.956	910.81
503.172	895.81
503.389	882.81
503.606	866.81
503.823	874.81
504.04	864.81
504.256	862.81
504.473	839.81
504.69	832.81
504.907	844.81
505.123	802.81
505.34	802.81
505.557	839.81
505.773	818.81
505.99	802.81
506.207	808.81
506.423	806.81
506.64	778.81
506.856	774.81
507.073	790.81
507.289	788.81
507.506	782.81
507.722	780.81
507.939	766.81
508.155	757.81
508.372	742.81
508.588	762.81
508.805	748.81
509.021	734.81
509.238	765.81
509.454	757.81
509.67	723.81
509.887	737.81
510.103	740.81
510.319	755.81
510.536	851.81
510.752	1324.81
510.968	1125.81
511.184	788.81
511.401	715.81
511.617	692.81
511.833	704.81
512.049	710.81
512.265	706.81
512.481	681.81
512.698	707.81
512.914	729.81
513.13	681.81
513.346	700.81
513.562	697.81
513.778	708.81
513.994	705.81
514.21	726.81
514.426	747.81
514.642	760.81
514.858	793.81
515.074	850.81
515.29	964.81
515.506	1373.81
515.721	1143.81
515.937	837.81
516.153	771.81
516.369	764.81
516.585	744.81
516.801	754.81
517.016	736.81
517.232	757.81
517.448	740.81
517.664	749.81
517.879	725.81
518.095	712.81
518.311	732.81
518.527	754.81
518.742	718.81
518.958	724.81
519.173	715.81
519.389	709.81
519.605	721.81
519.82	706.81
520.036	718.81
520.251	754.81
520.467	743.81
520.682	766.81
520.898	774.81
521.113	774.81
521.329	818.81
521.544	919.81
521.76	1079.81
521.975	1730.81
522.19	1716.81
522.406	1004.81
522.621	784.81
522.836	726.81
523.052	674.81
523.267	680.81
523.482	666.81
523.698	658.81
523.913	632.81
524.128	634.81
524.343	640.81
524.559	630.81
524.774	633.81
524.989	631.81
525.204	639.81
525.419	620.81
525.634	621.81
525.849	591.81
526.064	580.81
526.28	609.81
526.495	564.81
526.71	594.81
526.925	596.81
527.14	583.81
527.355	585.81
527.57	571.81
527.785	559.81
527.999	598.81
528.214	555.81
528.429	569.81
528.644	572.81
528.859	603.81
529.074	578.81
529.289	600.81
529.503	684.81
529.718	672.81
529.933	608.81
530.148	578.81
530.363	608.81
530.577	599.81
530.792	582.81
531.007	548.81
531.221	568.81
531.436	586.81
531.651	542.81
531.865	554.81
532.08	572.81
532.295	577.81
532.509	553.81
532.724	542.81
532.938	539.81
533.153	549.81
533.367	514.81
533.582	547.81
533.796	554.81
534.011	558.81
534.225	538.81
534.44	553.81
534.654	557.81
534.868	567.81
535.083	576.81
535.297	544.81
535.511	554.81
535.726	549.81
535.94	533.81
536.154	552.81
536.369	561.81
536.583	537.81
536.797	543.81
537.011	535.81
537.225	554.81
537.44	540.81
537.654	537.81
537.868	532.81
538.082	548.81
538.296	561.81
538.51	547.81
538.724	546.81
538.938	526.81
539.153	543.81
539.367	572.81
539.581	548.81
539.795	525.81
540.009	527.81
540.222	518.81
540.436	517.81
540.65	535.81
540.864	544.81
541.078	548.81
541.292	534.81
541.506	530.81
541.72	523.81
541.934	532.81
542.147	528.81
542.361	512.81
542.575	517.81
542.789	512.81
543.002	520.81
543.216	553.81
543.43	548.81
543.644	527.81
543.857	546.81
544.071	540.81
544.285	542.81
544.498	525.81
544.712	530.81
544.925	550.81
545.139	518.81
545.352	533.81
545.566	512.81
545.779	514.81
545.993	518.81
546.206	513.81
546.42	514.81
546.633	510.81
546.847	523.81
547.06	500.81
547.274	517.81
547.487	491.81
547.7	484.81
547.914	511.81
548.127	516.81
548.34	508.81
548.554	514.81
548.767	509.81
548.98	507.81
549.193	514.81
549.407	495.81
549.62	488.81
549.833	496.81
550.046	488.81
550.259	516.81
550.473	482.81
550.686	505.81
550.899	509.81
551.112	497.81
551.325	496.81
551.538	504.81
551.751	511.81
551.964	500.81
552.177	498.81
552.39	496.81
552.603	505.81
552.816	508.81
553.029	522.81
553.242	513.81
553.455	513.81
553.667	555.81
553.88	555.81
554.093	547.81
554.306	506.81
554.519	500.81
554.732	516.81
554.944	486.81
555.157	492.81
555.37	484.81
555.583	478.81
555.795	493.81
556.008	480.81
556.221	472.81
556.433	469.81
556.646	464.81
556.859	479.81
557.071	453.81
557.284	447.81
557.496	451.81
557.709	459.81
557.921	466.81
558.134	456.81
558.346	442.81
558.559	459.81
558.771	462.81
558.984	450.81
559.196	448.81
559.409	439.81
559.621	457.81
559.833	442.81
560.046	424.81
560.258	450.81
560.47	463.81
560.683	453.81
560.895	460.81
561.107	448.81
561.32	434.81
561.532	452.81
561.744	442.81
561.956	443.81
562.168	455.81
562.381	450.81
562.593	468.81
562.805	461.81
563.017	448.81
563.229	464.81
563.441	464.81
563.653	469.81
563.865	444.81
564.077	446.81
564.289	456.81
564.501	496.81
564.713	469.81
564.925	498.81
565.137	496.81
565.349	503.81
565.561	500.81
565.773	511.81
565.985	489.81
566.197	531.81
566.408	562.81
566.62	551.81
566.832	576.81
567.044	550.81
567.255	553.81
567.467	565.81
567.679	582.81
567.891	597.81
568.102	599.81
568.314	566.81
568.526	551.81
568.737	554.81
568.949	546.81
569.161	516.81
569.372	498.81
569.584	457.81
569.795	484.81
570.007	457.81
570.218	515.81
570.43	498.81
570.641	468.81
570.853	440.81
571.064	449.81
571.276	440.81
571.487	422.81
571.698	422.81
571.91	420.81
572.121	429.81
572.333	421.81
572.544	416.81
572.755	404.81
572.966	393.81
573.178	406.81
573.389	394.81
573.6	390.81
573.811	395.81
574.023	394.81
574.234	414.81
574.445	389.81
574.656	404.81
574.867	404.81
575.078	403.81
575.289	404.81
575.501	399.81
575.712	368.81
575.923	381.81
576.134	386.81
576.345	396.81
576.556	413.81
576.767	381.81
576.978	380.81
577.188	361.81
577.399	386.81
577.61	373.81
577.821	369.81
578.032	377.81
578.243	405.81
578.454	609.81
578.665	472.81
578.875	370.81
579.086	368.81
579.297	360.81
579.508	345.81
579.718	384.81
579.929	355.81
580.14	354.81
580.35	344.81
580.561	346.81
580.772	378.81
580.982	369.81
581.193	346.81
581.403	352.81
581.614	370.81
581.825	347.81
582.035	335.81
582.246	377.81
582.456	342.81
582.667	348.81
582.877	361.81
583.087	340.81
583.298	346.81
583.508	344.81
583.719	356.81
583.929	371.81
584.139	346.81
584.35	333.81
584.56	348.81
584.77	340.81
584.981	337.81
585.191	361.81
585.401	341.81
585.611	344.81
585.821	337.81
586.032	341.81
586.242	334.81
586.452	336.81
586.662	325.81
586.872	331.81
587.082	356.81
587.292	325.81
587.502	336.81
587.713	327.81
587.923	336.81
588.133	362.81
588.343	340.81
588.553	352.81
588.762	368.81
588.972	338.81
589.182	328.81
589.392	347.81
589.602	350.81
589.812	331.81
590.022	346.81
590.232	320.81
590.441	352.81
590.651	345.81
590.861	360.81
591.071	341.81
591.281	332.81
591.49	362.81
591.7	346.81
591.91	356.81
592.119	345.81
592.329	349.81
592.539	352.81
592.748	361.81
592.958	378.81
593.167	348.81
593.377	362.81
593.587	365.81
593.796	366.81
594.006	359.81
594.215	362.81
594.424	371.81
594.634	341.81
594.843	356.81
595.053	333.81
595.262	334.81
595.472	354.81
595.681	341.81
595.89	334.81
596.1	324.81
596.309	330.81
596.518	347.81
596.727	332.81
596.937	325.81
597.146	322.81
597.355	319.81
597.564	331.81
597.774	315.81
597.983	325.81
598.192	321.81
598.401	314.81
598.61	311.81
598.819	313.81
599.028	292.81
599.237	308.81
599.446	293.81
599.655	297.81
599.864	305.81
600.073	305.81
600.282	301.81
600.491	291.81
600.7	304.81
600.909	292.81
601.118	300.81
601.327	325.81
601.536	304.81
601.745	295.81
601.953	295.81
602.162	294.81
602.371	286.81
602.58	285.81
602.789	288.81
602.997	290.81
603.206	292.81
603.415	289.81
603.623	284.81
603.832	297.81
604.041	271.81
604.249	285.81
604.458	305.81
604.666	282.81
604.875	285.81
605.084	288.81
605.292	287.81
605.501	280.81
605.709	285.81
605.918	285.81
606.126	279.81
606.334	269.81
606.543	280.81
606.751	252.81
606.96	266.81
607.168	274.81
607.376	283.81
607.585	277.81
607.793	274.81
608.001	280.81
608.21	293.81
608.418	278.81
608.626	262.81
608.834	282.81
609.043	271.81
609.251	277.81
609.459	260.81
609.667	264.81
609.875	272.81
610.083	291.81
610.291	289.81
610.499	254.81
610.707	277.81
610.916	276.81
611.124	296.81
611.332	286.81
611.54	284.81
611.748	273.81
611.955	280.81
612.163	265.81
612.371	270.81
612.579	256.81
612.787	274.81
612.995	262.81
613.203	257.81
613.411	265.81
613.618	252.81
613.826	270.81
614.034	270.81
614.242	249.81
614.449	243.81
614.657	253.81
614.865	254.81
615.072	272.81
615.28	266.81
615.488	263.81
615.695	262.81
615.903	266.81
616.111	251.81
616.318	277.81
616.526	276.81
616.733	268.81
616.941	272.81
617.148	269.81
617.356	274.81
617.563	266.81
617.771	275.81
617.978	267.81
618.185	261.81
618.393	255.81
618.6	260.81
618.807	266.81
619.015	267.81
619.222	243.81
619.429	263.81
619.637	268.81
619.844	248.81
620.051	248.81
620.258	246.81
620.466	255.81
620.673	240.81
620.88	243.81
621.087	243.81
621.294	263.81
621.501	248.81
621.708	240.81
621.915	245.81
622.122	252.81
622.329	260.81
622.536	242.81
622.743	244.81
622.95	230.81
623.157	260.81
623.364	251.81
623.571	253.81
623.778	255.81
623.985	254.81
624.192	253.81
624.399	232.81
624.606	252.81
624.812	224.81
625.019	246.81
625.226	234.81
625.433	244.81
625.639	236.81
625.846	225.81
626.053	224.81
626.259	237.81
626.466	231.81
626.673	247.81
626.879	227.81
627.086	242.81
627.293	238.81
627.499	234.81
627.706	244.81
627.912	243.81
628.119	218.81
628.325	224.81
628.532	223.81
628.738	211.81
628.945	227.81
629.151	217.81
629.357	224.81
629.564	204.81
629.77	221.81
629.976	224.81
630.183	210.81
630.389	212.81
630.595	219.81
630.802	218.81
631.008	213.81
631.214	213.81
631.42	196.81
631.627	199.81
631.833	223.81
632.039	209.81
632.245	225.81
632.451	198.81
632.657	226.81
632.863	191.81
633.069	210.81
633.275	209.81
633.481	205.81
633.688	210.81
633.893	196.81
634.099	195.81
634.305	189.81
634.511	210.81
634.717	175.81
634.923	186.81
635.129	211.81
635.335	189.81
635.541	192.81
635.747	208.81
635.952	195.81
636.158	200.81
636.364	208.81
636.57	196.81
636.775	188.81
636.981	200.81
637.187	203.81
637.392	216.81
637.598	193.81
637.804	218.81
638.009	186.81
638.215	194.81
638.421	211.81
638.626	212.81
638.832	196.81
639.037	187.81
639.243	191.81
639.448	188.81
639.654	204.81
639.859	193.81
640.065	185.81
640.27	184.81
640.475	200.81
640.681	185.81
640.886	196.81
641.091	180.81
641.297	186.81
641.502	194.81
641.707	189.81
641.913	198.81
642.118	193.81
642.323	189.81
642.528	197.81
642.733	198.81
642.939	167.81
643.144	186.81
643.349	185.81
643.554	181.81
643.759	170.81
643.964	173.81
644.169	177.81
644.374	173.81
644.579	184.81
644.784	178.81
644.989	169.81
645.194	182.81
645.399	178.81
645.604	169.81
645.809	183.81
646.014	183.81
646.219	184.81
646.423	191.81
646.628	189.81
646.833	185.81
647.038	182.81
647.243	177.81
647.447	179.81
647.652	179.81
647.857	179.81
648.062	178.81
648.266	192.81
648.471	189.81
648.676	195.81
648.88	188.81
649.085	176.81
649.289	188.81
649.494	179.81
649.698	209.81
649.903	201.81
650.107	173.81
650.312	197.81
650.516	168.81
650.721	168.81
650.925	170.81
651.13	173.81
651.334	158.81
651.539	159.81
651.743	171.81
651.947	155.81
652.152	164.81
652.356	154.81
652.56	151.81
652.764	157.81
652.969	147.81
653.173	141.81
653.377	130.81
653.581	144.81
653.785	147.81
653.99	153.81
654.194	156.81
654.398	142.81
654.602	152.81
654.806	142.81
655.01	144.81
655.214	152.81
655.418	144.81
655.622	136.81
655.826	146.81
656.03	131.81
656.234	145.81
656.438	140.81
656.642	138.81
656.846	145.81
657.049	144.81
657.253	128.81
657.457	137.81
657.661	133.81
657.865	115.81
658.068	103.81
658.272	119.81
658.476	114.81
658.68	100.81
658.883	104.81
659.087	107.81
659.291	105.81
659.494	96.81
659.698	101.81
659.901	111.81
660.105	82.81
660.309	84.81
660.512	84.81
660.716	99.81
660.919	91.81
661.123	90.81
661.326	104.81
661.53	97.81
661.733	100.81
661.936	81.81
662.14	87.81
662.343	72.81
662.546	77.81
662.75	82.81
662.953	98.81
663.156	88.81
663.36	82.81
663.563	84.81
663.766	75.81
663.969	86.81
664.173	97.81
664.376	92.81
664.579	94.81
664.782	82.81
664.985	81.81
665.188	85.81
665.391	83.81
665.594	72.81
665.797	72.81
666	75.81
666.203	76.81
666.406	78.81
666.609	96.81
666.812	90.81
667.015	61.81
667.218	77.81
667.421	69.81
667.624	88.81
667.827	80.81
668.03	80.81
668.232	69.81
668.435	74.81
668.638	86.81
668.841	81.81
669.043	72.81
669.246	75.81
669.449	85.81
669.651	88.81
669.854	75.81
670.057	84.81
670.259	96.81
670.462	93.81
670.665	68.81
670.867	79.81
671.07	81.81
671.272	93.81
671.475	86.81
671.677	72.81
671.88	79.81
672.082	79.81
672.284	82.81
672.487	83.81
672.689	72.81
672.892	77.81
