Data from 1966.PennyLincolnUp.Lamp.En5.5.200Scan.071719.P1.Scan2.head_HRD10591_14-17-48-137.txt Node
Date: Thu Jul 18 14:17:48 EDT 2019
User: cochatt
Spectrometer: HR+D1059
Trigger mode: 1
Integration Time (sec): 1.000000E-1
Scans to average: 1
Electric dark correction enabled: true
Nonlinearity correction enabled: false
Boxcar width: 0
XAxis mode: Wavelengths
Number of Pixels in Spectrum: 2048
>>>>>Begin Spectral Data<<<<<
223.165	-20.62
223.4	-20.62
223.635	-20.62
223.869	-25.62
224.104	-5.62
224.338	-25.62
224.573	-11.62
224.808	-13.62
225.042	-8.62
225.277	-3.62
225.511	-7.62
225.746	6.38
225.98	10.38
226.215	13.38
226.449	20.38
226.683	12.38
226.918	30.38
227.152	29.38
227.387	40.38
227.621	33.38
227.856	46.38
228.09	39.38
228.324	56.38
228.559	51.38
228.793	62.38
229.027	94.38
229.262	94.38
229.496	116.38
229.73	126.38
229.964	164.38
230.199	124.38
230.433	110.38
230.667	93.38
230.901	114.38
231.136	106.38
231.37	128.38
231.604	124.38
231.838	120.38
232.072	99.38
232.306	115.38
232.541	105.38
232.775	106.38
233.009	121.38
233.243	130.38
233.477	124.38
233.711	104.38
233.945	118.38
234.179	131.38
234.413	108.38
234.647	127.38
234.881	119.38
235.115	120.38
235.349	103.38
235.583	125.38
235.817	131.38
236.051	125.38
236.285	123.38
236.519	133.38
236.753	128.38
236.987	142.38
237.221	175.38
237.455	219.38
237.689	190.38
237.922	151.38
238.156	144.38
238.39	129.38
238.624	128.38
238.858	106.38
239.091	126.38
239.325	117.38
239.559	131.38
239.793	131.38
240.027	148.38
240.26	156.38
240.494	169.38
240.728	159.38
240.961	165.38
241.195	164.38
241.429	136.38
241.662	145.38
241.896	132.38
242.13	134.38
242.363	138.38
242.597	148.38
242.83	130.38
243.064	154.38
243.298	151.38
243.531	136.38
243.765	138.38
243.998	150.38
244.232	142.38
244.465	141.38
244.699	152.38
244.932	152.38
245.166	144.38
245.399	147.38
245.633	147.38
245.866	150.38
246.099	148.38
246.333	152.38
246.566	160.38
246.8	130.38
247.033	150.38
247.266	156.38
247.5	175.38
247.733	166.38
247.966	172.38
248.2	186.38
248.433	157.38
248.666	188.38
248.899	178.38
249.133	197.38
249.366	210.38
249.599	208.38
249.832	186.38
250.066	175.38
250.299	193.38
250.532	206.38
250.765	207.38
250.998	223.38
251.231	227.38
251.465	202.38
251.698	187.38
251.931	207.38
252.164	200.38
252.397	207.38
252.63	209.38
252.863	213.38
253.096	219.38
253.329	243.38
253.562	219.38
253.795	221.38
254.028	209.38
254.261	210.38
254.494	231.38
254.727	246.38
254.96	267.38
255.193	277.38
255.426	239.38
255.659	221.38
255.892	223.38
256.124	235.38
256.357	233.38
256.59	224.38
256.823	217.38
257.056	214.38
257.289	208.38
257.521	211.38
257.754	214.38
257.987	203.38
258.22	206.38
258.452	212.38
258.685	227.38
258.918	216.38
259.151	191.38
259.383	216.38
259.616	211.38
259.849	241.38
260.081	246.38
260.314	243.38
260.547	255.38
260.779	247.38
261.012	217.38
261.244	202.38
261.477	224.38
261.71	227.38
261.942	221.38
262.175	228.38
262.407	238.38
262.64	231.38
262.872	222.38
263.105	206.38
263.337	219.38
263.57	216.38
263.802	217.38
264.035	213.38
264.267	208.38
264.499	237.38
264.732	230.38
264.964	235.38
265.197	221.38
265.429	212.38
265.661	203.38
265.894	213.38
266.126	242.38
266.358	222.38
266.591	219.38
266.823	216.38
267.055	234.38
267.287	216.38
267.52	218.38
267.752	219.38
267.984	224.38
268.216	248.38
268.448	240.38
268.681	242.38
268.913	232.38
269.145	258.38
269.377	281.38
269.609	262.38
269.841	261.38
270.073	285.38
270.306	296.38
270.538	329.38
270.77	310.38
271.002	306.38
271.234	297.38
271.466	281.38
271.698	297.38
271.93	325.38
272.162	308.38
272.394	312.38
272.626	306.38
272.858	280.38
273.09	276.38
273.322	278.38
273.553	266.38
273.785	261.38
274.017	260.38
274.249	265.38
274.481	269.38
274.713	260.38
274.945	270.38
275.176	272.38
275.408	254.38
275.64	269.38
275.872	254.38
276.104	267.38
276.335	276.38
276.567	266.38
276.799	304.38
277.031	303.38
277.262	306.38
277.494	312.38
277.726	312.38
277.957	296.38
278.189	269.38
278.421	286.38
278.652	283.38
278.884	280.38
279.115	291.38
279.347	271.38
279.579	259.38
279.81	278.38
280.042	262.38
280.273	281.38
280.505	298.38
280.736	269.38
280.968	273.38
281.199	270.38
281.431	282.38
281.662	265.38
281.894	277.38
282.125	288.38
282.356	302.38
282.588	300.38
282.819	306.38
283.051	282.38
283.282	287.38
283.513	270.38
283.745	279.38
283.976	279.38
284.207	299.38
284.439	293.38
284.67	294.38
284.901	278.38
285.132	281.38
285.364	270.38
285.595	282.38
285.826	309.38
286.057	292.38
286.288	283.38
286.52	269.38
286.751	280.38
286.982	294.38
287.213	301.38
287.444	301.38
287.675	282.38
287.906	308.38
288.138	288.38
288.369	300.38
288.6	304.38
288.831	306.38
289.062	291.38
289.293	300.38
289.524	287.38
289.755	283.38
289.986	306.38
290.217	292.38
290.448	295.38
290.679	292.38
290.91	302.38
291.141	314.38
291.371	292.38
291.602	303.38
291.833	287.38
292.064	295.38
292.295	288.38
292.526	290.38
292.757	308.38
292.987	304.38
293.218	282.38
293.449	307.38
293.68	295.38
293.91	322.38
294.141	288.38
294.372	297.38
294.603	288.38
294.833	294.38
295.064	319.38
295.295	310.38
295.525	281.38
295.756	308.38
295.987	308.38
296.217	325.38
296.448	336.38
296.679	332.38
296.909	313.38
297.14	306.38
297.37	297.38
297.601	319.38
297.831	317.38
298.062	309.38
298.292	300.38
298.523	335.38
298.753	320.38
298.984	314.38
299.214	315.38
299.445	308.38
299.675	316.38
299.905	329.38
300.136	324.38
300.366	317.38
300.597	340.38
300.827	334.38
301.057	328.38
301.288	323.38
301.518	333.38
301.748	330.38
301.979	347.38
302.209	344.38
302.439	334.38
302.669	332.38
302.9	333.38
303.13	343.38
303.36	336.38
303.59	343.38
303.82	352.38
304.051	344.38
304.281	340.38
304.511	327.38
304.741	344.38
304.971	330.38
305.201	335.38
305.431	329.38
305.661	330.38
305.891	335.38
306.121	345.38
306.352	337.38
306.582	365.38
306.812	328.38
307.042	350.38
307.272	332.38
307.502	331.38
307.731	342.38
307.961	348.38
308.191	329.38
308.421	339.38
308.651	355.38
308.881	342.38
309.111	351.38
309.341	336.38
309.571	363.38
309.8	366.38
310.03	384.38
310.26	382.38
310.49	365.38
310.72	375.38
310.949	388.38
311.179	402.38
311.409	398.38
311.639	387.38
311.868	374.38
312.098	382.38
312.328	400.38
312.557	415.38
312.787	396.38
313.017	418.38
313.246	400.38
313.476	393.38
313.706	383.38
313.935	391.38
314.165	390.38
314.394	415.38
314.624	390.38
314.853	379.38
315.083	380.38
315.312	387.38
315.542	391.38
315.771	390.38
316.001	383.38
316.23	387.38
316.46	391.38
316.689	377.38
316.919	387.38
317.148	416.38
317.377	379.38
317.607	380.38
317.836	402.38
318.065	396.38
318.295	393.38
318.524	375.38
318.753	395.38
318.983	381.38
319.212	381.38
319.441	376.38
319.67	399.38
319.9	382.38
320.129	403.38
320.358	398.38
320.587	375.38
320.816	398.38
321.046	414.38
321.275	412.38
321.504	406.38
321.733	423.38
321.962	418.38
322.191	428.38
322.42	444.38
322.649	440.38
322.878	456.38
323.108	447.38
323.337	482.38
323.566	491.38
323.795	530.38
324.024	550.38
324.253	672.38
324.482	908.38
324.71	1442.38
324.939	2178.38
325.168	1881.38
325.397	920.38
325.626	652.38
325.855	543.38
326.084	500.38
326.313	496.38
326.542	506.38
326.77	550.38
326.999	619.38
327.228	851.38
327.457	1280.38
327.686	1630.38
327.914	1066.38
328.143	720.38
328.372	638.38
328.6	591.38
328.829	538.38
329.058	559.38
329.287	579.38
329.515	538.38
329.744	528.38
329.972	533.38
330.201	542.38
330.43	553.38
330.658	587.38
330.887	588.38
331.115	602.38
331.344	555.38
331.572	485.38
331.801	499.38
332.03	490.38
332.258	474.38
332.486	469.38
332.715	484.38
332.943	482.38
333.172	468.38
333.4	486.38
333.629	475.38
333.857	487.38
334.085	512.38
334.314	515.38
334.542	569.38
334.771	596.38
334.999	523.38
335.227	502.38
335.455	490.38
335.684	479.38
335.912	485.38
336.14	482.38
336.369	481.38
336.597	465.38
336.825	487.38
337.053	479.38
337.281	466.38
337.51	451.38
337.738	459.38
337.966	447.38
338.194	455.38
338.422	442.38
338.65	474.38
338.878	468.38
339.106	449.38
339.334	441.38
339.562	451.38
339.79	459.38
340.018	450.38
340.246	445.38
340.474	459.38
340.702	472.38
340.93	453.38
341.158	464.38
341.386	444.38
341.614	463.38
341.842	447.38
342.07	424.38
342.298	439.38
342.526	448.38
342.754	443.38
342.981	443.38
343.209	446.38
343.437	450.38
343.665	426.38
343.893	436.38
344.12	467.38
344.348	465.38
344.576	475.38
344.804	462.38
345.031	451.38
345.259	479.38
345.487	462.38
345.714	468.38
345.942	456.38
346.17	440.38
346.397	441.38
346.625	436.38
346.853	438.38
347.08	457.38
347.308	444.38
347.535	440.38
347.763	446.38
347.99	446.38
348.218	432.38
348.445	459.38
348.673	448.38
348.9	450.38
349.128	442.38
349.355	429.38
349.583	434.38
349.81	445.38
350.037	444.38
350.265	422.38
350.492	422.38
350.72	448.38
350.947	436.38
351.174	454.38
351.402	440.38
351.629	455.38
351.856	446.38
352.083	445.38
352.311	443.38
352.538	458.38
352.765	472.38
352.992	461.38
353.22	445.38
353.447	434.38
353.674	438.38
353.901	434.38
354.128	412.38
354.355	412.38
354.583	411.38
354.81	407.38
355.037	414.38
355.264	419.38
355.491	408.38
355.718	422.38
355.945	391.38
356.172	418.38
356.399	411.38
356.626	440.38
356.853	415.38
357.08	422.38
357.307	413.38
357.534	415.38
357.761	429.38
357.988	424.38
358.215	436.38
358.441	407.38
358.668	422.38
358.895	421.38
359.122	416.38
359.349	457.38
359.576	440.38
359.802	474.38
360.029	475.38
360.256	487.38
360.483	488.38
360.709	467.38
360.936	435.38
361.163	460.38
361.39	463.38
361.616	452.38
361.843	425.38
362.07	454.38
362.296	466.38
362.523	471.38
362.749	430.38
362.976	428.38
363.203	419.38
363.429	421.38
363.656	449.38
363.882	420.38
364.109	422.38
364.335	446.38
364.562	417.38
364.788	440.38
365.015	446.38
365.241	441.38
365.468	436.38
365.694	423.38
365.92	417.38
366.147	422.38
366.373	428.38
366.599	430.38
366.826	431.38
367.052	430.38
367.278	422.38
367.505	427.38
367.731	421.38
367.957	458.38
368.184	440.38
368.41	444.38
368.636	447.38
368.862	448.38
369.089	461.38
369.315	442.38
369.541	416.38
369.767	444.38
369.993	445.38
370.219	418.38
370.445	421.38
370.672	436.38
370.898	446.38
371.124	444.38
371.35	430.38
371.576	430.38
371.802	444.38
372.028	425.38
372.254	430.38
372.48	450.38
372.706	458.38
372.932	445.38
373.158	448.38
373.384	462.38
373.61	436.38
373.835	448.38
374.061	451.38
374.287	440.38
374.513	448.38
374.739	446.38
374.965	427.38
375.191	442.38
375.416	435.38
375.642	437.38
375.868	446.38
376.094	445.38
376.319	435.38
376.545	429.38
376.771	447.38
376.997	435.38
377.222	441.38
377.448	442.38
377.674	453.38
377.899	449.38
378.125	414.38
378.35	439.38
378.576	436.38
378.802	432.38
379.027	454.38
379.253	446.38
379.478	424.38
379.704	440.38
379.929	455.38
380.155	444.38
380.38	445.38
380.606	435.38
380.831	418.38
381.057	420.38
381.282	422.38
381.507	431.38
381.733	460.38
381.958	430.38
382.184	453.38
382.409	443.38
382.634	447.38
382.86	455.38
383.085	462.38
383.31	483.38
383.535	463.38
383.761	444.38
383.986	461.38
384.211	485.38
384.436	465.38
384.662	455.38
384.887	465.38
385.112	479.38
385.337	468.38
385.562	483.38
385.787	489.38
386.013	492.38
386.238	492.38
386.463	489.38
386.688	497.38
386.913	460.38
387.138	495.38
387.363	474.38
387.588	484.38
387.813	483.38
388.038	485.38
388.263	467.38
388.488	475.38
388.713	491.38
388.938	488.38
389.163	494.38
389.387	489.38
389.612	493.38
389.837	493.38
390.062	495.38
390.287	512.38
390.512	504.38
390.736	474.38
390.961	476.38
391.186	494.38
391.411	499.38
391.636	500.38
391.86	487.38
392.085	507.38
392.31	514.38
392.534	498.38
392.759	518.38
392.984	514.38
393.208	520.38
393.433	510.38
393.658	492.38
393.882	507.38
394.107	508.38
394.331	508.38
394.556	488.38
394.78	493.38
395.005	507.38
395.229	490.38
395.454	482.38
395.678	521.38
395.903	527.38
396.127	535.38
396.352	534.38
396.576	515.38
396.801	509.38
397.025	529.38
397.249	531.38
397.474	524.38
397.698	534.38
397.922	538.38
398.147	544.38
398.371	555.38
398.595	567.38
398.82	546.38
399.044	583.38
399.268	604.38
399.492	634.38
399.717	664.38
399.941	672.38
400.165	707.38
400.389	731.38
400.613	648.38
400.837	622.38
401.062	592.38
401.286	607.38
401.51	566.38
401.734	575.38
401.958	584.38
402.182	595.38
402.406	605.38
402.63	578.38
402.854	571.38
403.078	581.38
403.302	612.38
403.526	603.38
403.75	604.38
403.974	604.38
404.198	590.38
404.422	614.38
404.645	606.38
404.869	631.38
405.093	654.38
405.317	671.38
405.541	732.38
405.765	647.38
405.988	642.38
406.212	649.38
406.436	668.38
406.66	654.38
406.883	632.38
407.107	648.38
407.331	702.38
407.555	805.38
407.778	790.38
408.002	708.38
408.226	638.38
408.449	638.38
408.673	643.38
408.896	694.38
409.12	732.38
409.344	682.38
409.567	628.38
409.791	623.38
410.014	598.38
410.238	619.38
410.461	598.38
410.685	606.38
410.908	632.38
411.132	672.38
411.355	701.38
411.578	664.38
411.802	613.38
412.025	605.38
412.249	612.38
412.472	633.38
412.695	672.38
412.919	666.38
413.142	614.38
413.365	600.38
413.589	580.38
413.812	600.38
414.035	575.38
414.258	562.38
414.482	556.38
414.705	576.38
414.928	587.38
415.151	559.38
415.374	580.38
415.597	586.38
415.821	572.38
416.044	596.38
416.267	570.38
416.49	541.38
416.713	568.38
416.936	534.38
417.159	542.38
417.382	571.38
417.605	550.38
417.828	578.38
418.051	563.38
418.274	585.38
418.497	573.38
418.72	556.38
418.943	563.38
419.166	616.38
419.389	620.38
419.611	601.38
419.834	596.38
420.057	584.38
420.28	603.38
420.503	590.38
420.726	587.38
420.948	599.38
421.171	633.38
421.394	714.38
421.617	630.38
421.839	592.38
422.062	595.38
422.285	599.38
422.507	646.38
422.73	774.38
422.953	761.38
423.175	661.38
423.398	602.38
423.621	592.38
423.843	626.38
424.066	629.38
424.288	604.38
424.511	655.38
424.733	706.38
424.956	822.38
425.178	753.38
425.401	786.38
425.623	795.38
425.846	678.38
426.068	640.38
426.291	620.38
426.513	623.38
426.735	628.38
426.958	676.38
427.18	785.38
427.402	906.38
427.625	1006.38
427.847	862.38
428.069	757.38
428.292	698.38
428.514	628.38
428.736	624.38
428.958	610.38
429.181	582.38
429.403	588.38
429.625	595.38
429.847	608.38
430.069	714.38
430.292	696.38
430.514	613.38
430.736	589.38
430.958	584.38
431.18	548.38
431.402	555.38
431.624	568.38
431.846	550.38
432.068	534.38
432.29	550.38
432.512	549.38
432.734	571.38
432.956	568.38
433.178	558.38
433.4	569.38
433.622	583.38
433.844	555.38
434.066	550.38
434.287	572.38
434.509	560.38
434.731	591.38
434.953	595.38
435.175	588.38
435.397	631.38
435.618	622.38
435.84	686.38
436.062	786.38
436.284	842.38
436.505	700.38
436.727	626.38
436.949	615.38
437.17	584.38
437.392	564.38
437.614	583.38
437.835	604.38
438.057	723.38
438.278	862.38
438.5	845.38
438.721	918.38
438.943	890.38
439.165	722.38
439.386	669.38
439.608	618.38
439.829	630.38
440.05	662.38
440.272	700.38
440.493	668.38
440.715	615.38
440.936	605.38
441.158	600.38
441.379	576.38
441.6	594.38
441.822	619.38
442.043	684.38
442.264	782.38
442.486	826.38
442.707	693.38
442.928	646.38
443.149	620.38
443.371	679.38
443.592	714.38
443.813	813.38
444.034	886.38
444.255	732.38
444.476	668.38
444.698	656.38
444.919	660.38
445.14	726.38
445.361	677.38
445.582	665.38
445.803	767.38
446.024	848.38
446.245	867.38
446.466	782.38
446.687	678.38
446.908	631.38
447.129	597.38
447.35	582.38
447.571	576.38
447.792	568.38
448.013	577.38
448.234	599.38
448.455	674.38
448.675	783.38
448.896	872.38
449.117	769.38
449.338	714.38
449.559	835.38
449.779	943.38
450	768.38
450.221	646.38
450.442	574.38
450.662	535.38
450.883	595.38
451.104	597.38
451.324	573.38
451.545	557.38
451.766	548.38
451.986	513.38
452.207	534.38
452.428	535.38
452.648	529.38
452.869	535.38
453.089	523.38
453.31	559.38
453.53	525.38
453.751	513.38
453.971	530.38
454.192	544.38
454.412	536.38
454.633	518.38
454.853	521.38
455.073	522.38
455.294	543.38
455.514	602.38
455.734	595.38
455.955	530.38
456.175	477.38
456.395	492.38
456.616	493.38
456.836	479.38
457.056	488.38
457.276	476.38
457.497	480.38
457.717	494.38
457.937	509.38
458.157	491.38
458.377	512.38
458.598	539.38
458.818	587.38
459.038	676.38
459.258	683.38
459.478	604.38
459.698	558.38
459.918	566.38
460.138	562.38
460.358	551.38
460.578	542.38
460.798	578.38
461.018	589.38
461.238	573.38
461.458	546.38
461.678	544.38
461.898	554.38
462.118	567.38
462.338	587.38
462.558	601.38
462.777	604.38
462.997	640.38
463.217	599.38
463.437	626.38
463.657	611.38
463.876	594.38
464.096	606.38
464.316	612.38
464.536	617.38
464.755	594.38
464.975	618.38
465.195	671.38
465.414	700.38
465.634	630.38
465.854	576.38
466.073	573.38
466.293	540.38
466.512	551.38
466.732	539.38
466.951	526.38
467.171	534.38
467.391	544.38
467.61	550.38
467.829	568.38
468.049	548.38
468.268	550.38
468.488	538.38
468.707	546.38
468.927	524.38
469.146	513.38
469.365	544.38
469.585	493.38
469.804	530.38
470.023	536.38
470.243	547.38
470.462	547.38
470.681	556.38
470.901	536.38
471.12	543.38
471.339	537.38
471.558	542.38
471.777	547.38
471.997	508.38
472.216	559.38
472.435	590.38
472.654	577.38
472.873	528.38
473.092	546.38
473.311	546.38
473.53	558.38
473.749	551.38
473.968	591.38
474.187	684.38
474.406	709.38
474.625	606.38
474.844	564.38
475.063	538.38
475.282	538.38
475.501	563.38
475.72	548.38
475.939	562.38
476.158	582.38
476.377	567.38
476.596	578.38
476.814	570.38
477.033	575.38
477.252	569.38
477.471	587.38
477.69	603.38
477.908	586.38
478.127	596.38
478.346	590.38
478.564	622.38
478.783	628.38
479.002	616.38
479.22	634.38
479.439	636.38
479.658	636.38
479.876	663.38
480.095	645.38
480.313	714.38
480.532	693.38
480.751	662.38
480.969	662.38
481.188	726.38
481.406	793.38
481.624	702.38
481.843	654.38
482.061	664.38
482.28	648.38
482.498	633.38
482.717	644.38
482.935	633.38
483.153	646.38
483.372	652.38
483.59	639.38
483.808	642.38
484.027	646.38
484.245	644.38
484.463	666.38
484.681	653.38
484.9	660.38
485.118	671.38
485.336	649.38
485.554	663.38
485.772	656.38
485.99	675.38
486.209	648.38
486.427	674.38
486.645	678.38
486.863	685.38
487.081	717.38
487.299	676.38
487.517	699.38
487.735	673.38
487.953	685.38
488.171	681.38
488.389	672.38
488.607	680.38
488.825	692.38
489.043	702.38
489.261	691.38
489.479	711.38
489.696	710.38
489.914	701.38
490.132	710.38
490.35	695.38
490.568	740.38
490.786	722.38
491.003	727.38
491.221	759.38
491.439	768.38
491.657	774.38
491.874	785.38
492.092	766.38
492.31	797.38
492.527	781.38
492.745	788.38
492.963	804.38
493.18	807.38
493.398	812.38
493.615	833.38
493.833	818.38
494.05	798.38
494.268	826.38
494.485	821.38
494.703	791.38
494.92	810.38
495.138	792.38
495.355	815.38
495.573	813.38
495.79	820.38
496.008	833.38
496.225	813.38
496.442	811.38
496.66	835.38
496.877	807.38
497.094	836.38
497.312	832.38
497.529	846.38
497.746	856.38
497.963	883.38
498.181	904.38
498.398	895.38
498.615	915.38
498.832	931.38
499.049	970.38
499.267	996.38
499.484	1018.38
499.701	1045.38
499.918	1087.38
500.135	1129.38
500.352	1195.38
500.569	1189.38
500.786	1226.38
501.003	1226.38
501.22	1168.38
501.437	1110.38
501.654	1084.38
501.871	1062.38
502.088	1026.38
502.305	998.38
502.522	948.38
502.739	934.38
502.956	902.38
503.172	874.38
503.389	866.38
503.606	873.38
503.823	871.38
504.04	830.38
504.256	825.38
504.473	837.38
504.69	806.38
504.907	803.38
505.123	842.38
505.34	805.38
505.557	800.38
505.773	800.38
505.99	776.38
506.207	801.38
506.423	772.38
506.64	758.38
506.856	742.38
507.073	750.38
507.289	737.38
507.506	759.38
507.722	758.38
507.939	780.38
508.155	763.38
508.372	741.38
508.588	688.38
508.805	696.38
509.021	727.38
509.238	733.38
509.454	751.38
509.67	734.38
509.887	727.38
510.103	717.38
510.319	749.38
510.536	808.38
510.752	1239.38
510.968	1038.38
511.184	739.38
511.401	711.38
511.617	703.38
511.833	702.38
512.049	688.38
512.265	677.38
512.481	682.38
512.698	694.38
512.914	692.38
513.13	672.38
513.346	673.38
513.562	720.38
513.778	704.38
513.994	693.38
514.21	707.38
514.426	695.38
514.642	766.38
514.858	794.38
515.074	816.38
515.29	940.38
515.506	1256.38
515.721	1076.38
515.937	815.38
516.153	752.38
516.369	750.38
516.585	743.38
516.801	745.38
517.016	732.38
517.232	729.38
517.448	700.38
517.664	742.38
517.879	718.38
518.095	728.38
518.311	746.38
518.527	719.38
518.742	698.38
518.958	684.38
519.173	686.38
519.389	704.38
519.605	713.38
519.82	700.38
520.036	700.38
520.251	733.38
520.467	739.38
520.682	741.38
520.898	734.38
521.113	753.38
521.329	792.38
521.544	877.38
521.76	1039.38
521.975	1653.38
522.19	1607.38
522.406	929.38
522.621	757.38
522.836	687.38
523.052	694.38
523.267	660.38
523.482	636.38
523.698	644.38
523.913	607.38
524.128	611.38
524.343	590.38
524.559	628.38
524.774	607.38
524.989	600.38
525.204	618.38
525.419	605.38
525.634	598.38
525.849	613.38
526.064	603.38
526.28	591.38
526.495	578.38
526.71	601.38
526.925	588.38
527.14	566.38
527.355	574.38
527.57	588.38
527.785	579.38
527.999	573.38
528.214	569.38
528.429	574.38
528.644	567.38
528.859	569.38
529.074	585.38
529.289	594.38
529.503	654.38
529.718	654.38
529.933	610.38
530.148	601.38
530.363	587.38
530.577	536.38
530.792	580.38
531.007	552.38
531.221	559.38
531.436	555.38
531.651	564.38
531.865	546.38
532.08	572.38
532.295	554.38
532.509	551.38
532.724	578.38
532.938	535.38
533.153	542.38
533.367	539.38
533.582	520.38
533.796	544.38
534.011	563.38
534.225	529.38
534.44	530.38
534.654	542.38
534.868	535.38
535.083	528.38
535.297	538.38
535.511	566.38
535.726	558.38
535.94	552.38
536.154	555.38
536.369	549.38
536.583	513.38
536.797	534.38
537.011	534.38
537.225	503.38
537.44	502.38
537.654	509.38
537.868	529.38
538.082	563.38
538.296	526.38
538.51	544.38
538.724	532.38
538.938	532.38
539.153	522.38
539.367	534.38
539.581	532.38
539.795	524.38
540.009	529.38
540.222	518.38
540.436	524.38
540.65	524.38
540.864	544.38
541.078	542.38
541.292	532.38
541.506	509.38
541.72	491.38
541.934	518.38
542.147	510.38
542.361	511.38
542.575	500.38
542.789	513.38
543.002	535.38
543.216	532.38
543.43	521.38
543.644	527.38
543.857	507.38
544.071	515.38
544.285	500.38
544.498	487.38
544.712	514.38
544.925	525.38
545.139	521.38
545.352	522.38
545.566	518.38
545.779	507.38
545.993	534.38
546.206	493.38
546.42	512.38
546.633	507.38
546.847	496.38
547.06	514.38
547.274	502.38
547.487	493.38
547.7	510.38
547.914	500.38
548.127	490.38
548.34	513.38
548.554	506.38
548.767	535.38
548.98	525.38
549.193	508.38
549.407	516.38
549.62	496.38
549.833	534.38
550.046	499.38
550.259	500.38
550.473	503.38
550.686	488.38
550.899	492.38
551.112	497.38
551.325	508.38
551.538	486.38
551.751	514.38
551.964	490.38
552.177	482.38
552.39	497.38
552.603	505.38
552.816	514.38
553.029	520.38
553.242	516.38
553.455	510.38
553.667	498.38
553.88	515.38
554.093	522.38
554.306	533.38
554.519	489.38
554.732	492.38
554.944	484.38
555.157	477.38
555.37	500.38
555.583	496.38
555.795	484.38
556.008	470.38
556.221	458.38
556.433	468.38
556.646	441.38
556.859	476.38
557.071	450.38
557.284	475.38
557.496	465.38
557.709	464.38
557.921	460.38
558.134	448.38
558.346	440.38
558.559	464.38
558.771	464.38
558.984	428.38
559.196	448.38
559.409	462.38
559.621	458.38
559.833	438.38
560.046	431.38
560.258	426.38
560.47	445.38
560.683	435.38
560.895	460.38
561.107	424.38
561.32	442.38
561.532	443.38
561.744	448.38
561.956	450.38
562.168	446.38
562.381	454.38
562.593	451.38
562.805	428.38
563.017	445.38
563.229	447.38
563.441	459.38
563.653	434.38
563.865	448.38
564.077	444.38
564.289	474.38
564.501	446.38
564.713	472.38
564.925	469.38
565.137	476.38
565.349	486.38
565.561	490.38
565.773	503.38
565.985	530.38
566.197	528.38
566.408	532.38
566.62	543.38
566.832	553.38
567.044	562.38
567.255	550.38
567.467	578.38
567.679	584.38
567.891	597.38
568.102	598.38
568.314	576.38
568.526	533.38
568.737	548.38
568.949	518.38
569.161	500.38
569.372	501.38
569.584	471.38
569.795	464.38
570.007	462.38
570.218	486.38
570.43	474.38
570.641	430.38
570.853	446.38
571.064	443.38
571.276	445.38
571.487	419.38
571.698	431.38
571.91	422.38
572.121	399.38
572.333	407.38
572.544	416.38
572.755	396.38
572.966	409.38
573.178	391.38
573.389	406.38
573.6	434.38
573.811	409.38
574.023	397.38
574.234	406.38
574.445	384.38
574.656	391.38
574.867	387.38
575.078	387.38
575.289	407.38
575.501	400.38
575.712	373.38
575.923	377.38
576.134	380.38
576.345	389.38
576.556	391.38
576.767	372.38
576.978	383.38
577.188	382.38
577.399	367.38
577.61	370.38
577.821	384.38
578.032	376.38
578.243	385.38
578.454	607.38
578.665	488.38
578.875	364.38
579.086	375.38
579.297	369.38
579.508	376.38
579.718	362.38
579.929	361.38
580.14	341.38
580.35	362.38
580.561	364.38
580.772	358.38
580.982	355.38
581.193	359.38
581.403	352.38
581.614	353.38
581.825	357.38
582.035	358.38
582.246	348.38
582.456	358.38
582.667	335.38
582.877	342.38
583.087	330.38
583.298	342.38
583.508	351.38
583.719	350.38
583.929	349.38
584.139	322.38
584.35	335.38
584.56	327.38
584.77	335.38
584.981	331.38
585.191	340.38
585.401	345.38
585.611	342.38
585.821	346.38
586.032	353.38
586.242	352.38
586.452	337.38
586.662	333.38
586.872	341.38
587.082	341.38
587.292	334.38
587.502	336.38
587.713	339.38
587.923	346.38
588.133	334.38
588.343	327.38
588.553	335.38
588.762	341.38
588.972	325.38
589.182	344.38
589.392	348.38
589.602	340.38
589.812	323.38
590.022	333.38
590.232	313.38
590.441	339.38
590.651	325.38
590.861	357.38
591.071	338.38
591.281	336.38
591.49	332.38
591.7	334.38
591.91	342.38
592.119	332.38
592.329	357.38
592.539	368.38
592.748	386.38
592.958	363.38
593.167	356.38
593.377	352.38
593.587	364.38
593.796	367.38
594.006	356.38
594.215	372.38
594.424	378.38
594.634	367.38
594.843	346.38
595.053	342.38
595.262	339.38
595.472	339.38
595.681	351.38
595.89	338.38
596.1	329.38
596.309	331.38
596.518	334.38
596.727	340.38
596.937	327.38
597.146	334.38
597.355	326.38
597.564	302.38
597.774	328.38
597.983	312.38
598.192	309.38
598.401	294.38
598.61	291.38
598.819	291.38
599.028	304.38
599.237	297.38
599.446	301.38
599.655	298.38
599.864	302.38
600.073	309.38
600.282	302.38
600.491	303.38
600.7	310.38
600.909	306.38
601.118	284.38
601.327	294.38
601.536	299.38
601.745	293.38
601.953	286.38
602.162	291.38
602.371	304.38
602.58	280.38
602.789	291.38
602.997	299.38
603.206	290.38
603.415	293.38
603.623	277.38
603.832	271.38
604.041	271.38
604.249	276.38
604.458	303.38
604.666	282.38
604.875	261.38
605.084	266.38
605.292	271.38
605.501	290.38
605.709	286.38
605.918	267.38
606.126	285.38
606.334	303.38
606.543	283.38
606.751	273.38
606.96	276.38
607.168	266.38
607.376	283.38
607.585	300.38
607.793	280.38
608.001	282.38
608.21	271.38
608.418	276.38
608.626	266.38
608.834	255.38
609.043	286.38
609.251	262.38
609.459	278.38
609.667	265.38
609.875	264.38
610.083	280.38
610.291	275.38
610.499	296.38
610.707	275.38
610.916	275.38
611.124	269.38
611.332	268.38
611.54	282.38
611.748	281.38
611.955	254.38
612.163	260.38
612.371	261.38
612.579	290.38
612.787	271.38
612.995	264.38
613.203	289.38
613.411	282.38
613.618	269.38
613.826	276.38
614.034	271.38
614.242	244.38
614.449	236.38
614.657	269.38
614.865	287.38
615.072	280.38
615.28	257.38
615.488	245.38
615.695	280.38
615.903	272.38
616.111	258.38
616.318	279.38
616.526	276.38
616.733	291.38
616.941	273.38
617.148	277.38
617.356	273.38
617.563	273.38
617.771	255.38
617.978	258.38
618.185	276.38
618.393	255.38
618.6	263.38
618.807	277.38
619.015	272.38
619.222	245.38
619.429	255.38
619.637	257.38
619.844	260.38
620.051	280.38
620.258	257.38
620.466	273.38
620.673	244.38
620.88	227.38
621.087	248.38
621.294	258.38
621.501	252.38
621.708	262.38
621.915	258.38
622.122	239.38
622.329	266.38
622.536	266.38
622.743	246.38
622.95	222.38
623.157	253.38
623.364	224.38
623.571	258.38
623.778	242.38
623.985	270.38
624.192	263.38
624.399	220.38
624.606	239.38
624.812	238.38
625.019	221.38
625.226	228.38
625.433	238.38
625.639	239.38
625.846	237.38
626.053	239.38
626.259	229.38
626.466	224.38
626.673	237.38
626.879	246.38
627.086	225.38
627.293	239.38
627.499	221.38
627.706	247.38
627.912	218.38
628.119	205.38
628.325	235.38
628.532	246.38
628.738	229.38
628.945	220.38
629.151	220.38
629.357	226.38
629.564	233.38
629.77	235.38
629.976	220.38
630.183	210.38
630.389	212.38
630.595	232.38
630.802	208.38
631.008	225.38
631.214	206.38
631.42	217.38
631.627	227.38
631.833	217.38
632.039	209.38
632.245	186.38
632.451	212.38
632.657	199.38
632.863	208.38
633.069	207.38
633.275	206.38
633.481	186.38
633.688	206.38
633.893	211.38
634.099	218.38
634.305	199.38
634.511	196.38
634.717	210.38
634.923	202.38
635.129	203.38
635.335	203.38
635.541	200.38
635.747	197.38
635.952	211.38
636.158	220.38
636.364	203.38
636.57	186.38
636.775	201.38
636.981	208.38
637.187	191.38
637.392	195.38
637.598	195.38
637.804	200.38
638.009	189.38
638.215	212.38
638.421	200.38
638.626	194.38
638.832	198.38
639.037	194.38
639.243	191.38
639.448	182.38
639.654	179.38
639.859	192.38
640.065	195.38
640.27	198.38
640.475	198.38
640.681	198.38
640.886	167.38
641.091	188.38
641.297	191.38
641.502	190.38
641.707	186.38
641.913	190.38
642.118	201.38
642.323	172.38
642.528	184.38
642.733	184.38
642.939	188.38
643.144	196.38
643.349	186.38
643.554	179.38
643.759	178.38
643.964	185.38
644.169	179.38
644.374	179.38
644.579	181.38
644.784	182.38
644.989	166.38
645.194	185.38
645.399	170.38
645.604	187.38
645.809	190.38
646.014	182.38
646.219	179.38
646.423	162.38
646.628	178.38
646.833	167.38
647.038	178.38
647.243	192.38
647.447	176.38
647.652	195.38
647.857	183.38
648.062	175.38
648.266	184.38
648.471	183.38
648.676	188.38
648.88	193.38
649.085	189.38
649.289	189.38
649.494	183.38
649.698	194.38
649.903	199.38
650.107	196.38
650.312	184.38
650.516	187.38
650.721	166.38
650.925	168.38
651.13	152.38
651.334	165.38
651.539	172.38
651.743	166.38
651.947	148.38
652.152	167.38
652.356	160.38
652.56	158.38
652.764	147.38
652.969	155.38
653.173	142.38
653.377	154.38
653.581	146.38
653.785	142.38
653.99	151.38
654.194	148.38
654.398	150.38
654.602	159.38
654.806	153.38
655.01	151.38
655.214	154.38
655.418	145.38
655.622	134.38
655.826	140.38
656.03	140.38
656.234	152.38
656.438	146.38
656.642	138.38
656.846	144.38
657.049	135.38
657.253	120.38
657.457	139.38
657.661	136.38
657.865	122.38
658.068	113.38
658.272	116.38
658.476	115.38
658.68	110.38
658.883	104.38
659.087	92.38
659.291	102.38
659.494	98.38
659.698	94.38
659.901	99.38
660.105	107.38
660.309	100.38
660.512	95.38
660.716	99.38
660.919	92.38
661.123	99.38
661.326	93.38
661.53	91.38
661.733	93.38
661.936	82.38
662.14	71.38
662.343	86.38
662.546	85.38
662.75	93.38
662.953	93.38
663.156	94.38
663.36	80.38
663.563	86.38
663.766	77.38
663.969	87.38
664.173	72.38
664.376	78.38
664.579	88.38
664.782	98.38
664.985	84.38
665.188	78.38
665.391	90.38
665.594	75.38
665.797	79.38
666	81.38
666.203	79.38
666.406	77.38
666.609	75.38
666.812	90.38
667.015	70.38
667.218	83.38
667.421	82.38
667.624	77.38
667.827	95.38
668.03	83.38
668.232	88.38
668.435	74.38
668.638	75.38
668.841	86.38
669.043	82.38
669.246	92.38
669.449	100.38
669.651	75.38
669.854	96.38
670.057	92.38
670.259	79.38
670.462	78.38
670.665	69.38
670.867	91.38
671.07	86.38
671.272	82.38
671.475	76.38
671.677	85.38
671.88	82.38
672.082	87.38
672.284	84.38
672.487	76.38
672.689	84.38
672.892	76.38
