Data from 1966.PennyLincolnUp.Lamp.En5.5.200Scan.071719.P1.Scan2.head_HRD10591_14-18-43-210.txt Node
Date: Thu Jul 18 14:18:43 EDT 2019
User: cochatt
Spectrometer: HR+D1059
Trigger mode: 1
Integration Time (sec): 1.000000E-1
Scans to average: 1
Electric dark correction enabled: true
Nonlinearity correction enabled: false
Boxcar width: 0
XAxis mode: Wavelengths
Number of Pixels in Spectrum: 2048
>>>>>Begin Spectral Data<<<<<
223.165	-30.94
223.4	-30.94
223.635	-30.94
223.869	-13.94
224.104	-13.94
224.338	-13.94
224.573	-13.94
224.808	-19.94
225.042	-6.94
225.277	-5.94
225.511	10.06
225.746	-3.94
225.98	14.06
226.215	23.06
226.449	23.06
226.683	2.06
226.918	23.06
227.152	28.06
227.387	43.06
227.621	52.06
227.856	48.06
228.09	51.06
228.324	61.06
228.559	25.06
228.793	60.06
229.027	108.06
229.262	109.06
229.496	109.06
229.73	142.06
229.964	153.06
230.199	124.06
230.433	121.06
230.667	105.06
230.901	108.06
231.136	104.06
231.37	113.06
231.604	107.06
231.838	119.06
232.072	132.06
232.306	119.06
232.541	116.06
232.775	137.06
233.009	118.06
233.243	132.06
233.477	118.06
233.711	109.06
233.945	121.06
234.179	122.06
234.413	112.06
234.647	120.06
234.881	122.06
235.115	128.06
235.349	99.06
235.583	129.06
235.817	114.06
236.051	128.06
236.285	126.06
236.519	129.06
236.753	130.06
236.987	156.06
237.221	191.06
237.455	246.06
237.689	223.06
237.922	142.06
238.156	134.06
238.39	127.06
238.624	126.06
238.858	130.06
239.091	138.06
239.325	126.06
239.559	140.06
239.793	127.06
240.027	133.06
240.26	156.06
240.494	169.06
240.728	164.06
240.961	156.06
241.195	155.06
241.429	151.06
241.662	134.06
241.896	134.06
242.13	143.06
242.363	147.06
242.597	136.06
242.83	129.06
243.064	157.06
243.298	143.06
243.531	145.06
243.765	156.06
243.998	160.06
244.232	144.06
244.465	156.06
244.699	139.06
244.932	163.06
245.166	172.06
245.399	151.06
245.633	166.06
245.866	161.06
246.099	145.06
246.333	166.06
246.566	171.06
246.8	159.06
247.033	153.06
247.266	174.06
247.5	168.06
247.733	182.06
247.966	180.06
248.2	174.06
248.433	180.06
248.666	177.06
248.899	198.06
249.133	215.06
249.366	216.06
249.599	205.06
249.832	204.06
250.066	194.06
250.299	177.06
250.532	207.06
250.765	219.06
250.998	221.06
251.231	242.06
251.465	231.06
251.698	221.06
251.931	199.06
252.164	200.06
252.397	196.06
252.63	200.06
252.863	223.06
253.096	229.06
253.329	235.06
253.562	228.06
253.795	223.06
254.028	229.06
254.261	232.06
254.494	248.06
254.727	262.06
254.96	286.06
255.193	289.06
255.426	253.06
255.659	244.06
255.892	237.06
256.124	221.06
256.357	236.06
256.59	237.06
256.823	234.06
257.056	231.06
257.289	222.06
257.521	232.06
257.754	225.06
257.987	214.06
258.22	219.06
258.452	210.06
258.685	224.06
258.918	225.06
259.151	228.06
259.383	227.06
259.616	226.06
259.849	238.06
260.081	240.06
260.314	259.06
260.547	280.06
260.779	242.06
261.012	256.06
261.244	222.06
261.477	241.06
261.71	226.06
261.942	238.06
262.175	256.06
262.407	254.06
262.64	236.06
262.872	226.06
263.105	220.06
263.337	228.06
263.57	213.06
263.802	216.06
264.035	213.06
264.267	222.06
264.499	226.06
264.732	233.06
264.964	232.06
265.197	234.06
265.429	228.06
265.661	221.06
265.894	214.06
266.126	233.06
266.358	234.06
266.591	250.06
266.823	244.06
267.055	249.06
267.287	242.06
267.52	239.06
267.752	241.06
267.984	238.06
268.216	230.06
268.448	243.06
268.681	257.06
268.913	275.06
269.145	259.06
269.377	275.06
269.609	279.06
269.841	284.06
270.073	299.06
270.306	319.06
270.538	326.06
270.77	324.06
271.002	302.06
271.234	303.06
271.466	318.06
271.698	332.06
271.93	351.06
272.162	334.06
272.394	330.06
272.626	324.06
272.858	309.06
273.09	295.06
273.322	281.06
273.553	278.06
273.785	282.06
274.017	277.06
274.249	284.06
274.481	277.06
274.713	274.06
274.945	294.06
275.176	275.06
275.408	283.06
275.64	265.06
275.872	285.06
276.104	280.06
276.335	285.06
276.567	290.06
276.799	300.06
277.031	338.06
277.262	344.06
277.494	324.06
277.726	313.06
277.957	310.06
278.189	297.06
278.421	291.06
278.652	304.06
278.884	267.06
279.115	295.06
279.347	254.06
279.579	277.06
279.81	274.06
280.042	267.06
280.273	269.06
280.505	265.06
280.736	273.06
280.968	297.06
281.199	292.06
281.431	279.06
281.662	287.06
281.894	292.06
282.125	294.06
282.356	291.06
282.588	308.06
282.819	322.06
283.051	284.06
283.282	268.06
283.513	293.06
283.745	283.06
283.976	281.06
284.207	305.06
284.439	294.06
284.67	297.06
284.901	294.06
285.132	303.06
285.364	314.06
285.595	289.06
285.826	292.06
286.057	290.06
286.288	292.06
286.52	297.06
286.751	303.06
286.982	304.06
287.213	300.06
287.444	292.06
287.675	302.06
287.906	324.06
288.138	300.06
288.369	323.06
288.6	313.06
288.831	316.06
289.062	307.06
289.293	311.06
289.524	322.06
289.755	317.06
289.986	290.06
290.217	292.06
290.448	309.06
290.679	310.06
290.91	317.06
291.141	311.06
291.371	297.06
291.602	320.06
291.833	327.06
292.064	308.06
292.295	313.06
292.526	286.06
292.757	292.06
292.987	319.06
293.218	316.06
293.449	317.06
293.68	320.06
293.91	315.06
294.141	311.06
294.372	314.06
294.603	304.06
294.833	318.06
295.064	301.06
295.295	304.06
295.525	309.06
295.756	318.06
295.987	325.06
296.217	346.06
296.448	345.06
296.679	341.06
296.909	314.06
297.14	334.06
297.37	337.06
297.601	324.06
297.831	321.06
298.062	319.06
298.292	310.06
298.523	330.06
298.753	330.06
298.984	328.06
299.214	336.06
299.445	339.06
299.675	343.06
299.905	321.06
300.136	338.06
300.366	339.06
300.597	330.06
300.827	332.06
301.057	329.06
301.288	343.06
301.518	329.06
301.748	320.06
301.979	335.06
302.209	358.06
302.439	342.06
302.669	356.06
302.9	354.06
303.13	348.06
303.36	346.06
303.59	370.06
303.82	344.06
304.051	351.06
304.281	349.06
304.511	342.06
304.741	332.06
304.971	342.06
305.201	346.06
305.431	351.06
305.661	353.06
305.891	335.06
306.121	324.06
306.352	350.06
306.582	347.06
306.812	337.06
307.042	347.06
307.272	333.06
307.502	337.06
307.731	372.06
307.961	369.06
308.191	367.06
308.421	351.06
308.651	359.06
308.881	362.06
309.111	362.06
309.341	359.06
309.571	380.06
309.8	387.06
310.03	372.06
310.26	412.06
310.49	375.06
310.72	393.06
310.949	416.06
311.179	423.06
311.409	391.06
311.639	405.06
311.868	402.06
312.098	390.06
312.328	400.06
312.557	411.06
312.787	425.06
313.017	416.06
313.246	427.06
313.476	392.06
313.706	391.06
313.935	407.06
314.165	412.06
314.394	417.06
314.624	412.06
314.853	424.06
315.083	396.06
315.312	394.06
315.542	398.06
315.771	377.06
316.001	398.06
316.23	410.06
316.46	390.06
316.689	403.06
316.919	402.06
317.148	420.06
317.377	404.06
317.607	410.06
317.836	405.06
318.065	406.06
318.295	385.06
318.524	396.06
318.753	401.06
318.983	397.06
319.212	396.06
319.441	391.06
319.67	429.06
319.9	410.06
320.129	402.06
320.358	402.06
320.587	422.06
320.816	426.06
321.046	436.06
321.275	432.06
321.504	424.06
321.733	423.06
321.962	401.06
322.191	421.06
322.42	440.06
322.649	472.06
322.878	475.06
323.108	472.06
323.337	489.06
323.566	518.06
323.795	566.06
324.024	604.06
324.253	719.06
324.482	1002.06
324.71	1591.06
324.939	2372.06
325.168	2038.06
325.397	1016.06
325.626	657.06
325.855	578.06
326.084	528.06
326.313	513.06
326.542	525.06
326.77	587.06
326.999	689.06
327.228	906.06
327.457	1423.06
327.686	1793.06
327.914	1138.06
328.143	742.06
328.372	664.06
328.6	605.06
328.829	598.06
329.058	607.06
329.287	630.06
329.515	588.06
329.744	553.06
329.972	547.06
330.201	585.06
330.43	615.06
330.658	619.06
330.887	646.06
331.115	638.06
331.344	546.06
331.572	517.06
331.801	538.06
332.03	542.06
332.258	506.06
332.486	473.06
332.715	514.06
332.943	477.06
333.172	484.06
333.4	470.06
333.629	492.06
333.857	521.06
334.085	530.06
334.314	546.06
334.542	578.06
334.771	598.06
334.999	550.06
335.227	529.06
335.455	485.06
335.684	489.06
335.912	495.06
336.14	495.06
336.369	481.06
336.597	493.06
336.825	494.06
337.053	501.06
337.281	484.06
337.51	469.06
337.738	480.06
337.966	483.06
338.194	485.06
338.422	466.06
338.65	457.06
338.878	468.06
339.106	460.06
339.334	462.06
339.562	446.06
339.79	466.06
340.018	485.06
340.246	469.06
340.474	473.06
340.702	474.06
340.93	458.06
341.158	463.06
341.386	448.06
341.614	480.06
341.842	460.06
342.07	449.06
342.298	460.06
342.526	450.06
342.754	448.06
342.981	445.06
343.209	447.06
343.437	460.06
343.665	446.06
343.893	470.06
344.12	481.06
344.348	480.06
344.576	456.06
344.804	471.06
345.031	484.06
345.259	470.06
345.487	471.06
345.714	461.06
345.942	458.06
346.17	454.06
346.397	435.06
346.625	442.06
346.853	478.06
347.08	461.06
347.308	445.06
347.535	477.06
347.763	467.06
347.99	470.06
348.218	471.06
348.445	476.06
348.673	441.06
348.9	432.06
349.128	441.06
349.355	411.06
349.583	438.06
349.81	452.06
350.037	437.06
350.265	445.06
350.492	447.06
350.72	450.06
350.947	454.06
351.174	456.06
351.402	473.06
351.629	469.06
351.856	451.06
352.083	477.06
352.311	447.06
352.538	467.06
352.765	472.06
352.992	477.06
353.22	467.06
353.447	465.06
353.674	456.06
353.901	430.06
354.128	426.06
354.355	423.06
354.583	449.06
354.81	416.06
355.037	425.06
355.264	421.06
355.491	425.06
355.718	424.06
355.945	441.06
356.172	432.06
356.399	426.06
356.626	400.06
356.853	423.06
357.08	417.06
357.307	439.06
357.534	422.06
357.761	416.06
357.988	416.06
358.215	447.06
358.441	417.06
358.668	418.06
358.895	439.06
359.122	441.06
359.349	445.06
359.576	449.06
359.802	482.06
360.029	511.06
360.256	528.06
360.483	500.06
360.709	461.06
360.936	476.06
361.163	446.06
361.39	463.06
361.616	467.06
361.843	445.06
362.07	463.06
362.296	465.06
362.523	456.06
362.749	439.06
362.976	451.06
363.203	451.06
363.429	448.06
363.656	450.06
363.882	446.06
364.109	436.06
364.335	449.06
364.562	457.06
364.788	443.06
365.015	459.06
365.241	453.06
365.468	444.06
365.694	450.06
365.92	468.06
366.147	457.06
366.373	450.06
366.599	433.06
366.826	430.06
367.052	444.06
367.278	453.06
367.505	436.06
367.731	449.06
367.957	449.06
368.184	462.06
368.41	431.06
368.636	449.06
368.862	465.06
369.089	455.06
369.315	455.06
369.541	432.06
369.767	451.06
369.993	462.06
370.219	458.06
370.445	444.06
370.672	448.06
370.898	430.06
371.124	444.06
371.35	437.06
371.576	438.06
371.802	448.06
372.028	439.06
372.254	446.06
372.48	449.06
372.706	460.06
372.932	445.06
373.158	466.06
373.384	445.06
373.61	452.06
373.835	428.06
374.061	449.06
374.287	444.06
374.513	447.06
374.739	470.06
374.965	473.06
375.191	441.06
375.416	473.06
375.642	458.06
375.868	460.06
376.094	447.06
376.319	446.06
376.545	456.06
376.771	447.06
376.997	447.06
377.222	441.06
377.448	432.06
377.674	444.06
377.899	434.06
378.125	456.06
378.35	461.06
378.576	449.06
378.802	444.06
379.027	428.06
379.253	448.06
379.478	450.06
379.704	443.06
379.929	474.06
380.155	457.06
380.38	428.06
380.606	456.06
380.831	439.06
381.057	466.06
381.282	434.06
381.507	454.06
381.733	461.06
381.958	466.06
382.184	473.06
382.409	479.06
382.634	454.06
382.86	466.06
383.085	449.06
383.31	469.06
383.535	455.06
383.761	486.06
383.986	461.06
384.211	453.06
384.436	463.06
384.662	469.06
384.887	501.06
385.112	518.06
385.337	482.06
385.562	471.06
385.787	483.06
386.013	490.06
386.238	522.06
386.463	512.06
386.688	508.06
386.913	493.06
387.138	497.06
387.363	491.06
387.588	503.06
387.813	477.06
388.038	484.06
388.263	506.06
388.488	486.06
388.713	518.06
388.938	509.06
389.163	518.06
389.387	509.06
389.612	502.06
389.837	487.06
390.062	506.06
390.287	506.06
390.512	498.06
390.736	516.06
390.961	493.06
391.186	481.06
391.411	517.06
391.636	516.06
391.86	509.06
392.085	514.06
392.31	526.06
392.534	529.06
392.759	532.06
392.984	518.06
393.208	517.06
393.433	517.06
393.658	505.06
393.882	506.06
394.107	517.06
394.331	514.06
394.556	514.06
394.78	514.06
395.005	510.06
395.229	508.06
395.454	525.06
395.678	529.06
395.903	538.06
396.127	558.06
396.352	566.06
396.576	528.06
396.801	526.06
397.025	524.06
397.249	551.06
397.474	517.06
397.698	548.06
397.922	562.06
398.147	549.06
398.371	574.06
398.595	548.06
398.82	557.06
399.044	581.06
399.268	622.06
399.492	647.06
399.717	676.06
399.941	689.06
400.165	732.06
400.389	739.06
400.613	669.06
400.837	591.06
401.062	618.06
401.286	599.06
401.51	591.06
401.734	592.06
401.958	587.06
402.182	585.06
402.406	595.06
402.63	588.06
402.854	614.06
403.078	592.06
403.302	606.06
403.526	581.06
403.75	610.06
403.974	621.06
404.198	609.06
404.422	616.06
404.645	622.06
404.869	622.06
405.093	662.06
405.317	710.06
405.541	768.06
405.765	674.06
405.988	623.06
406.212	625.06
406.436	678.06
406.66	685.06
406.883	663.06
407.107	678.06
407.331	719.06
407.555	805.06
407.778	797.06
408.002	728.06
408.226	692.06
408.449	676.06
408.673	666.06
408.896	714.06
409.12	752.06
409.344	692.06
409.567	637.06
409.791	632.06
410.014	624.06
410.238	605.06
410.461	593.06
410.685	635.06
410.908	604.06
411.132	655.06
411.355	662.06
411.578	663.06
411.802	615.06
412.025	605.06
412.249	612.06
412.472	657.06
412.695	690.06
412.919	655.06
413.142	639.06
413.365	613.06
413.589	604.06
413.812	576.06
414.035	596.06
414.258	546.06
414.482	581.06
414.705	590.06
414.928	597.06
415.151	579.06
415.374	559.06
415.597	565.06
415.821	589.06
416.044	578.06
416.267	579.06
416.49	574.06
416.713	579.06
416.936	578.06
417.159	580.06
417.382	586.06
417.605	569.06
417.828	590.06
418.051	626.06
418.274	580.06
418.497	571.06
418.72	585.06
418.943	555.06
419.166	616.06
419.389	624.06
419.611	638.06
419.834	624.06
420.057	594.06
420.28	601.06
420.503	618.06
420.726	603.06
420.948	598.06
421.171	664.06
421.394	683.06
421.617	633.06
421.839	607.06
422.062	598.06
422.285	602.06
422.507	687.06
422.73	792.06
422.953	728.06
423.175	658.06
423.398	628.06
423.621	606.06
423.843	656.06
424.066	651.06
424.288	640.06
424.511	658.06
424.733	714.06
424.956	809.06
425.178	795.06
425.401	794.06
425.623	804.06
425.846	686.06
426.068	637.06
426.291	640.06
426.513	646.06
426.735	639.06
426.958	692.06
427.18	776.06
427.402	952.06
427.625	1071.06
427.847	875.06
428.069	790.06
428.292	694.06
428.514	639.06
428.736	639.06
428.958	625.06
429.181	609.06
429.403	608.06
429.625	625.06
429.847	644.06
430.069	708.06
430.292	749.06
430.514	635.06
430.736	610.06
430.958	611.06
431.18	585.06
431.402	570.06
431.624	553.06
431.846	550.06
432.068	565.06
432.29	567.06
432.512	561.06
432.734	573.06
432.956	584.06
433.178	580.06
433.4	598.06
433.622	594.06
433.844	584.06
434.066	574.06
434.287	573.06
434.509	575.06
434.731	565.06
434.953	595.06
435.175	609.06
435.397	639.06
435.618	641.06
435.84	718.06
436.062	805.06
436.284	866.06
436.505	725.06
436.727	654.06
436.949	625.06
437.17	602.06
437.392	602.06
437.614	631.06
437.835	647.06
438.057	762.06
438.278	850.06
438.5	865.06
438.721	956.06
438.943	910.06
439.165	712.06
439.386	655.06
439.608	666.06
439.829	656.06
440.05	693.06
440.272	742.06
440.493	699.06
440.715	623.06
440.936	635.06
441.158	612.06
441.379	598.06
441.6	615.06
441.822	642.06
442.043	702.06
442.264	826.06
442.486	865.06
442.707	704.06
442.928	678.06
443.149	676.06
443.371	704.06
443.592	738.06
443.813	839.06
444.034	938.06
444.255	762.06
444.476	686.06
444.698	658.06
444.919	672.06
445.14	769.06
445.361	715.06
445.582	703.06
445.803	782.06
446.024	886.06
446.245	923.06
446.466	798.06
446.687	693.06
446.908	649.06
447.129	612.06
447.35	596.06
447.571	607.06
447.792	588.06
448.013	598.06
448.234	616.06
448.455	670.06
448.675	797.06
448.896	931.06
449.117	791.06
449.338	746.06
449.559	861.06
449.779	968.06
450	780.06
450.221	648.06
450.442	604.06
450.662	588.06
450.883	574.06
451.104	606.06
451.324	584.06
451.545	580.06
451.766	543.06
451.986	521.06
452.207	518.06
452.428	520.06
452.648	535.06
452.869	522.06
453.089	537.06
453.31	557.06
453.53	535.06
453.751	529.06
453.971	547.06
454.192	553.06
454.412	537.06
454.633	545.06
454.853	530.06
455.073	545.06
455.294	566.06
455.514	639.06
455.734	609.06
455.955	534.06
456.175	494.06
456.395	506.06
456.616	501.06
456.836	493.06
457.056	492.06
457.276	491.06
457.497	530.06
457.717	516.06
457.937	503.06
458.157	504.06
458.377	520.06
458.598	565.06
458.818	598.06
459.038	710.06
459.258	736.06
459.478	635.06
459.698	584.06
459.918	582.06
460.138	582.06
460.358	587.06
460.578	575.06
460.798	593.06
461.018	588.06
461.238	600.06
461.458	592.06
461.678	577.06
461.898	582.06
462.118	613.06
462.338	617.06
462.558	622.06
462.777	621.06
462.997	634.06
463.217	662.06
463.437	649.06
463.657	642.06
463.876	625.06
464.096	621.06
464.316	624.06
464.536	649.06
464.755	622.06
464.975	646.06
465.195	669.06
465.414	744.06
465.634	667.06
465.854	616.06
466.073	574.06
466.293	584.06
466.512	575.06
466.732	554.06
466.951	554.06
467.171	544.06
467.391	551.06
467.61	557.06
467.829	552.06
468.049	550.06
468.268	546.06
468.488	556.06
468.707	545.06
468.927	527.06
469.146	518.06
469.365	533.06
469.585	540.06
469.804	530.06
470.023	560.06
470.243	559.06
470.462	557.06
470.681	583.06
470.901	568.06
471.12	568.06
471.339	568.06
471.558	546.06
471.777	597.06
471.997	550.06
472.216	545.06
472.435	593.06
472.654	599.06
472.873	561.06
473.092	575.06
473.311	557.06
473.53	559.06
473.749	564.06
473.968	597.06
474.187	731.06
474.406	730.06
474.625	624.06
474.844	556.06
475.063	572.06
475.282	535.06
475.501	549.06
475.72	549.06
475.939	552.06
476.158	580.06
476.377	590.06
476.596	575.06
476.814	599.06
477.033	600.06
477.252	592.06
477.471	587.06
477.69	602.06
477.908	617.06
478.127	628.06
478.346	600.06
478.564	639.06
478.783	644.06
479.002	657.06
479.22	652.06
479.439	658.06
479.658	680.06
479.876	699.06
480.095	689.06
480.313	717.06
480.532	711.06
480.751	689.06
480.969	692.06
481.188	774.06
481.406	832.06
481.624	751.06
481.843	691.06
482.061	676.06
482.28	656.06
482.498	666.06
482.717	648.06
482.935	649.06
483.153	640.06
483.372	672.06
483.59	647.06
483.808	677.06
484.027	640.06
484.245	657.06
484.463	668.06
484.681	682.06
484.9	681.06
485.118	655.06
485.336	693.06
485.554	684.06
485.772	670.06
485.99	666.06
486.209	681.06
486.427	674.06
486.645	694.06
486.863	711.06
487.081	713.06
487.299	710.06
487.517	704.06
487.735	698.06
487.953	693.06
488.171	710.06
488.389	701.06
488.607	717.06
488.825	701.06
489.043	729.06
489.261	705.06
489.479	731.06
489.696	695.06
489.914	712.06
490.132	725.06
490.35	736.06
490.568	745.06
490.786	732.06
491.003	757.06
491.221	764.06
491.439	795.06
491.657	822.06
491.874	808.06
492.092	817.06
492.31	796.06
492.527	825.06
492.745	836.06
492.963	842.06
493.18	838.06
493.398	863.06
493.615	839.06
493.833	836.06
494.05	833.06
494.268	824.06
494.485	854.06
494.703	820.06
494.92	812.06
495.138	835.06
495.355	824.06
495.573	849.06
495.79	849.06
496.008	870.06
496.225	847.06
496.442	822.06
496.66	860.06
496.877	846.06
497.094	866.06
497.312	861.06
497.529	872.06
497.746	885.06
497.963	870.06
498.181	941.06
498.398	930.06
498.615	940.06
498.832	966.06
499.049	988.06
499.267	1004.06
499.484	1037.06
499.701	1078.06
499.918	1105.06
500.135	1176.06
500.352	1197.06
500.569	1213.06
500.786	1241.06
501.003	1198.06
501.22	1182.06
501.437	1176.06
501.654	1119.06
501.871	1101.06
502.088	1034.06
502.305	1040.06
502.522	999.06
502.739	949.06
502.956	906.06
503.172	942.06
503.389	905.06
503.606	879.06
503.823	874.06
504.04	872.06
504.256	854.06
504.473	848.06
504.69	863.06
504.907	852.06
505.123	874.06
505.34	822.06
505.557	820.06
505.773	825.06
505.99	786.06
506.207	793.06
506.423	789.06
506.64	805.06
506.856	805.06
507.073	785.06
507.289	784.06
507.506	775.06
507.722	800.06
507.939	783.06
508.155	784.06
508.372	754.06
508.588	751.06
508.805	736.06
509.021	754.06
509.238	761.06
509.454	760.06
509.67	781.06
509.887	747.06
510.103	756.06
510.319	787.06
510.536	841.06
510.752	1314.06
510.968	1126.06
511.184	754.06
511.401	743.06
511.617	732.06
511.833	723.06
512.049	715.06
512.265	710.06
512.481	693.06
512.698	700.06
512.914	724.06
513.13	701.06
513.346	694.06
513.562	704.06
513.778	724.06
513.994	713.06
514.21	741.06
514.426	751.06
514.642	781.06
514.858	830.06
515.074	848.06
515.29	1014.06
515.506	1410.06
515.721	1177.06
515.937	869.06
516.153	796.06
516.369	744.06
516.585	749.06
516.801	756.06
517.016	742.06
517.232	743.06
517.448	745.06
517.664	729.06
517.879	733.06
518.095	762.06
518.311	764.06
518.527	732.06
518.742	725.06
518.958	721.06
519.173	717.06
519.389	717.06
519.605	730.06
519.82	692.06
520.036	741.06
520.251	728.06
520.467	772.06
520.682	773.06
520.898	791.06
521.113	803.06
521.329	834.06
521.544	922.06
521.76	1095.06
521.975	1749.06
522.19	1768.06
522.406	1012.06
522.621	798.06
522.836	733.06
523.052	708.06
523.267	683.06
523.482	662.06
523.698	648.06
523.913	623.06
524.128	664.06
524.343	650.06
524.559	630.06
524.774	621.06
524.989	640.06
525.204	632.06
525.419	638.06
525.634	638.06
525.849	608.06
526.064	601.06
526.28	586.06
526.495	598.06
526.71	600.06
526.925	600.06
527.14	612.06
527.355	604.06
527.57	587.06
527.785	579.06
527.999	578.06
528.214	582.06
528.429	598.06
528.644	580.06
528.859	589.06
529.074	589.06
529.289	612.06
529.503	705.06
529.718	696.06
529.933	637.06
530.148	595.06
530.363	600.06
530.577	583.06
530.792	580.06
531.007	590.06
531.221	560.06
531.436	571.06
531.651	577.06
531.865	572.06
532.08	555.06
532.295	564.06
532.509	574.06
532.724	564.06
532.938	582.06
533.153	581.06
533.367	561.06
533.582	567.06
533.796	554.06
534.011	571.06
534.225	555.06
534.44	535.06
534.654	531.06
534.868	536.06
535.083	555.06
535.297	582.06
535.511	572.06
535.726	562.06
535.94	558.06
536.154	544.06
536.369	575.06
536.583	555.06
536.797	530.06
537.011	544.06
537.225	535.06
537.44	542.06
537.654	550.06
537.868	549.06
538.082	540.06
538.296	546.06
538.51	554.06
538.724	553.06
538.938	540.06
539.153	546.06
539.367	546.06
539.581	545.06
539.795	530.06
540.009	549.06
540.222	536.06
540.436	527.06
540.65	537.06
540.864	512.06
541.078	543.06
541.292	544.06
541.506	539.06
541.72	550.06
541.934	523.06
542.147	507.06
542.361	522.06
542.575	524.06
542.789	548.06
543.002	549.06
543.216	528.06
543.43	529.06
543.644	548.06
543.857	532.06
544.071	537.06
544.285	544.06
544.498	518.06
544.712	512.06
544.925	567.06
545.139	525.06
545.352	521.06
545.566	520.06
545.779	511.06
545.993	505.06
546.206	526.06
546.42	508.06
546.633	513.06
546.847	522.06
547.06	497.06
547.274	526.06
547.487	518.06
547.7	504.06
547.914	519.06
548.127	522.06
548.34	522.06
548.554	512.06
548.767	506.06
548.98	557.06
549.193	538.06
549.407	533.06
549.62	523.06
549.833	542.06
550.046	518.06
550.259	483.06
550.473	505.06
550.686	522.06
550.899	508.06
551.112	509.06
551.325	485.06
551.538	523.06
551.751	517.06
551.964	510.06
552.177	508.06
552.39	516.06
552.603	521.06
552.816	504.06
553.029	516.06
553.242	501.06
553.455	522.06
553.667	509.06
553.88	542.06
554.093	519.06
554.306	522.06
554.519	532.06
554.732	516.06
554.944	500.06
555.157	497.06
555.37	482.06
555.583	482.06
555.795	483.06
556.008	488.06
556.221	477.06
556.433	460.06
556.646	463.06
556.859	470.06
557.071	446.06
557.284	487.06
557.496	465.06
557.709	461.06
557.921	454.06
558.134	449.06
558.346	464.06
558.559	475.06
558.771	463.06
558.984	450.06
559.196	438.06
559.409	457.06
559.621	465.06
559.833	455.06
560.046	453.06
560.258	443.06
560.47	465.06
560.683	458.06
560.895	458.06
561.107	452.06
561.32	447.06
561.532	449.06
561.744	463.06
561.956	457.06
562.168	458.06
562.381	445.06
562.593	470.06
562.805	450.06
563.017	450.06
563.229	462.06
563.441	448.06
563.653	471.06
563.865	475.06
564.077	459.06
564.289	466.06
564.501	467.06
564.713	484.06
564.925	493.06
565.137	493.06
565.349	489.06
565.561	505.06
565.773	516.06
565.985	495.06
566.197	520.06
566.408	497.06
566.62	552.06
566.832	553.06
567.044	577.06
567.255	574.06
567.467	589.06
567.679	581.06
567.891	612.06
568.102	595.06
568.314	579.06
568.526	566.06
568.737	544.06
568.949	534.06
569.161	507.06
569.372	510.06
569.584	506.06
569.795	471.06
570.007	470.06
570.218	504.06
570.43	509.06
570.641	434.06
570.853	446.06
571.064	433.06
571.276	463.06
571.487	453.06
571.698	436.06
571.91	425.06
572.121	422.06
572.333	427.06
572.544	435.06
572.755	410.06
572.966	419.06
573.178	420.06
573.389	400.06
573.6	400.06
573.811	409.06
574.023	400.06
574.234	388.06
574.445	395.06
574.656	398.06
574.867	391.06
575.078	411.06
575.289	392.06
575.501	411.06
575.712	387.06
575.923	394.06
576.134	374.06
576.345	392.06
576.556	384.06
576.767	392.06
576.978	375.06
577.188	392.06
577.399	390.06
577.61	376.06
577.821	361.06
578.032	370.06
578.243	418.06
578.454	640.06
578.665	475.06
578.875	384.06
579.086	373.06
579.297	365.06
579.508	366.06
579.718	380.06
579.929	373.06
580.14	358.06
580.35	380.06
580.561	358.06
580.772	345.06
580.982	353.06
581.193	345.06
581.403	370.06
581.614	356.06
581.825	366.06
582.035	349.06
582.246	345.06
582.456	357.06
582.667	339.06
582.877	352.06
583.087	353.06
583.298	366.06
583.508	363.06
583.719	357.06
583.929	347.06
584.139	360.06
584.35	351.06
584.56	364.06
584.77	330.06
584.981	335.06
585.191	364.06
585.401	351.06
585.611	335.06
585.821	370.06
586.032	357.06
586.242	344.06
586.452	363.06
586.662	339.06
586.872	349.06
587.082	362.06
587.292	351.06
587.502	346.06
587.713	349.06
587.923	352.06
588.133	336.06
588.343	339.06
588.553	341.06
588.762	349.06
588.972	352.06
589.182	358.06
589.392	351.06
589.602	351.06
589.812	360.06
590.022	349.06
590.232	348.06
590.441	323.06
590.651	344.06
590.861	337.06
591.071	347.06
591.281	337.06
591.49	341.06
591.7	349.06
591.91	341.06
592.119	344.06
592.329	347.06
592.539	361.06
592.748	358.06
592.958	370.06
593.167	370.06
593.377	376.06
593.587	381.06
593.796	375.06
594.006	376.06
594.215	359.06
594.424	366.06
594.634	344.06
594.843	376.06
595.053	351.06
595.262	368.06
595.472	369.06
595.681	362.06
595.89	353.06
596.1	349.06
596.309	330.06
596.518	339.06
596.727	338.06
596.937	314.06
597.146	342.06
597.355	325.06
597.564	306.06
597.774	314.06
597.983	306.06
598.192	314.06
598.401	299.06
598.61	312.06
598.819	310.06
599.028	338.06
599.237	299.06
599.446	313.06
599.655	303.06
599.864	302.06
600.073	296.06
600.282	327.06
600.491	308.06
600.7	283.06
600.909	312.06
601.118	329.06
601.327	296.06
601.536	310.06
601.745	302.06
601.953	279.06
602.162	290.06
602.371	297.06
602.58	298.06
602.789	319.06
602.997	297.06
603.206	306.06
603.415	294.06
603.623	314.06
603.832	298.06
604.041	287.06
604.249	288.06
604.458	271.06
604.666	278.06
604.875	279.06
605.084	284.06
605.292	280.06
605.501	284.06
605.709	293.06
605.918	289.06
606.126	273.06
606.334	280.06
606.543	277.06
606.751	286.06
606.96	296.06
607.168	287.06
607.376	294.06
607.585	270.06
607.793	284.06
608.001	266.06
608.21	279.06
608.418	265.06
608.626	278.06
608.834	289.06
609.043	273.06
609.251	278.06
609.459	280.06
609.667	291.06
609.875	288.06
610.083	287.06
610.291	268.06
610.499	292.06
610.707	282.06
610.916	284.06
611.124	296.06
611.332	289.06
611.54	275.06
611.748	296.06
611.955	284.06
612.163	274.06
612.371	286.06
612.579	278.06
612.787	276.06
612.995	272.06
613.203	278.06
613.411	266.06
613.618	281.06
613.826	280.06
614.034	286.06
614.242	273.06
614.449	278.06
614.657	279.06
614.865	279.06
615.072	278.06
615.28	288.06
615.488	271.06
615.695	285.06
615.903	277.06
616.111	269.06
616.318	272.06
616.526	271.06
616.733	262.06
616.941	284.06
617.148	273.06
617.356	268.06
617.563	266.06
617.771	272.06
617.978	274.06
618.185	264.06
618.393	285.06
618.6	267.06
618.807	286.06
619.015	269.06
619.222	265.06
619.429	280.06
619.637	244.06
619.844	265.06
620.051	278.06
620.258	263.06
620.466	256.06
620.673	249.06
620.88	248.06
621.087	265.06
621.294	261.06
621.501	240.06
621.708	251.06
621.915	260.06
622.122	252.06
622.329	248.06
622.536	264.06
622.743	249.06
622.95	241.06
623.157	243.06
623.364	256.06
623.571	263.06
623.778	260.06
623.985	241.06
624.192	254.06
624.399	267.06
624.606	257.06
624.812	238.06
625.019	234.06
625.226	252.06
625.433	238.06
625.639	242.06
625.846	232.06
626.053	248.06
626.259	230.06
626.466	231.06
626.673	230.06
626.879	236.06
627.086	230.06
627.293	228.06
627.499	221.06
627.706	250.06
627.912	235.06
628.119	221.06
628.325	228.06
628.532	236.06
628.738	232.06
628.945	248.06
629.151	229.06
629.357	226.06
629.564	227.06
629.77	209.06
629.976	207.06
630.183	221.06
630.389	225.06
630.595	226.06
630.802	224.06
631.008	224.06
631.214	219.06
631.42	214.06
631.627	218.06
631.833	213.06
632.039	213.06
632.245	217.06
632.451	220.06
632.657	217.06
632.863	213.06
633.069	228.06
633.275	214.06
633.481	202.06
633.688	206.06
633.893	231.06
634.099	205.06
634.305	214.06
634.511	219.06
634.717	216.06
634.923	214.06
635.129	203.06
635.335	210.06
635.541	196.06
635.747	216.06
635.952	193.06
636.158	206.06
636.364	208.06
636.57	209.06
636.775	194.06
636.981	198.06
637.187	197.06
637.392	193.06
637.598	210.06
637.804	197.06
638.009	210.06
638.215	217.06
638.421	198.06
638.626	199.06
638.832	208.06
639.037	218.06
639.243	186.06
639.448	198.06
639.654	200.06
639.859	187.06
640.065	186.06
640.27	211.06
640.475	194.06
640.681	190.06
640.886	186.06
641.091	207.06
641.297	200.06
641.502	202.06
641.707	194.06
641.913	201.06
642.118	190.06
642.323	182.06
642.528	221.06
642.733	199.06
642.939	174.06
643.144	172.06
643.349	183.06
643.554	187.06
643.759	183.06
643.964	170.06
644.169	185.06
644.374	165.06
644.579	180.06
644.784	187.06
644.989	193.06
645.194	175.06
645.399	174.06
645.604	196.06
645.809	180.06
646.014	176.06
646.219	172.06
646.423	166.06
646.628	200.06
646.833	171.06
647.038	193.06
647.243	201.06
647.447	199.06
647.652	194.06
647.857	188.06
648.062	170.06
648.266	188.06
648.471	190.06
648.676	193.06
648.88	186.06
649.085	199.06
649.289	192.06
649.494	194.06
649.698	220.06
649.903	195.06
650.107	181.06
650.312	190.06
650.516	181.06
650.721	169.06
650.925	156.06
651.13	180.06
651.334	165.06
651.539	166.06
651.743	167.06
651.947	157.06
652.152	163.06
652.356	153.06
652.56	163.06
652.764	166.06
652.969	157.06
653.173	145.06
653.377	149.06
653.581	158.06
653.785	158.06
653.99	132.06
654.194	169.06
654.398	158.06
654.602	139.06
654.806	146.06
655.01	156.06
655.214	152.06
655.418	160.06
655.622	155.06
655.826	134.06
656.03	154.06
656.234	140.06
656.438	155.06
656.642	140.06
656.846	139.06
657.049	138.06
657.253	140.06
657.457	126.06
657.661	138.06
657.865	124.06
658.068	108.06
658.272	109.06
658.476	121.06
658.68	104.06
658.883	103.06
659.087	111.06
659.291	117.06
659.494	99.06
659.698	112.06
659.901	110.06
660.105	113.06
660.309	101.06
660.512	85.06
660.716	82.06
660.919	114.06
661.123	98.06
661.326	109.06
661.53	96.06
661.733	95.06
661.936	91.06
662.14	90.06
662.343	93.06
662.546	87.06
662.75	82.06
662.953	93.06
663.156	86.06
663.36	93.06
663.563	100.06
663.766	104.06
663.969	82.06
664.173	74.06
664.376	80.06
664.579	84.06
664.782	80.06
664.985	89.06
665.188	85.06
665.391	101.06
665.594	88.06
665.797	93.06
666	79.06
666.203	77.06
666.406	91.06
666.609	79.06
666.812	97.06
667.015	92.06
667.218	95.06
667.421	76.06
667.624	83.06
667.827	78.06
668.03	89.06
668.232	88.06
668.435	87.06
668.638	83.06
668.841	99.06
669.043	90.06
669.246	85.06
669.449	94.06
669.651	82.06
669.854	88.06
670.057	92.06
670.259	85.06
670.462	91.06
670.665	98.06
670.867	93.06
671.07	88.06
671.272	75.06
671.475	89.06
671.677	73.06
671.88	84.06
672.082	97.06
672.284	72.06
672.487	77.06
672.689	78.06
672.892	100.06
