Data from 1966.PennyLincolnUp.Lamp.En5.5.200Scan.071719.P1.Scan2.head_HRD10591_14-18-14-171.txt Node
Date: Thu Jul 18 14:18:14 EDT 2019
User: cochatt
Spectrometer: HR+D1059
Trigger mode: 1
Integration Time (sec): 1.000000E-1
Scans to average: 1
Electric dark correction enabled: true
Nonlinearity correction enabled: false
Boxcar width: 0
XAxis mode: Wavelengths
Number of Pixels in Spectrum: 2048
>>>>>Begin Spectral Data<<<<<
223.165	-8.31
223.4	-8.31
223.635	-8.31
223.869	-26.31
224.104	-7.31
224.338	-15.31
224.573	-12.31
224.808	-4.31
225.042	-12.31
225.277	-9.31
225.511	-9.31
225.746	8.69
225.98	3.69
226.215	0.69
226.449	18.69
226.683	11.69
226.918	32.69
227.152	28.69
227.387	32.69
227.621	29.69
227.856	48.69
228.09	40.69
228.324	38.69
228.559	38.69
228.793	58.69
229.027	94.69
229.262	107.69
229.496	127.69
229.73	129.69
229.964	136.69
230.199	123.69
230.433	117.69
230.667	112.69
230.901	126.69
231.136	119.69
231.37	92.69
231.604	112.69
231.838	120.69
232.072	123.69
232.306	108.69
232.541	111.69
232.775	108.69
233.009	110.69
233.243	104.69
233.477	117.69
233.711	109.69
233.945	141.69
234.179	118.69
234.413	123.69
234.647	119.69
234.881	101.69
235.115	118.69
235.349	117.69
235.583	122.69
235.817	125.69
236.051	128.69
236.285	125.69
236.519	136.69
236.753	131.69
236.987	133.69
237.221	197.69
237.455	225.69
237.689	175.69
237.922	126.69
238.156	131.69
238.39	127.69
238.624	124.69
238.858	129.69
239.091	121.69
239.325	111.69
239.559	123.69
239.793	128.69
240.027	131.69
240.26	151.69
240.494	146.69
240.728	151.69
240.961	167.69
241.195	154.69
241.429	153.69
241.662	131.69
241.896	135.69
242.13	147.69
242.363	138.69
242.597	132.69
242.83	154.69
243.064	135.69
243.298	153.69
243.531	139.69
243.765	133.69
243.998	131.69
244.232	151.69
244.465	137.69
244.699	130.69
244.932	167.69
245.166	151.69
245.399	133.69
245.633	147.69
245.866	145.69
246.099	143.69
246.333	139.69
246.566	141.69
246.8	147.69
247.033	158.69
247.266	153.69
247.5	152.69
247.733	174.69
247.966	173.69
248.2	178.69
248.433	151.69
248.666	173.69
248.899	165.69
249.133	203.69
249.366	208.69
249.599	219.69
249.832	170.69
250.066	186.69
250.299	199.69
250.532	204.69
250.765	197.69
250.998	216.69
251.231	230.69
251.465	230.69
251.698	216.69
251.931	205.69
252.164	198.69
252.397	204.69
252.63	205.69
252.863	207.69
253.096	203.69
253.329	221.69
253.562	209.69
253.795	206.69
254.028	221.69
254.261	212.69
254.494	228.69
254.727	247.69
254.96	269.69
255.193	275.69
255.426	221.69
255.659	237.69
255.892	228.69
256.124	221.69
256.357	257.69
256.59	225.69
256.823	225.69
257.056	221.69
257.289	211.69
257.521	211.69
257.754	210.69
257.987	220.69
258.22	214.69
258.452	203.69
258.685	205.69
258.918	194.69
259.151	215.69
259.383	218.69
259.616	217.69
259.849	214.69
260.081	225.69
260.314	271.69
260.547	262.69
260.779	245.69
261.012	229.69
261.244	220.69
261.477	218.69
261.71	221.69
261.942	232.69
262.175	228.69
262.407	226.69
262.64	226.69
262.872	225.69
263.105	222.69
263.337	205.69
263.57	214.69
263.802	199.69
264.035	215.69
264.267	217.69
264.499	222.69
264.732	204.69
264.964	208.69
265.197	215.69
265.429	199.69
265.661	220.69
265.894	221.69
266.126	214.69
266.358	230.69
266.591	207.69
266.823	224.69
267.055	253.69
267.287	238.69
267.52	232.69
267.752	230.69
267.984	224.69
268.216	230.69
268.448	241.69
268.681	226.69
268.913	235.69
269.145	263.69
269.377	285.69
269.609	273.69
269.841	272.69
270.073	277.69
270.306	281.69
270.538	326.69
270.77	319.69
271.002	309.69
271.234	288.69
271.466	305.69
271.698	315.69
271.93	307.69
272.162	309.69
272.394	313.69
272.626	299.69
272.858	276.69
273.09	272.69
273.322	285.69
273.553	281.69
273.785	259.69
274.017	258.69
274.249	273.69
274.481	246.69
274.713	276.69
274.945	272.69
275.176	270.69
275.408	259.69
275.64	250.69
275.872	256.69
276.104	250.69
276.335	270.69
276.567	259.69
276.799	271.69
277.031	329.69
277.262	325.69
277.494	303.69
277.726	297.69
277.957	285.69
278.189	276.69
278.421	269.69
278.652	275.69
278.884	261.69
279.115	286.69
279.347	274.69
279.579	251.69
279.81	270.69
280.042	259.69
280.273	266.69
280.505	268.69
280.736	279.69
280.968	277.69
281.199	261.69
281.431	271.69
281.662	288.69
281.894	271.69
282.125	265.69
282.356	286.69
282.588	304.69
282.819	312.69
283.051	265.69
283.282	274.69
283.513	283.69
283.745	275.69
283.976	287.69
284.207	283.69
284.439	291.69
284.67	267.69
284.901	264.69
285.132	281.69
285.364	279.69
285.595	294.69
285.826	276.69
286.057	277.69
286.288	278.69
286.52	285.69
286.751	287.69
286.982	278.69
287.213	272.69
287.444	279.69
287.675	294.69
287.906	282.69
288.138	303.69
288.369	303.69
288.6	321.69
288.831	308.69
289.062	283.69
289.293	295.69
289.524	292.69
289.755	278.69
289.986	291.69
290.217	287.69
290.448	291.69
290.679	287.69
290.91	283.69
291.141	281.69
291.371	284.69
291.602	302.69
291.833	264.69
292.064	285.69
292.295	291.69
292.526	307.69
292.757	291.69
292.987	288.69
293.218	295.69
293.449	283.69
293.68	300.69
293.91	297.69
294.141	297.69
294.372	300.69
294.603	291.69
294.833	302.69
295.064	308.69
295.295	300.69
295.525	301.69
295.756	304.69
295.987	300.69
296.217	317.69
296.448	332.69
296.679	313.69
296.909	307.69
297.14	297.69
297.37	309.69
297.601	295.69
297.831	311.69
298.062	305.69
298.292	328.69
298.523	315.69
298.753	301.69
298.984	330.69
299.214	324.69
299.445	327.69
299.675	300.69
299.905	307.69
300.136	300.69
300.366	300.69
300.597	311.69
300.827	309.69
301.057	308.69
301.288	335.69
301.518	314.69
301.748	322.69
301.979	321.69
302.209	337.69
302.439	345.69
302.669	332.69
302.9	332.69
303.13	316.69
303.36	325.69
303.59	331.69
303.82	326.69
304.051	335.69
304.281	342.69
304.511	326.69
304.741	311.69
304.971	317.69
305.201	328.69
305.431	324.69
305.661	337.69
305.891	309.69
306.121	320.69
306.352	327.69
306.582	342.69
306.812	338.69
307.042	343.69
307.272	341.69
307.502	343.69
307.731	344.69
307.961	343.69
308.191	333.69
308.421	326.69
308.651	336.69
308.881	333.69
309.111	332.69
309.341	350.69
309.571	357.69
309.8	356.69
310.03	346.69
310.26	355.69
310.49	373.69
310.72	381.69
310.949	412.69
311.179	401.69
311.409	368.69
311.639	371.69
311.868	373.69
312.098	388.69
312.328	370.69
312.557	397.69
312.787	392.69
313.017	406.69
313.246	397.69
313.476	380.69
313.706	379.69
313.935	383.69
314.165	399.69
314.394	404.69
314.624	398.69
314.853	399.69
315.083	386.69
315.312	382.69
315.542	384.69
315.771	362.69
316.001	375.69
316.23	375.69
316.46	366.69
316.689	391.69
316.919	361.69
317.148	387.69
317.377	411.69
317.607	375.69
317.836	368.69
318.065	381.69
318.295	399.69
318.524	374.69
318.753	376.69
318.983	367.69
319.212	375.69
319.441	399.69
319.67	399.69
319.9	387.69
320.129	383.69
320.358	362.69
320.587	376.69
320.816	421.69
321.046	384.69
321.275	403.69
321.504	394.69
321.733	382.69
321.962	407.69
322.191	409.69
322.42	413.69
322.649	442.69
322.878	450.69
323.108	436.69
323.337	467.69
323.566	490.69
323.795	530.69
324.024	552.69
324.253	624.69
324.482	919.69
324.71	1420.69
324.939	2117.69
325.168	1877.69
325.397	917.69
325.626	635.69
325.855	542.69
326.084	495.69
326.313	482.69
326.542	499.69
326.77	555.69
326.999	638.69
327.228	840.69
327.457	1277.69
327.686	1615.69
327.914	1047.69
328.143	694.69
328.372	604.69
328.6	579.69
328.829	539.69
329.058	559.69
329.287	590.69
329.515	535.69
329.744	515.69
329.972	489.69
330.201	557.69
330.43	553.69
330.658	568.69
330.887	596.69
331.115	563.69
331.344	494.69
331.572	500.69
331.801	478.69
332.03	487.69
332.258	475.69
332.486	459.69
332.715	461.69
332.943	453.69
333.172	460.69
333.4	454.69
333.629	469.69
333.857	501.69
334.085	499.69
334.314	512.69
334.542	533.69
334.771	571.69
334.999	541.69
335.227	492.69
335.455	480.69
335.684	464.69
335.912	456.69
336.14	450.69
336.369	449.69
336.597	469.69
336.825	448.69
337.053	464.69
337.281	451.69
337.51	451.69
337.738	453.69
337.966	443.69
338.194	441.69
338.422	435.69
338.65	445.69
338.878	430.69
339.106	444.69
339.334	436.69
339.562	431.69
339.79	441.69
340.018	448.69
340.246	426.69
340.474	468.69
340.702	443.69
340.93	440.69
341.158	451.69
341.386	426.69
341.614	436.69
341.842	434.69
342.07	433.69
342.298	455.69
342.526	424.69
342.754	426.69
342.981	431.69
343.209	422.69
343.437	451.69
343.665	449.69
343.893	451.69
344.12	454.69
344.348	449.69
344.576	435.69
344.804	482.69
345.031	454.69
345.259	443.69
345.487	469.69
345.714	464.69
345.942	419.69
346.17	453.69
346.397	420.69
346.625	397.69
346.853	445.69
347.08	438.69
347.308	439.69
347.535	435.69
347.763	448.69
347.99	440.69
348.218	433.69
348.445	431.69
348.673	433.69
348.9	417.69
349.128	450.69
349.355	417.69
349.583	420.69
349.81	422.69
350.037	430.69
350.265	414.69
350.492	406.69
350.72	407.69
350.947	424.69
351.174	421.69
351.402	449.69
351.629	447.69
351.856	432.69
352.083	429.69
352.311	445.69
352.538	453.69
352.765	454.69
352.992	421.69
353.22	432.69
353.447	423.69
353.674	415.69
353.901	397.69
354.128	406.69
354.355	401.69
354.583	401.69
354.81	394.69
355.037	403.69
355.264	399.69
355.491	391.69
355.718	388.69
355.945	399.69
356.172	407.69
356.399	393.69
356.626	393.69
356.853	416.69
357.08	407.69
357.307	422.69
357.534	395.69
357.761	398.69
357.988	409.69
358.215	409.69
358.441	389.69
358.668	390.69
358.895	403.69
359.122	409.69
359.349	431.69
359.576	452.69
359.802	459.69
360.029	479.69
360.256	470.69
360.483	471.69
360.709	444.69
360.936	437.69
361.163	433.69
361.39	439.69
361.616	433.69
361.843	432.69
362.07	435.69
362.296	435.69
362.523	437.69
362.749	421.69
362.976	428.69
363.203	439.69
363.429	392.69
363.656	421.69
363.882	414.69
364.109	425.69
364.335	418.69
364.562	429.69
364.788	409.69
365.015	419.69
365.241	403.69
365.468	422.69
365.694	423.69
365.92	422.69
366.147	415.69
366.373	410.69
366.599	423.69
366.826	406.69
367.052	422.69
367.278	400.69
367.505	411.69
367.731	424.69
367.957	417.69
368.184	421.69
368.41	435.69
368.636	440.69
368.862	437.69
369.089	435.69
369.315	410.69
369.541	430.69
369.767	444.69
369.993	425.69
370.219	430.69
370.445	427.69
370.672	431.69
370.898	443.69
371.124	430.69
371.35	401.69
371.576	423.69
371.802	427.69
372.028	437.69
372.254	427.69
372.48	419.69
372.706	412.69
372.932	417.69
373.158	442.69
373.384	433.69
373.61	433.69
373.835	450.69
374.061	428.69
374.287	427.69
374.513	426.69
374.739	438.69
374.965	447.69
375.191	448.69
375.416	418.69
375.642	426.69
375.868	420.69
376.094	427.69
376.319	432.69
376.545	423.69
376.771	416.69
376.997	421.69
377.222	423.69
377.448	427.69
377.674	440.69
377.899	415.69
378.125	424.69
378.35	396.69
378.576	443.69
378.802	421.69
379.027	409.69
379.253	421.69
379.478	422.69
379.704	424.69
379.929	427.69
380.155	419.69
380.38	424.69
380.606	439.69
380.831	424.69
381.057	422.69
381.282	421.69
381.507	430.69
381.733	435.69
381.958	417.69
382.184	428.69
382.409	440.69
382.634	439.69
382.86	455.69
383.085	461.69
383.31	459.69
383.535	436.69
383.761	448.69
383.986	456.69
384.211	462.69
384.436	454.69
384.662	456.69
384.887	479.69
385.112	445.69
385.337	455.69
385.562	438.69
385.787	492.69
386.013	518.69
386.238	487.69
386.463	477.69
386.688	459.69
386.913	464.69
387.138	465.69
387.363	459.69
387.588	444.69
387.813	460.69
388.038	461.69
388.263	463.69
388.488	474.69
388.713	482.69
388.938	463.69
389.163	491.69
389.387	449.69
389.612	435.69
389.837	447.69
390.062	447.69
390.287	513.69
390.512	476.69
390.736	485.69
390.961	476.69
391.186	460.69
391.411	472.69
391.636	495.69
391.86	477.69
392.085	484.69
392.31	517.69
392.534	517.69
392.759	499.69
392.984	496.69
393.208	481.69
393.433	462.69
393.658	495.69
393.882	472.69
394.107	465.69
394.331	502.69
394.556	483.69
394.78	507.69
395.005	464.69
395.229	489.69
395.454	500.69
395.678	503.69
395.903	489.69
396.127	529.69
396.352	520.69
396.576	501.69
396.801	516.69
397.025	502.69
397.249	511.69
397.474	516.69
397.698	523.69
397.922	535.69
398.147	538.69
398.371	554.69
398.595	540.69
398.82	542.69
399.044	567.69
399.268	579.69
399.492	612.69
399.717	631.69
399.941	643.69
400.165	675.69
400.389	703.69
400.613	636.69
400.837	586.69
401.062	584.69
401.286	552.69
401.51	567.69
401.734	555.69
401.958	548.69
402.182	543.69
402.406	571.69
402.63	567.69
402.854	558.69
403.078	574.69
403.302	567.69
403.526	559.69
403.75	579.69
403.974	588.69
404.198	556.69
404.422	584.69
404.645	589.69
404.869	578.69
405.093	621.69
405.317	682.69
405.541	694.69
405.765	646.69
405.988	612.69
406.212	603.69
406.436	634.69
406.66	639.69
406.883	620.69
407.107	638.69
407.331	672.69
407.555	786.69
407.778	761.69
408.002	697.69
408.226	645.69
408.449	620.69
408.673	624.69
408.896	645.69
409.12	723.69
409.344	672.69
409.567	605.69
409.791	573.69
410.014	548.69
410.238	581.69
410.461	587.69
410.685	590.69
410.908	605.69
411.132	629.69
411.355	645.69
411.578	637.69
411.802	559.69
412.025	571.69
412.249	582.69
412.472	597.69
412.695	661.69
412.919	641.69
413.142	589.69
413.365	595.69
413.589	571.69
413.812	577.69
414.035	537.69
414.258	538.69
414.482	548.69
414.705	551.69
414.928	545.69
415.151	539.69
415.374	519.69
415.597	521.69
415.821	526.69
416.044	538.69
416.267	547.69
416.49	545.69
416.713	544.69
416.936	531.69
417.159	537.69
417.382	539.69
417.605	545.69
417.828	567.69
418.051	576.69
418.274	554.69
418.497	533.69
418.72	548.69
418.943	522.69
419.166	547.69
419.389	585.69
419.611	597.69
419.834	598.69
420.057	590.69
420.28	576.69
420.503	575.69
420.726	567.69
420.948	579.69
421.171	639.69
421.394	668.69
421.617	585.69
421.839	594.69
422.062	576.69
422.285	586.69
422.507	643.69
422.73	708.69
422.953	685.69
423.175	629.69
423.398	603.69
423.621	599.69
423.843	627.69
424.066	628.69
424.288	609.69
424.511	632.69
424.733	664.69
424.956	768.69
425.178	755.69
425.401	735.69
425.623	751.69
425.846	685.69
426.068	639.69
426.291	608.69
426.513	598.69
426.735	614.69
426.958	640.69
427.18	735.69
427.402	903.69
427.625	979.69
427.847	859.69
428.069	747.69
428.292	661.69
428.514	603.69
428.736	589.69
428.958	567.69
429.181	582.69
429.403	554.69
429.625	551.69
429.847	620.69
430.069	684.69
430.292	664.69
430.514	575.69
430.736	565.69
430.958	549.69
431.18	537.69
431.402	527.69
431.624	527.69
431.846	513.69
432.068	521.69
432.29	525.69
432.512	533.69
432.734	540.69
432.956	567.69
433.178	557.69
433.4	554.69
433.622	581.69
433.844	527.69
434.066	553.69
434.287	524.69
434.509	522.69
434.731	573.69
434.953	587.69
435.175	593.69
435.397	591.69
435.618	611.69
435.84	670.69
436.062	729.69
436.284	827.69
436.505	677.69
436.727	635.69
436.949	565.69
437.17	570.69
437.392	573.69
437.614	564.69
437.835	619.69
438.057	693.69
438.278	815.69
438.5	806.69
438.721	897.69
438.943	868.69
439.165	657.69
439.386	637.69
439.608	631.69
439.829	615.69
440.05	658.69
440.272	687.69
440.493	668.69
440.715	600.69
440.936	569.69
441.158	579.69
441.379	573.69
441.6	582.69
441.822	624.69
442.043	639.69
442.264	749.69
442.486	775.69
442.707	691.69
442.928	620.69
443.149	637.69
443.371	660.69
443.592	693.69
443.813	811.69
444.034	833.69
444.255	721.69
444.476	655.69
444.698	631.69
444.919	619.69
445.14	729.69
445.361	703.69
445.582	656.69
445.803	713.69
446.024	832.69
446.245	814.69
446.466	736.69
446.687	643.69
446.908	585.69
447.129	575.69
447.35	558.69
447.571	559.69
447.792	551.69
448.013	566.69
448.234	574.69
448.455	622.69
448.675	734.69
448.896	876.69
449.117	742.69
449.338	713.69
449.559	815.69
449.779	923.69
450	749.69
450.221	616.69
450.442	565.69
450.662	564.69
450.883	564.69
451.104	563.69
451.324	570.69
451.545	528.69
451.766	513.69
451.986	508.69
452.207	507.69
452.428	515.69
452.648	499.69
452.869	512.69
453.089	529.69
453.31	520.69
453.53	521.69
453.751	488.69
453.971	505.69
454.192	518.69
454.412	518.69
454.633	522.69
454.853	505.69
455.073	488.69
455.294	499.69
455.514	610.69
455.734	586.69
455.955	500.69
456.175	513.69
456.395	492.69
456.616	475.69
456.836	465.69
457.056	477.69
457.276	466.69
457.497	471.69
457.717	471.69
457.937	494.69
458.157	485.69
458.377	499.69
458.598	519.69
458.818	589.69
459.038	650.69
459.258	689.69
459.478	591.69
459.698	540.69
459.918	527.69
460.138	532.69
460.358	544.69
460.578	554.69
460.798	539.69
461.018	543.69
461.238	538.69
461.458	559.69
461.678	549.69
461.898	586.69
462.118	541.69
462.338	579.69
462.558	552.69
462.777	575.69
462.997	581.69
463.217	616.69
463.437	627.69
463.657	609.69
463.876	585.69
464.096	603.69
464.316	586.69
464.536	590.69
464.755	591.69
464.975	609.69
465.195	613.69
465.414	703.69
465.634	647.69
465.854	579.69
466.073	548.69
466.293	544.69
466.512	508.69
466.732	525.69
466.951	508.69
467.171	522.69
467.391	543.69
467.61	511.69
467.829	554.69
468.049	535.69
468.268	520.69
468.488	511.69
468.707	525.69
468.927	489.69
469.146	519.69
469.365	517.69
469.585	516.69
469.804	505.69
470.023	524.69
470.243	517.69
470.462	528.69
470.681	535.69
470.901	551.69
471.12	540.69
471.339	515.69
471.558	528.69
471.777	550.69
471.997	525.69
472.216	521.69
472.435	548.69
472.654	559.69
472.873	540.69
473.092	531.69
473.311	513.69
473.53	517.69
473.749	526.69
473.968	592.69
474.187	715.69
474.406	728.69
474.625	584.69
474.844	551.69
475.063	530.69
475.282	519.69
475.501	541.69
475.72	545.69
475.939	553.69
476.158	567.69
476.377	541.69
476.596	560.69
476.814	560.69
477.033	564.69
477.252	549.69
477.471	574.69
477.69	560.69
477.908	564.69
478.127	579.69
478.346	593.69
478.564	598.69
478.783	607.69
479.002	607.69
479.22	578.69
479.439	629.69
479.658	639.69
479.876	640.69
480.095	642.69
480.313	677.69
480.532	652.69
480.751	669.69
480.969	640.69
481.188	712.69
481.406	758.69
481.624	684.69
481.843	636.69
482.061	618.69
482.28	620.69
482.498	632.69
482.717	621.69
482.935	631.69
483.153	607.69
483.372	630.69
483.59	637.69
483.808	636.69
484.027	603.69
484.245	620.69
484.463	621.69
484.681	642.69
484.9	619.69
485.118	641.69
485.336	646.69
485.554	639.69
485.772	638.69
485.99	637.69
486.209	671.69
486.427	658.69
486.645	663.69
486.863	673.69
487.081	684.69
487.299	684.69
487.517	650.69
487.735	665.69
487.953	685.69
488.171	673.69
488.389	660.69
488.607	663.69
488.825	675.69
489.043	681.69
489.261	676.69
489.479	679.69
489.696	691.69
489.914	695.69
490.132	694.69
490.35	715.69
490.568	701.69
490.786	724.69
491.003	742.69
491.221	739.69
491.439	750.69
491.657	772.69
491.874	760.69
492.092	743.69
492.31	767.69
492.527	775.69
492.745	758.69
492.963	784.69
493.18	787.69
493.398	768.69
493.615	785.69
493.833	787.69
494.05	795.69
494.268	765.69
494.485	793.69
494.703	796.69
494.92	774.69
495.138	808.69
495.355	799.69
495.573	815.69
495.79	787.69
496.008	797.69
496.225	800.69
496.442	805.69
496.66	797.69
496.877	804.69
497.094	809.69
497.312	799.69
497.529	821.69
497.746	810.69
497.963	816.69
498.181	872.69
498.398	873.69
498.615	869.69
498.832	918.69
499.049	911.69
499.267	953.69
499.484	954.69
499.701	992.69
499.918	1061.69
500.135	1093.69
500.352	1152.69
500.569	1146.69
500.786	1130.69
501.003	1160.69
501.22	1109.69
501.437	1087.69
501.654	1035.69
501.871	1047.69
502.088	969.69
502.305	943.69
502.522	919.69
502.739	880.69
502.956	858.69
503.172	837.69
503.389	832.69
503.606	844.69
503.823	842.69
504.04	783.69
504.256	827.69
504.473	827.69
504.69	786.69
504.907	777.69
505.123	792.69
505.34	779.69
505.557	761.69
505.773	779.69
505.99	781.69
506.207	762.69
506.423	767.69
506.64	758.69
506.856	736.69
507.073	759.69
507.289	741.69
507.506	747.69
507.722	742.69
507.939	744.69
508.155	735.69
508.372	721.69
508.588	705.69
508.805	718.69
509.021	703.69
509.238	739.69
509.454	741.69
509.67	711.69
509.887	678.69
510.103	696.69
510.319	700.69
510.536	792.69
510.752	1221.69
510.968	1038.69
511.184	725.69
511.401	704.69
511.617	692.69
511.833	684.69
512.049	658.69
512.265	656.69
512.481	676.69
512.698	655.69
512.914	649.69
513.13	684.69
513.346	669.69
513.562	663.69
513.778	663.69
513.994	683.69
514.21	688.69
514.426	683.69
514.642	723.69
514.858	749.69
515.074	751.69
515.29	900.69
515.506	1253.69
515.721	1108.69
515.937	784.69
516.153	730.69
516.369	712.69
516.585	711.69
516.801	728.69
517.016	698.69
517.232	705.69
517.448	711.69
517.664	715.69
517.879	681.69
518.095	684.69
518.311	715.69
518.527	682.69
518.742	684.69
518.958	678.69
519.173	686.69
519.389	637.69
519.605	643.69
519.82	693.69
520.036	683.69
520.251	713.69
520.467	726.69
520.682	726.69
520.898	708.69
521.113	729.69
521.329	779.69
521.544	834.69
521.76	1011.69
521.975	1611.69
522.19	1575.69
522.406	936.69
522.621	754.69
522.836	713.69
523.052	677.69
523.267	639.69
523.482	647.69
523.698	615.69
523.913	623.69
524.128	608.69
524.343	600.69
524.559	584.69
524.774	566.69
524.989	587.69
525.204	593.69
525.419	583.69
525.634	591.69
525.849	548.69
526.064	553.69
526.28	572.69
526.495	573.69
526.71	561.69
526.925	573.69
527.14	567.69
527.355	574.69
527.57	545.69
527.785	541.69
527.999	572.69
528.214	545.69
528.429	569.69
528.644	557.69
528.859	576.69
529.074	558.69
529.289	586.69
529.503	675.69
529.718	635.69
529.933	601.69
530.148	571.69
530.363	574.69
530.577	565.69
530.792	543.69
531.007	545.69
531.221	559.69
531.436	544.69
531.651	528.69
531.865	517.69
532.08	538.69
532.295	541.69
532.509	542.69
532.724	532.69
532.938	542.69
533.153	533.69
533.367	532.69
533.582	535.69
533.796	546.69
534.011	535.69
534.225	544.69
534.44	529.69
534.654	540.69
534.868	533.69
535.083	555.69
535.297	527.69
535.511	532.69
535.726	547.69
535.94	524.69
536.154	545.69
536.369	547.69
536.583	513.69
536.797	511.69
537.011	503.69
537.225	525.69
537.44	527.69
537.654	526.69
537.868	510.69
538.082	519.69
538.296	536.69
538.51	539.69
538.724	505.69
538.938	531.69
539.153	507.69
539.367	535.69
539.581	515.69
539.795	512.69
540.009	514.69
540.222	495.69
540.436	509.69
540.65	521.69
540.864	506.69
541.078	522.69
541.292	517.69
541.506	517.69
541.72	518.69
541.934	519.69
542.147	512.69
542.361	501.69
542.575	483.69
542.789	495.69
543.002	489.69
543.216	504.69
543.43	495.69
543.644	500.69
543.857	516.69
544.071	519.69
544.285	515.69
544.498	494.69
544.712	525.69
544.925	513.69
545.139	487.69
545.352	488.69
545.566	496.69
545.779	516.69
545.993	505.69
546.206	499.69
546.42	505.69
546.633	502.69
546.847	488.69
547.06	495.69
547.274	505.69
547.487	473.69
547.7	497.69
547.914	486.69
548.127	467.69
548.34	485.69
548.554	489.69
548.767	493.69
548.98	483.69
549.193	490.69
549.407	490.69
549.62	504.69
549.833	482.69
550.046	477.69
550.259	491.69
550.473	494.69
550.686	477.69
550.899	466.69
551.112	487.69
551.325	480.69
551.538	491.69
551.751	473.69
551.964	476.69
552.177	466.69
552.39	479.69
552.603	476.69
552.816	510.69
553.029	470.69
553.242	495.69
553.455	503.69
553.667	481.69
553.88	513.69
554.093	513.69
554.306	509.69
554.519	506.69
554.732	493.69
554.944	476.69
555.157	476.69
555.37	488.69
555.583	476.69
555.795	487.69
556.008	468.69
556.221	462.69
556.433	451.69
556.646	449.69
556.859	441.69
557.071	431.69
557.284	457.69
557.496	456.69
557.709	463.69
557.921	442.69
558.134	442.69
558.346	441.69
558.559	446.69
558.771	428.69
558.984	443.69
559.196	448.69
559.409	448.69
559.621	420.69
559.833	426.69
560.046	435.69
560.258	427.69
560.47	438.69
560.683	455.69
560.895	414.69
561.107	423.69
561.32	415.69
561.532	419.69
561.744	432.69
561.956	435.69
562.168	442.69
562.381	415.69
562.593	441.69
562.805	448.69
563.017	433.69
563.229	428.69
563.441	458.69
563.653	447.69
563.865	452.69
564.077	436.69
564.289	448.69
564.501	453.69
564.713	444.69
564.925	487.69
565.137	478.69
565.349	475.69
565.561	472.69
565.773	477.69
565.985	481.69
566.197	487.69
566.408	496.69
566.62	527.69
566.832	518.69
567.044	533.69
567.255	535.69
567.467	550.69
567.679	561.69
567.891	575.69
568.102	558.69
568.314	542.69
568.526	517.69
568.737	517.69
568.949	500.69
569.161	471.69
569.372	460.69
569.584	455.69
569.795	455.69
570.007	451.69
570.218	483.69
570.43	486.69
570.641	432.69
570.853	420.69
571.064	437.69
571.276	421.69
571.487	423.69
571.698	430.69
571.91	409.69
572.121	414.69
572.333	417.69
572.544	419.69
572.755	373.69
572.966	408.69
573.178	391.69
573.389	392.69
573.6	396.69
573.811	387.69
574.023	381.69
574.234	381.69
574.445	380.69
574.656	388.69
574.867	378.69
575.078	391.69
575.289	360.69
575.501	363.69
575.712	382.69
575.923	375.69
576.134	371.69
576.345	363.69
576.556	365.69
576.767	349.69
576.978	361.69
577.188	361.69
577.399	369.69
577.61	371.69
577.821	367.69
578.032	366.69
578.243	392.69
578.454	610.69
578.665	453.69
578.875	371.69
579.086	346.69
579.297	359.69
579.508	355.69
579.718	353.69
579.929	377.69
580.14	348.69
580.35	345.69
580.561	343.69
580.772	371.69
580.982	354.69
581.193	350.69
581.403	340.69
581.614	348.69
581.825	352.69
582.035	328.69
582.246	341.69
582.456	362.69
582.667	343.69
582.877	344.69
583.087	344.69
583.298	351.69
583.508	320.69
583.719	323.69
583.929	343.69
584.139	340.69
584.35	337.69
584.56	323.69
584.77	347.69
584.981	357.69
585.191	344.69
585.401	340.69
585.611	326.69
585.821	339.69
586.032	327.69
586.242	339.69
586.452	328.69
586.662	343.69
586.872	325.69
587.082	318.69
587.292	330.69
587.502	318.69
587.713	329.69
587.923	325.69
588.133	325.69
588.343	328.69
588.553	330.69
588.762	332.69
588.972	339.69
589.182	327.69
589.392	328.69
589.602	326.69
589.812	341.69
590.022	335.69
590.232	332.69
590.441	325.69
590.651	325.69
590.861	331.69
591.071	317.69
591.281	323.69
591.49	346.69
591.7	325.69
591.91	319.69
592.119	336.69
592.329	337.69
592.539	334.69
592.748	328.69
592.958	342.69
593.167	356.69
593.377	377.69
593.587	371.69
593.796	364.69
594.006	375.69
594.215	339.69
594.424	359.69
594.634	355.69
594.843	355.69
595.053	340.69
595.262	327.69
595.472	337.69
595.681	349.69
595.89	319.69
596.1	308.69
596.309	319.69
596.518	313.69
596.727	310.69
596.937	316.69
597.146	332.69
597.355	297.69
597.564	304.69
597.774	319.69
597.983	310.69
598.192	316.69
598.401	325.69
598.61	287.69
598.819	293.69
599.028	293.69
599.237	291.69
599.446	317.69
599.655	303.69
599.864	304.69
600.073	285.69
600.282	298.69
600.491	299.69
600.7	286.69
600.909	270.69
601.118	284.69
601.327	277.69
601.536	289.69
601.745	287.69
601.953	289.69
602.162	279.69
602.371	284.69
602.58	264.69
602.789	267.69
602.997	283.69
603.206	263.69
603.415	284.69
603.623	292.69
603.832	288.69
604.041	270.69
604.249	274.69
604.458	280.69
604.666	280.69
604.875	270.69
605.084	278.69
605.292	284.69
605.501	287.69
605.709	295.69
605.918	269.69
606.126	288.69
606.334	281.69
606.543	278.69
606.751	288.69
606.96	273.69
607.168	261.69
607.376	264.69
607.585	288.69
607.793	285.69
608.001	271.69
608.21	255.69
608.418	268.69
608.626	289.69
608.834	277.69
609.043	290.69
609.251	285.69
609.459	269.69
609.667	265.69
609.875	263.69
610.083	257.69
610.291	252.69
610.499	261.69
610.707	248.69
610.916	279.69
611.124	264.69
611.332	271.69
611.54	276.69
611.748	299.69
611.955	267.69
612.163	283.69
612.371	267.69
612.579	270.69
612.787	271.69
612.995	257.69
613.203	261.69
613.411	250.69
613.618	279.69
613.826	267.69
614.034	260.69
614.242	282.69
614.449	276.69
614.657	274.69
614.865	248.69
615.072	263.69
615.28	262.69
615.488	264.69
615.695	236.69
615.903	251.69
616.111	253.69
616.318	267.69
616.526	279.69
616.733	237.69
616.941	261.69
617.148	273.69
617.356	244.69
617.563	247.69
617.771	249.69
617.978	259.69
618.185	250.69
618.393	245.69
618.6	257.69
618.807	246.69
619.015	261.69
619.222	270.69
619.429	261.69
619.637	270.69
619.844	260.69
620.051	234.69
620.258	249.69
620.466	227.69
620.673	243.69
620.88	229.69
621.087	239.69
621.294	241.69
621.501	245.69
621.708	263.69
621.915	263.69
622.122	237.69
622.329	258.69
622.536	248.69
622.743	251.69
622.95	230.69
623.157	239.69
623.364	232.69
623.571	245.69
623.778	244.69
623.985	246.69
624.192	229.69
624.399	233.69
624.606	213.69
624.812	245.69
625.019	233.69
625.226	230.69
625.433	238.69
625.639	240.69
625.846	228.69
626.053	224.69
626.259	234.69
626.466	201.69
626.673	219.69
626.879	228.69
627.086	222.69
627.293	221.69
627.499	231.69
627.706	217.69
627.912	231.69
628.119	222.69
628.325	216.69
628.532	240.69
628.738	239.69
628.945	230.69
629.151	235.69
629.357	222.69
629.564	222.69
629.77	232.69
629.976	195.69
630.183	228.69
630.389	220.69
630.595	203.69
630.802	211.69
631.008	191.69
631.214	199.69
631.42	227.69
631.627	208.69
631.833	216.69
632.039	208.69
632.245	195.69
632.451	201.69
632.657	216.69
632.863	195.69
633.069	218.69
633.275	195.69
633.481	203.69
633.688	204.69
633.893	199.69
634.099	206.69
634.305	202.69
634.511	200.69
634.717	201.69
634.923	200.69
635.129	191.69
635.335	203.69
635.541	204.69
635.747	195.69
635.952	183.69
636.158	198.69
636.364	197.69
636.57	208.69
636.775	198.69
636.981	206.69
637.187	202.69
637.392	203.69
637.598	201.69
637.804	207.69
638.009	212.69
638.215	200.69
638.421	183.69
638.626	176.69
638.832	187.69
639.037	179.69
639.243	180.69
639.448	179.69
639.654	192.69
639.859	203.69
640.065	183.69
640.27	197.69
640.475	183.69
640.681	198.69
640.886	193.69
641.091	200.69
641.297	193.69
641.502	192.69
641.707	201.69
641.913	183.69
642.118	188.69
642.323	189.69
642.528	191.69
642.733	200.69
642.939	168.69
643.144	177.69
643.349	169.69
643.554	182.69
643.759	174.69
643.964	184.69
644.169	182.69
644.374	173.69
644.579	177.69
644.784	169.69
644.989	184.69
645.194	179.69
645.399	176.69
645.604	169.69
645.809	173.69
646.014	183.69
646.219	165.69
646.423	189.69
646.628	172.69
646.833	172.69
647.038	188.69
647.243	175.69
647.447	198.69
647.652	181.69
647.857	176.69
648.062	196.69
648.266	183.69
648.471	173.69
648.676	194.69
648.88	155.69
649.085	163.69
649.289	161.69
649.494	182.69
649.698	193.69
649.903	198.69
650.107	192.69
650.312	183.69
650.516	160.69
650.721	165.69
650.925	174.69
651.13	151.69
651.334	161.69
651.539	167.69
651.743	165.69
651.947	159.69
652.152	155.69
652.356	156.69
652.56	157.69
652.764	159.69
652.969	143.69
653.173	160.69
653.377	155.69
653.581	139.69
653.785	131.69
653.99	127.69
654.194	139.69
654.398	147.69
654.602	135.69
654.806	152.69
655.01	142.69
655.214	138.69
655.418	153.69
655.622	151.69
655.826	140.69
656.03	151.69
656.234	158.69
656.438	147.69
656.642	158.69
656.846	150.69
657.049	127.69
657.253	125.69
657.457	130.69
657.661	123.69
657.865	126.69
658.068	135.69
658.272	123.69
658.476	119.69
658.68	104.69
658.883	118.69
659.087	105.69
659.291	102.69
659.494	98.69
659.698	98.69
659.901	104.69
660.105	107.69
660.309	92.69
660.512	96.69
660.716	101.69
660.919	78.69
661.123	80.69
661.326	100.69
661.53	65.69
661.733	94.69
661.936	81.69
662.14	95.69
662.343	96.69
662.546	88.69
662.75	84.69
662.953	98.69
663.156	94.69
663.36	80.69
663.563	76.69
663.766	79.69
663.969	99.69
664.173	90.69
664.376	76.69
664.579	91.69
664.782	83.69
664.985	82.69
665.188	76.69
665.391	83.69
665.594	65.69
665.797	78.69
666	76.69
666.203	89.69
666.406	83.69
666.609	84.69
666.812	78.69
667.015	88.69
667.218	88.69
667.421	69.69
667.624	91.69
667.827	88.69
668.03	81.69
668.232	88.69
668.435	92.69
668.638	79.69
668.841	95.69
669.043	90.69
669.246	61.69
669.449	83.69
669.651	84.69
669.854	84.69
670.057	82.69
670.259	86.69
670.462	79.69
670.665	84.69
670.867	84.69
671.07	78.69
671.272	90.69
671.475	81.69
671.677	94.69
671.88	90.69
672.082	68.69
672.284	86.69
672.487	89.69
672.689	77.69
672.892	83.69
