Data from 1966.PennyLincolnUp.Lamp.En5.5.200Scan.071719.P1.Scan2.head_HRD10591_14-18-33-196.txt Node
Date: Thu Jul 18 14:18:33 EDT 2019
User: cochatt
Spectrometer: HR+D1059
Trigger mode: 1
Integration Time (sec): 1.000000E-1
Scans to average: 1
Electric dark correction enabled: true
Nonlinearity correction enabled: false
Boxcar width: 0
XAxis mode: Wavelengths
Number of Pixels in Spectrum: 2048
>>>>>Begin Spectral Data<<<<<
223.165	-4.62
223.4	-4.62
223.635	-4.62
223.869	-16.62
224.104	-26.62
224.338	-14.62
224.573	-12.62
224.808	-16.62
225.042	-6.62
225.277	0.38
225.511	-9.62
225.746	14.38
225.98	4.38
226.215	16.38
226.449	13.38
226.683	10.38
226.918	29.38
227.152	19.38
227.387	18.38
227.621	25.38
227.856	37.38
228.09	37.38
228.324	46.38
228.559	52.38
228.793	69.38
229.027	92.38
229.262	105.38
229.496	95.38
229.73	121.38
229.964	150.38
230.199	138.38
230.433	106.38
230.667	116.38
230.901	106.38
231.136	118.38
231.37	114.38
231.604	127.38
231.838	112.38
232.072	112.38
232.306	114.38
232.541	126.38
232.775	115.38
233.009	112.38
233.243	123.38
233.477	118.38
233.711	108.38
233.945	122.38
234.179	121.38
234.413	118.38
234.647	111.38
234.881	114.38
235.115	132.38
235.349	111.38
235.583	106.38
235.817	126.38
236.051	112.38
236.285	127.38
236.519	130.38
236.753	131.38
236.987	130.38
237.221	175.38
237.455	236.38
237.689	190.38
237.922	129.38
238.156	135.38
238.39	139.38
238.624	126.38
238.858	131.38
239.091	119.38
239.325	122.38
239.559	127.38
239.793	117.38
240.027	123.38
240.26	134.38
240.494	154.38
240.728	156.38
240.961	162.38
241.195	143.38
241.429	130.38
241.662	136.38
241.896	137.38
242.13	126.38
242.363	119.38
242.597	135.38
242.83	130.38
243.064	136.38
243.298	133.38
243.531	137.38
243.765	151.38
243.998	153.38
244.232	150.38
244.465	143.38
244.699	138.38
244.932	117.38
245.166	151.38
245.399	157.38
245.633	154.38
245.866	161.38
246.099	146.38
246.333	139.38
246.566	159.38
246.8	165.38
247.033	155.38
247.266	150.38
247.5	154.38
247.733	161.38
247.966	146.38
248.2	174.38
248.433	158.38
248.666	183.38
248.899	189.38
249.133	184.38
249.366	200.38
249.599	186.38
249.832	179.38
250.066	181.38
250.299	193.38
250.532	192.38
250.765	206.38
250.998	219.38
251.231	219.38
251.465	210.38
251.698	212.38
251.931	198.38
252.164	187.38
252.397	194.38
252.63	208.38
252.863	199.38
253.096	221.38
253.329	237.38
253.562	209.38
253.795	231.38
254.028	200.38
254.261	207.38
254.494	222.38
254.727	267.38
254.96	294.38
255.193	275.38
255.426	228.38
255.659	219.38
255.892	240.38
256.124	247.38
256.357	261.38
256.59	234.38
256.823	210.38
257.056	214.38
257.289	219.38
257.521	204.38
257.754	219.38
257.987	210.38
258.22	197.38
258.452	202.38
258.685	217.38
258.918	202.38
259.151	207.38
259.383	228.38
259.616	225.38
259.849	229.38
260.081	226.38
260.314	255.38
260.547	260.38
260.779	246.38
261.012	238.38
261.244	219.38
261.477	208.38
261.71	224.38
261.942	215.38
262.175	242.38
262.407	229.38
262.64	223.38
262.872	227.38
263.105	230.38
263.337	203.38
263.57	201.38
263.802	210.38
264.035	222.38
264.267	211.38
264.499	217.38
264.732	214.38
264.964	200.38
265.197	208.38
265.429	231.38
265.661	217.38
265.894	200.38
266.126	217.38
266.358	220.38
266.591	242.38
266.823	223.38
267.055	215.38
267.287	244.38
267.52	227.38
267.752	218.38
267.984	230.38
268.216	230.38
268.448	237.38
268.681	229.38
268.913	249.38
269.145	260.38
269.377	273.38
269.609	276.38
269.841	283.38
270.073	286.38
270.306	300.38
270.538	324.38
270.77	312.38
271.002	312.38
271.234	288.38
271.466	306.38
271.698	299.38
271.93	322.38
272.162	304.38
272.394	310.38
272.626	304.38
272.858	266.38
273.09	266.38
273.322	260.38
273.553	261.38
273.785	257.38
274.017	258.38
274.249	273.38
274.481	255.38
274.713	273.38
274.945	264.38
275.176	258.38
275.408	265.38
275.64	266.38
275.872	262.38
276.104	281.38
276.335	270.38
276.567	287.38
276.799	283.38
277.031	291.38
277.262	306.38
277.494	314.38
277.726	306.38
277.957	295.38
278.189	279.38
278.421	275.38
278.652	278.38
278.884	279.38
279.115	278.38
279.347	274.38
279.579	270.38
279.81	280.38
280.042	249.38
280.273	278.38
280.505	268.38
280.736	264.38
280.968	279.38
281.199	269.38
281.431	268.38
281.662	250.38
281.894	278.38
282.125	270.38
282.356	297.38
282.588	308.38
282.819	315.38
283.051	280.38
283.282	273.38
283.513	282.38
283.745	289.38
283.976	276.38
284.207	287.38
284.439	293.38
284.67	265.38
284.901	278.38
285.132	289.38
285.364	273.38
285.595	294.38
285.826	296.38
286.057	286.38
286.288	288.38
286.52	299.38
286.751	295.38
286.982	293.38
287.213	290.38
287.444	287.38
287.675	279.38
287.906	310.38
288.138	305.38
288.369	298.38
288.6	301.38
288.831	291.38
289.062	312.38
289.293	306.38
289.524	296.38
289.755	282.38
289.986	292.38
290.217	287.38
290.448	300.38
290.679	302.38
290.91	284.38
291.141	306.38
291.371	306.38
291.602	298.38
291.833	306.38
292.064	306.38
292.295	305.38
292.526	292.38
292.757	278.38
292.987	293.38
293.218	287.38
293.449	306.38
293.68	298.38
293.91	297.38
294.141	290.38
294.372	295.38
294.603	303.38
294.833	288.38
295.064	297.38
295.295	300.38
295.525	272.38
295.756	310.38
295.987	308.38
296.217	343.38
296.448	314.38
296.679	307.38
296.909	289.38
297.14	312.38
297.37	316.38
297.601	325.38
297.831	330.38
298.062	307.38
298.292	316.38
298.523	316.38
298.753	307.38
298.984	316.38
299.214	322.38
299.445	315.38
299.675	332.38
299.905	307.38
300.136	317.38
300.366	335.38
300.597	330.38
300.827	320.38
301.057	314.38
301.288	337.38
301.518	334.38
301.748	352.38
301.979	334.38
302.209	318.38
302.439	322.38
302.669	332.38
302.9	345.38
303.13	336.38
303.36	332.38
303.59	346.38
303.82	362.38
304.051	351.38
304.281	340.38
304.511	335.38
304.741	333.38
304.971	331.38
305.201	320.38
305.431	334.38
305.661	337.38
305.891	336.38
306.121	328.38
306.352	352.38
306.582	348.38
306.812	343.38
307.042	350.38
307.272	333.38
307.502	352.38
307.731	343.38
307.961	353.38
308.191	335.38
308.421	345.38
308.651	345.38
308.881	347.38
309.111	324.38
309.341	342.38
309.571	364.38
309.8	385.38
310.03	372.38
310.26	382.38
310.49	383.38
310.72	369.38
310.949	391.38
311.179	402.38
311.409	376.38
311.639	368.38
311.868	379.38
312.098	370.38
312.328	393.38
312.557	396.38
312.787	406.38
313.017	426.38
313.246	402.38
313.476	382.38
313.706	380.38
313.935	398.38
314.165	400.38
314.394	405.38
314.624	394.38
314.853	385.38
315.083	384.38
315.312	384.38
315.542	377.38
315.771	361.38
316.001	379.38
316.23	386.38
316.46	384.38
316.689	385.38
316.919	388.38
317.148	411.38
317.377	399.38
317.607	416.38
317.836	403.38
318.065	387.38
318.295	371.38
318.524	376.38
318.753	387.38
318.983	388.38
319.212	386.38
319.441	380.38
319.67	394.38
319.9	392.38
320.129	396.38
320.358	395.38
320.587	392.38
320.816	383.38
321.046	422.38
321.275	421.38
321.504	402.38
321.733	405.38
321.962	432.38
322.191	420.38
322.42	430.38
322.649	452.38
322.878	456.38
323.108	467.38
323.337	465.38
323.566	490.38
323.795	499.38
324.024	556.38
324.253	672.38
324.482	923.38
324.71	1494.38
324.939	2198.38
325.168	1906.38
325.397	946.38
325.626	646.38
325.855	537.38
326.084	506.38
326.313	486.38
326.542	491.38
326.77	552.38
326.999	614.38
327.228	868.38
327.457	1350.38
327.686	1667.38
327.914	1086.38
328.143	706.38
328.372	621.38
328.6	577.38
328.829	551.38
329.058	599.38
329.287	583.38
329.515	560.38
329.744	517.38
329.972	520.38
330.201	539.38
330.43	587.38
330.658	621.38
330.887	652.38
331.115	590.38
331.344	522.38
331.572	504.38
331.801	510.38
332.03	527.38
332.258	478.38
332.486	468.38
332.715	482.38
332.943	465.38
333.172	454.38
333.4	478.38
333.629	470.38
333.857	516.38
334.085	512.38
334.314	546.38
334.542	565.38
334.771	582.38
334.999	533.38
335.227	496.38
335.455	502.38
335.684	496.38
335.912	461.38
336.14	439.38
336.369	447.38
336.597	466.38
336.825	477.38
337.053	459.38
337.281	452.38
337.51	431.38
337.738	451.38
337.966	457.38
338.194	465.38
338.422	442.38
338.65	452.38
338.878	454.38
339.106	462.38
339.334	454.38
339.562	446.38
339.79	434.38
340.018	447.38
340.246	443.38
340.474	469.38
340.702	455.38
340.93	435.38
341.158	446.38
341.386	423.38
341.614	427.38
341.842	461.38
342.07	445.38
342.298	436.38
342.526	435.38
342.754	458.38
342.981	446.38
343.209	434.38
343.437	445.38
343.665	462.38
343.893	438.38
344.12	456.38
344.348	469.38
344.576	472.38
344.804	471.38
345.031	453.38
345.259	467.38
345.487	452.38
345.714	451.38
345.942	475.38
346.17	457.38
346.397	441.38
346.625	420.38
346.853	462.38
347.08	440.38
347.308	452.38
347.535	448.38
347.763	450.38
347.99	460.38
348.218	459.38
348.445	467.38
348.673	461.38
348.9	427.38
349.128	432.38
349.355	415.38
349.583	420.38
349.81	440.38
350.037	451.38
350.265	431.38
350.492	448.38
350.72	444.38
350.947	430.38
351.174	442.38
351.402	447.38
351.629	456.38
351.856	450.38
352.083	449.38
352.311	459.38
352.538	464.38
352.765	465.38
352.992	460.38
353.22	438.38
353.447	447.38
353.674	439.38
353.901	447.38
354.128	428.38
354.355	412.38
354.583	409.38
354.81	417.38
355.037	432.38
355.264	420.38
355.491	394.38
355.718	417.38
355.945	410.38
356.172	403.38
356.399	395.38
356.626	412.38
356.853	403.38
357.08	419.38
357.307	409.38
357.534	403.38
357.761	411.38
357.988	424.38
358.215	417.38
358.441	416.38
358.668	409.38
358.895	425.38
359.122	420.38
359.349	453.38
359.576	450.38
359.802	470.38
360.029	499.38
360.256	489.38
360.483	478.38
360.709	432.38
360.936	444.38
361.163	438.38
361.39	454.38
361.616	451.38
361.843	459.38
362.07	450.38
362.296	443.38
362.523	446.38
362.749	430.38
362.976	454.38
363.203	426.38
363.429	418.38
363.656	431.38
363.882	432.38
364.109	427.38
364.335	430.38
364.562	422.38
364.788	433.38
365.015	432.38
365.241	411.38
365.468	436.38
365.694	460.38
365.92	435.38
366.147	417.38
366.373	432.38
366.599	442.38
366.826	433.38
367.052	431.38
367.278	436.38
367.505	435.38
367.731	440.38
367.957	440.38
368.184	415.38
368.41	435.38
368.636	457.38
368.862	442.38
369.089	454.38
369.315	436.38
369.541	435.38
369.767	424.38
369.993	435.38
370.219	426.38
370.445	434.38
370.672	436.38
370.898	432.38
371.124	431.38
371.35	423.38
371.576	438.38
371.802	420.38
372.028	435.38
372.254	434.38
372.48	427.38
372.706	402.38
372.932	443.38
373.158	443.38
373.384	427.38
373.61	430.38
373.835	446.38
374.061	438.38
374.287	427.38
374.513	473.38
374.739	448.38
374.965	438.38
375.191	432.38
375.416	455.38
375.642	432.38
375.868	444.38
376.094	433.38
376.319	422.38
376.545	424.38
376.771	423.38
376.997	426.38
377.222	424.38
377.448	431.38
377.674	449.38
377.899	445.38
378.125	437.38
378.35	430.38
378.576	422.38
378.802	418.38
379.027	442.38
379.253	443.38
379.478	413.38
379.704	432.38
379.929	422.38
380.155	427.38
380.38	433.38
380.606	449.38
380.831	434.38
381.057	441.38
381.282	442.38
381.507	435.38
381.733	422.38
381.958	439.38
382.184	455.38
382.409	444.38
382.634	458.38
382.86	454.38
383.085	443.38
383.31	452.38
383.535	450.38
383.761	459.38
383.986	453.38
384.211	460.38
384.436	448.38
384.662	449.38
384.887	478.38
385.112	492.38
385.337	486.38
385.562	477.38
385.787	476.38
386.013	485.38
386.238	479.38
386.463	484.38
386.688	466.38
386.913	474.38
387.138	489.38
387.363	502.38
387.588	495.38
387.813	487.38
388.038	474.38
388.263	469.38
388.488	472.38
388.713	474.38
388.938	506.38
389.163	487.38
389.387	514.38
389.612	489.38
389.837	470.38
390.062	483.38
390.287	489.38
390.512	476.38
390.736	484.38
390.961	491.38
391.186	505.38
391.411	466.38
391.636	496.38
391.86	491.38
392.085	508.38
392.31	479.38
392.534	522.38
392.759	491.38
392.984	500.38
393.208	496.38
393.433	510.38
393.658	515.38
393.882	515.38
394.107	504.38
394.331	514.38
394.556	472.38
394.78	502.38
395.005	489.38
395.229	488.38
395.454	518.38
395.678	538.38
395.903	509.38
396.127	530.38
396.352	550.38
396.576	545.38
396.801	532.38
397.025	528.38
397.249	521.38
397.474	543.38
397.698	541.38
397.922	549.38
398.147	547.38
398.371	561.38
398.595	552.38
398.82	550.38
399.044	579.38
399.268	577.38
399.492	613.38
399.717	649.38
399.941	675.38
400.165	692.38
400.389	724.38
400.613	653.38
400.837	607.38
401.062	572.38
401.286	561.38
401.51	567.38
401.734	593.38
401.958	590.38
402.182	580.38
402.406	590.38
402.63	568.38
402.854	588.38
403.078	578.38
403.302	572.38
403.526	601.38
403.75	577.38
403.974	597.38
404.198	592.38
404.422	596.38
404.645	617.38
404.869	626.38
405.093	637.38
405.317	699.38
405.541	720.38
405.765	634.38
405.988	625.38
406.212	646.38
406.436	644.38
406.66	692.38
406.883	649.38
407.107	665.38
407.331	712.38
407.555	785.38
407.778	763.38
408.002	694.38
408.226	650.38
408.449	644.38
408.673	635.38
408.896	666.38
409.12	734.38
409.344	707.38
409.567	628.38
409.791	627.38
410.014	604.38
410.238	596.38
410.461	602.38
410.685	604.38
410.908	634.38
411.132	661.38
411.355	677.38
411.578	655.38
411.802	587.38
412.025	581.38
412.249	616.38
412.472	620.38
412.695	683.38
412.919	683.38
413.142	597.38
413.365	611.38
413.589	599.38
413.812	560.38
414.035	563.38
414.258	551.38
414.482	568.38
414.705	558.38
414.928	566.38
415.151	564.38
415.374	558.38
415.597	558.38
415.821	544.38
416.044	557.38
416.267	554.38
416.49	555.38
416.713	550.38
416.936	553.38
417.159	549.38
417.382	567.38
417.605	574.38
417.828	571.38
418.051	580.38
418.274	584.38
418.497	573.38
418.72	554.38
418.943	564.38
419.166	578.38
419.389	618.38
419.611	607.38
419.834	595.38
420.057	607.38
420.28	606.38
420.503	575.38
420.726	596.38
420.948	592.38
421.171	653.38
421.394	666.38
421.617	604.38
421.839	603.38
422.062	574.38
422.285	601.38
422.507	651.38
422.73	755.38
422.953	706.38
423.175	642.38
423.398	632.38
423.621	618.38
423.843	619.38
424.066	657.38
424.288	640.38
424.511	667.38
424.733	710.38
424.956	840.38
425.178	781.38
425.401	762.38
425.623	779.38
425.846	666.38
426.068	640.38
426.291	596.38
426.513	603.38
426.735	647.38
426.958	672.38
427.18	775.38
427.402	912.38
427.625	988.38
427.847	894.38
428.069	780.38
428.292	678.38
428.514	608.38
428.736	610.38
428.958	597.38
429.181	583.38
429.403	567.38
429.625	562.38
429.847	646.38
430.069	685.38
430.292	675.38
430.514	616.38
430.736	585.38
430.958	569.38
431.18	564.38
431.402	566.38
431.624	547.38
431.846	536.38
432.068	575.38
432.29	545.38
432.512	570.38
432.734	583.38
432.956	571.38
433.178	558.38
433.4	565.38
433.622	567.38
433.844	532.38
434.066	546.38
434.287	573.38
434.509	565.38
434.731	561.38
434.953	582.38
435.175	588.38
435.397	610.38
435.618	631.38
435.84	658.38
436.062	781.38
436.284	860.38
436.505	729.38
436.727	637.38
436.949	598.38
437.17	603.38
437.392	596.38
437.614	592.38
437.835	638.38
438.057	743.38
438.278	851.38
438.5	861.38
438.721	925.38
438.943	891.38
439.165	715.38
439.386	654.38
439.608	632.38
439.829	618.38
440.05	644.38
440.272	705.38
440.493	651.38
440.715	624.38
440.936	590.38
441.158	578.38
441.379	596.38
441.6	624.38
441.822	619.38
442.043	651.38
442.264	769.38
442.486	808.38
442.707	696.38
442.928	639.38
443.149	639.38
443.371	655.38
443.592	713.38
443.813	841.38
444.034	942.38
444.255	756.38
444.476	647.38
444.698	639.38
444.919	644.38
445.14	742.38
445.361	726.38
445.582	690.38
445.803	726.38
446.024	842.38
446.245	867.38
446.466	806.38
446.687	690.38
446.908	645.38
447.129	613.38
447.35	590.38
447.571	590.38
447.792	582.38
448.013	586.38
448.234	611.38
448.455	645.38
448.675	780.38
448.896	924.38
449.117	775.38
449.338	710.38
449.559	839.38
449.779	961.38
450	770.38
450.221	625.38
450.442	604.38
450.662	570.38
450.883	598.38
451.104	586.38
451.324	554.38
451.545	556.38
451.766	515.38
451.986	529.38
452.207	498.38
452.428	528.38
452.648	512.38
452.869	519.38
453.089	519.38
453.31	516.38
453.53	529.38
453.751	511.38
453.971	515.38
454.192	529.38
454.412	518.38
454.633	522.38
454.853	515.38
455.073	509.38
455.294	543.38
455.514	620.38
455.734	587.38
455.955	523.38
456.175	514.38
456.395	502.38
456.616	456.38
456.836	486.38
457.056	484.38
457.276	484.38
457.497	478.38
457.717	501.38
457.937	502.38
458.157	520.38
458.377	508.38
458.598	550.38
458.818	595.38
459.038	678.38
459.258	735.38
459.478	610.38
459.698	576.38
459.918	557.38
460.138	550.38
460.358	559.38
460.578	548.38
460.798	578.38
461.018	586.38
461.238	579.38
461.458	561.38
461.678	550.38
461.898	568.38
462.118	578.38
462.338	590.38
462.558	568.38
462.777	594.38
462.997	602.38
463.217	642.38
463.437	642.38
463.657	606.38
463.876	592.38
464.096	623.38
464.316	618.38
464.536	606.38
464.755	623.38
464.975	608.38
465.195	625.38
465.414	717.38
465.634	633.38
465.854	624.38
466.073	583.38
466.293	568.38
466.512	534.38
466.732	535.38
466.951	544.38
467.171	547.38
467.391	553.38
467.61	550.38
467.829	560.38
468.049	558.38
468.268	556.38
468.488	539.38
468.707	519.38
468.927	518.38
469.146	521.38
469.365	524.38
469.585	501.38
469.804	532.38
470.023	520.38
470.243	548.38
470.462	552.38
470.681	549.38
470.901	552.38
471.12	512.38
471.339	543.38
471.558	549.38
471.777	552.38
471.997	558.38
472.216	510.38
472.435	579.38
472.654	587.38
472.873	555.38
473.092	555.38
473.311	533.38
473.53	562.38
473.749	566.38
473.968	600.38
474.187	699.38
474.406	723.38
474.625	620.38
474.844	553.38
475.063	523.38
475.282	556.38
475.501	556.38
475.72	563.38
475.939	553.38
476.158	568.38
476.377	584.38
476.596	567.38
476.814	589.38
477.033	571.38
477.252	585.38
477.471	563.38
477.69	588.38
477.908	597.38
478.127	629.38
478.346	588.38
478.564	567.38
478.783	618.38
479.002	628.38
479.22	626.38
479.439	642.38
479.658	649.38
479.876	652.38
480.095	659.38
480.313	698.38
480.532	665.38
480.751	676.38
480.969	711.38
481.188	764.38
481.406	787.38
481.624	698.38
481.843	681.38
482.061	640.38
482.28	648.38
482.498	645.38
482.717	636.38
482.935	636.38
483.153	617.38
483.372	630.38
483.59	638.38
483.808	631.38
484.027	630.38
484.245	647.38
484.463	652.38
484.681	660.38
484.9	657.38
485.118	667.38
485.336	648.38
485.554	675.38
485.772	674.38
485.99	651.38
486.209	681.38
486.427	652.38
486.645	696.38
486.863	686.38
487.081	694.38
487.299	679.38
487.517	681.38
487.735	700.38
487.953	686.38
488.171	670.38
488.389	684.38
488.607	680.38
488.825	704.38
489.043	713.38
489.261	709.38
489.479	716.38
489.696	697.38
489.914	685.38
490.132	731.38
490.35	715.38
490.568	727.38
490.786	753.38
491.003	741.38
491.221	752.38
491.439	772.38
491.657	802.38
491.874	792.38
492.092	808.38
492.31	790.38
492.527	795.38
492.745	786.38
492.963	814.38
493.18	783.38
493.398	819.38
493.615	840.38
493.833	808.38
494.05	856.38
494.268	830.38
494.485	824.38
494.703	804.38
494.92	839.38
495.138	820.38
495.355	808.38
495.573	822.38
495.79	840.38
496.008	822.38
496.225	786.38
496.442	820.38
496.66	834.38
496.877	821.38
497.094	838.38
497.312	845.38
497.529	862.38
497.746	865.38
497.963	896.38
498.181	888.38
498.398	927.38
498.615	935.38
498.832	938.38
499.049	951.38
499.267	986.38
499.484	1020.38
499.701	1068.38
499.918	1076.38
500.135	1127.38
500.352	1170.38
500.569	1180.38
500.786	1193.38
501.003	1199.38
501.22	1162.38
501.437	1143.38
501.654	1056.38
501.871	1065.38
502.088	1006.38
502.305	992.38
502.522	955.38
502.739	938.38
502.956	889.38
503.172	887.38
503.389	879.38
503.606	871.38
503.823	842.38
504.04	832.38
504.256	834.38
504.473	840.38
504.69	824.38
504.907	801.38
505.123	825.38
505.34	810.38
505.557	802.38
505.773	783.38
505.99	794.38
506.207	778.38
506.423	778.38
506.64	773.38
506.856	780.38
507.073	770.38
507.289	756.38
507.506	763.38
507.722	765.38
507.939	777.38
508.155	751.38
508.372	726.38
508.588	727.38
508.805	748.38
509.021	735.38
509.238	742.38
509.454	752.38
509.67	770.38
509.887	711.38
510.103	723.38
510.319	736.38
510.536	832.38
510.752	1299.38
510.968	1034.38
511.184	744.38
511.401	714.38
511.617	698.38
511.833	681.38
512.049	679.38
512.265	681.38
512.481	693.38
512.698	695.38
512.914	683.38
513.13	699.38
513.346	677.38
513.562	664.38
513.778	699.38
513.994	704.38
514.21	716.38
514.426	722.38
514.642	761.38
514.858	777.38
515.074	846.38
515.29	906.38
515.506	1320.38
515.721	1111.38
515.937	829.38
516.153	750.38
516.369	750.38
516.585	703.38
516.801	715.38
517.016	697.38
517.232	731.38
517.448	747.38
517.664	716.38
517.879	725.38
518.095	734.38
518.311	697.38
518.527	691.38
518.742	707.38
518.958	701.38
519.173	713.38
519.389	710.38
519.605	688.38
519.82	706.38
520.036	717.38
520.251	717.38
520.467	729.38
520.682	752.38
520.898	741.38
521.113	762.38
521.329	800.38
521.544	876.38
521.76	1090.38
521.975	1691.38
522.19	1642.38
522.406	969.38
522.621	794.38
522.836	680.38
523.052	660.38
523.267	640.38
523.482	651.38
523.698	632.38
523.913	665.38
524.128	649.38
524.343	623.38
524.559	611.38
524.774	596.38
524.989	617.38
525.204	606.38
525.419	599.38
525.634	622.38
525.849	604.38
526.064	606.38
526.28	599.38
526.495	575.38
526.71	595.38
526.925	564.38
527.14	607.38
527.355	576.38
527.57	573.38
527.785	567.38
527.999	566.38
528.214	578.38
528.429	569.38
528.644	577.38
528.859	587.38
529.074	570.38
529.289	588.38
529.503	659.38
529.718	638.38
529.933	610.38
530.148	588.38
530.363	589.38
530.577	560.38
530.792	575.38
531.007	563.38
531.221	589.38
531.436	582.38
531.651	552.38
531.865	575.38
532.08	569.38
532.295	537.38
532.509	559.38
532.724	550.38
532.938	546.38
533.153	566.38
533.367	534.38
533.582	566.38
533.796	555.38
534.011	563.38
534.225	555.38
534.44	523.38
534.654	522.38
534.868	541.38
535.083	545.38
535.297	536.38
535.511	554.38
535.726	555.38
535.94	536.38
536.154	569.38
536.369	542.38
536.583	529.38
536.797	527.38
537.011	545.38
537.225	532.38
537.44	532.38
537.654	550.38
537.868	526.38
538.082	524.38
538.296	538.38
538.51	519.38
538.724	542.38
538.938	526.38
539.153	509.38
539.367	537.38
539.581	544.38
539.795	526.38
540.009	495.38
540.222	525.38
540.436	521.38
540.65	509.38
540.864	528.38
541.078	543.38
541.292	529.38
541.506	518.38
541.72	513.38
541.934	522.38
542.147	527.38
542.361	489.38
542.575	506.38
542.789	518.38
543.002	511.38
543.216	536.38
543.43	518.38
543.644	527.38
543.857	520.38
544.071	514.38
544.285	520.38
544.498	500.38
544.712	524.38
544.925	513.38
545.139	537.38
545.352	498.38
545.566	515.38
545.779	490.38
545.993	510.38
546.206	528.38
546.42	526.38
546.633	504.38
546.847	499.38
547.06	507.38
547.274	491.38
547.487	491.38
547.7	510.38
547.914	495.38
548.127	511.38
548.34	519.38
548.554	496.38
548.767	502.38
548.98	504.38
549.193	503.38
549.407	487.38
549.62	531.38
549.833	481.38
550.046	511.38
550.259	484.38
550.473	490.38
550.686	476.38
550.899	503.38
551.112	499.38
551.325	474.38
551.538	489.38
551.751	490.38
551.964	495.38
552.177	487.38
552.39	480.38
552.603	512.38
552.816	512.38
553.029	476.38
553.242	511.38
553.455	519.38
553.667	530.38
553.88	530.38
554.093	486.38
554.306	507.38
554.519	505.38
554.732	498.38
554.944	494.38
555.157	475.38
555.37	480.38
555.583	477.38
555.795	477.38
556.008	464.38
556.221	470.38
556.433	451.38
556.646	454.38
556.859	472.38
557.071	471.38
557.284	455.38
557.496	465.38
557.709	430.38
557.921	439.38
558.134	420.38
558.346	465.38
558.559	445.38
558.771	437.38
558.984	445.38
559.196	439.38
559.409	451.38
559.621	449.38
559.833	430.38
560.046	432.38
560.258	442.38
560.47	442.38
560.683	435.38
560.895	434.38
561.107	436.38
561.32	439.38
561.532	424.38
561.744	446.38
561.956	450.38
562.168	447.38
562.381	434.38
562.593	437.38
562.805	447.38
563.017	447.38
563.229	432.38
563.441	460.38
563.653	441.38
563.865	455.38
564.077	470.38
564.289	435.38
564.501	455.38
564.713	463.38
564.925	458.38
565.137	462.38
565.349	468.38
565.561	474.38
565.773	496.38
565.985	502.38
566.197	510.38
566.408	498.38
566.62	524.38
566.832	556.38
567.044	559.38
567.255	572.38
567.467	568.38
567.679	569.38
567.891	576.38
568.102	577.38
568.314	570.38
568.526	548.38
568.737	532.38
568.949	499.38
569.161	499.38
569.372	464.38
569.584	467.38
569.795	449.38
570.007	467.38
570.218	502.38
570.43	490.38
570.641	462.38
570.853	445.38
571.064	447.38
571.276	447.38
571.487	441.38
571.698	438.38
571.91	425.38
572.121	418.38
572.333	415.38
572.544	405.38
572.755	413.38
572.966	415.38
573.178	404.38
573.389	406.38
573.6	392.38
573.811	382.38
574.023	390.38
574.234	394.38
574.445	401.38
574.656	380.38
574.867	379.38
575.078	384.38
575.289	372.38
575.501	370.38
575.712	356.38
575.923	386.38
576.134	378.38
576.345	371.38
576.556	392.38
576.767	381.38
576.978	384.38
577.188	372.38
577.399	369.38
577.61	360.38
577.821	374.38
578.032	356.38
578.243	398.38
578.454	599.38
578.665	463.38
578.875	377.38
579.086	374.38
579.297	362.38
579.508	360.38
579.718	354.38
579.929	344.38
580.14	347.38
580.35	329.38
580.561	341.38
580.772	376.38
580.982	342.38
581.193	342.38
581.403	342.38
581.614	344.38
581.825	341.38
582.035	346.38
582.246	331.38
582.456	344.38
582.667	315.38
582.877	331.38
583.087	350.38
583.298	346.38
583.508	341.38
583.719	344.38
583.929	339.38
584.139	338.38
584.35	338.38
584.56	340.38
584.77	358.38
584.981	353.38
585.191	339.38
585.401	351.38
585.611	347.38
585.821	330.38
586.032	336.38
586.242	349.38
586.452	341.38
586.662	327.38
586.872	342.38
587.082	314.38
587.292	327.38
587.502	344.38
587.713	360.38
587.923	320.38
588.133	338.38
588.343	330.38
588.553	331.38
588.762	344.38
588.972	332.38
589.182	337.38
589.392	337.38
589.602	346.38
589.812	338.38
590.022	340.38
590.232	330.38
590.441	343.38
590.651	311.38
590.861	341.38
591.071	324.38
591.281	327.38
591.49	346.38
591.7	350.38
591.91	340.38
592.119	351.38
592.329	337.38
592.539	375.38
592.748	348.38
592.958	357.38
593.167	356.38
593.377	366.38
593.587	376.38
593.796	359.38
594.006	375.38
594.215	341.38
594.424	360.38
594.634	348.38
594.843	332.38
595.053	329.38
595.262	332.38
595.472	333.38
595.681	337.38
595.89	333.38
596.1	325.38
596.309	332.38
596.518	316.38
596.727	319.38
596.937	323.38
597.146	327.38
597.355	320.38
597.564	314.38
597.774	312.38
597.983	299.38
598.192	320.38
598.401	314.38
598.61	312.38
598.819	287.38
599.028	288.38
599.237	282.38
599.446	283.38
599.655	304.38
599.864	287.38
600.073	274.38
600.282	281.38
600.491	300.38
600.7	292.38
600.909	302.38
601.118	299.38
601.327	287.38
601.536	283.38
601.745	289.38
601.953	304.38
602.162	293.38
602.371	287.38
602.58	284.38
602.789	286.38
602.997	295.38
603.206	299.38
603.415	303.38
603.623	278.38
603.832	288.38
604.041	261.38
604.249	264.38
604.458	288.38
604.666	289.38
604.875	289.38
605.084	278.38
605.292	272.38
605.501	280.38
605.709	279.38
605.918	271.38
606.126	292.38
606.334	275.38
606.543	281.38
606.751	281.38
606.96	261.38
607.168	256.38
607.376	274.38
607.585	258.38
607.793	258.38
608.001	261.38
608.21	264.38
608.418	268.38
608.626	251.38
608.834	274.38
609.043	287.38
609.251	267.38
609.459	272.38
609.667	272.38
609.875	276.38
610.083	262.38
610.291	282.38
610.499	278.38
610.707	284.38
610.916	284.38
611.124	265.38
611.332	276.38
611.54	277.38
611.748	273.38
611.955	269.38
612.163	261.38
612.371	262.38
612.579	262.38
612.787	263.38
612.995	272.38
613.203	273.38
613.411	272.38
613.618	278.38
613.826	260.38
614.034	252.38
614.242	276.38
614.449	273.38
614.657	260.38
614.865	273.38
615.072	260.38
615.28	274.38
615.488	257.38
615.695	246.38
615.903	246.38
616.111	281.38
616.318	259.38
616.526	272.38
616.733	272.38
616.941	257.38
617.148	253.38
617.356	263.38
617.563	263.38
617.771	254.38
617.978	260.38
618.185	249.38
618.393	248.38
618.6	267.38
618.807	255.38
619.015	242.38
619.222	250.38
619.429	256.38
619.637	246.38
619.844	257.38
620.051	240.38
620.258	240.38
620.466	256.38
620.673	248.38
620.88	226.38
621.087	263.38
621.294	244.38
621.501	248.38
621.708	256.38
621.915	249.38
622.122	233.38
622.329	251.38
622.536	270.38
622.743	251.38
622.95	236.38
623.157	239.38
623.364	218.38
623.571	228.38
623.778	243.38
623.985	234.38
624.192	231.38
624.399	242.38
624.606	227.38
624.812	218.38
625.019	229.38
625.226	254.38
625.433	226.38
625.639	229.38
625.846	234.38
626.053	234.38
626.259	227.38
626.466	222.38
626.673	224.38
626.879	239.38
627.086	232.38
627.293	248.38
627.499	230.38
627.706	214.38
627.912	225.38
628.119	205.38
628.325	218.38
628.532	238.38
628.738	219.38
628.945	216.38
629.151	209.38
629.357	208.38
629.564	211.38
629.77	212.38
629.976	221.38
630.183	223.38
630.389	218.38
630.595	211.38
630.802	232.38
631.008	209.38
631.214	208.38
631.42	212.38
631.627	224.38
631.833	218.38
632.039	211.38
632.245	205.38
632.451	218.38
632.657	194.38
632.863	207.38
633.069	200.38
633.275	214.38
633.481	192.38
633.688	208.38
633.893	210.38
634.099	215.38
634.305	185.38
634.511	200.38
634.717	190.38
634.923	190.38
635.129	199.38
635.335	209.38
635.541	210.38
635.747	197.38
635.952	188.38
636.158	207.38
636.364	198.38
636.57	192.38
636.775	202.38
636.981	210.38
637.187	196.38
637.392	186.38
637.598	179.38
637.804	186.38
638.009	204.38
638.215	207.38
638.421	182.38
638.626	194.38
638.832	182.38
639.037	201.38
639.243	188.38
639.448	184.38
639.654	181.38
639.859	204.38
640.065	194.38
640.27	204.38
640.475	182.38
640.681	190.38
640.886	190.38
641.091	198.38
641.297	194.38
641.502	178.38
641.707	180.38
641.913	171.38
642.118	177.38
642.323	193.38
642.528	174.38
642.733	170.38
642.939	177.38
643.144	170.38
643.349	184.38
643.554	180.38
643.759	189.38
643.964	159.38
644.169	180.38
644.374	167.38
644.579	191.38
644.784	180.38
644.989	185.38
645.194	184.38
645.399	171.38
645.604	182.38
645.809	179.38
646.014	188.38
646.219	174.38
646.423	176.38
646.628	183.38
646.833	190.38
647.038	183.38
647.243	190.38
647.447	177.38
647.652	178.38
647.857	178.38
648.062	178.38
648.266	175.38
648.471	187.38
648.676	203.38
648.88	168.38
649.085	179.38
649.289	164.38
649.494	179.38
649.698	197.38
649.903	197.38
650.107	177.38
650.312	185.38
650.516	160.38
650.721	187.38
650.925	168.38
651.13	160.38
651.334	158.38
651.539	151.38
651.743	151.38
651.947	150.38
652.152	154.38
652.356	155.38
652.56	178.38
652.764	152.38
652.969	138.38
653.173	147.38
653.377	147.38
653.581	142.38
653.785	146.38
653.99	153.38
654.194	139.38
654.398	138.38
654.602	158.38
654.806	150.38
655.01	147.38
655.214	140.38
655.418	135.38
655.622	141.38
655.826	137.38
656.03	138.38
656.234	121.38
656.438	135.38
656.642	142.38
656.846	144.38
657.049	129.38
657.253	126.38
657.457	130.38
657.661	133.38
657.865	118.38
658.068	115.38
658.272	113.38
658.476	115.38
658.68	108.38
658.883	110.38
659.087	103.38
659.291	110.38
659.494	101.38
659.698	108.38
659.901	111.38
660.105	97.38
660.309	98.38
660.512	102.38
660.716	102.38
660.919	85.38
661.123	92.38
661.326	93.38
661.53	86.38
661.733	82.38
661.936	92.38
662.14	92.38
662.343	78.38
662.546	93.38
662.75	85.38
662.953	83.38
663.156	78.38
663.36	93.38
663.563	82.38
663.766	80.38
663.969	93.38
664.173	81.38
664.376	83.38
664.579	65.38
664.782	81.38
664.985	80.38
665.188	90.38
665.391	72.38
665.594	75.38
665.797	87.38
666	76.38
666.203	73.38
666.406	76.38
666.609	84.38
666.812	85.38
667.015	72.38
667.218	75.38
667.421	80.38
667.624	65.38
667.827	80.38
668.03	79.38
668.232	92.38
668.435	76.38
668.638	86.38
668.841	85.38
669.043	75.38
669.246	77.38
669.449	79.38
669.651	77.38
669.854	81.38
670.057	81.38
670.259	85.38
670.462	72.38
670.665	73.38
670.867	83.38
671.07	82.38
671.272	85.38
671.475	95.38
671.677	79.38
671.88	71.38
672.082	77.38
672.284	71.38
672.487	72.38
672.689	83.38
672.892	90.38
