Data from 1966.PennyLincolnUp.Lamp.En5.5.200Scan.071719.P1.Scan2.head_HRD10591_14-18-32-196.txt Node
Date: Thu Jul 18 14:18:32 EDT 2019
User: cochatt
Spectrometer: HR+D1059
Trigger mode: 1
Integration Time (sec): 1.000000E-1
Scans to average: 1
Electric dark correction enabled: true
Nonlinearity correction enabled: false
Boxcar width: 0
XAxis mode: Wavelengths
Number of Pixels in Spectrum: 2048
>>>>>Begin Spectral Data<<<<<
223.165	-1.12
223.4	-1.12
223.635	-1.12
223.869	-12.12
224.104	-18.12
224.338	-10.12
224.573	-19.12
224.808	-14.12
225.042	-20.12
225.277	-9.12
225.511	-3.12
225.746	-12.12
225.98	1.88
226.215	19.88
226.449	14.88
226.683	22.88
226.918	25.88
227.152	33.88
227.387	29.88
227.621	37.88
227.856	37.88
228.09	42.88
228.324	50.88
228.559	56.88
228.793	53.88
229.027	93.88
229.262	120.88
229.496	121.88
229.73	131.88
229.964	153.88
230.199	144.88
230.433	112.88
230.667	119.88
230.901	104.88
231.136	112.88
231.37	107.88
231.604	102.88
231.838	100.88
232.072	106.88
232.306	94.88
232.541	106.88
232.775	105.88
233.009	112.88
233.243	109.88
233.477	113.88
233.711	104.88
233.945	108.88
234.179	112.88
234.413	125.88
234.647	122.88
234.881	116.88
235.115	123.88
235.349	111.88
235.583	126.88
235.817	122.88
236.051	117.88
236.285	124.88
236.519	136.88
236.753	110.88
236.987	147.88
237.221	194.88
237.455	256.88
237.689	184.88
237.922	146.88
238.156	136.88
238.39	128.88
238.624	130.88
238.858	122.88
239.091	120.88
239.325	115.88
239.559	115.88
239.793	127.88
240.027	122.88
240.26	120.88
240.494	165.88
240.728	135.88
240.961	166.88
241.195	145.88
241.429	141.88
241.662	132.88
241.896	147.88
242.13	137.88
242.363	140.88
242.597	134.88
242.83	144.88
243.064	129.88
243.298	133.88
243.531	129.88
243.765	126.88
243.998	137.88
244.232	139.88
244.465	136.88
244.699	157.88
244.932	152.88
245.166	153.88
245.399	149.88
245.633	154.88
245.866	156.88
246.099	136.88
246.333	144.88
246.566	143.88
246.8	149.88
247.033	160.88
247.266	164.88
247.5	170.88
247.733	170.88
247.966	180.88
248.2	166.88
248.433	165.88
248.666	180.88
248.899	178.88
249.133	201.88
249.366	209.88
249.599	186.88
249.832	182.88
250.066	184.88
250.299	181.88
250.532	184.88
250.765	215.88
250.998	218.88
251.231	235.88
251.465	232.88
251.698	211.88
251.931	205.88
252.164	189.88
252.397	191.88
252.63	194.88
252.863	206.88
253.096	235.88
253.329	226.88
253.562	225.88
253.795	230.88
254.028	218.88
254.261	224.88
254.494	229.88
254.727	249.88
254.96	269.88
255.193	298.88
255.426	245.88
255.659	233.88
255.892	246.88
256.124	244.88
256.357	229.88
256.59	240.88
256.823	221.88
257.056	214.88
257.289	210.88
257.521	196.88
257.754	208.88
257.987	213.88
258.22	201.88
258.452	224.88
258.685	210.88
258.918	214.88
259.151	218.88
259.383	196.88
259.616	235.88
259.849	221.88
260.081	250.88
260.314	273.88
260.547	266.88
260.779	232.88
261.012	229.88
261.244	228.88
261.477	219.88
261.71	237.88
261.942	231.88
262.175	240.88
262.407	254.88
262.64	230.88
262.872	215.88
263.105	206.88
263.337	221.88
263.57	216.88
263.802	224.88
264.035	212.88
264.267	228.88
264.499	224.88
264.732	228.88
264.964	214.88
265.197	214.88
265.429	212.88
265.661	221.88
265.894	218.88
266.126	211.88
266.358	216.88
266.591	225.88
266.823	216.88
267.055	224.88
267.287	221.88
267.52	243.88
267.752	227.88
267.984	235.88
268.216	221.88
268.448	225.88
268.681	235.88
268.913	249.88
269.145	245.88
269.377	288.88
269.609	280.88
269.841	268.88
270.073	270.88
270.306	284.88
270.538	322.88
270.77	328.88
271.002	302.88
271.234	300.88
271.466	300.88
271.698	327.88
271.93	314.88
272.162	326.88
272.394	304.88
272.626	312.88
272.858	275.88
273.09	281.88
273.322	265.88
273.553	256.88
273.785	278.88
274.017	276.88
274.249	274.88
274.481	277.88
274.713	272.88
274.945	266.88
275.176	272.88
275.408	270.88
275.64	272.88
275.872	285.88
276.104	256.88
276.335	266.88
276.567	265.88
276.799	274.88
277.031	306.88
277.262	314.88
277.494	323.88
277.726	299.88
277.957	306.88
278.189	288.88
278.421	264.88
278.652	271.88
278.884	283.88
279.115	263.88
279.347	260.88
279.579	262.88
279.81	274.88
280.042	272.88
280.273	264.88
280.505	276.88
280.736	281.88
280.968	273.88
281.199	265.88
281.431	282.88
281.662	252.88
281.894	291.88
282.125	287.88
282.356	300.88
282.588	298.88
282.819	324.88
283.051	277.88
283.282	301.88
283.513	281.88
283.745	302.88
283.976	293.88
284.207	288.88
284.439	295.88
284.67	296.88
284.901	260.88
285.132	296.88
285.364	285.88
285.595	284.88
285.826	291.88
286.057	289.88
286.288	282.88
286.52	266.88
286.751	271.88
286.982	295.88
287.213	283.88
287.444	284.88
287.675	297.88
287.906	313.88
288.138	302.88
288.369	312.88
288.6	308.88
288.831	302.88
289.062	312.88
289.293	296.88
289.524	302.88
289.755	309.88
289.986	302.88
290.217	296.88
290.448	306.88
290.679	292.88
290.91	304.88
291.141	299.88
291.371	290.88
291.602	308.88
291.833	276.88
292.064	300.88
292.295	296.88
292.526	295.88
292.757	301.88
292.987	294.88
293.218	297.88
293.449	297.88
293.68	301.88
293.91	301.88
294.141	280.88
294.372	312.88
294.603	308.88
294.833	313.88
295.064	308.88
295.295	313.88
295.525	302.88
295.756	295.88
295.987	301.88
296.217	325.88
296.448	348.88
296.679	319.88
296.909	308.88
297.14	314.88
297.37	311.88
297.601	299.88
297.831	304.88
298.062	282.88
298.292	299.88
298.523	306.88
298.753	282.88
298.984	305.88
299.214	291.88
299.445	313.88
299.675	326.88
299.905	310.88
300.136	304.88
300.366	331.88
300.597	310.88
300.827	328.88
301.057	317.88
301.288	324.88
301.518	332.88
301.748	326.88
301.979	327.88
302.209	348.88
302.439	334.88
302.669	326.88
302.9	332.88
303.13	329.88
303.36	338.88
303.59	370.88
303.82	333.88
304.051	345.88
304.281	322.88
304.511	335.88
304.741	348.88
304.971	330.88
305.201	353.88
305.431	352.88
305.661	332.88
305.891	337.88
306.121	331.88
306.352	362.88
306.582	341.88
306.812	355.88
307.042	338.88
307.272	333.88
307.502	328.88
307.731	326.88
307.961	348.88
308.191	332.88
308.421	352.88
308.651	335.88
308.881	352.88
309.111	343.88
309.341	360.88
309.571	355.88
309.8	376.88
310.03	365.88
310.26	377.88
310.49	373.88
310.72	385.88
310.949	397.88
311.179	404.88
311.409	381.88
311.639	390.88
311.868	374.88
312.098	391.88
312.328	379.88
312.557	395.88
312.787	405.88
313.017	421.88
313.246	393.88
313.476	390.88
313.706	389.88
313.935	393.88
314.165	403.88
314.394	390.88
314.624	395.88
314.853	380.88
315.083	396.88
315.312	409.88
315.542	389.88
315.771	400.88
316.001	380.88
316.23	381.88
316.46	389.88
316.689	386.88
316.919	373.88
317.148	389.88
317.377	401.88
317.607	371.88
317.836	401.88
318.065	404.88
318.295	403.88
318.524	384.88
318.753	376.88
318.983	381.88
319.212	390.88
319.441	387.88
319.67	421.88
319.9	383.88
320.129	385.88
320.358	384.88
320.587	411.88
320.816	408.88
321.046	392.88
321.275	400.88
321.504	410.88
321.733	424.88
321.962	414.88
322.191	420.88
322.42	416.88
322.649	428.88
322.878	451.88
323.108	466.88
323.337	457.88
323.566	476.88
323.795	519.88
324.024	567.88
324.253	655.88
324.482	976.88
324.71	1498.88
324.939	2244.88
325.168	1936.88
325.397	938.88
325.626	635.88
325.855	535.88
326.084	501.88
326.313	490.88
326.542	526.88
326.77	572.88
326.999	650.88
327.228	863.88
327.457	1337.88
327.686	1682.88
327.914	1084.88
328.143	724.88
328.372	605.88
328.6	568.88
328.829	553.88
329.058	578.88
329.287	569.88
329.515	537.88
329.744	529.88
329.972	501.88
330.201	550.88
330.43	559.88
330.658	584.88
330.887	622.88
331.115	604.88
331.344	540.88
331.572	501.88
331.801	496.88
332.03	498.88
332.258	483.88
332.486	480.88
332.715	474.88
332.943	456.88
333.172	480.88
333.4	489.88
333.629	499.88
333.857	489.88
334.085	506.88
334.314	538.88
334.542	554.88
334.771	552.88
334.999	521.88
335.227	498.88
335.455	477.88
335.684	464.88
335.912	470.88
336.14	470.88
336.369	452.88
336.597	465.88
336.825	477.88
337.053	461.88
337.281	466.88
337.51	437.88
337.738	464.88
337.966	454.88
338.194	477.88
338.422	448.88
338.65	457.88
338.878	477.88
339.106	457.88
339.334	454.88
339.562	460.88
339.79	455.88
340.018	441.88
340.246	454.88
340.474	441.88
340.702	446.88
340.93	435.88
341.158	425.88
341.386	463.88
341.614	432.88
341.842	429.88
342.07	448.88
342.298	436.88
342.526	419.88
342.754	430.88
342.981	427.88
343.209	437.88
343.437	450.88
343.665	450.88
343.893	467.88
344.12	465.88
344.348	467.88
344.576	458.88
344.804	451.88
345.031	465.88
345.259	472.88
345.487	465.88
345.714	454.88
345.942	464.88
346.17	436.88
346.397	442.88
346.625	446.88
346.853	436.88
347.08	432.88
347.308	427.88
347.535	456.88
347.763	445.88
347.99	432.88
348.218	452.88
348.445	457.88
348.673	456.88
348.9	441.88
349.128	424.88
349.355	413.88
349.583	436.88
349.81	436.88
350.037	425.88
350.265	438.88
350.492	421.88
350.72	430.88
350.947	440.88
351.174	428.88
351.402	443.88
351.629	443.88
351.856	449.88
352.083	468.88
352.311	458.88
352.538	444.88
352.765	477.88
352.992	447.88
353.22	452.88
353.447	430.88
353.674	442.88
353.901	423.88
354.128	418.88
354.355	410.88
354.583	417.88
354.81	418.88
355.037	420.88
355.264	407.88
355.491	420.88
355.718	405.88
355.945	396.88
356.172	415.88
356.399	409.88
356.626	408.88
356.853	416.88
357.08	408.88
357.307	420.88
357.534	393.88
357.761	411.88
357.988	402.88
358.215	406.88
358.441	414.88
358.668	421.88
358.895	432.88
359.122	428.88
359.349	427.88
359.576	445.88
359.802	444.88
360.029	504.88
360.256	494.88
360.483	481.88
360.709	461.88
360.936	464.88
361.163	444.88
361.39	443.88
361.616	439.88
361.843	433.88
362.07	429.88
362.296	447.88
362.523	432.88
362.749	451.88
362.976	431.88
363.203	428.88
363.429	441.88
363.656	438.88
363.882	434.88
364.109	416.88
364.335	406.88
364.562	431.88
364.788	423.88
365.015	446.88
365.241	443.88
365.468	451.88
365.694	436.88
365.92	435.88
366.147	424.88
366.373	432.88
366.599	444.88
366.826	420.88
367.052	414.88
367.278	438.88
367.505	427.88
367.731	423.88
367.957	423.88
368.184	425.88
368.41	430.88
368.636	436.88
368.862	448.88
369.089	448.88
369.315	442.88
369.541	437.88
369.767	449.88
369.993	456.88
370.219	426.88
370.445	448.88
370.672	422.88
370.898	418.88
371.124	437.88
371.35	458.88
371.576	451.88
371.802	442.88
372.028	464.88
372.254	425.88
372.48	423.88
372.706	434.88
372.932	436.88
373.158	429.88
373.384	463.88
373.61	439.88
373.835	454.88
374.061	440.88
374.287	444.88
374.513	437.88
374.739	448.88
374.965	439.88
375.191	432.88
375.416	459.88
375.642	457.88
375.868	459.88
376.094	425.88
376.319	461.88
376.545	445.88
376.771	428.88
376.997	438.88
377.222	446.88
377.448	454.88
377.674	405.88
377.899	428.88
378.125	446.88
378.35	444.88
378.576	433.88
378.802	405.88
379.027	434.88
379.253	437.88
379.478	424.88
379.704	426.88
379.929	456.88
380.155	448.88
380.38	436.88
380.606	445.88
380.831	467.88
381.057	460.88
381.282	420.88
381.507	432.88
381.733	436.88
381.958	431.88
382.184	456.88
382.409	458.88
382.634	465.88
382.86	443.88
383.085	464.88
383.31	453.88
383.535	475.88
383.761	466.88
383.986	450.88
384.211	473.88
384.436	476.88
384.662	482.88
384.887	475.88
385.112	481.88
385.337	468.88
385.562	488.88
385.787	463.88
386.013	504.88
386.238	505.88
386.463	500.88
386.688	478.88
386.913	485.88
387.138	500.88
387.363	520.88
387.588	480.88
387.813	475.88
388.038	489.88
388.263	499.88
388.488	492.88
388.713	482.88
388.938	489.88
389.163	477.88
389.387	488.88
389.612	474.88
389.837	489.88
390.062	467.88
390.287	489.88
390.512	479.88
390.736	484.88
390.961	500.88
391.186	484.88
391.411	488.88
391.636	496.88
391.86	491.88
392.085	512.88
392.31	503.88
392.534	517.88
392.759	488.88
392.984	518.88
393.208	482.88
393.433	501.88
393.658	486.88
393.882	500.88
394.107	496.88
394.331	499.88
394.556	496.88
394.78	495.88
395.005	486.88
395.229	500.88
395.454	487.88
395.678	502.88
395.903	520.88
396.127	537.88
396.352	531.88
396.576	523.88
396.801	530.88
397.025	516.88
397.249	512.88
397.474	533.88
397.698	536.88
397.922	539.88
398.147	546.88
398.371	556.88
398.595	537.88
398.82	565.88
399.044	587.88
399.268	613.88
399.492	638.88
399.717	680.88
399.941	668.88
400.165	700.88
400.389	730.88
400.613	643.88
400.837	612.88
401.062	589.88
401.286	570.88
401.51	562.88
401.734	560.88
401.958	565.88
402.182	577.88
402.406	576.88
402.63	578.88
402.854	570.88
403.078	565.88
403.302	588.88
403.526	589.88
403.75	590.88
403.974	589.88
404.198	576.88
404.422	585.88
404.645	600.88
404.869	622.88
405.093	624.88
405.317	696.88
405.541	705.88
405.765	669.88
405.988	614.88
406.212	629.88
406.436	666.88
406.66	674.88
406.883	648.88
407.107	649.88
407.331	698.88
407.555	763.88
407.778	774.88
408.002	723.88
408.226	640.88
408.449	650.88
408.673	653.88
408.896	690.88
409.12	715.88
409.344	671.88
409.567	618.88
409.791	629.88
410.014	602.88
410.238	587.88
410.461	594.88
410.685	582.88
410.908	625.88
411.132	662.88
411.355	683.88
411.578	661.88
411.802	620.88
412.025	615.88
412.249	572.88
412.472	630.88
412.695	657.88
412.919	673.88
413.142	628.88
413.365	572.88
413.589	589.88
413.812	576.88
414.035	577.88
414.258	541.88
414.482	570.88
414.705	568.88
414.928	566.88
415.151	579.88
415.374	574.88
415.597	544.88
415.821	556.88
416.044	553.88
416.267	567.88
416.49	557.88
416.713	550.88
416.936	570.88
417.159	556.88
417.382	577.88
417.605	560.88
417.828	562.88
418.051	587.88
418.274	597.88
418.497	551.88
418.72	550.88
418.943	558.88
419.166	588.88
419.389	612.88
419.611	606.88
419.834	621.88
420.057	593.88
420.28	610.88
420.503	562.88
420.726	586.88
420.948	610.88
421.171	619.88
421.394	696.88
421.617	639.88
421.839	566.88
422.062	607.88
422.285	607.88
422.507	653.88
422.73	754.88
422.953	708.88
423.175	638.88
423.398	607.88
423.621	634.88
423.843	626.88
424.066	628.88
424.288	636.88
424.511	666.88
424.733	710.88
424.956	816.88
425.178	769.88
425.401	768.88
425.623	802.88
425.846	685.88
426.068	642.88
426.291	640.88
426.513	628.88
426.735	634.88
426.958	699.88
427.18	788.88
427.402	895.88
427.625	1032.88
427.847	897.88
428.069	738.88
428.292	670.88
428.514	626.88
428.736	595.88
428.958	582.88
429.181	585.88
429.403	601.88
429.625	609.88
429.847	650.88
430.069	702.88
430.292	697.88
430.514	617.88
430.736	595.88
430.958	572.88
431.18	554.88
431.402	553.88
431.624	549.88
431.846	541.88
432.068	534.88
432.29	554.88
432.512	558.88
432.734	569.88
432.956	568.88
433.178	582.88
433.4	567.88
433.622	588.88
433.844	567.88
434.066	552.88
434.287	572.88
434.509	550.88
434.731	590.88
434.953	582.88
435.175	596.88
435.397	624.88
435.618	633.88
435.84	682.88
436.062	770.88
436.284	850.88
436.505	733.88
436.727	638.88
436.949	621.88
437.17	582.88
437.392	576.88
437.614	562.88
437.835	640.88
438.057	740.88
438.278	838.88
438.5	823.88
438.721	910.88
438.943	907.88
439.165	722.88
439.386	645.88
439.608	653.88
439.829	636.88
440.05	677.88
440.272	728.88
440.493	680.88
440.715	632.88
440.936	588.88
441.158	600.88
441.379	584.88
441.6	617.88
441.822	601.88
442.043	653.88
442.264	770.88
442.486	804.88
442.707	673.88
442.928	645.88
443.149	650.88
443.371	682.88
443.592	742.88
443.813	828.88
444.034	904.88
444.255	750.88
444.476	665.88
444.698	618.88
444.919	647.88
445.14	742.88
445.361	717.88
445.582	672.88
445.803	756.88
446.024	861.88
446.245	859.88
446.466	807.88
446.687	673.88
446.908	618.88
447.129	588.88
447.35	594.88
447.571	576.88
447.792	567.88
448.013	588.88
448.234	578.88
448.455	652.88
448.675	798.88
448.896	932.88
449.117	774.88
449.338	728.88
449.559	878.88
449.779	985.88
450	794.88
450.221	625.88
450.442	592.88
450.662	552.88
450.883	577.88
451.104	605.88
451.324	569.88
451.545	567.88
451.766	556.88
451.986	516.88
452.207	513.88
452.428	505.88
452.648	526.88
452.869	501.88
453.089	508.88
453.31	540.88
453.53	517.88
453.751	508.88
453.971	513.88
454.192	540.88
454.412	516.88
454.633	500.88
454.853	524.88
455.073	508.88
455.294	555.88
455.514	636.88
455.734	594.88
455.955	540.88
456.175	504.88
456.395	477.88
456.616	479.88
456.836	486.88
457.056	494.88
457.276	472.88
457.497	492.88
457.717	491.88
457.937	498.88
458.157	491.88
458.377	506.88
458.598	538.88
458.818	613.88
459.038	692.88
459.258	698.88
459.478	600.88
459.698	564.88
459.918	568.88
460.138	548.88
460.358	547.88
460.578	588.88
460.798	565.88
461.018	565.88
461.238	574.88
461.458	563.88
461.678	567.88
461.898	581.88
462.118	571.88
462.338	564.88
462.558	578.88
462.777	625.88
462.997	614.88
463.217	637.88
463.437	642.88
463.657	615.88
463.876	621.88
464.096	622.88
464.316	595.88
464.536	620.88
464.755	626.88
464.975	604.88
465.195	654.88
465.414	714.88
465.634	632.88
465.854	605.88
466.073	572.88
466.293	548.88
466.512	562.88
466.732	546.88
466.951	536.88
467.171	553.88
467.391	550.88
467.61	559.88
467.829	559.88
468.049	553.88
468.268	534.88
468.488	510.88
468.707	502.88
468.927	521.88
469.146	516.88
469.365	539.88
469.585	525.88
469.804	531.88
470.023	539.88
470.243	529.88
470.462	534.88
470.681	562.88
470.901	574.88
471.12	548.88
471.339	555.88
471.558	535.88
471.777	543.88
471.997	548.88
472.216	546.88
472.435	602.88
472.654	572.88
472.873	546.88
473.092	550.88
473.311	519.88
473.53	548.88
473.749	548.88
473.968	610.88
474.187	714.88
474.406	745.88
474.625	616.88
474.844	572.88
475.063	535.88
475.282	548.88
475.501	555.88
475.72	557.88
475.939	562.88
476.158	556.88
476.377	575.88
476.596	552.88
476.814	579.88
477.033	578.88
477.252	563.88
477.471	558.88
477.69	578.88
477.908	587.88
478.127	614.88
478.346	598.88
478.564	618.88
478.783	616.88
479.002	609.88
479.22	619.88
479.439	626.88
479.658	648.88
479.876	652.88
480.095	675.88
480.313	713.88
480.532	694.88
480.751	668.88
480.969	678.88
481.188	737.88
481.406	780.88
481.624	710.88
481.843	680.88
482.061	677.88
482.28	657.88
482.498	636.88
482.717	640.88
482.935	654.88
483.153	636.88
483.372	647.88
483.59	654.88
483.808	660.88
484.027	630.88
484.245	655.88
484.463	633.88
484.681	635.88
484.9	667.88
485.118	663.88
485.336	651.88
485.554	671.88
485.772	678.88
485.99	661.88
486.209	669.88
486.427	663.88
486.645	676.88
486.863	677.88
487.081	695.88
487.299	681.88
487.517	677.88
487.735	668.88
487.953	661.88
488.171	689.88
488.389	672.88
488.607	690.88
488.825	685.88
489.043	686.88
489.261	684.88
489.479	695.88
489.696	691.88
489.914	710.88
490.132	702.88
490.35	729.88
490.568	747.88
490.786	724.88
491.003	770.88
491.221	759.88
491.439	780.88
491.657	773.88
491.874	796.88
492.092	794.88
492.31	779.88
492.527	796.88
492.745	800.88
492.963	836.88
493.18	789.88
493.398	827.88
493.615	816.88
493.833	806.88
494.05	811.88
494.268	804.88
494.485	790.88
494.703	841.88
494.92	801.88
495.138	822.88
495.355	809.88
495.573	813.88
495.79	825.88
496.008	830.88
496.225	814.88
496.442	837.88
496.66	839.88
496.877	844.88
497.094	837.88
497.312	836.88
497.529	837.88
497.746	854.88
497.963	884.88
498.181	867.88
498.398	912.88
498.615	891.88
498.832	936.88
499.049	945.88
499.267	960.88
499.484	1015.88
499.701	1022.88
499.918	1069.88
500.135	1153.88
500.352	1176.88
500.569	1197.88
500.786	1224.88
501.003	1200.88
501.22	1154.88
501.437	1129.88
501.654	1083.88
501.871	1038.88
502.088	1003.88
502.305	970.88
502.522	944.88
502.739	908.88
502.956	890.88
503.172	875.88
503.389	858.88
503.606	860.88
503.823	850.88
504.04	862.88
504.256	838.88
504.473	840.88
504.69	837.88
504.907	825.88
505.123	808.88
505.34	810.88
505.557	796.88
505.773	782.88
505.99	762.88
506.207	836.88
506.423	794.88
506.64	788.88
506.856	772.88
507.073	763.88
507.289	785.88
507.506	738.88
507.722	746.88
507.939	770.88
508.155	760.88
508.372	753.88
508.588	757.88
508.805	693.88
509.021	745.88
509.238	744.88
509.454	743.88
509.67	733.88
509.887	732.88
510.103	732.88
510.319	737.88
510.536	826.88
510.752	1261.88
510.968	1064.88
511.184	750.88
511.401	708.88
511.617	704.88
511.833	704.88
512.049	702.88
512.265	722.88
512.481	709.88
512.698	688.88
512.914	694.88
513.13	698.88
513.346	686.88
513.562	690.88
513.778	680.88
513.994	692.88
514.21	700.88
514.426	732.88
514.642	761.88
514.858	805.88
515.074	802.88
515.29	950.88
515.506	1304.88
515.721	1100.88
515.937	790.88
516.153	749.88
516.369	732.88
516.585	721.88
516.801	717.88
517.016	714.88
517.232	734.88
517.448	728.88
517.664	720.88
517.879	763.88
518.095	723.88
518.311	732.88
518.527	722.88
518.742	708.88
518.958	705.88
519.173	710.88
519.389	686.88
519.605	701.88
519.82	713.88
520.036	727.88
520.251	735.88
520.467	741.88
520.682	740.88
520.898	734.88
521.113	772.88
521.329	806.88
521.544	883.88
521.76	1057.88
521.975	1657.88
522.19	1615.88
522.406	981.88
522.621	754.88
522.836	688.88
523.052	678.88
523.267	646.88
523.482	629.88
523.698	642.88
523.913	630.88
524.128	627.88
524.343	632.88
524.559	607.88
524.774	600.88
524.989	620.88
525.204	627.88
525.419	624.88
525.634	594.88
525.849	611.88
526.064	574.88
526.28	592.88
526.495	570.88
526.71	573.88
526.925	572.88
527.14	584.88
527.355	575.88
527.57	574.88
527.785	585.88
527.999	564.88
528.214	588.88
528.429	564.88
528.644	593.88
528.859	576.88
529.074	588.88
529.289	608.88
529.503	693.88
529.718	647.88
529.933	623.88
530.148	606.88
530.363	571.88
530.577	572.88
530.792	577.88
531.007	578.88
531.221	569.88
531.436	568.88
531.651	552.88
531.865	565.88
532.08	562.88
532.295	547.88
532.509	555.88
532.724	542.88
532.938	554.88
533.153	521.88
533.367	550.88
533.582	543.88
533.796	540.88
534.011	555.88
534.225	539.88
534.44	552.88
534.654	543.88
534.868	537.88
535.083	514.88
535.297	544.88
535.511	562.88
535.726	541.88
535.94	568.88
536.154	557.88
536.369	551.88
536.583	554.88
536.797	514.88
537.011	522.88
537.225	516.88
537.44	514.88
537.654	500.88
537.868	516.88
538.082	510.88
538.296	526.88
538.51	541.88
538.724	536.88
538.938	516.88
539.153	520.88
539.367	532.88
539.581	541.88
539.795	507.88
540.009	513.88
540.222	536.88
540.436	518.88
540.65	530.88
540.864	543.88
541.078	526.88
541.292	544.88
541.506	534.88
541.72	521.88
541.934	533.88
542.147	531.88
542.361	534.88
542.575	509.88
542.789	522.88
543.002	514.88
543.216	521.88
543.43	548.88
543.644	544.88
543.857	503.88
544.071	521.88
544.285	528.88
544.498	517.88
544.712	512.88
544.925	504.88
545.139	509.88
545.352	479.88
545.566	509.88
545.779	516.88
545.993	540.88
546.206	501.88
546.42	525.88
546.633	505.88
546.847	500.88
547.06	497.88
547.274	514.88
547.487	519.88
547.7	474.88
547.914	490.88
548.127	503.88
548.34	497.88
548.554	512.88
548.767	486.88
548.98	498.88
549.193	501.88
549.407	509.88
549.62	501.88
549.833	502.88
550.046	499.88
550.259	486.88
550.473	496.88
550.686	480.88
550.899	487.88
551.112	480.88
551.325	472.88
551.538	483.88
551.751	492.88
551.964	473.88
552.177	490.88
552.39	501.88
552.603	493.88
552.816	498.88
553.029	511.88
553.242	496.88
553.455	488.88
553.667	505.88
553.88	516.88
554.093	533.88
554.306	510.88
554.519	493.88
554.732	491.88
554.944	486.88
555.157	492.88
555.37	460.88
555.583	476.88
555.795	475.88
556.008	468.88
556.221	485.88
556.433	456.88
556.646	449.88
556.859	468.88
557.071	471.88
557.284	474.88
557.496	429.88
557.709	468.88
557.921	442.88
558.134	450.88
558.346	456.88
558.559	422.88
558.771	425.88
558.984	433.88
559.196	422.88
559.409	452.88
559.621	435.88
559.833	430.88
560.046	436.88
560.258	424.88
560.47	448.88
560.683	456.88
560.895	441.88
561.107	428.88
561.32	441.88
561.532	454.88
561.744	442.88
561.956	436.88
562.168	446.88
562.381	455.88
562.593	444.88
562.805	449.88
563.017	466.88
563.229	448.88
563.441	461.88
563.653	437.88
563.865	467.88
564.077	475.88
564.289	450.88
564.501	477.88
564.713	473.88
564.925	463.88
565.137	485.88
565.349	473.88
565.561	504.88
565.773	486.88
565.985	500.88
566.197	502.88
566.408	519.88
566.62	528.88
566.832	544.88
567.044	525.88
567.255	565.88
567.467	549.88
567.679	587.88
567.891	588.88
568.102	584.88
568.314	559.88
568.526	557.88
568.737	537.88
568.949	517.88
569.161	490.88
569.372	481.88
569.584	468.88
569.795	472.88
570.007	449.88
570.218	515.88
570.43	494.88
570.641	450.88
570.853	432.88
571.064	455.88
571.276	450.88
571.487	427.88
571.698	411.88
571.91	417.88
572.121	415.88
572.333	419.88
572.544	403.88
572.755	390.88
572.966	403.88
573.178	388.88
573.389	404.88
573.6	399.88
573.811	402.88
574.023	390.88
574.234	384.88
574.445	394.88
574.656	385.88
574.867	389.88
575.078	389.88
575.289	383.88
575.501	387.88
575.712	379.88
575.923	376.88
576.134	371.88
576.345	377.88
576.556	370.88
576.767	354.88
576.978	392.88
577.188	383.88
577.399	380.88
577.61	363.88
577.821	380.88
578.032	372.88
578.243	393.88
578.454	606.88
578.665	496.88
578.875	387.88
579.086	374.88
579.297	367.88
579.508	370.88
579.718	360.88
579.929	332.88
580.14	373.88
580.35	353.88
580.561	358.88
580.772	343.88
580.982	341.88
581.193	358.88
581.403	344.88
581.614	355.88
581.825	331.88
582.035	363.88
582.246	339.88
582.456	355.88
582.667	346.88
582.877	337.88
583.087	343.88
583.298	332.88
583.508	338.88
583.719	337.88
583.929	365.88
584.139	345.88
584.35	353.88
584.56	329.88
584.77	346.88
584.981	329.88
585.191	344.88
585.401	337.88
585.611	341.88
585.821	346.88
586.032	362.88
586.242	355.88
586.452	324.88
586.662	328.88
586.872	332.88
587.082	341.88
587.292	361.88
587.502	339.88
587.713	324.88
587.923	340.88
588.133	334.88
588.343	350.88
588.553	325.88
588.762	331.88
588.972	332.88
589.182	349.88
589.392	322.88
589.602	340.88
589.812	351.88
590.022	333.88
590.232	321.88
590.441	345.88
590.651	341.88
590.861	320.88
591.071	369.88
591.281	331.88
591.49	347.88
591.7	328.88
591.91	359.88
592.119	335.88
592.329	350.88
592.539	331.88
592.748	362.88
592.958	362.88
593.167	356.88
593.377	370.88
593.587	356.88
593.796	368.88
594.006	360.88
594.215	355.88
594.424	343.88
594.634	345.88
594.843	352.88
595.053	351.88
595.262	352.88
595.472	331.88
595.681	321.88
595.89	339.88
596.1	318.88
596.309	324.88
596.518	329.88
596.727	316.88
596.937	317.88
597.146	326.88
597.355	327.88
597.564	323.88
597.774	310.88
597.983	318.88
598.192	311.88
598.401	284.88
598.61	301.88
598.819	298.88
599.028	285.88
599.237	301.88
599.446	306.88
599.655	286.88
599.864	298.88
600.073	290.88
600.282	303.88
600.491	286.88
600.7	289.88
600.909	290.88
601.118	290.88
601.327	280.88
601.536	282.88
601.745	297.88
601.953	312.88
602.162	305.88
602.371	293.88
602.58	282.88
602.789	289.88
602.997	291.88
603.206	290.88
603.415	292.88
603.623	284.88
603.832	283.88
604.041	283.88
604.249	295.88
604.458	279.88
604.666	283.88
604.875	294.88
605.084	275.88
605.292	285.88
605.501	273.88
605.709	277.88
605.918	283.88
606.126	267.88
606.334	278.88
606.543	271.88
606.751	282.88
606.96	283.88
607.168	286.88
607.376	277.88
607.585	280.88
607.793	281.88
608.001	278.88
608.21	290.88
608.418	280.88
608.626	266.88
608.834	264.88
609.043	265.88
609.251	291.88
609.459	278.88
609.667	272.88
609.875	270.88
610.083	268.88
610.291	264.88
610.499	274.88
610.707	280.88
610.916	252.88
611.124	264.88
611.332	262.88
611.54	280.88
611.748	282.88
611.955	277.88
612.163	270.88
612.371	264.88
612.579	264.88
612.787	261.88
612.995	272.88
613.203	256.88
613.411	267.88
613.618	264.88
613.826	251.88
614.034	245.88
614.242	264.88
614.449	248.88
614.657	252.88
614.865	269.88
615.072	269.88
615.28	249.88
615.488	273.88
615.695	260.88
615.903	260.88
616.111	274.88
616.318	260.88
616.526	255.88
616.733	269.88
616.941	253.88
617.148	273.88
617.356	243.88
617.563	253.88
617.771	268.88
617.978	255.88
618.185	264.88
618.393	259.88
618.6	266.88
618.807	268.88
619.015	263.88
619.222	262.88
619.429	250.88
619.637	271.88
619.844	252.88
620.051	245.88
620.258	246.88
620.466	237.88
620.673	254.88
620.88	250.88
621.087	244.88
621.294	238.88
621.501	243.88
621.708	248.88
621.915	242.88
622.122	239.88
622.329	244.88
622.536	259.88
622.743	247.88
622.95	258.88
623.157	247.88
623.364	255.88
623.571	229.88
623.778	234.88
623.985	252.88
624.192	233.88
624.399	258.88
624.606	249.88
624.812	231.88
625.019	217.88
625.226	226.88
625.433	244.88
625.639	239.88
625.846	234.88
626.053	243.88
626.259	236.88
626.466	223.88
626.673	212.88
626.879	218.88
627.086	218.88
627.293	233.88
627.499	228.88
627.706	229.88
627.912	233.88
628.119	224.88
628.325	221.88
628.532	233.88
628.738	227.88
628.945	235.88
629.151	251.88
629.357	204.88
629.564	208.88
629.77	228.88
629.976	216.88
630.183	229.88
630.389	210.88
630.595	226.88
630.802	222.88
631.008	212.88
631.214	196.88
631.42	218.88
631.627	226.88
631.833	221.88
632.039	209.88
632.245	205.88
632.451	210.88
632.657	224.88
632.863	210.88
633.069	197.88
633.275	206.88
633.481	209.88
633.688	224.88
633.893	219.88
634.099	208.88
634.305	198.88
634.511	203.88
634.717	195.88
634.923	181.88
635.129	204.88
635.335	216.88
635.541	190.88
635.747	203.88
635.952	196.88
636.158	192.88
636.364	210.88
636.57	179.88
636.775	197.88
636.981	218.88
637.187	202.88
637.392	195.88
637.598	199.88
637.804	199.88
638.009	186.88
638.215	207.88
638.421	208.88
638.626	185.88
638.832	195.88
639.037	201.88
639.243	188.88
639.448	191.88
639.654	205.88
639.859	193.88
640.065	189.88
640.27	203.88
640.475	194.88
640.681	189.88
640.886	186.88
641.091	203.88
641.297	197.88
641.502	181.88
641.707	185.88
641.913	194.88
642.118	187.88
642.323	195.88
642.528	165.88
642.733	197.88
642.939	188.88
643.144	173.88
643.349	182.88
643.554	173.88
643.759	186.88
643.964	193.88
644.169	191.88
644.374	171.88
644.579	166.88
644.784	170.88
644.989	177.88
645.194	186.88
645.399	177.88
645.604	183.88
645.809	188.88
646.014	196.88
646.219	185.88
646.423	199.88
646.628	193.88
646.833	190.88
647.038	178.88
647.243	181.88
647.447	189.88
647.652	183.88
647.857	196.88
648.062	189.88
648.266	176.88
648.471	180.88
648.676	167.88
648.88	173.88
649.085	172.88
649.289	174.88
649.494	187.88
649.698	200.88
649.903	188.88
650.107	186.88
650.312	167.88
650.516	170.88
650.721	157.88
650.925	171.88
651.13	165.88
651.334	157.88
651.539	170.88
651.743	149.88
651.947	163.88
652.152	173.88
652.356	163.88
652.56	154.88
652.764	163.88
652.969	172.88
653.173	152.88
653.377	133.88
653.581	148.88
653.785	144.88
653.99	162.88
654.194	140.88
654.398	136.88
654.602	140.88
654.806	148.88
655.01	169.88
655.214	141.88
655.418	131.88
655.622	132.88
655.826	144.88
656.03	134.88
656.234	141.88
656.438	164.88
656.642	142.88
656.846	140.88
657.049	139.88
657.253	119.88
657.457	120.88
657.661	123.88
657.865	140.88
658.068	124.88
658.272	125.88
658.476	104.88
658.68	118.88
658.883	112.88
659.087	101.88
659.291	86.88
659.494	106.88
659.698	100.88
659.901	112.88
660.105	103.88
660.309	91.88
660.512	86.88
660.716	94.88
660.919	92.88
661.123	93.88
661.326	83.88
661.53	90.88
661.733	74.88
661.936	84.88
662.14	80.88
662.343	93.88
662.546	81.88
662.75	81.88
662.953	73.88
663.156	83.88
663.36	91.88
663.563	74.88
663.766	86.88
663.969	71.88
664.173	77.88
664.376	76.88
664.579	81.88
664.782	75.88
664.985	69.88
665.188	81.88
665.391	67.88
665.594	82.88
665.797	77.88
666	79.88
666.203	89.88
666.406	80.88
666.609	80.88
666.812	57.88
667.015	71.88
667.218	76.88
667.421	80.88
667.624	90.88
667.827	84.88
668.03	71.88
668.232	77.88
668.435	81.88
668.638	79.88
668.841	85.88
669.043	77.88
669.246	88.88
669.449	84.88
669.651	102.88
669.854	82.88
670.057	76.88
670.259	83.88
670.462	86.88
670.665	80.88
670.867	90.88
671.07	78.88
671.272	89.88
671.475	96.88
671.677	72.88
671.88	83.88
672.082	84.88
672.284	81.88
672.487	82.88
672.689	85.88
672.892	73.88
