Data from 1966.PennyLincolnUp.Lamp.En5.5.200Scan.071719.P1.Scan2.head_HRD10591_14-17-56-147.txt Node
Date: Thu Jul 18 14:17:56 EDT 2019
User: cochatt
Spectrometer: HR+D1059
Trigger mode: 1
Integration Time (sec): 1.000000E-1
Scans to average: 1
Electric dark correction enabled: true
Nonlinearity correction enabled: false
Boxcar width: 0
XAxis mode: Wavelengths
Number of Pixels in Spectrum: 2048
>>>>>Begin Spectral Data<<<<<
223.165	-12.94
223.4	-12.94
223.635	-12.94
223.869	-14.94
224.104	-18.94
224.338	-14.94
224.573	-15.94
224.808	-25.94
225.042	-8.94
225.277	-3.94
225.511	14.06
225.746	-4.94
225.98	2.06
226.215	17.06
226.449	13.06
226.683	22.06
226.918	30.06
227.152	23.06
227.387	40.06
227.621	42.06
227.856	51.06
228.09	50.06
228.324	46.06
228.559	57.06
228.793	78.06
229.027	104.06
229.262	104.06
229.496	113.06
229.73	123.06
229.964	166.06
230.199	134.06
230.433	126.06
230.667	125.06
230.901	132.06
231.136	104.06
231.37	99.06
231.604	121.06
231.838	120.06
232.072	118.06
232.306	121.06
232.541	121.06
232.775	110.06
233.009	117.06
233.243	113.06
233.477	110.06
233.711	107.06
233.945	123.06
234.179	124.06
234.413	130.06
234.647	103.06
234.881	126.06
235.115	126.06
235.349	130.06
235.583	132.06
235.817	124.06
236.051	129.06
236.285	129.06
236.519	130.06
236.753	120.06
236.987	147.06
237.221	190.06
237.455	233.06
237.689	192.06
237.922	149.06
238.156	130.06
238.39	145.06
238.624	135.06
238.858	143.06
239.091	128.06
239.325	124.06
239.559	126.06
239.793	138.06
240.027	136.06
240.26	146.06
240.494	173.06
240.728	162.06
240.961	152.06
241.195	141.06
241.429	139.06
241.662	121.06
241.896	138.06
242.13	134.06
242.363	133.06
242.597	147.06
242.83	147.06
243.064	147.06
243.298	146.06
243.531	129.06
243.765	146.06
243.998	148.06
244.232	153.06
244.465	147.06
244.699	158.06
244.932	156.06
245.166	151.06
245.399	153.06
245.633	150.06
245.866	157.06
246.099	157.06
246.333	155.06
246.566	146.06
246.8	154.06
247.033	160.06
247.266	169.06
247.5	164.06
247.733	173.06
247.966	159.06
248.2	196.06
248.433	191.06
248.666	170.06
248.899	190.06
249.133	212.06
249.366	191.06
249.599	198.06
249.832	186.06
250.066	182.06
250.299	187.06
250.532	207.06
250.765	211.06
250.998	234.06
251.231	242.06
251.465	211.06
251.698	228.06
251.931	194.06
252.164	204.06
252.397	178.06
252.63	206.06
252.863	216.06
253.096	215.06
253.329	227.06
253.562	231.06
253.795	228.06
254.028	235.06
254.261	214.06
254.494	235.06
254.727	260.06
254.96	282.06
255.193	254.06
255.426	238.06
255.659	251.06
255.892	230.06
256.124	239.06
256.357	266.06
256.59	234.06
256.823	211.06
257.056	216.06
257.289	214.06
257.521	228.06
257.754	215.06
257.987	199.06
258.22	221.06
258.452	225.06
258.685	208.06
258.918	218.06
259.151	226.06
259.383	237.06
259.616	228.06
259.849	227.06
260.081	262.06
260.314	256.06
260.547	267.06
260.779	270.06
261.012	233.06
261.244	234.06
261.477	228.06
261.71	227.06
261.942	233.06
262.175	215.06
262.407	225.06
262.64	222.06
262.872	211.06
263.105	220.06
263.337	221.06
263.57	209.06
263.802	219.06
264.035	211.06
264.267	221.06
264.499	224.06
264.732	231.06
264.964	210.06
265.197	233.06
265.429	214.06
265.661	227.06
265.894	219.06
266.126	234.06
266.358	243.06
266.591	238.06
266.823	255.06
267.055	233.06
267.287	236.06
267.52	235.06
267.752	244.06
267.984	230.06
268.216	225.06
268.448	232.06
268.681	247.06
268.913	253.06
269.145	280.06
269.377	261.06
269.609	274.06
269.841	276.06
270.073	278.06
270.306	282.06
270.538	311.06
270.77	313.06
271.002	312.06
271.234	320.06
271.466	294.06
271.698	314.06
271.93	312.06
272.162	324.06
272.394	310.06
272.626	312.06
272.858	287.06
273.09	285.06
273.322	281.06
273.553	258.06
273.785	250.06
274.017	260.06
274.249	274.06
274.481	270.06
274.713	281.06
274.945	266.06
275.176	268.06
275.408	274.06
275.64	278.06
275.872	269.06
276.104	273.06
276.335	271.06
276.567	271.06
276.799	290.06
277.031	313.06
277.262	328.06
277.494	307.06
277.726	314.06
277.957	315.06
278.189	280.06
278.421	272.06
278.652	273.06
278.884	282.06
279.115	271.06
279.347	288.06
279.579	268.06
279.81	274.06
280.042	266.06
280.273	287.06
280.505	272.06
280.736	270.06
280.968	275.06
281.199	294.06
281.431	275.06
281.662	271.06
281.894	281.06
282.125	270.06
282.356	284.06
282.588	313.06
282.819	321.06
283.051	290.06
283.282	267.06
283.513	284.06
283.745	287.06
283.976	300.06
284.207	282.06
284.439	289.06
284.67	292.06
284.901	287.06
285.132	276.06
285.364	305.06
285.595	294.06
285.826	308.06
286.057	287.06
286.288	304.06
286.52	280.06
286.751	275.06
286.982	294.06
287.213	304.06
287.444	311.06
287.675	308.06
287.906	282.06
288.138	311.06
288.369	320.06
288.6	330.06
288.831	296.06
289.062	317.06
289.293	315.06
289.524	291.06
289.755	307.06
289.986	298.06
290.217	284.06
290.448	290.06
290.679	312.06
290.91	298.06
291.141	290.06
291.371	288.06
291.602	289.06
291.833	296.06
292.064	308.06
292.295	307.06
292.526	296.06
292.757	294.06
292.987	298.06
293.218	314.06
293.449	307.06
293.68	283.06
293.91	296.06
294.141	300.06
294.372	322.06
294.603	307.06
294.833	310.06
295.064	311.06
295.295	318.06
295.525	303.06
295.756	310.06
295.987	316.06
296.217	328.06
296.448	340.06
296.679	324.06
296.909	309.06
297.14	313.06
297.37	301.06
297.601	322.06
297.831	317.06
298.062	312.06
298.292	317.06
298.523	320.06
298.753	316.06
298.984	304.06
299.214	298.06
299.445	338.06
299.675	319.06
299.905	313.06
300.136	312.06
300.366	324.06
300.597	313.06
300.827	328.06
301.057	325.06
301.288	347.06
301.518	342.06
301.748	328.06
301.979	336.06
302.209	328.06
302.439	345.06
302.669	342.06
302.9	344.06
303.13	330.06
303.36	356.06
303.59	365.06
303.82	339.06
304.051	348.06
304.281	346.06
304.511	354.06
304.741	353.06
304.971	347.06
305.201	352.06
305.431	330.06
305.661	333.06
305.891	324.06
306.121	354.06
306.352	365.06
306.582	356.06
306.812	338.06
307.042	360.06
307.272	353.06
307.502	330.06
307.731	339.06
307.961	345.06
308.191	343.06
308.421	349.06
308.651	334.06
308.881	348.06
309.111	350.06
309.341	356.06
309.571	363.06
309.8	382.06
310.03	374.06
310.26	397.06
310.49	377.06
310.72	385.06
310.949	393.06
311.179	404.06
311.409	402.06
311.639	388.06
311.868	379.06
312.098	383.06
312.328	402.06
312.557	411.06
312.787	400.06
313.017	412.06
313.246	404.06
313.476	380.06
313.706	382.06
313.935	399.06
314.165	402.06
314.394	396.06
314.624	414.06
314.853	397.06
315.083	387.06
315.312	386.06
315.542	385.06
315.771	380.06
316.001	378.06
316.23	374.06
316.46	386.06
316.689	391.06
316.919	374.06
317.148	407.06
317.377	410.06
317.607	404.06
317.836	406.06
318.065	385.06
318.295	382.06
318.524	384.06
318.753	410.06
318.983	394.06
319.212	405.06
319.441	380.06
319.67	414.06
319.9	397.06
320.129	382.06
320.358	399.06
320.587	408.06
320.816	414.06
321.046	407.06
321.275	408.06
321.504	408.06
321.733	417.06
321.962	420.06
322.191	427.06
322.42	435.06
322.649	443.06
322.878	461.06
323.108	460.06
323.337	465.06
323.566	476.06
323.795	491.06
324.024	571.06
324.253	675.06
324.482	952.06
324.71	1489.06
324.939	2247.06
325.168	1891.06
325.397	945.06
325.626	634.06
325.855	544.06
326.084	514.06
326.313	503.06
326.542	506.06
326.77	558.06
326.999	625.06
327.228	861.06
327.457	1327.06
327.686	1666.06
327.914	1090.06
328.143	705.06
328.372	645.06
328.6	594.06
328.829	564.06
329.058	577.06
329.287	602.06
329.515	544.06
329.744	530.06
329.972	524.06
330.201	511.06
330.43	579.06
330.658	590.06
330.887	606.06
331.115	603.06
331.344	517.06
331.572	533.06
331.801	516.06
332.03	504.06
332.258	467.06
332.486	470.06
332.715	459.06
332.943	468.06
333.172	479.06
333.4	479.06
333.629	482.06
333.857	492.06
334.085	519.06
334.314	510.06
334.542	559.06
334.771	546.06
334.999	536.06
335.227	517.06
335.455	500.06
335.684	492.06
335.912	471.06
336.14	445.06
336.369	472.06
336.597	476.06
336.825	468.06
337.053	482.06
337.281	463.06
337.51	447.06
337.738	465.06
337.966	450.06
338.194	469.06
338.422	458.06
338.65	451.06
338.878	445.06
339.106	474.06
339.334	431.06
339.562	450.06
339.79	442.06
340.018	446.06
340.246	458.06
340.474	434.06
340.702	462.06
340.93	452.06
341.158	451.06
341.386	460.06
341.614	457.06
341.842	441.06
342.07	439.06
342.298	431.06
342.526	458.06
342.754	421.06
342.981	448.06
343.209	442.06
343.437	434.06
343.665	448.06
343.893	472.06
344.12	457.06
344.348	492.06
344.576	474.06
344.804	478.06
345.031	459.06
345.259	482.06
345.487	480.06
345.714	449.06
345.942	444.06
346.17	430.06
346.397	461.06
346.625	446.06
346.853	436.06
347.08	467.06
347.308	446.06
347.535	434.06
347.763	462.06
347.99	459.06
348.218	456.06
348.445	448.06
348.673	451.06
348.9	452.06
349.128	428.06
349.355	423.06
349.583	429.06
349.81	414.06
350.037	440.06
350.265	438.06
350.492	426.06
350.72	432.06
350.947	445.06
351.174	454.06
351.402	455.06
351.629	440.06
351.856	464.06
352.083	446.06
352.311	454.06
352.538	444.06
352.765	432.06
352.992	470.06
353.22	435.06
353.447	454.06
353.674	428.06
353.901	413.06
354.128	426.06
354.355	424.06
354.583	400.06
354.81	419.06
355.037	403.06
355.264	415.06
355.491	422.06
355.718	424.06
355.945	432.06
356.172	428.06
356.399	405.06
356.626	392.06
356.853	424.06
357.08	416.06
357.307	422.06
357.534	395.06
357.761	419.06
357.988	448.06
358.215	418.06
358.441	429.06
358.668	416.06
358.895	431.06
359.122	436.06
359.349	394.06
359.576	444.06
359.802	463.06
360.029	489.06
360.256	492.06
360.483	491.06
360.709	469.06
360.936	451.06
361.163	449.06
361.39	448.06
361.616	457.06
361.843	440.06
362.07	462.06
362.296	434.06
362.523	457.06
362.749	435.06
362.976	420.06
363.203	436.06
363.429	412.06
363.656	452.06
363.882	434.06
364.109	430.06
364.335	424.06
364.562	441.06
364.788	428.06
365.015	418.06
365.241	436.06
365.468	446.06
365.694	431.06
365.92	437.06
366.147	438.06
366.373	418.06
366.599	413.06
366.826	432.06
367.052	419.06
367.278	418.06
367.505	426.06
367.731	444.06
367.957	444.06
368.184	435.06
368.41	442.06
368.636	440.06
368.862	463.06
369.089	456.06
369.315	432.06
369.541	451.06
369.767	445.06
369.993	432.06
370.219	433.06
370.445	425.06
370.672	419.06
370.898	443.06
371.124	453.06
371.35	437.06
371.576	443.06
371.802	453.06
372.028	414.06
372.254	443.06
372.48	444.06
372.706	454.06
372.932	438.06
373.158	455.06
373.384	430.06
373.61	454.06
373.835	458.06
374.061	449.06
374.287	455.06
374.513	430.06
374.739	457.06
374.965	473.06
375.191	460.06
375.416	450.06
375.642	464.06
375.868	439.06
376.094	449.06
376.319	444.06
376.545	431.06
376.771	438.06
376.997	467.06
377.222	433.06
377.448	426.06
377.674	471.06
377.899	440.06
378.125	444.06
378.35	424.06
378.576	446.06
378.802	432.06
379.027	444.06
379.253	404.06
379.478	433.06
379.704	440.06
379.929	437.06
380.155	440.06
380.38	432.06
380.606	435.06
380.831	440.06
381.057	435.06
381.282	445.06
381.507	457.06
381.733	452.06
381.958	451.06
382.184	448.06
382.409	460.06
382.634	458.06
382.86	458.06
383.085	466.06
383.31	455.06
383.535	474.06
383.761	475.06
383.986	469.06
384.211	479.06
384.436	460.06
384.662	478.06
384.887	465.06
385.112	480.06
385.337	491.06
385.562	486.06
385.787	466.06
386.013	495.06
386.238	495.06
386.463	509.06
386.688	492.06
386.913	481.06
387.138	494.06
387.363	488.06
387.588	506.06
387.813	482.06
388.038	491.06
388.263	484.06
388.488	480.06
388.713	477.06
388.938	495.06
389.163	496.06
389.387	509.06
389.612	490.06
389.837	491.06
390.062	468.06
390.287	479.06
390.512	472.06
390.736	475.06
390.961	492.06
391.186	504.06
391.411	501.06
391.636	505.06
391.86	510.06
392.085	508.06
392.31	499.06
392.534	493.06
392.759	493.06
392.984	507.06
393.208	500.06
393.433	525.06
393.658	522.06
393.882	496.06
394.107	518.06
394.331	515.06
394.556	488.06
394.78	520.06
395.005	518.06
395.229	505.06
395.454	509.06
395.678	522.06
395.903	529.06
396.127	562.06
396.352	542.06
396.576	530.06
396.801	523.06
397.025	523.06
397.249	543.06
397.474	533.06
397.698	548.06
397.922	553.06
398.147	577.06
398.371	560.06
398.595	548.06
398.82	555.06
399.044	579.06
399.268	580.06
399.492	619.06
399.717	658.06
399.941	683.06
400.165	720.06
400.389	714.06
400.613	649.06
400.837	594.06
401.062	600.06
401.286	580.06
401.51	599.06
401.734	590.06
401.958	581.06
402.182	570.06
402.406	598.06
402.63	594.06
402.854	586.06
403.078	558.06
403.302	587.06
403.526	596.06
403.75	591.06
403.974	596.06
404.198	602.06
404.422	586.06
404.645	606.06
404.869	613.06
405.093	657.06
405.317	720.06
405.541	721.06
405.765	638.06
405.988	641.06
406.212	635.06
406.436	653.06
406.66	661.06
406.883	635.06
407.107	649.06
407.331	706.06
407.555	787.06
407.778	751.06
408.002	696.06
408.226	648.06
408.449	656.06
408.673	635.06
408.896	675.06
409.12	732.06
409.344	694.06
409.567	621.06
409.791	612.06
410.014	594.06
410.238	590.06
410.461	608.06
410.685	594.06
410.908	638.06
411.132	646.06
411.355	676.06
411.578	661.06
411.802	603.06
412.025	578.06
412.249	607.06
412.472	632.06
412.695	671.06
412.919	667.06
413.142	611.06
413.365	598.06
413.589	576.06
413.812	571.06
414.035	558.06
414.258	590.06
414.482	558.06
414.705	562.06
414.928	575.06
415.151	549.06
415.374	579.06
415.597	573.06
415.821	546.06
416.044	552.06
416.267	538.06
416.49	573.06
416.713	544.06
416.936	576.06
417.159	571.06
417.382	570.06
417.605	563.06
417.828	564.06
418.051	591.06
418.274	588.06
418.497	571.06
418.72	567.06
418.943	555.06
419.166	580.06
419.389	609.06
419.611	583.06
419.834	608.06
420.057	593.06
420.28	580.06
420.503	579.06
420.726	592.06
420.948	608.06
421.171	652.06
421.394	689.06
421.617	642.06
421.839	602.06
422.062	607.06
422.285	604.06
422.507	676.06
422.73	761.06
422.953	752.06
423.175	641.06
423.398	618.06
423.621	616.06
423.843	631.06
424.066	626.06
424.288	626.06
424.511	644.06
424.733	728.06
424.956	788.06
425.178	744.06
425.401	755.06
425.623	766.06
425.846	664.06
426.068	644.06
426.291	630.06
426.513	603.06
426.735	654.06
426.958	690.06
427.18	746.06
427.402	908.06
427.625	999.06
427.847	895.06
428.069	758.06
428.292	687.06
428.514	619.06
428.736	610.06
428.958	613.06
429.181	587.06
429.403	562.06
429.625	617.06
429.847	642.06
430.069	698.06
430.292	690.06
430.514	608.06
430.736	583.06
430.958	562.06
431.18	564.06
431.402	562.06
431.624	558.06
431.846	544.06
432.068	544.06
432.29	530.06
432.512	572.06
432.734	574.06
432.956	558.06
433.178	566.06
433.4	579.06
433.622	550.06
433.844	574.06
434.066	553.06
434.287	568.06
434.509	554.06
434.731	558.06
434.953	583.06
435.175	594.06
435.397	620.06
435.618	632.06
435.84	672.06
436.062	775.06
436.284	870.06
436.505	713.06
436.727	659.06
436.949	609.06
437.17	582.06
437.392	592.06
437.614	584.06
437.835	647.06
438.057	713.06
438.278	807.06
438.5	844.06
438.721	940.06
438.943	883.06
439.165	726.06
439.386	648.06
439.608	641.06
439.829	660.06
440.05	666.06
440.272	730.06
440.493	687.06
440.715	610.06
440.936	600.06
441.158	615.06
441.379	574.06
441.6	586.06
441.822	648.06
442.043	675.06
442.264	776.06
442.486	822.06
442.707	695.06
442.928	670.06
443.149	632.06
443.371	676.06
443.592	723.06
443.813	831.06
444.034	893.06
444.255	737.06
444.476	682.06
444.698	646.06
444.919	667.06
445.14	768.06
445.361	696.06
445.582	701.06
445.803	758.06
446.024	873.06
446.245	884.06
446.466	773.06
446.687	664.06
446.908	631.06
447.129	606.06
447.35	600.06
447.571	585.06
447.792	552.06
448.013	589.06
448.234	588.06
448.455	642.06
448.675	794.06
448.896	906.06
449.117	748.06
449.338	703.06
449.559	833.06
449.779	939.06
450	762.06
450.221	644.06
450.442	576.06
450.662	584.06
450.883	568.06
451.104	576.06
451.324	572.06
451.545	550.06
451.766	539.06
451.986	529.06
452.207	520.06
452.428	516.06
452.648	533.06
452.869	510.06
453.089	497.06
453.31	537.06
453.53	528.06
453.751	533.06
453.971	521.06
454.192	542.06
454.412	506.06
454.633	520.06
454.853	513.06
455.073	494.06
455.294	550.06
455.514	623.06
455.734	622.06
455.955	532.06
456.175	511.06
456.395	516.06
456.616	482.06
456.836	512.06
457.056	485.06
457.276	482.06
457.497	505.06
457.717	486.06
457.937	509.06
458.157	490.06
458.377	507.06
458.598	522.06
458.818	596.06
459.038	677.06
459.258	712.06
459.478	627.06
459.698	578.06
459.918	560.06
460.138	545.06
460.358	542.06
460.578	560.06
460.798	574.06
461.018	583.06
461.238	588.06
461.458	553.06
461.678	566.06
461.898	586.06
462.118	584.06
462.338	579.06
462.558	586.06
462.777	604.06
462.997	618.06
463.217	644.06
463.437	630.06
463.657	618.06
463.876	596.06
464.096	644.06
464.316	592.06
464.536	611.06
464.755	617.06
464.975	592.06
465.195	639.06
465.414	723.06
465.634	628.06
465.854	590.06
466.073	572.06
466.293	550.06
466.512	532.06
466.732	537.06
466.951	555.06
467.171	566.06
467.391	536.06
467.61	558.06
467.829	553.06
468.049	566.06
468.268	552.06
468.488	536.06
468.707	524.06
468.927	512.06
469.146	540.06
469.365	523.06
469.585	529.06
469.804	524.06
470.023	534.06
470.243	536.06
470.462	546.06
470.681	559.06
470.901	571.06
471.12	550.06
471.339	515.06
471.558	582.06
471.777	563.06
471.997	519.06
472.216	548.06
472.435	572.06
472.654	584.06
472.873	554.06
473.092	554.06
473.311	569.06
473.53	551.06
473.749	546.06
473.968	622.06
474.187	690.06
474.406	722.06
474.625	623.06
474.844	562.06
475.063	552.06
475.282	553.06
475.501	554.06
475.72	579.06
475.939	571.06
476.158	567.06
476.377	568.06
476.596	574.06
476.814	572.06
477.033	584.06
477.252	572.06
477.471	578.06
477.69	596.06
477.908	609.06
478.127	619.06
478.346	639.06
478.564	612.06
478.783	615.06
479.002	609.06
479.22	634.06
479.439	644.06
479.658	654.06
479.876	638.06
480.095	665.06
480.313	704.06
480.532	714.06
480.751	680.06
480.969	689.06
481.188	735.06
481.406	774.06
481.624	702.06
481.843	687.06
482.061	657.06
482.28	639.06
482.498	629.06
482.717	656.06
482.935	642.06
483.153	635.06
483.372	652.06
483.59	631.06
483.808	639.06
484.027	641.06
484.245	670.06
484.463	654.06
484.681	682.06
484.9	635.06
485.118	657.06
485.336	649.06
485.554	686.06
485.772	684.06
485.99	680.06
486.209	674.06
486.427	654.06
486.645	665.06
486.863	705.06
487.081	712.06
487.299	681.06
487.517	710.06
487.735	682.06
487.953	702.06
488.171	698.06
488.389	682.06
488.607	711.06
488.825	694.06
489.043	707.06
489.261	690.06
489.479	677.06
489.696	693.06
489.914	677.06
490.132	704.06
490.35	700.06
490.568	716.06
490.786	724.06
491.003	738.06
491.221	796.06
491.439	766.06
491.657	766.06
491.874	795.06
492.092	780.06
492.31	790.06
492.527	806.06
492.745	825.06
492.963	794.06
493.18	793.06
493.398	778.06
493.615	794.06
493.833	811.06
494.05	848.06
494.268	808.06
494.485	780.06
494.703	798.06
494.92	794.06
495.138	808.06
495.355	817.06
495.573	816.06
495.79	818.06
496.008	788.06
496.225	833.06
496.442	822.06
496.66	817.06
496.877	824.06
497.094	830.06
497.312	824.06
497.529	853.06
497.746	875.06
497.963	849.06
498.181	890.06
498.398	892.06
498.615	914.06
498.832	919.06
499.049	967.06
499.267	980.06
499.484	1014.06
499.701	1068.06
499.918	1063.06
500.135	1118.06
500.352	1167.06
500.569	1215.06
500.786	1200.06
501.003	1210.06
501.22	1160.06
501.437	1149.06
501.654	1079.06
501.871	1028.06
502.088	1040.06
502.305	975.06
502.522	947.06
502.739	945.06
502.956	897.06
503.172	890.06
503.389	866.06
503.606	865.06
503.823	859.06
504.04	836.06
504.256	822.06
504.473	844.06
504.69	837.06
504.907	816.06
505.123	828.06
505.34	792.06
505.557	796.06
505.773	793.06
505.99	794.06
506.207	806.06
506.423	796.06
506.64	751.06
506.856	772.06
507.073	758.06
507.289	743.06
507.506	755.06
507.722	762.06
507.939	776.06
508.155	750.06
508.372	738.06
508.588	731.06
508.805	722.06
509.021	739.06
509.238	754.06
509.454	739.06
509.67	731.06
509.887	730.06
510.103	707.06
510.319	726.06
510.536	808.06
510.752	1259.06
510.968	1098.06
511.184	748.06
511.401	700.06
511.617	708.06
511.833	670.06
512.049	694.06
512.265	681.06
512.481	688.06
512.698	658.06
512.914	666.06
513.13	704.06
513.346	708.06
513.562	686.06
513.778	689.06
513.994	684.06
514.21	697.06
514.426	702.06
514.642	780.06
514.858	788.06
515.074	839.06
515.29	936.06
515.506	1324.06
515.721	1097.06
515.937	808.06
516.153	743.06
516.369	723.06
516.585	740.06
516.801	724.06
517.016	721.06
517.232	739.06
517.448	708.06
517.664	717.06
517.879	741.06
518.095	733.06
518.311	724.06
518.527	699.06
518.742	730.06
518.958	690.06
519.173	694.06
519.389	682.06
519.605	698.06
519.82	697.06
520.036	718.06
520.251	705.06
520.467	723.06
520.682	753.06
520.898	735.06
521.113	739.06
521.329	801.06
521.544	869.06
521.76	1101.06
521.975	1684.06
522.19	1690.06
522.406	983.06
522.621	770.06
522.836	712.06
523.052	672.06
523.267	670.06
523.482	660.06
523.698	640.06
523.913	644.06
524.128	641.06
524.343	623.06
524.559	623.06
524.774	609.06
524.989	595.06
525.204	609.06
525.419	601.06
525.634	611.06
525.849	608.06
526.064	595.06
526.28	606.06
526.495	572.06
526.71	606.06
526.925	562.06
527.14	571.06
527.355	557.06
527.57	567.06
527.785	590.06
527.999	563.06
528.214	575.06
528.429	559.06
528.644	566.06
528.859	570.06
529.074	571.06
529.289	602.06
529.503	682.06
529.718	667.06
529.933	612.06
530.148	586.06
530.363	579.06
530.577	557.06
530.792	571.06
531.007	568.06
531.221	583.06
531.436	566.06
531.651	559.06
531.865	549.06
532.08	556.06
532.295	551.06
532.509	555.06
532.724	552.06
532.938	578.06
533.153	555.06
533.367	542.06
533.582	544.06
533.796	543.06
534.011	552.06
534.225	556.06
534.44	559.06
534.654	540.06
534.868	522.06
535.083	546.06
535.297	566.06
535.511	546.06
535.726	559.06
535.94	544.06
536.154	552.06
536.369	534.06
536.583	534.06
536.797	537.06
537.011	538.06
537.225	525.06
537.44	510.06
537.654	536.06
537.868	544.06
538.082	533.06
538.296	537.06
538.51	524.06
538.724	542.06
538.938	528.06
539.153	535.06
539.367	537.06
539.581	568.06
539.795	523.06
540.009	523.06
540.222	524.06
540.436	540.06
540.65	517.06
540.864	516.06
541.078	520.06
541.292	538.06
541.506	522.06
541.72	528.06
541.934	516.06
542.147	514.06
542.361	517.06
542.575	511.06
542.789	523.06
543.002	514.06
543.216	523.06
543.43	533.06
543.644	515.06
543.857	499.06
544.071	508.06
544.285	528.06
544.498	524.06
544.712	516.06
544.925	518.06
545.139	531.06
545.352	522.06
545.566	532.06
545.779	490.06
545.993	496.06
546.206	521.06
546.42	520.06
546.633	514.06
546.847	508.06
547.06	522.06
547.274	527.06
547.487	507.06
547.7	513.06
547.914	493.06
548.127	525.06
548.34	510.06
548.554	500.06
548.767	489.06
548.98	503.06
549.193	512.06
549.407	508.06
549.62	503.06
549.833	496.06
550.046	508.06
550.259	478.06
550.473	518.06
550.686	507.06
550.899	518.06
551.112	531.06
551.325	507.06
551.538	521.06
551.751	492.06
551.964	493.06
552.177	526.06
552.39	491.06
552.603	488.06
552.816	521.06
553.029	528.06
553.242	520.06
553.455	497.06
553.667	516.06
553.88	527.06
554.093	536.06
554.306	518.06
554.519	523.06
554.732	500.06
554.944	516.06
555.157	489.06
555.37	487.06
555.583	483.06
555.795	506.06
556.008	462.06
556.221	460.06
556.433	476.06
556.646	466.06
556.859	487.06
557.071	472.06
557.284	465.06
557.496	462.06
557.709	478.06
557.921	451.06
558.134	452.06
558.346	454.06
558.559	474.06
558.771	445.06
558.984	454.06
559.196	465.06
559.409	447.06
559.621	453.06
559.833	439.06
560.046	447.06
560.258	449.06
560.47	451.06
560.683	445.06
560.895	449.06
561.107	466.06
561.32	442.06
561.532	431.06
561.744	445.06
561.956	451.06
562.168	464.06
562.381	435.06
562.593	444.06
562.805	462.06
563.017	464.06
563.229	468.06
563.441	456.06
563.653	444.06
563.865	444.06
564.077	448.06
564.289	477.06
564.501	440.06
564.713	466.06
564.925	480.06
565.137	488.06
565.349	485.06
565.561	490.06
565.773	494.06
565.985	500.06
566.197	539.06
566.408	529.06
566.62	524.06
566.832	561.06
567.044	540.06
567.255	532.06
567.467	565.06
567.679	576.06
567.891	622.06
568.102	600.06
568.314	576.06
568.526	579.06
568.737	570.06
568.949	509.06
569.161	504.06
569.372	491.06
569.584	475.06
569.795	468.06
570.007	467.06
570.218	525.06
570.43	499.06
570.641	450.06
570.853	428.06
571.064	440.06
571.276	454.06
571.487	445.06
571.698	438.06
571.91	431.06
572.121	442.06
572.333	425.06
572.544	418.06
572.755	411.06
572.966	431.06
573.178	396.06
573.389	408.06
573.6	405.06
573.811	393.06
574.023	417.06
574.234	383.06
574.445	393.06
574.656	387.06
574.867	379.06
575.078	379.06
575.289	403.06
575.501	405.06
575.712	382.06
575.923	394.06
576.134	401.06
576.345	363.06
576.556	367.06
576.767	383.06
576.978	392.06
577.188	376.06
577.399	374.06
577.61	362.06
577.821	376.06
578.032	384.06
578.243	397.06
578.454	602.06
578.665	463.06
578.875	365.06
579.086	349.06
579.297	372.06
579.508	355.06
579.718	382.06
579.929	351.06
580.14	360.06
580.35	364.06
580.561	365.06
580.772	364.06
580.982	352.06
581.193	341.06
581.403	354.06
581.614	351.06
581.825	350.06
582.035	332.06
582.246	335.06
582.456	354.06
582.667	358.06
582.877	354.06
583.087	355.06
583.298	345.06
583.508	352.06
583.719	340.06
583.929	355.06
584.139	341.06
584.35	342.06
584.56	352.06
584.77	347.06
584.981	356.06
585.191	351.06
585.401	365.06
585.611	351.06
585.821	339.06
586.032	355.06
586.242	346.06
586.452	340.06
586.662	340.06
586.872	338.06
587.082	330.06
587.292	352.06
587.502	338.06
587.713	339.06
587.923	336.06
588.133	331.06
588.343	328.06
588.553	352.06
588.762	351.06
588.972	349.06
589.182	333.06
589.392	356.06
589.602	351.06
589.812	343.06
590.022	341.06
590.232	348.06
590.441	351.06
590.651	332.06
590.861	336.06
591.071	349.06
591.281	352.06
591.49	366.06
591.7	343.06
591.91	342.06
592.119	339.06
592.329	355.06
592.539	365.06
592.748	366.06
592.958	374.06
593.167	363.06
593.377	371.06
593.587	358.06
593.796	376.06
594.006	378.06
594.215	375.06
594.424	362.06
594.634	346.06
594.843	361.06
595.053	350.06
595.262	342.06
595.472	346.06
595.681	334.06
595.89	340.06
596.1	351.06
596.309	335.06
596.518	343.06
596.727	331.06
596.937	322.06
597.146	316.06
597.355	339.06
597.564	312.06
597.774	312.06
597.983	314.06
598.192	327.06
598.401	320.06
598.61	305.06
598.819	317.06
599.028	314.06
599.237	301.06
599.446	299.06
599.655	306.06
599.864	310.06
600.073	295.06
600.282	298.06
600.491	292.06
600.7	295.06
600.909	303.06
601.118	298.06
601.327	283.06
601.536	280.06
601.745	312.06
601.953	297.06
602.162	291.06
602.371	296.06
602.58	280.06
602.789	272.06
602.997	299.06
603.206	290.06
603.415	294.06
603.623	265.06
603.832	278.06
604.041	285.06
604.249	287.06
604.458	293.06
604.666	289.06
604.875	291.06
605.084	280.06
605.292	305.06
605.501	277.06
605.709	266.06
605.918	284.06
606.126	280.06
606.334	282.06
606.543	275.06
606.751	272.06
606.96	282.06
607.168	276.06
607.376	274.06
607.585	258.06
607.793	276.06
608.001	269.06
608.21	280.06
608.418	286.06
608.626	265.06
608.834	286.06
609.043	293.06
609.251	275.06
609.459	272.06
609.667	280.06
609.875	285.06
610.083	263.06
610.291	280.06
610.499	282.06
610.707	283.06
610.916	281.06
611.124	297.06
611.332	292.06
611.54	297.06
611.748	274.06
611.955	280.06
612.163	282.06
612.371	295.06
612.579	286.06
612.787	282.06
612.995	272.06
613.203	278.06
613.411	280.06
613.618	265.06
613.826	261.06
614.034	285.06
614.242	273.06
614.449	260.06
614.657	275.06
614.865	271.06
615.072	286.06
615.28	262.06
615.488	262.06
615.695	269.06
615.903	253.06
616.111	271.06
616.318	288.06
616.526	270.06
616.733	280.06
616.941	271.06
617.148	251.06
617.356	266.06
617.563	274.06
617.771	281.06
617.978	266.06
618.185	250.06
618.393	251.06
618.6	250.06
618.807	278.06
619.015	278.06
619.222	256.06
619.429	246.06
619.637	251.06
619.844	271.06
620.051	260.06
620.258	253.06
620.466	250.06
620.673	243.06
620.88	250.06
621.087	234.06
621.294	239.06
621.501	243.06
621.708	248.06
621.915	249.06
622.122	248.06
622.329	268.06
622.536	268.06
622.743	248.06
622.95	255.06
623.157	258.06
623.364	253.06
623.571	240.06
623.778	246.06
623.985	241.06
624.192	240.06
624.399	231.06
624.606	264.06
624.812	235.06
625.019	228.06
625.226	243.06
625.433	256.06
625.639	241.06
625.846	231.06
626.053	237.06
626.259	237.06
626.466	230.06
626.673	234.06
626.879	210.06
627.086	240.06
627.293	239.06
627.499	225.06
627.706	251.06
627.912	226.06
628.119	218.06
628.325	238.06
628.532	226.06
628.738	208.06
628.945	223.06
629.151	235.06
629.357	230.06
629.564	214.06
629.77	237.06
629.976	233.06
630.183	227.06
630.389	214.06
630.595	228.06
630.802	226.06
631.008	217.06
631.214	222.06
631.42	211.06
631.627	204.06
631.833	202.06
632.039	206.06
632.245	203.06
632.451	226.06
632.657	207.06
632.863	217.06
633.069	219.06
633.275	203.06
633.481	204.06
633.688	210.06
633.893	213.06
634.099	205.06
634.305	215.06
634.511	212.06
634.717	222.06
634.923	191.06
635.129	216.06
635.335	213.06
635.541	198.06
635.747	221.06
635.952	209.06
636.158	217.06
636.364	231.06
636.57	209.06
636.775	226.06
636.981	203.06
637.187	218.06
637.392	208.06
637.598	210.06
637.804	200.06
638.009	198.06
638.215	212.06
638.421	206.06
638.626	195.06
638.832	218.06
639.037	192.06
639.243	218.06
639.448	196.06
639.654	195.06
639.859	199.06
640.065	191.06
640.27	174.06
640.475	196.06
640.681	188.06
640.886	202.06
641.091	200.06
641.297	199.06
641.502	196.06
641.707	194.06
641.913	186.06
642.118	187.06
642.323	186.06
642.528	197.06
642.733	189.06
642.939	185.06
643.144	178.06
643.349	177.06
643.554	189.06
643.759	177.06
643.964	174.06
644.169	178.06
644.374	204.06
644.579	204.06
644.784	177.06
644.989	180.06
645.194	186.06
645.399	164.06
645.604	171.06
645.809	186.06
646.014	193.06
646.219	178.06
646.423	178.06
646.628	189.06
646.833	188.06
647.038	189.06
647.243	184.06
647.447	188.06
647.652	199.06
647.857	177.06
648.062	186.06
648.266	188.06
648.471	168.06
648.676	205.06
648.88	186.06
649.085	177.06
649.289	179.06
649.494	184.06
649.698	196.06
649.903	210.06
650.107	191.06
650.312	185.06
650.516	172.06
650.721	175.06
650.925	170.06
651.13	174.06
651.334	173.06
651.539	172.06
651.743	183.06
651.947	177.06
652.152	166.06
652.356	160.06
652.56	158.06
652.764	148.06
652.969	146.06
653.173	155.06
653.377	147.06
653.581	163.06
653.785	142.06
653.99	146.06
654.194	159.06
654.398	158.06
654.602	154.06
654.806	144.06
655.01	159.06
655.214	141.06
655.418	145.06
655.622	147.06
655.826	153.06
656.03	148.06
656.234	148.06
656.438	139.06
656.642	146.06
656.846	144.06
657.049	139.06
657.253	138.06
657.457	138.06
657.661	135.06
657.865	116.06
658.068	128.06
658.272	126.06
658.476	108.06
658.68	116.06
658.883	111.06
659.087	107.06
659.291	108.06
659.494	114.06
659.698	113.06
659.901	109.06
660.105	107.06
660.309	95.06
660.512	106.06
660.716	85.06
660.919	103.06
661.123	108.06
661.326	88.06
661.53	93.06
661.733	83.06
661.936	105.06
662.14	96.06
662.343	98.06
662.546	89.06
662.75	94.06
662.953	87.06
663.156	80.06
663.36	86.06
663.563	83.06
663.766	89.06
663.969	90.06
664.173	78.06
664.376	82.06
664.579	97.06
664.782	102.06
664.985	81.06
665.188	90.06
665.391	80.06
665.594	80.06
665.797	94.06
666	89.06
666.203	89.06
666.406	91.06
666.609	83.06
666.812	81.06
667.015	83.06
667.218	88.06
667.421	98.06
667.624	95.06
667.827	85.06
668.03	85.06
668.232	89.06
668.435	72.06
668.638	89.06
668.841	88.06
669.043	97.06
669.246	95.06
669.449	83.06
669.651	94.06
669.854	81.06
670.057	86.06
670.259	86.06
670.462	90.06
670.665	87.06
670.867	86.06
671.07	89.06
671.272	82.06
671.475	88.06
671.677	81.06
671.88	67.06
672.082	89.06
672.284	96.06
672.487	93.06
672.689	100.06
672.892	85.06
