Data from 1966.PennyLincolnUp.Lamp.En5.5.200Scan.071719.P1._HRD10591_14-13-44-914.txt Node
Date: Thu Jul 18 14:13:44 EDT 2019
User: cochatt
Spectrometer: HR+D1059
Trigger mode: 1
Integration Time (sec): 1.000000E-1
Scans to average: 1
Electric dark correction enabled: true
Nonlinearity correction enabled: false
Boxcar width: 0
XAxis mode: Wavelengths
Number of Pixels in Spectrum: 2048
>>>>>Begin Spectral Data<<<<<
223.165	-15.12
223.4	-15.12
223.635	-15.12
223.869	-11.12
224.104	-11.12
224.338	-24.12
224.573	-14.12
224.808	-12.12
225.042	-6.12
225.277	-3.12
225.511	-15.12
225.746	-11.12
225.98	11.88
226.215	19.88
226.449	9.88
226.683	8.88
226.918	36.88
227.152	35.88
227.387	27.88
227.621	24.88
227.856	67.88
228.09	53.88
228.324	62.88
228.559	89.88
228.793	77.88
229.027	77.88
229.262	95.88
229.496	90.88
229.73	112.88
229.964	105.88
230.199	92.88
230.433	90.88
230.667	103.88
230.901	96.88
231.136	103.88
231.37	87.88
231.604	94.88
231.838	101.88
232.072	94.88
232.306	104.88
232.541	98.88
232.775	75.88
233.009	101.88
233.243	89.88
233.477	109.88
233.711	103.88
233.945	101.88
234.179	99.88
234.413	88.88
234.647	94.88
234.881	107.88
235.115	99.88
235.349	93.88
235.583	108.88
235.817	104.88
236.051	97.88
236.285	106.88
236.519	102.88
236.753	92.88
236.987	110.88
237.221	118.88
237.455	154.88
237.689	126.88
237.922	120.88
238.156	93.88
238.39	110.88
238.624	103.88
238.858	103.88
239.091	96.88
239.325	96.88
239.559	96.88
239.793	95.88
240.027	97.88
240.26	101.88
240.494	117.88
240.728	126.88
240.961	118.88
241.195	96.88
241.429	100.88
241.662	82.88
241.896	122.88
242.13	113.88
242.363	108.88
242.597	96.88
242.83	107.88
243.064	89.88
243.298	105.88
243.531	104.88
243.765	104.88
243.998	100.88
244.232	108.88
244.465	106.88
244.699	110.88
244.932	107.88
245.166	112.88
245.399	95.88
245.633	125.88
245.866	132.88
246.099	99.88
246.333	113.88
246.566	106.88
246.8	113.88
247.033	106.88
247.266	122.88
247.5	118.88
247.733	110.88
247.966	121.88
248.2	115.88
248.433	90.88
248.666	113.88
248.899	107.88
249.133	132.88
249.366	136.88
249.599	125.88
249.832	122.88
250.066	114.88
250.299	130.88
250.532	141.88
250.765	140.88
250.998	139.88
251.231	133.88
251.465	131.88
251.698	133.88
251.931	114.88
252.164	111.88
252.397	129.88
252.63	123.88
252.863	131.88
253.096	131.88
253.329	148.88
253.562	140.88
253.795	136.88
254.028	144.88
254.261	146.88
254.494	136.88
254.727	138.88
254.96	175.88
255.193	158.88
255.426	150.88
255.659	143.88
255.892	145.88
256.124	138.88
256.357	153.88
256.59	163.88
256.823	133.88
257.056	137.88
257.289	129.88
257.521	116.88
257.754	136.88
257.987	128.88
258.22	134.88
258.452	136.88
258.685	132.88
258.918	146.88
259.151	127.88
259.383	144.88
259.616	145.88
259.849	138.88
260.081	146.88
260.314	162.88
260.547	165.88
260.779	152.88
261.012	145.88
261.244	147.88
261.477	140.88
261.71	141.88
261.942	133.88
262.175	136.88
262.407	146.88
262.64	137.88
262.872	140.88
263.105	121.88
263.337	124.88
263.57	141.88
263.802	144.88
264.035	134.88
264.267	136.88
264.499	130.88
264.732	129.88
264.964	133.88
265.197	144.88
265.429	143.88
265.661	138.88
265.894	122.88
266.126	135.88
266.358	133.88
266.591	131.88
266.823	142.88
267.055	133.88
267.287	137.88
267.52	140.88
267.752	126.88
267.984	142.88
268.216	136.88
268.448	152.88
268.681	142.88
268.913	146.88
269.145	156.88
269.377	168.88
269.609	178.88
269.841	153.88
270.073	172.88
270.306	172.88
270.538	188.88
270.77	193.88
271.002	161.88
271.234	180.88
271.466	171.88
271.698	174.88
271.93	184.88
272.162	192.88
272.394	177.88
272.626	179.88
272.858	169.88
273.09	161.88
273.322	169.88
273.553	159.88
273.785	148.88
274.017	149.88
274.249	150.88
274.481	147.88
274.713	151.88
274.945	164.88
275.176	156.88
275.408	166.88
275.64	163.88
275.872	169.88
276.104	162.88
276.335	156.88
276.567	172.88
276.799	180.88
277.031	180.88
277.262	190.88
277.494	182.88
277.726	169.88
277.957	160.88
278.189	158.88
278.421	173.88
278.652	149.88
278.884	153.88
279.115	163.88
279.347	157.88
279.579	159.88
279.81	162.88
280.042	154.88
280.273	162.88
280.505	150.88
280.736	151.88
280.968	177.88
281.199	157.88
281.431	155.88
281.662	169.88
281.894	156.88
282.125	148.88
282.356	179.88
282.588	197.88
282.819	181.88
283.051	156.88
283.282	157.88
283.513	160.88
283.745	162.88
283.976	153.88
284.207	162.88
284.439	157.88
284.67	168.88
284.901	160.88
285.132	160.88
285.364	178.88
285.595	166.88
285.826	150.88
286.057	172.88
286.288	168.88
286.52	177.88
286.751	169.88
286.982	159.88
287.213	166.88
287.444	174.88
287.675	166.88
287.906	165.88
288.138	178.88
288.369	181.88
288.6	173.88
288.831	178.88
289.062	158.88
289.293	165.88
289.524	166.88
289.755	168.88
289.986	181.88
290.217	173.88
290.448	163.88
290.679	191.88
290.91	171.88
291.141	154.88
291.371	162.88
291.602	169.88
291.833	166.88
292.064	173.88
292.295	153.88
292.526	169.88
292.757	170.88
292.987	173.88
293.218	156.88
293.449	171.88
293.68	174.88
293.91	166.88
294.141	159.88
294.372	177.88
294.603	171.88
294.833	171.88
295.064	163.88
295.295	180.88
295.525	178.88
295.756	170.88
295.987	168.88
296.217	194.88
296.448	182.88
296.679	170.88
296.909	171.88
297.14	181.88
297.37	179.88
297.601	159.88
297.831	170.88
298.062	170.88
298.292	176.88
298.523	163.88
298.753	170.88
298.984	162.88
299.214	173.88
299.445	160.88
299.675	171.88
299.905	174.88
300.136	168.88
300.366	166.88
300.597	170.88
300.827	178.88
301.057	174.88
301.288	189.88
301.518	181.88
301.748	177.88
301.979	176.88
302.209	200.88
302.439	190.88
302.669	186.88
302.9	184.88
303.13	176.88
303.36	194.88
303.59	173.88
303.82	186.88
304.051	202.88
304.281	188.88
304.511	170.88
304.741	179.88
304.971	186.88
305.201	186.88
305.431	177.88
305.661	178.88
305.891	203.88
306.121	188.88
306.352	200.88
306.582	185.88
306.812	177.88
307.042	187.88
307.272	195.88
307.502	175.88
307.731	196.88
307.961	173.88
308.191	158.88
308.421	188.88
308.651	192.88
308.881	184.88
309.111	210.88
309.341	188.88
309.571	184.88
309.8	204.88
310.03	194.88
310.26	205.88
310.49	188.88
310.72	207.88
310.949	211.88
311.179	199.88
311.409	206.88
311.639	188.88
311.868	215.88
312.098	209.88
312.328	206.88
312.557	217.88
312.787	219.88
313.017	213.88
313.246	225.88
313.476	208.88
313.706	208.88
313.935	200.88
314.165	209.88
314.394	221.88
314.624	206.88
314.853	209.88
315.083	205.88
315.312	192.88
315.542	208.88
315.771	212.88
316.001	203.88
316.23	184.88
316.46	197.88
316.689	186.88
316.919	200.88
317.148	212.88
317.377	209.88
317.607	203.88
317.836	214.88
318.065	192.88
318.295	201.88
318.524	219.88
318.753	192.88
318.983	195.88
319.212	189.88
319.441	195.88
319.67	206.88
319.9	212.88
320.129	186.88
320.358	193.88
320.587	207.88
320.816	211.88
321.046	227.88
321.275	201.88
321.504	212.88
321.733	192.88
321.962	202.88
322.191	213.88
322.42	211.88
322.649	239.88
322.878	225.88
323.108	227.88
323.337	261.88
323.566	278.88
323.795	260.88
324.024	289.88
324.253	337.88
324.482	481.88
324.71	722.88
324.939	932.88
325.168	791.88
325.397	388.88
325.626	288.88
325.855	237.88
326.084	250.88
326.313	259.88
326.542	234.88
326.77	276.88
326.999	331.88
327.228	437.88
327.457	644.88
327.686	694.88
327.914	498.88
328.143	338.88
328.372	309.88
328.6	302.88
328.829	284.88
329.058	293.88
329.287	301.88
329.515	273.88
329.744	265.88
329.972	263.88
330.201	296.88
330.43	314.88
330.658	314.88
330.887	338.88
331.115	320.88
331.344	260.88
331.572	269.88
331.801	282.88
332.03	248.88
332.258	239.88
332.486	239.88
332.715	234.88
332.943	237.88
333.172	249.88
333.4	230.88
333.629	236.88
333.857	242.88
334.085	245.88
334.314	266.88
334.542	295.88
334.771	287.88
334.999	275.88
335.227	252.88
335.455	243.88
335.684	229.88
335.912	226.88
336.14	226.88
336.369	237.88
336.597	240.88
336.825	235.88
337.053	222.88
337.281	226.88
337.51	237.88
337.738	232.88
337.966	227.88
338.194	231.88
338.422	227.88
338.65	212.88
338.878	235.88
339.106	218.88
339.334	216.88
339.562	219.88
339.79	211.88
340.018	218.88
340.246	212.88
340.474	236.88
340.702	234.88
340.93	221.88
341.158	217.88
341.386	222.88
341.614	220.88
341.842	221.88
342.07	219.88
342.298	214.88
342.526	213.88
342.754	209.88
342.981	201.88
343.209	222.88
343.437	225.88
343.665	214.88
343.893	221.88
344.12	220.88
344.348	218.88
344.576	236.88
344.804	229.88
345.031	229.88
345.259	233.88
345.487	233.88
345.714	220.88
345.942	221.88
346.17	213.88
346.397	214.88
346.625	223.88
346.853	208.88
347.08	218.88
347.308	224.88
347.535	221.88
347.763	213.88
347.99	225.88
348.218	228.88
348.445	218.88
348.673	211.88
348.9	196.88
349.128	210.88
349.355	222.88
349.583	208.88
349.81	204.88
350.037	208.88
350.265	197.88
350.492	208.88
350.72	221.88
350.947	195.88
351.174	222.88
351.402	226.88
351.629	208.88
351.856	219.88
352.083	216.88
352.311	233.88
352.538	217.88
352.765	220.88
352.992	214.88
353.22	232.88
353.447	221.88
353.674	208.88
353.901	210.88
354.128	205.88
354.355	200.88
354.583	202.88
354.81	197.88
355.037	202.88
355.264	204.88
355.491	187.88
355.718	192.88
355.945	214.88
356.172	200.88
356.399	187.88
356.626	189.88
356.853	198.88
357.08	209.88
357.307	200.88
357.534	197.88
357.761	200.88
357.988	205.88
358.215	204.88
358.441	207.88
358.668	211.88
358.895	219.88
359.122	192.88
359.349	219.88
359.576	215.88
359.802	248.88
360.029	231.88
360.256	258.88
360.483	225.88
360.709	232.88
360.936	210.88
361.163	211.88
361.39	222.88
361.616	212.88
361.843	211.88
362.07	214.88
362.296	218.88
362.523	214.88
362.749	224.88
362.976	204.88
363.203	208.88
363.429	188.88
363.656	202.88
363.882	204.88
364.109	207.88
364.335	203.88
364.562	200.88
364.788	203.88
365.015	214.88
365.241	230.88
365.468	200.88
365.694	209.88
365.92	210.88
366.147	195.88
366.373	202.88
366.599	192.88
366.826	204.88
367.052	203.88
367.278	210.88
367.505	208.88
367.731	208.88
367.957	206.88
368.184	202.88
368.41	192.88
368.636	208.88
368.862	209.88
369.089	208.88
369.315	204.88
369.541	198.88
369.767	203.88
369.993	205.88
370.219	211.88
370.445	190.88
370.672	202.88
370.898	190.88
371.124	195.88
371.35	193.88
371.576	202.88
371.802	211.88
372.028	207.88
372.254	191.88
372.48	216.88
372.706	224.88
372.932	204.88
373.158	197.88
373.384	205.88
373.61	190.88
373.835	210.88
374.061	200.88
374.287	216.88
374.513	214.88
374.739	215.88
374.965	194.88
375.191	209.88
375.416	213.88
375.642	205.88
375.868	182.88
376.094	196.88
376.319	209.88
376.545	196.88
376.771	204.88
376.997	197.88
377.222	217.88
377.448	205.88
377.674	192.88
377.899	212.88
378.125	197.88
378.35	189.88
378.576	214.88
378.802	209.88
379.027	204.88
379.253	205.88
379.478	194.88
379.704	176.88
379.929	213.88
380.155	188.88
380.38	208.88
380.606	202.88
380.831	182.88
381.057	226.88
381.282	196.88
381.507	200.88
381.733	200.88
381.958	200.88
382.184	208.88
382.409	210.88
382.634	206.88
382.86	204.88
383.085	212.88
383.31	197.88
383.535	200.88
383.761	209.88
383.986	205.88
384.211	210.88
384.436	213.88
384.662	196.88
384.887	221.88
385.112	205.88
385.337	217.88
385.562	232.88
385.787	222.88
386.013	207.88
386.238	224.88
386.463	223.88
386.688	225.88
386.913	214.88
387.138	220.88
387.363	203.88
387.588	218.88
387.813	207.88
388.038	210.88
388.263	214.88
388.488	214.88
388.713	213.88
388.938	236.88
389.163	208.88
389.387	212.88
389.612	210.88
389.837	231.88
390.062	218.88
390.287	206.88
390.512	213.88
390.736	214.88
390.961	208.88
391.186	220.88
391.411	241.88
391.636	207.88
391.86	218.88
392.085	219.88
392.31	224.88
392.534	219.88
392.759	210.88
392.984	217.88
393.208	213.88
393.433	216.88
393.658	226.88
393.882	216.88
394.107	207.88
394.331	212.88
394.556	215.88
394.78	204.88
395.005	222.88
395.229	206.88
395.454	215.88
395.678	218.88
395.903	234.88
396.127	243.88
396.352	221.88
396.576	239.88
396.801	243.88
397.025	229.88
397.249	217.88
397.474	217.88
397.698	215.88
397.922	228.88
398.147	223.88
398.371	220.88
398.595	236.88
398.82	229.88
399.044	253.88
399.268	256.88
399.492	260.88
399.717	251.88
399.941	285.88
400.165	298.88
400.389	268.88
400.613	255.88
400.837	242.88
401.062	251.88
401.286	259.88
401.51	254.88
401.734	222.88
401.958	229.88
402.182	258.88
402.406	259.88
402.63	251.88
402.854	247.88
403.078	276.88
403.302	248.88
403.526	251.88
403.75	252.88
403.974	257.88
404.198	260.88
404.422	255.88
404.645	252.88
404.869	266.88
405.093	270.88
405.317	256.88
405.541	296.88
405.765	262.88
405.988	274.88
406.212	270.88
406.436	292.88
406.66	286.88
406.883	274.88
407.107	299.88
407.331	286.88
407.555	326.88
407.778	310.88
408.002	288.88
408.226	274.88
408.449	273.88
408.673	260.88
408.896	248.88
409.12	292.88
409.344	276.88
409.567	254.88
409.791	251.88
410.014	253.88
410.238	237.88
410.461	251.88
410.685	258.88
410.908	251.88
411.132	253.88
411.355	290.88
411.578	275.88
411.802	249.88
412.025	252.88
412.249	246.88
412.472	258.88
412.695	280.88
412.919	250.88
413.142	244.88
413.365	250.88
413.589	233.88
413.812	237.88
414.035	235.88
414.258	237.88
414.482	239.88
414.705	239.88
414.928	232.88
415.151	236.88
415.374	249.88
415.597	239.88
415.821	237.88
416.044	252.88
416.267	252.88
416.49	233.88
416.713	238.88
416.936	241.88
417.159	243.88
417.382	248.88
417.605	236.88
417.828	258.88
418.051	258.88
418.274	249.88
418.497	249.88
418.72	253.88
418.943	238.88
419.166	254.88
419.389	254.88
419.611	254.88
419.834	241.88
420.057	252.88
420.28	272.88
420.503	248.88
420.726	239.88
420.948	253.88
421.171	267.88
421.394	278.88
421.617	273.88
421.839	244.88
422.062	245.88
422.285	251.88
422.507	268.88
422.73	304.88
422.953	304.88
423.175	269.88
423.398	255.88
423.621	274.88
423.843	274.88
424.066	275.88
424.288	259.88
424.511	277.88
424.733	306.88
424.956	313.88
425.178	292.88
425.401	316.88
425.623	325.88
425.846	279.88
426.068	248.88
426.291	261.88
426.513	278.88
426.735	268.88
426.958	284.88
427.18	307.88
427.402	341.88
427.625	402.88
427.847	374.88
428.069	307.88
428.292	274.88
428.514	261.88
428.736	252.88
428.958	240.88
429.181	234.88
429.403	261.88
429.625	254.88
429.847	268.88
430.069	308.88
430.292	282.88
430.514	263.88
430.736	242.88
430.958	241.88
431.18	225.88
431.402	238.88
431.624	221.88
431.846	232.88
432.068	217.88
432.29	237.88
432.512	244.88
432.734	235.88
432.956	238.88
433.178	246.88
433.4	250.88
433.622	260.88
433.844	247.88
434.066	232.88
434.287	217.88
434.509	237.88
434.731	257.88
434.953	239.88
435.175	248.88
435.397	268.88
435.618	270.88
435.84	278.88
436.062	312.88
436.284	342.88
436.505	285.88
436.727	264.88
436.949	250.88
437.17	243.88
437.392	250.88
437.614	258.88
437.835	259.88
438.057	306.88
438.278	344.88
438.5	342.88
438.721	381.88
438.943	351.88
439.165	288.88
439.386	278.88
439.608	254.88
439.829	270.88
440.05	289.88
440.272	315.88
440.493	268.88
440.715	259.88
440.936	240.88
441.158	252.88
441.379	248.88
441.6	270.88
441.822	260.88
442.043	276.88
442.264	315.88
442.486	328.88
442.707	304.88
442.928	273.88
443.149	272.88
443.371	276.88
443.592	294.88
443.813	348.88
444.034	363.88
444.255	300.88
444.476	295.88
444.698	266.88
444.919	270.88
445.14	348.88
445.361	312.88
445.582	298.88
445.803	302.88
446.024	358.88
446.245	352.88
446.466	324.88
446.687	253.88
446.908	272.88
447.129	240.88
447.35	241.88
447.571	232.88
447.792	244.88
448.013	259.88
448.234	270.88
448.455	272.88
448.675	304.88
448.896	356.88
449.117	325.88
449.338	291.88
449.559	344.88
449.779	380.88
450	316.88
450.221	241.88
450.442	257.88
450.662	230.88
450.883	245.88
451.104	267.88
451.324	264.88
451.545	238.88
451.766	221.88
451.986	225.88
452.207	245.88
452.428	225.88
452.648	223.88
452.869	232.88
453.089	228.88
453.31	224.88
453.53	220.88
453.751	229.88
453.971	209.88
454.192	256.88
454.412	234.88
454.633	224.88
454.853	230.88
455.073	227.88
455.294	250.88
455.514	268.88
455.734	266.88
455.955	227.88
456.175	242.88
456.395	218.88
456.616	206.88
456.836	217.88
457.056	221.88
457.276	219.88
457.497	203.88
457.717	220.88
457.937	224.88
458.157	208.88
458.377	225.88
458.598	234.88
458.818	287.88
459.038	310.88
459.258	322.88
459.478	241.88
459.698	250.88
459.918	249.88
460.138	244.88
460.358	233.88
460.578	236.88
460.798	241.88
461.018	241.88
461.238	251.88
461.458	236.88
461.678	241.88
461.898	238.88
462.118	244.88
462.338	233.88
462.558	251.88
462.777	259.88
462.997	246.88
463.217	258.88
463.437	264.88
463.657	256.88
463.876	224.88
464.096	269.88
464.316	254.88
464.536	242.88
464.755	268.88
464.975	267.88
465.195	283.88
465.414	339.88
465.634	292.88
465.854	261.88
466.073	249.88
466.293	238.88
466.512	247.88
466.732	226.88
466.951	227.88
467.171	225.88
467.391	244.88
467.61	232.88
467.829	233.88
468.049	246.88
468.268	242.88
468.488	232.88
468.707	213.88
468.927	217.88
469.146	213.88
469.365	215.88
469.585	234.88
469.804	241.88
470.023	241.88
470.243	242.88
470.462	229.88
470.681	262.88
470.901	237.88
471.12	236.88
471.339	232.88
471.558	241.88
471.777	240.88
471.997	225.88
472.216	248.88
472.435	260.88
472.654	251.88
472.873	215.88
473.092	221.88
473.311	232.88
473.53	223.88
473.749	249.88
473.968	261.88
474.187	312.88
474.406	312.88
474.625	241.88
474.844	222.88
475.063	232.88
475.282	239.88
475.501	230.88
475.72	237.88
475.939	239.88
476.158	245.88
476.377	240.88
476.596	241.88
476.814	255.88
477.033	238.88
477.252	242.88
477.471	246.88
477.69	233.88
477.908	248.88
478.127	276.88
478.346	244.88
478.564	242.88
478.783	259.88
479.002	261.88
479.22	261.88
479.439	291.88
479.658	290.88
479.876	267.88
480.095	297.88
480.313	298.88
480.532	285.88
480.751	271.88
480.969	284.88
481.188	341.88
481.406	367.88
481.624	300.88
481.843	266.88
482.061	259.88
482.28	276.88
482.498	270.88
482.717	275.88
482.935	273.88
483.153	261.88
483.372	262.88
483.59	250.88
483.808	269.88
484.027	258.88
484.245	276.88
484.463	268.88
484.681	287.88
484.9	262.88
485.118	262.88
485.336	258.88
485.554	286.88
485.772	268.88
485.99	268.88
486.209	276.88
486.427	286.88
486.645	274.88
486.863	300.88
487.081	292.88
487.299	297.88
487.517	301.88
487.735	283.88
487.953	280.88
488.171	283.88
488.389	291.88
488.607	288.88
488.825	288.88
489.043	295.88
489.261	300.88
489.479	275.88
489.696	292.88
489.914	290.88
490.132	281.88
490.35	292.88
490.568	307.88
490.786	308.88
491.003	318.88
491.221	324.88
491.439	331.88
491.657	325.88
491.874	346.88
492.092	334.88
492.31	310.88
492.527	328.88
492.745	322.88
492.963	356.88
493.18	369.88
493.398	342.88
493.615	339.88
493.833	338.88
494.05	325.88
494.268	342.88
494.485	338.88
494.703	352.88
494.92	356.88
495.138	342.88
495.355	348.88
495.573	335.88
495.79	321.88
496.008	326.88
496.225	328.88
496.442	330.88
496.66	328.88
496.877	320.88
497.094	343.88
497.312	329.88
497.529	338.88
497.746	354.88
497.963	345.88
498.181	366.88
498.398	346.88
498.615	378.88
498.832	346.88
499.049	365.88
499.267	367.88
499.484	362.88
499.701	374.88
499.918	393.88
500.135	430.88
500.352	418.88
500.569	414.88
500.786	431.88
501.003	440.88
501.22	430.88
501.437	399.88
501.654	396.88
501.871	395.88
502.088	393.88
502.305	378.88
502.522	367.88
502.739	365.88
502.956	339.88
503.172	336.88
503.389	330.88
503.606	324.88
503.823	347.88
504.04	336.88
504.256	318.88
504.473	310.88
504.69	338.88
504.907	326.88
505.123	312.88
505.34	336.88
505.557	324.88
505.773	313.88
505.99	320.88
506.207	323.88
506.423	321.88
506.64	306.88
506.856	309.88
507.073	281.88
507.289	302.88
507.506	324.88
507.722	312.88
507.939	319.88
508.155	316.88
508.372	309.88
508.588	304.88
508.805	295.88
509.021	301.88
509.238	308.88
509.454	329.88
509.67	302.88
509.887	298.88
510.103	308.88
510.319	325.88
510.536	368.88
510.752	676.88
510.968	523.88
511.184	301.88
511.401	295.88
511.617	275.88
511.833	278.88
512.049	277.88
512.265	281.88
512.481	283.88
512.698	293.88
512.914	277.88
513.13	268.88
513.346	258.88
513.562	272.88
513.778	274.88
513.994	290.88
514.21	301.88
514.426	316.88
514.642	323.88
514.858	359.88
515.074	349.88
515.29	460.88
515.506	755.88
515.721	609.88
515.937	376.88
516.153	325.88
516.369	308.88
516.585	297.88
516.801	289.88
517.016	285.88
517.232	300.88
517.448	322.88
517.664	301.88
517.879	309.88
518.095	307.88
518.311	306.88
518.527	292.88
518.742	300.88
518.958	265.88
519.173	294.88
519.389	275.88
519.605	252.88
519.82	289.88
520.036	291.88
520.251	305.88
520.467	312.88
520.682	309.88
520.898	324.88
521.113	329.88
521.329	339.88
521.544	409.88
521.76	566.88
521.975	1044.88
522.19	1020.88
522.406	512.88
522.621	355.88
522.836	317.88
523.052	271.88
523.267	273.88
523.482	248.88
523.698	260.88
523.913	280.88
524.128	259.88
524.343	264.88
524.559	246.88
524.774	250.88
524.989	254.88
525.204	274.88
525.419	256.88
525.634	256.88
525.849	258.88
526.064	235.88
526.28	250.88
526.495	241.88
526.71	252.88
526.925	224.88
527.14	222.88
527.355	235.88
527.57	250.88
527.785	244.88
527.999	230.88
528.214	233.88
528.429	229.88
528.644	233.88
528.859	229.88
529.074	247.88
529.289	282.88
529.503	321.88
529.718	289.88
529.933	245.88
530.148	248.88
530.363	238.88
530.577	219.88
530.792	260.88
531.007	209.88
531.221	228.88
531.436	233.88
531.651	249.88
531.865	207.88
532.08	225.88
532.295	220.88
532.509	233.88
532.724	225.88
532.938	229.88
533.153	223.88
533.367	235.88
533.582	236.88
533.796	245.88
534.011	233.88
534.225	216.88
534.44	215.88
534.654	233.88
534.868	220.88
535.083	217.88
535.297	241.88
535.511	224.88
535.726	239.88
535.94	227.88
536.154	222.88
536.369	243.88
536.583	227.88
536.797	220.88
537.011	214.88
537.225	226.88
537.44	213.88
537.654	217.88
537.868	208.88
538.082	217.88
538.296	235.88
538.51	234.88
538.724	225.88
538.938	206.88
539.153	226.88
539.367	236.88
539.581	222.88
539.795	215.88
540.009	237.88
540.222	227.88
540.436	211.88
540.65	222.88
540.864	226.88
541.078	221.88
541.292	220.88
541.506	235.88
541.72	220.88
541.934	234.88
542.147	241.88
542.361	229.88
542.575	226.88
542.789	228.88
543.002	222.88
543.216	206.88
543.43	224.88
543.644	221.88
543.857	232.88
544.071	238.88
544.285	229.88
544.498	230.88
544.712	237.88
544.925	216.88
545.139	220.88
545.352	227.88
545.566	207.88
545.779	236.88
545.993	245.88
546.206	213.88
546.42	242.88
546.633	236.88
546.847	222.88
547.06	230.88
547.274	223.88
547.487	215.88
547.7	213.88
547.914	214.88
548.127	207.88
548.34	226.88
548.554	215.88
548.767	222.88
548.98	221.88
549.193	208.88
549.407	225.88
549.62	207.88
549.833	205.88
550.046	200.88
550.259	215.88
550.473	216.88
550.686	232.88
550.899	214.88
551.112	206.88
551.325	221.88
551.538	228.88
551.751	232.88
551.964	221.88
552.177	217.88
552.39	196.88
552.603	209.88
552.816	204.88
553.029	213.88
553.242	209.88
553.455	227.88
553.667	224.88
553.88	237.88
554.093	212.88
554.306	214.88
554.519	224.88
554.732	226.88
554.944	214.88
555.157	208.88
555.37	209.88
555.583	208.88
555.795	198.88
556.008	214.88
556.221	212.88
556.433	190.88
556.646	185.88
556.859	189.88
557.071	196.88
557.284	216.88
557.496	195.88
557.709	188.88
557.921	190.88
558.134	196.88
558.346	199.88
558.559	199.88
558.771	195.88
558.984	197.88
559.196	206.88
559.409	190.88
559.621	197.88
559.833	206.88
560.046	190.88
560.258	189.88
560.47	194.88
560.683	212.88
560.895	213.88
561.107	196.88
561.32	181.88
561.532	198.88
561.744	204.88
561.956	193.88
562.168	197.88
562.381	192.88
562.593	190.88
562.805	212.88
563.017	202.88
563.229	209.88
563.441	180.88
563.653	199.88
563.865	196.88
564.077	200.88
564.289	193.88
564.501	206.88
564.713	208.88
564.925	196.88
565.137	204.88
565.349	202.88
565.561	204.88
565.773	207.88
565.985	206.88
566.197	208.88
566.408	214.88
566.62	222.88
566.832	226.88
567.044	235.88
567.255	224.88
567.467	210.88
567.679	255.88
567.891	237.88
568.102	221.88
568.314	233.88
568.526	229.88
568.737	221.88
568.949	217.88
569.161	217.88
569.372	204.88
569.584	213.88
569.795	198.88
570.007	200.88
570.218	226.88
570.43	210.88
570.641	185.88
570.853	191.88
571.064	182.88
571.276	200.88
571.487	192.88
571.698	180.88
571.91	188.88
572.121	187.88
572.333	180.88
572.544	190.88
572.755	178.88
572.966	188.88
573.178	175.88
573.389	175.88
573.6	174.88
573.811	205.88
574.023	184.88
574.234	177.88
574.445	181.88
574.656	171.88
574.867	178.88
575.078	180.88
575.289	171.88
575.501	189.88
575.712	173.88
575.923	156.88
576.134	175.88
576.345	182.88
576.556	165.88
576.767	182.88
576.978	164.88
577.188	168.88
577.399	167.88
577.61	184.88
577.821	183.88
578.032	187.88
578.243	204.88
578.454	356.88
578.665	266.88
578.875	167.88
579.086	163.88
579.297	152.88
579.508	162.88
579.718	173.88
579.929	162.88
580.14	163.88
580.35	188.88
580.561	169.88
580.772	163.88
580.982	159.88
581.193	160.88
581.403	168.88
581.614	163.88
581.825	159.88
582.035	170.88
582.246	150.88
582.456	157.88
582.667	173.88
582.877	168.88
583.087	147.88
583.298	169.88
583.508	149.88
583.719	164.88
583.929	164.88
584.139	162.88
584.35	166.88
584.56	163.88
584.77	161.88
584.981	146.88
585.191	172.88
585.401	166.88
585.611	167.88
585.821	162.88
586.032	158.88
586.242	161.88
586.452	158.88
586.662	166.88
586.872	171.88
587.082	162.88
587.292	156.88
587.502	160.88
587.713	173.88
587.923	153.88
588.133	150.88
588.343	151.88
588.553	160.88
588.762	164.88
588.972	174.88
589.182	159.88
589.392	162.88
589.602	165.88
589.812	152.88
590.022	177.88
590.232	158.88
590.441	138.88
590.651	176.88
590.861	175.88
591.071	163.88
591.281	162.88
591.49	152.88
591.7	170.88
591.91	175.88
592.119	167.88
592.329	163.88
592.539	158.88
592.748	178.88
592.958	159.88
593.167	155.88
593.377	165.88
593.587	175.88
593.796	164.88
594.006	168.88
594.215	167.88
594.424	167.88
594.634	164.88
594.843	154.88
595.053	161.88
595.262	161.88
595.472	161.88
595.681	156.88
595.89	159.88
596.1	171.88
596.309	152.88
596.518	150.88
596.727	170.88
596.937	156.88
597.146	160.88
597.355	172.88
597.564	163.88
597.774	158.88
597.983	147.88
598.192	152.88
598.401	158.88
598.61	145.88
598.819	136.88
599.028	153.88
599.237	156.88
599.446	140.88
599.655	152.88
599.864	143.88
600.073	148.88
600.282	146.88
600.491	146.88
600.7	135.88
600.909	163.88
601.118	154.88
601.327	137.88
601.536	157.88
601.745	140.88
601.953	154.88
602.162	150.88
602.371	150.88
602.58	140.88
602.789	154.88
602.997	144.88
603.206	154.88
603.415	145.88
603.623	139.88
603.832	117.88
604.041	140.88
604.249	146.88
604.458	166.88
604.666	146.88
604.875	136.88
605.084	157.88
605.292	146.88
605.501	137.88
605.709	154.88
605.918	143.88
606.126	142.88
606.334	142.88
606.543	159.88
606.751	146.88
606.96	150.88
607.168	143.88
607.376	152.88
607.585	136.88
607.793	143.88
608.001	148.88
608.21	153.88
608.418	140.88
608.626	148.88
608.834	149.88
609.043	127.88
609.251	139.88
609.459	143.88
609.667	136.88
609.875	143.88
610.083	141.88
610.291	161.88
610.499	148.88
610.707	142.88
610.916	144.88
611.124	150.88
611.332	159.88
611.54	142.88
611.748	156.88
611.955	130.88
612.163	141.88
612.371	147.88
612.579	138.88
612.787	147.88
612.995	137.88
613.203	143.88
613.411	151.88
613.618	144.88
613.826	144.88
614.034	145.88
614.242	159.88
614.449	143.88
614.657	141.88
614.865	145.88
615.072	153.88
615.28	132.88
615.488	150.88
615.695	143.88
615.903	144.88
616.111	151.88
616.318	150.88
616.526	136.88
616.733	151.88
616.941	142.88
617.148	152.88
617.356	141.88
617.563	153.88
617.771	150.88
617.978	136.88
618.185	142.88
618.393	148.88
618.6	142.88
618.807	134.88
619.015	146.88
619.222	134.88
619.429	148.88
619.637	133.88
619.844	134.88
620.051	140.88
620.258	138.88
620.466	135.88
620.673	136.88
620.88	140.88
621.087	149.88
621.294	148.88
621.501	120.88
621.708	131.88
621.915	146.88
622.122	146.88
622.329	144.88
622.536	141.88
622.743	126.88
622.95	140.88
623.157	146.88
623.364	147.88
623.571	142.88
623.778	132.88
623.985	140.88
624.192	132.88
624.399	148.88
624.606	149.88
624.812	142.88
625.019	137.88
625.226	131.88
625.433	156.88
625.639	138.88
625.846	132.88
626.053	133.88
626.259	112.88
626.466	134.88
626.673	130.88
626.879	123.88
627.086	137.88
627.293	126.88
627.499	127.88
627.706	132.88
627.912	128.88
628.119	134.88
628.325	127.88
628.532	126.88
628.738	138.88
628.945	140.88
629.151	136.88
629.357	131.88
629.564	132.88
629.77	133.88
629.976	124.88
630.183	137.88
630.389	136.88
630.595	138.88
630.802	135.88
631.008	124.88
631.214	140.88
631.42	137.88
631.627	134.88
631.833	139.88
632.039	130.88
632.245	145.88
632.451	127.88
632.657	137.88
632.863	144.88
633.069	132.88
633.275	139.88
633.481	128.88
633.688	126.88
633.893	136.88
634.099	132.88
634.305	135.88
634.511	124.88
634.717	124.88
634.923	126.88
635.129	122.88
635.335	115.88
635.541	124.88
635.747	128.88
635.952	115.88
636.158	113.88
636.364	146.88
636.57	126.88
636.775	123.88
636.981	130.88
637.187	128.88
637.392	115.88
637.598	126.88
637.804	124.88
638.009	130.88
638.215	121.88
638.421	118.88
638.626	122.88
638.832	117.88
639.037	124.88
639.243	142.88
639.448	120.88
639.654	115.88
639.859	108.88
640.065	109.88
640.27	112.88
640.475	108.88
640.681	116.88
640.886	117.88
641.091	120.88
641.297	126.88
641.502	114.88
641.707	122.88
641.913	113.88
642.118	126.88
642.323	108.88
642.528	114.88
642.733	114.88
642.939	121.88
643.144	106.88
643.349	120.88
643.554	127.88
643.759	120.88
643.964	103.88
644.169	129.88
644.374	115.88
644.579	105.88
644.784	112.88
644.989	110.88
645.194	132.88
645.399	123.88
645.604	129.88
645.809	125.88
646.014	123.88
646.219	109.88
646.423	111.88
646.628	124.88
646.833	126.88
647.038	120.88
647.243	128.88
647.447	111.88
647.652	101.88
647.857	123.88
648.062	132.88
648.266	107.88
648.471	126.88
648.676	117.88
648.88	113.88
649.085	121.88
649.289	125.88
649.494	128.88
649.698	113.88
649.903	130.88
650.107	133.88
650.312	122.88
650.516	118.88
650.721	122.88
650.925	129.88
651.13	114.88
651.334	123.88
651.539	101.88
651.743	115.88
651.947	115.88
652.152	102.88
652.356	109.88
652.56	122.88
652.764	108.88
652.969	97.88
653.173	112.88
653.377	116.88
653.581	111.88
653.785	106.88
653.99	113.88
654.194	113.88
654.398	104.88
654.602	120.88
654.806	98.88
655.01	125.88
655.214	108.88
655.418	110.88
655.622	116.88
655.826	102.88
656.03	112.88
656.234	122.88
656.438	135.88
656.642	114.88
656.846	109.88
657.049	105.88
657.253	101.88
657.457	105.88
657.661	100.88
657.865	92.88
658.068	108.88
658.272	101.88
658.476	103.88
658.68	96.88
658.883	93.88
659.087	88.88
659.291	96.88
659.494	83.88
659.698	93.88
659.901	96.88
660.105	92.88
660.309	87.88
660.512	94.88
660.716	94.88
660.919	96.88
661.123	87.88
661.326	81.88
661.53	86.88
661.733	100.88
661.936	85.88
662.14	96.88
662.343	88.88
662.546	81.88
662.75	69.88
662.953	102.88
663.156	82.88
663.36	104.88
663.563	105.88
663.766	85.88
663.969	93.88
664.173	83.88
664.376	88.88
664.579	92.88
664.782	84.88
664.985	95.88
665.188	90.88
665.391	92.88
665.594	102.88
665.797	98.88
666	87.88
666.203	85.88
666.406	85.88
666.609	94.88
666.812	98.88
667.015	93.88
667.218	87.88
667.421	75.88
667.624	78.88
667.827	96.88
668.03	94.88
668.232	84.88
668.435	88.88
668.638	89.88
668.841	92.88
669.043	78.88
669.246	82.88
669.449	93.88
669.651	111.88
669.854	85.88
670.057	90.88
670.259	90.88
670.462	82.88
670.665	89.88
670.867	81.88
671.07	85.88
671.272	87.88
671.475	93.88
671.677	84.88
671.88	81.88
672.082	76.88
672.284	85.88
672.487	87.88
672.689	85.88
672.892	80.88
