Data from 1966.PennyLincolnUp.Lamp.En5.5.200Scan.071719.P1.Scan2.head_HRD10591_14-18-50-219.txt Node
Date: Thu Jul 18 14:18:50 EDT 2019
User: cochatt
Spectrometer: HR+D1059
Trigger mode: 1
Integration Time (sec): 1.000000E-1
Scans to average: 1
Electric dark correction enabled: true
Nonlinearity correction enabled: false
Boxcar width: 0
XAxis mode: Wavelengths
Number of Pixels in Spectrum: 2048
>>>>>Begin Spectral Data<<<<<
223.165	-25.12
223.4	-25.12
223.635	-25.12
223.869	-18.12
224.104	-13.12
224.338	-11.12
224.573	-9.12
224.808	-22.12
225.042	-10.12
225.277	-3.12
225.511	1.88
225.746	7.88
225.98	12.88
226.215	12.88
226.449	23.88
226.683	8.88
226.918	17.88
227.152	25.88
227.387	29.88
227.621	42.88
227.856	30.88
228.09	52.88
228.324	44.88
228.559	56.88
228.793	70.88
229.027	118.88
229.262	107.88
229.496	119.88
229.73	137.88
229.964	153.88
230.199	127.88
230.433	108.88
230.667	127.88
230.901	119.88
231.136	109.88
231.37	123.88
231.604	103.88
231.838	108.88
232.072	127.88
232.306	119.88
232.541	94.88
232.775	116.88
233.009	124.88
233.243	127.88
233.477	125.88
233.711	109.88
233.945	119.88
234.179	131.88
234.413	116.88
234.647	121.88
234.881	128.88
235.115	106.88
235.349	135.88
235.583	141.88
235.817	119.88
236.051	131.88
236.285	142.88
236.519	127.88
236.753	129.88
236.987	148.88
237.221	183.88
237.455	254.88
237.689	199.88
237.922	149.88
238.156	147.88
238.39	124.88
238.624	129.88
238.858	140.88
239.091	133.88
239.325	117.88
239.559	132.88
239.793	135.88
240.027	144.88
240.26	150.88
240.494	144.88
240.728	165.88
240.961	153.88
241.195	145.88
241.429	137.88
241.662	127.88
241.896	117.88
242.13	141.88
242.363	144.88
242.597	141.88
242.83	151.88
243.064	150.88
243.298	143.88
243.531	151.88
243.765	138.88
243.998	141.88
244.232	131.88
244.465	142.88
244.699	135.88
244.932	156.88
245.166	176.88
245.399	149.88
245.633	151.88
245.866	153.88
246.099	141.88
246.333	152.88
246.566	144.88
246.8	150.88
247.033	161.88
247.266	161.88
247.5	159.88
247.733	185.88
247.966	159.88
248.2	181.88
248.433	183.88
248.666	189.88
248.899	179.88
249.133	201.88
249.366	232.88
249.599	193.88
249.832	199.88
250.066	190.88
250.299	185.88
250.532	196.88
250.765	224.88
250.998	227.88
251.231	239.88
251.465	221.88
251.698	217.88
251.931	199.88
252.164	194.88
252.397	222.88
252.63	208.88
252.863	222.88
253.096	238.88
253.329	234.88
253.562	239.88
253.795	237.88
254.028	228.88
254.261	229.88
254.494	235.88
254.727	257.88
254.96	297.88
255.193	279.88
255.426	266.88
255.659	246.88
255.892	247.88
256.124	257.88
256.357	260.88
256.59	255.88
256.823	230.88
257.056	235.88
257.289	220.88
257.521	215.88
257.754	215.88
257.987	212.88
258.22	208.88
258.452	205.88
258.685	221.88
258.918	222.88
259.151	231.88
259.383	221.88
259.616	230.88
259.849	202.88
260.081	268.88
260.314	267.88
260.547	248.88
260.779	266.88
261.012	241.88
261.244	231.88
261.477	245.88
261.71	238.88
261.942	230.88
262.175	239.88
262.407	233.88
262.64	237.88
262.872	219.88
263.105	204.88
263.337	214.88
263.57	232.88
263.802	232.88
264.035	216.88
264.267	238.88
264.499	224.88
264.732	229.88
264.964	236.88
265.197	206.88
265.429	215.88
265.661	217.88
265.894	224.88
266.126	229.88
266.358	231.88
266.591	237.88
266.823	228.88
267.055	244.88
267.287	232.88
267.52	232.88
267.752	238.88
267.984	228.88
268.216	245.88
268.448	234.88
268.681	248.88
268.913	277.88
269.145	285.88
269.377	274.88
269.609	280.88
269.841	266.88
270.073	266.88
270.306	292.88
270.538	321.88
270.77	314.88
271.002	314.88
271.234	293.88
271.466	315.88
271.698	317.88
271.93	325.88
272.162	335.88
272.394	336.88
272.626	331.88
272.858	300.88
273.09	277.88
273.322	273.88
273.553	283.88
273.785	286.88
274.017	295.88
274.249	272.88
274.481	265.88
274.713	262.88
274.945	279.88
275.176	274.88
275.408	309.88
275.64	281.88
275.872	279.88
276.104	279.88
276.335	281.88
276.567	270.88
276.799	300.88
277.031	316.88
277.262	334.88
277.494	355.88
277.726	301.88
277.957	302.88
278.189	292.88
278.421	266.88
278.652	269.88
278.884	288.88
279.115	279.88
279.347	285.88
279.579	290.88
279.81	281.88
280.042	271.88
280.273	286.88
280.505	269.88
280.736	289.88
280.968	267.88
281.199	276.88
281.431	271.88
281.662	279.88
281.894	277.88
282.125	291.88
282.356	309.88
282.588	332.88
282.819	329.88
283.051	293.88
283.282	294.88
283.513	301.88
283.745	305.88
283.976	293.88
284.207	309.88
284.439	293.88
284.67	277.88
284.901	290.88
285.132	291.88
285.364	284.88
285.595	289.88
285.826	277.88
286.057	302.88
286.288	292.88
286.52	291.88
286.751	292.88
286.982	308.88
287.213	304.88
287.444	296.88
287.675	290.88
287.906	321.88
288.138	307.88
288.369	332.88
288.6	318.88
288.831	310.88
289.062	311.88
289.293	311.88
289.524	323.88
289.755	307.88
289.986	299.88
290.217	324.88
290.448	304.88
290.679	314.88
290.91	319.88
291.141	313.88
291.371	301.88
291.602	303.88
291.833	328.88
292.064	304.88
292.295	325.88
292.526	283.88
292.757	316.88
292.987	311.88
293.218	307.88
293.449	300.88
293.68	311.88
293.91	295.88
294.141	290.88
294.372	309.88
294.603	296.88
294.833	313.88
295.064	270.88
295.295	318.88
295.525	303.88
295.756	315.88
295.987	343.88
296.217	327.88
296.448	358.88
296.679	319.88
296.909	318.88
297.14	294.88
297.37	318.88
297.601	327.88
297.831	325.88
298.062	323.88
298.292	308.88
298.523	320.88
298.753	339.88
298.984	336.88
299.214	320.88
299.445	319.88
299.675	330.88
299.905	340.88
300.136	339.88
300.366	342.88
300.597	321.88
300.827	343.88
301.057	334.88
301.288	350.88
301.518	354.88
301.748	348.88
301.979	348.88
302.209	338.88
302.439	363.88
302.669	352.88
302.9	350.88
303.13	341.88
303.36	335.88
303.59	343.88
303.82	343.88
304.051	358.88
304.281	342.88
304.511	357.88
304.741	361.88
304.971	348.88
305.201	360.88
305.431	350.88
305.661	351.88
305.891	355.88
306.121	351.88
306.352	351.88
306.582	349.88
306.812	361.88
307.042	356.88
307.272	343.88
307.502	351.88
307.731	384.88
307.961	351.88
308.191	334.88
308.421	335.88
308.651	344.88
308.881	375.88
309.111	369.88
309.341	379.88
309.571	379.88
309.8	368.88
310.03	404.88
310.26	383.88
310.49	382.88
310.72	392.88
310.949	407.88
311.179	409.88
311.409	398.88
311.639	401.88
311.868	396.88
312.098	410.88
312.328	409.88
312.557	429.88
312.787	418.88
313.017	416.88
313.246	396.88
313.476	394.88
313.706	423.88
313.935	391.88
314.165	419.88
314.394	415.88
314.624	410.88
314.853	416.88
315.083	397.88
315.312	400.88
315.542	413.88
315.771	414.88
316.001	387.88
316.23	395.88
316.46	382.88
316.689	401.88
316.919	415.88
317.148	411.88
317.377	422.88
317.607	408.88
317.836	397.88
318.065	426.88
318.295	406.88
318.524	411.88
318.753	389.88
318.983	415.88
319.212	386.88
319.441	391.88
319.67	427.88
319.9	379.88
320.129	385.88
320.358	399.88
320.587	407.88
320.816	403.88
321.046	409.88
321.275	425.88
321.504	410.88
321.733	409.88
321.962	417.88
322.191	426.88
322.42	453.88
322.649	458.88
322.878	475.88
323.108	469.88
323.337	504.88
323.566	513.88
323.795	535.88
324.024	611.88
324.253	695.88
324.482	993.88
324.71	1583.88
324.939	2359.88
325.168	2080.88
325.397	1020.88
325.626	674.88
325.855	594.88
326.084	529.88
326.313	515.88
326.542	512.88
326.77	557.88
326.999	658.88
327.228	929.88
327.457	1433.88
327.686	1802.88
327.914	1146.88
328.143	730.88
328.372	658.88
328.6	619.88
328.829	601.88
329.058	587.88
329.287	582.88
329.515	577.88
329.744	550.88
329.972	535.88
330.201	566.88
330.43	642.88
330.658	647.88
330.887	626.88
331.115	631.88
331.344	550.88
331.572	506.88
331.801	524.88
332.03	524.88
332.258	523.88
332.486	494.88
332.715	497.88
332.943	486.88
333.172	485.88
333.4	492.88
333.629	512.88
333.857	527.88
334.085	543.88
334.314	520.88
334.542	591.88
334.771	600.88
334.999	525.88
335.227	521.88
335.455	500.88
335.684	494.88
335.912	504.88
336.14	479.88
336.369	461.88
336.597	493.88
336.825	478.88
337.053	493.88
337.281	463.88
337.51	483.88
337.738	484.88
337.966	459.88
338.194	478.88
338.422	475.88
338.65	467.88
338.878	455.88
339.106	443.88
339.334	464.88
339.562	452.88
339.79	461.88
340.018	451.88
340.246	478.88
340.474	460.88
340.702	468.88
340.93	463.88
341.158	469.88
341.386	477.88
341.614	466.88
341.842	450.88
342.07	453.88
342.298	460.88
342.526	469.88
342.754	458.88
342.981	449.88
343.209	451.88
343.437	456.88
343.665	445.88
343.893	484.88
344.12	472.88
344.348	473.88
344.576	450.88
344.804	485.88
345.031	485.88
345.259	497.88
345.487	493.88
345.714	486.88
345.942	446.88
346.17	456.88
346.397	460.88
346.625	452.88
346.853	458.88
347.08	456.88
347.308	447.88
347.535	445.88
347.763	453.88
347.99	455.88
348.218	479.88
348.445	463.88
348.673	479.88
348.9	455.88
349.128	449.88
349.355	433.88
349.583	446.88
349.81	443.88
350.037	458.88
350.265	429.88
350.492	429.88
350.72	426.88
350.947	447.88
351.174	469.88
351.402	474.88
351.629	429.88
351.856	471.88
352.083	483.88
352.311	474.88
352.538	472.88
352.765	459.88
352.992	464.88
353.22	451.88
353.447	462.88
353.674	442.88
353.901	455.88
354.128	441.88
354.355	426.88
354.583	432.88
354.81	425.88
355.037	444.88
355.264	425.88
355.491	419.88
355.718	409.88
355.945	414.88
356.172	421.88
356.399	424.88
356.626	421.88
356.853	443.88
357.08	411.88
357.307	448.88
357.534	423.88
357.761	431.88
357.988	462.88
358.215	431.88
358.441	418.88
358.668	429.88
358.895	412.88
359.122	457.88
359.349	427.88
359.576	470.88
359.802	462.88
360.029	502.88
360.256	508.88
360.483	496.88
360.709	463.88
360.936	458.88
361.163	463.88
361.39	438.88
361.616	452.88
361.843	446.88
362.07	462.88
362.296	474.88
362.523	461.88
362.749	452.88
362.976	432.88
363.203	459.88
363.429	443.88
363.656	443.88
363.882	455.88
364.109	455.88
364.335	462.88
364.562	439.88
364.788	439.88
365.015	439.88
365.241	436.88
365.468	451.88
365.694	459.88
365.92	441.88
366.147	438.88
366.373	446.88
366.599	448.88
366.826	438.88
367.052	423.88
367.278	427.88
367.505	451.88
367.731	443.88
367.957	464.88
368.184	442.88
368.41	439.88
368.636	471.88
368.862	455.88
369.089	438.88
369.315	443.88
369.541	437.88
369.767	441.88
369.993	458.88
370.219	459.88
370.445	441.88
370.672	447.88
370.898	422.88
371.124	436.88
371.35	453.88
371.576	423.88
371.802	452.88
372.028	443.88
372.254	436.88
372.48	449.88
372.706	460.88
372.932	448.88
373.158	460.88
373.384	461.88
373.61	454.88
373.835	429.88
374.061	467.88
374.287	450.88
374.513	461.88
374.739	444.88
374.965	483.88
375.191	468.88
375.416	475.88
375.642	468.88
375.868	452.88
376.094	435.88
376.319	441.88
376.545	435.88
376.771	443.88
376.997	435.88
377.222	461.88
377.448	457.88
377.674	468.88
377.899	437.88
378.125	427.88
378.35	445.88
378.576	445.88
378.802	461.88
379.027	436.88
379.253	443.88
379.478	446.88
379.704	451.88
379.929	446.88
380.155	450.88
380.38	437.88
380.606	448.88
380.831	450.88
381.057	461.88
381.282	457.88
381.507	441.88
381.733	439.88
381.958	444.88
382.184	452.88
382.409	478.88
382.634	495.88
382.86	455.88
383.085	474.88
383.31	480.88
383.535	495.88
383.761	465.88
383.986	486.88
384.211	481.88
384.436	496.88
384.662	485.88
384.887	476.88
385.112	474.88
385.337	524.88
385.562	487.88
385.787	503.88
386.013	513.88
386.238	495.88
386.463	506.88
386.688	504.88
386.913	480.88
387.138	489.88
387.363	509.88
387.588	481.88
387.813	503.88
388.038	513.88
388.263	503.88
388.488	491.88
388.713	487.88
388.938	494.88
389.163	506.88
389.387	520.88
389.612	511.88
389.837	506.88
390.062	476.88
390.287	502.88
390.512	486.88
390.736	495.88
390.961	495.88
391.186	496.88
391.411	501.88
391.636	497.88
391.86	511.88
392.085	525.88
392.31	520.88
392.534	517.88
392.759	519.88
392.984	488.88
393.208	509.88
393.433	506.88
393.658	537.88
393.882	493.88
394.107	521.88
394.331	519.88
394.556	512.88
394.78	527.88
395.005	534.88
395.229	485.88
395.454	521.88
395.678	526.88
395.903	545.88
396.127	551.88
396.352	567.88
396.576	527.88
396.801	540.88
397.025	549.88
397.249	537.88
397.474	524.88
397.698	547.88
397.922	560.88
398.147	566.88
398.371	588.88
398.595	586.88
398.82	579.88
399.044	581.88
399.268	615.88
399.492	645.88
399.717	688.88
399.941	726.88
400.165	721.88
400.389	704.88
400.613	663.88
400.837	627.88
401.062	615.88
401.286	599.88
401.51	565.88
401.734	574.88
401.958	568.88
402.182	597.88
402.406	603.88
402.63	586.88
402.854	601.88
403.078	602.88
403.302	598.88
403.526	619.88
403.75	602.88
403.974	604.88
404.198	607.88
404.422	593.88
404.645	620.88
404.869	632.88
405.093	646.88
405.317	691.88
405.541	740.88
405.765	688.88
405.988	653.88
406.212	640.88
406.436	663.88
406.66	674.88
406.883	671.88
407.107	711.88
407.331	731.88
407.555	801.88
407.778	803.88
408.002	752.88
408.226	681.88
408.449	672.88
408.673	679.88
408.896	706.88
409.12	770.88
409.344	707.88
409.567	637.88
409.791	642.88
410.014	631.88
410.238	609.88
410.461	599.88
410.685	604.88
410.908	623.88
411.132	681.88
411.355	697.88
411.578	686.88
411.802	629.88
412.025	617.88
412.249	639.88
412.472	645.88
412.695	705.88
412.919	686.88
413.142	634.88
413.365	623.88
413.589	605.88
413.812	597.88
414.035	587.88
414.258	595.88
414.482	566.88
414.705	593.88
414.928	594.88
415.151	581.88
415.374	587.88
415.597	602.88
415.821	573.88
416.044	575.88
416.267	591.88
416.49	578.88
416.713	564.88
416.936	573.88
417.159	563.88
417.382	565.88
417.605	567.88
417.828	578.88
418.051	603.88
418.274	594.88
418.497	605.88
418.72	588.88
418.943	585.88
419.166	624.88
419.389	613.88
419.611	617.88
419.834	629.88
420.057	619.88
420.28	609.88
420.503	615.88
420.726	606.88
420.948	603.88
421.171	683.88
421.394	689.88
421.617	633.88
421.839	600.88
422.062	593.88
422.285	615.88
422.507	689.88
422.73	776.88
422.953	760.88
423.175	675.88
423.398	639.88
423.621	639.88
423.843	650.88
424.066	658.88
424.288	638.88
424.511	705.88
424.733	732.88
424.956	816.88
425.178	790.88
425.401	802.88
425.623	827.88
425.846	701.88
426.068	652.88
426.291	653.88
426.513	636.88
426.735	681.88
426.958	691.88
427.18	795.88
427.402	970.88
427.625	1019.88
427.847	923.88
428.069	792.88
428.292	701.88
428.514	647.88
428.736	615.88
428.958	600.88
429.181	583.88
429.403	593.88
429.625	622.88
429.847	647.88
430.069	734.88
430.292	702.88
430.514	632.88
430.736	606.88
430.958	597.88
431.18	586.88
431.402	564.88
431.624	551.88
431.846	565.88
432.068	549.88
432.29	569.88
432.512	557.88
432.734	592.88
432.956	569.88
433.178	595.88
433.4	594.88
433.622	591.88
433.844	577.88
434.066	574.88
434.287	572.88
434.509	565.88
434.731	570.88
434.953	633.88
435.175	629.88
435.397	659.88
435.618	651.88
435.84	696.88
436.062	830.88
436.284	881.88
436.505	745.88
436.727	665.88
436.949	640.88
437.17	631.88
437.392	609.88
437.614	605.88
437.835	656.88
438.057	791.88
438.278	873.88
438.5	892.88
438.721	978.88
438.943	944.88
439.165	716.88
439.386	666.88
439.608	676.88
439.829	663.88
440.05	677.88
440.272	766.88
440.493	714.88
440.715	653.88
440.936	632.88
441.158	624.88
441.379	606.88
441.6	646.88
441.822	620.88
442.043	697.88
442.264	797.88
442.486	829.88
442.707	745.88
442.928	679.88
443.149	678.88
443.371	711.88
443.592	719.88
443.813	849.88
444.034	931.88
444.255	764.88
444.476	699.88
444.698	668.88
444.919	661.88
445.14	800.88
445.361	713.88
445.582	717.88
445.803	784.88
446.024	892.88
446.245	899.88
446.466	830.88
446.687	706.88
446.908	649.88
447.129	599.88
447.35	591.88
447.571	588.88
447.792	593.88
448.013	607.88
448.234	629.88
448.455	657.88
448.675	800.88
448.896	921.88
449.117	766.88
449.338	745.88
449.559	815.88
449.779	983.88
450	783.88
450.221	631.88
450.442	631.88
450.662	575.88
450.883	591.88
451.104	603.88
451.324	584.88
451.545	573.88
451.766	567.88
451.986	549.88
452.207	543.88
452.428	543.88
452.648	540.88
452.869	540.88
453.089	560.88
453.31	549.88
453.53	538.88
453.751	542.88
453.971	557.88
454.192	565.88
454.412	551.88
454.633	547.88
454.853	529.88
455.073	537.88
455.294	576.88
455.514	629.88
455.734	622.88
455.955	521.88
456.175	531.88
456.395	521.88
456.616	527.88
456.836	519.88
457.056	503.88
457.276	488.88
457.497	527.88
457.717	515.88
457.937	521.88
458.157	516.88
458.377	533.88
458.598	551.88
458.818	601.88
459.038	713.88
459.258	726.88
459.478	621.88
459.698	575.88
459.918	571.88
460.138	564.88
460.358	583.88
460.578	609.88
460.798	585.88
461.018	588.88
461.238	577.88
461.458	595.88
461.678	579.88
461.898	584.88
462.118	596.88
462.338	601.88
462.558	599.88
462.777	623.88
462.997	636.88
463.217	655.88
463.437	657.88
463.657	633.88
463.876	633.88
464.096	623.88
464.316	616.88
464.536	622.88
464.755	658.88
464.975	641.88
465.195	681.88
465.414	735.88
465.634	655.88
465.854	615.88
466.073	578.88
466.293	571.88
466.512	563.88
466.732	575.88
466.951	568.88
467.171	529.88
467.391	551.88
467.61	575.88
467.829	565.88
468.049	594.88
468.268	557.88
468.488	544.88
468.707	555.88
468.927	547.88
469.146	507.88
469.365	527.88
469.585	530.88
469.804	531.88
470.023	575.88
470.243	559.88
470.462	572.88
470.681	587.88
470.901	567.88
471.12	575.88
471.339	573.88
471.558	587.88
471.777	579.88
471.997	570.88
472.216	550.88
472.435	610.88
472.654	579.88
472.873	569.88
473.092	561.88
473.311	557.88
473.53	578.88
473.749	583.88
473.968	623.88
474.187	742.88
474.406	733.88
474.625	601.88
474.844	593.88
475.063	568.88
475.282	539.88
475.501	572.88
475.72	573.88
475.939	568.88
476.158	563.88
476.377	589.88
476.596	595.88
476.814	590.88
477.033	601.88
477.252	605.88
477.471	623.88
477.69	601.88
477.908	616.88
478.127	614.88
478.346	608.88
478.564	649.88
478.783	621.88
479.002	629.88
479.22	673.88
479.439	664.88
479.658	683.88
479.876	677.88
480.095	692.88
480.313	711.88
480.532	705.88
480.751	697.88
480.969	702.88
481.188	767.88
481.406	821.88
481.624	724.88
481.843	704.88
482.061	683.88
482.28	685.88
482.498	664.88
482.717	695.88
482.935	675.88
483.153	670.88
483.372	635.88
483.59	673.88
483.808	670.88
484.027	652.88
484.245	673.88
484.463	657.88
484.681	677.88
484.9	677.88
485.118	689.88
485.336	671.88
485.554	679.88
485.772	669.88
485.99	685.88
486.209	673.88
486.427	684.88
486.645	685.88
486.863	734.88
487.081	735.88
487.299	694.88
487.517	717.88
487.735	695.88
487.953	702.88
488.171	708.88
488.389	705.88
488.607	723.88
488.825	704.88
489.043	695.88
489.261	702.88
489.479	727.88
489.696	726.88
489.914	698.88
490.132	749.88
490.35	745.88
490.568	745.88
490.786	772.88
491.003	782.88
491.221	751.88
491.439	820.88
491.657	796.88
491.874	807.88
492.092	819.88
492.31	827.88
492.527	810.88
492.745	832.88
492.963	805.88
493.18	814.88
493.398	876.88
493.615	853.88
493.833	832.88
494.05	837.88
494.268	835.88
494.485	851.88
494.703	865.88
494.92	821.88
495.138	853.88
495.355	827.88
495.573	831.88
495.79	840.88
496.008	853.88
496.225	872.88
496.442	852.88
496.66	819.88
496.877	856.88
497.094	847.88
497.312	839.88
497.529	852.88
497.746	899.88
497.963	876.88
498.181	935.88
498.398	928.88
498.615	941.88
498.832	979.88
499.049	974.88
499.267	992.88
499.484	1032.88
499.701	1071.88
499.918	1098.88
500.135	1138.88
500.352	1221.88
500.569	1231.88
500.786	1237.88
501.003	1229.88
501.22	1180.88
501.437	1145.88
501.654	1115.88
501.871	1088.88
502.088	1027.88
502.305	1013.88
502.522	957.88
502.739	947.88
502.956	927.88
503.172	895.88
503.389	908.88
503.606	888.88
503.823	901.88
504.04	892.88
504.256	880.88
504.473	864.88
504.69	853.88
504.907	847.88
505.123	823.88
505.34	838.88
505.557	825.88
505.773	807.88
505.99	830.88
506.207	835.88
506.423	825.88
506.64	808.88
506.856	784.88
507.073	792.88
507.289	751.88
507.506	767.88
507.722	814.88
507.939	811.88
508.155	797.88
508.372	762.88
508.588	765.88
508.805	761.88
509.021	748.88
509.238	785.88
509.454	781.88
509.67	772.88
509.887	750.88
510.103	755.88
510.319	761.88
510.536	864.88
510.752	1332.88
510.968	1091.88
511.184	778.88
511.401	731.88
511.617	726.88
511.833	727.88
512.049	725.88
512.265	728.88
512.481	748.88
512.698	710.88
512.914	696.88
513.13	735.88
513.346	703.88
513.562	720.88
513.778	693.88
513.994	712.88
514.21	725.88
514.426	735.88
514.642	800.88
514.858	816.88
515.074	857.88
515.29	968.88
515.506	1373.88
515.721	1153.88
515.937	847.88
516.153	807.88
516.369	751.88
516.585	776.88
516.801	744.88
517.016	741.88
517.232	739.88
517.448	760.88
517.664	734.88
517.879	765.88
518.095	745.88
518.311	749.88
518.527	753.88
518.742	750.88
518.958	734.88
519.173	723.88
519.389	708.88
519.605	746.88
519.82	734.88
520.036	719.88
520.251	749.88
520.467	789.88
520.682	775.88
520.898	795.88
521.113	787.88
521.329	822.88
521.544	903.88
521.76	1107.88
521.975	1759.88
522.19	1707.88
522.406	974.88
522.621	796.88
522.836	734.88
523.052	715.88
523.267	680.88
523.482	639.88
523.698	664.88
523.913	645.88
524.128	655.88
524.343	646.88
524.559	627.88
524.774	632.88
524.989	639.88
525.204	620.88
525.419	636.88
525.634	622.88
525.849	607.88
526.064	604.88
526.28	615.88
526.495	590.88
526.71	608.88
526.925	611.88
527.14	595.88
527.355	576.88
527.57	573.88
527.785	592.88
527.999	594.88
528.214	605.88
528.429	605.88
528.644	590.88
528.859	588.88
529.074	589.88
529.289	632.88
529.503	694.88
529.718	682.88
529.933	649.88
530.148	607.88
530.363	607.88
530.577	608.88
530.792	545.88
531.007	598.88
531.221	597.88
531.436	584.88
531.651	577.88
531.865	577.88
532.08	569.88
532.295	567.88
532.509	560.88
532.724	567.88
532.938	585.88
533.153	573.88
533.367	569.88
533.582	553.88
533.796	565.88
534.011	555.88
534.225	586.88
534.44	559.88
534.654	554.88
534.868	558.88
535.083	537.88
535.297	551.88
535.511	554.88
535.726	583.88
535.94	596.88
536.154	554.88
536.369	525.88
536.583	585.88
536.797	552.88
537.011	540.88
537.225	533.88
537.44	525.88
537.654	540.88
537.868	536.88
538.082	534.88
538.296	543.88
538.51	562.88
538.724	539.88
538.938	540.88
539.153	534.88
539.367	569.88
539.581	559.88
539.795	544.88
540.009	535.88
540.222	533.88
540.436	549.88
540.65	541.88
540.864	539.88
541.078	545.88
541.292	554.88
541.506	537.88
541.72	540.88
541.934	531.88
542.147	551.88
542.361	517.88
542.575	547.88
542.789	535.88
543.002	523.88
543.216	537.88
543.43	521.88
543.644	536.88
543.857	550.88
544.071	542.88
544.285	527.88
544.498	527.88
544.712	533.88
544.925	545.88
545.139	560.88
545.352	527.88
545.566	516.88
545.779	539.88
545.993	525.88
546.206	515.88
546.42	532.88
546.633	527.88
546.847	525.88
547.06	525.88
547.274	523.88
547.487	511.88
547.7	517.88
547.914	522.88
548.127	534.88
548.34	515.88
548.554	492.88
548.767	532.88
548.98	524.88
549.193	534.88
549.407	533.88
549.62	502.88
549.833	521.88
550.046	524.88
550.259	519.88
550.473	525.88
550.686	496.88
550.899	502.88
551.112	515.88
551.325	499.88
551.538	525.88
551.751	483.88
551.964	524.88
552.177	499.88
552.39	508.88
552.603	515.88
552.816	509.88
553.029	487.88
553.242	526.88
553.455	522.88
553.667	545.88
553.88	547.88
554.093	518.88
554.306	537.88
554.519	543.88
554.732	527.88
554.944	494.88
555.157	484.88
555.37	482.88
555.583	494.88
555.795	484.88
556.008	470.88
556.221	493.88
556.433	484.88
556.646	476.88
556.859	472.88
557.071	491.88
557.284	469.88
557.496	472.88
557.709	459.88
557.921	468.88
558.134	441.88
558.346	469.88
558.559	462.88
558.771	460.88
558.984	456.88
559.196	439.88
559.409	455.88
559.621	477.88
559.833	459.88
560.046	454.88
560.258	447.88
560.47	463.88
560.683	445.88
560.895	450.88
561.107	457.88
561.32	468.88
561.532	467.88
561.744	466.88
561.956	444.88
562.168	463.88
562.381	463.88
562.593	474.88
562.805	488.88
563.017	472.88
563.229	468.88
563.441	456.88
563.653	468.88
563.865	462.88
564.077	481.88
564.289	476.88
564.501	467.88
564.713	467.88
564.925	473.88
565.137	499.88
565.349	523.88
565.561	487.88
565.773	517.88
565.985	501.88
566.197	529.88
566.408	542.88
566.62	545.88
566.832	544.88
567.044	574.88
567.255	576.88
567.467	579.88
567.679	582.88
567.891	589.88
568.102	607.88
568.314	597.88
568.526	549.88
568.737	559.88
568.949	519.88
569.161	488.88
569.372	480.88
569.584	484.88
569.795	468.88
570.007	476.88
570.218	533.88
570.43	497.88
570.641	449.88
570.853	447.88
571.064	464.88
571.276	453.88
571.487	464.88
571.698	435.88
571.91	428.88
572.121	435.88
572.333	432.88
572.544	421.88
572.755	425.88
572.966	420.88
573.178	426.88
573.389	414.88
573.6	401.88
573.811	395.88
574.023	413.88
574.234	392.88
574.445	394.88
574.656	412.88
574.867	388.88
575.078	383.88
575.289	371.88
575.501	379.88
575.712	395.88
575.923	390.88
576.134	419.88
576.345	376.88
576.556	389.88
576.767	375.88
576.978	389.88
577.188	351.88
577.399	375.88
577.61	380.88
577.821	378.88
578.032	385.88
578.243	416.88
578.454	627.88
578.665	497.88
578.875	389.88
579.086	373.88
579.297	365.88
579.508	377.88
579.718	361.88
579.929	359.88
580.14	342.88
580.35	377.88
580.561	384.88
580.772	364.88
580.982	335.88
581.193	341.88
581.403	338.88
581.614	355.88
581.825	358.88
582.035	358.88
582.246	362.88
582.456	359.88
582.667	353.88
582.877	345.88
583.087	340.88
583.298	372.88
583.508	368.88
583.719	354.88
583.929	365.88
584.139	345.88
584.35	356.88
584.56	353.88
584.77	334.88
584.981	362.88
585.191	366.88
585.401	345.88
585.611	341.88
585.821	348.88
586.032	328.88
586.242	355.88
586.452	345.88
586.662	343.88
586.872	351.88
587.082	360.88
587.292	345.88
587.502	357.88
587.713	348.88
587.923	355.88
588.133	345.88
588.343	334.88
588.553	338.88
588.762	352.88
588.972	368.88
589.182	370.88
589.392	353.88
589.602	352.88
589.812	352.88
590.022	339.88
590.232	337.88
590.441	346.88
590.651	347.88
590.861	336.88
591.071	368.88
591.281	345.88
591.49	362.88
591.7	350.88
591.91	352.88
592.119	350.88
592.329	373.88
592.539	337.88
592.748	375.88
592.958	364.88
593.167	355.88
593.377	371.88
593.587	378.88
593.796	368.88
594.006	383.88
594.215	359.88
594.424	363.88
594.634	377.88
594.843	364.88
595.053	348.88
595.262	345.88
595.472	341.88
595.681	348.88
595.89	363.88
596.1	337.88
596.309	340.88
596.518	334.88
596.727	343.88
596.937	331.88
597.146	336.88
597.355	332.88
597.564	335.88
597.774	319.88
597.983	327.88
598.192	301.88
598.401	321.88
598.61	318.88
598.819	315.88
599.028	294.88
599.237	299.88
599.446	285.88
599.655	311.88
599.864	307.88
600.073	309.88
600.282	316.88
600.491	303.88
600.7	311.88
600.909	312.88
601.118	305.88
601.327	305.88
601.536	296.88
601.745	307.88
601.953	318.88
602.162	307.88
602.371	295.88
602.58	293.88
602.789	304.88
602.997	286.88
603.206	291.88
603.415	292.88
603.623	301.88
603.832	289.88
604.041	297.88
604.249	292.88
604.458	287.88
604.666	294.88
604.875	303.88
605.084	272.88
605.292	289.88
605.501	271.88
605.709	275.88
605.918	272.88
606.126	273.88
606.334	298.88
606.543	294.88
606.751	282.88
606.96	283.88
607.168	274.88
607.376	286.88
607.585	273.88
607.793	265.88
608.001	284.88
608.21	268.88
608.418	271.88
608.626	276.88
608.834	276.88
609.043	272.88
609.251	274.88
609.459	283.88
609.667	283.88
609.875	276.88
610.083	275.88
610.291	263.88
610.499	288.88
610.707	302.88
610.916	257.88
611.124	263.88
611.332	293.88
611.54	290.88
611.748	279.88
611.955	273.88
612.163	275.88
612.371	272.88
612.579	251.88
612.787	276.88
612.995	284.88
613.203	277.88
613.411	266.88
613.618	271.88
613.826	293.88
614.034	276.88
614.242	275.88
614.449	250.88
614.657	269.88
614.865	259.88
615.072	270.88
615.28	267.88
615.488	276.88
615.695	275.88
615.903	276.88
616.111	259.88
616.318	262.88
616.526	282.88
616.733	286.88
616.941	262.88
617.148	260.88
617.356	271.88
617.563	267.88
617.771	272.88
617.978	263.88
618.185	258.88
618.393	269.88
618.6	277.88
618.807	263.88
619.015	278.88
619.222	275.88
619.429	269.88
619.637	256.88
619.844	258.88
620.051	255.88
620.258	256.88
620.466	242.88
620.673	263.88
620.88	257.88
621.087	264.88
621.294	268.88
621.501	252.88
621.708	233.88
621.915	271.88
622.122	243.88
622.329	250.88
622.536	270.88
622.743	249.88
622.95	248.88
623.157	257.88
623.364	251.88
623.571	263.88
623.778	247.88
623.985	256.88
624.192	241.88
624.399	241.88
624.606	248.88
624.812	229.88
625.019	216.88
625.226	239.88
625.433	246.88
625.639	227.88
625.846	225.88
626.053	231.88
626.259	238.88
626.466	240.88
626.673	243.88
626.879	243.88
627.086	248.88
627.293	236.88
627.499	245.88
627.706	257.88
627.912	245.88
628.119	227.88
628.325	229.88
628.532	232.88
628.738	227.88
628.945	234.88
629.151	237.88
629.357	205.88
629.564	212.88
629.77	230.88
629.976	239.88
630.183	219.88
630.389	223.88
630.595	219.88
630.802	215.88
631.008	225.88
631.214	220.88
631.42	221.88
631.627	217.88
631.833	213.88
632.039	221.88
632.245	231.88
632.451	215.88
632.657	219.88
632.863	214.88
633.069	222.88
633.275	217.88
633.481	208.88
633.688	215.88
633.893	218.88
634.099	220.88
634.305	206.88
634.511	183.88
634.717	199.88
634.923	201.88
635.129	219.88
635.335	202.88
635.541	201.88
635.747	204.88
635.952	183.88
636.158	197.88
636.364	208.88
636.57	215.88
636.775	208.88
636.981	209.88
637.187	210.88
637.392	196.88
637.598	204.88
637.804	194.88
638.009	213.88
638.215	207.88
638.421	215.88
638.626	192.88
638.832	191.88
639.037	182.88
639.243	189.88
639.448	196.88
639.654	212.88
639.859	178.88
640.065	189.88
640.27	189.88
640.475	195.88
640.681	175.88
640.886	224.88
641.091	205.88
641.297	190.88
641.502	188.88
641.707	180.88
641.913	187.88
642.118	198.88
642.323	191.88
642.528	186.88
642.733	181.88
642.939	186.88
643.144	185.88
643.349	188.88
643.554	188.88
643.759	190.88
643.964	188.88
644.169	199.88
644.374	181.88
644.579	175.88
644.784	183.88
644.989	182.88
645.194	209.88
645.399	191.88
645.604	171.88
645.809	180.88
646.014	178.88
646.219	194.88
646.423	188.88
646.628	174.88
646.833	192.88
647.038	205.88
647.243	196.88
647.447	190.88
647.652	185.88
647.857	181.88
648.062	195.88
648.266	189.88
648.471	186.88
648.676	199.88
648.88	181.88
649.085	204.88
649.289	186.88
649.494	200.88
649.698	204.88
649.903	207.88
650.107	191.88
650.312	173.88
650.516	168.88
650.721	167.88
650.925	164.88
651.13	159.88
651.334	163.88
651.539	172.88
651.743	152.88
651.947	171.88
652.152	153.88
652.356	155.88
652.56	139.88
652.764	150.88
652.969	163.88
653.173	165.88
653.377	152.88
653.581	163.88
653.785	154.88
653.99	149.88
654.194	160.88
654.398	164.88
654.602	151.88
654.806	134.88
655.01	169.88
655.214	142.88
655.418	136.88
655.622	137.88
655.826	144.88
656.03	150.88
656.234	136.88
656.438	119.88
656.642	165.88
656.846	149.88
657.049	128.88
657.253	132.88
657.457	117.88
657.661	127.88
657.865	121.88
658.068	131.88
658.272	124.88
658.476	114.88
658.68	123.88
658.883	106.88
659.087	113.88
659.291	105.88
659.494	94.88
659.698	95.88
659.901	97.88
660.105	107.88
660.309	91.88
660.512	93.88
660.716	94.88
660.919	89.88
661.123	88.88
661.326	93.88
661.53	92.88
661.733	95.88
661.936	94.88
662.14	96.88
662.343	99.88
662.546	98.88
662.75	90.88
662.953	78.88
663.156	86.88
663.36	71.88
663.563	97.88
663.766	87.88
663.969	80.88
664.173	80.88
664.376	90.88
664.579	90.88
664.782	87.88
664.985	68.88
665.188	86.88
665.391	83.88
665.594	78.88
665.797	92.88
666	76.88
666.203	86.88
666.406	87.88
666.609	78.88
666.812	77.88
667.015	90.88
667.218	79.88
667.421	85.88
667.624	85.88
667.827	90.88
668.03	89.88
668.232	96.88
668.435	92.88
668.638	85.88
668.841	80.88
669.043	94.88
669.246	75.88
669.449	78.88
669.651	89.88
669.854	77.88
670.057	78.88
670.259	81.88
670.462	83.88
670.665	83.88
670.867	71.88
671.07	76.88
671.272	100.88
671.475	93.88
671.677	85.88
671.88	87.88
672.082	89.88
672.284	92.88
672.487	92.88
672.689	71.88
672.892	65.88
