Data from 1966.PennyLincolnUp.Lamp.En5.5.200Scan.071719.P1.Scan2.head_HRD10591_14-19-43-290.txt Node
Date: Thu Jul 18 14:19:43 EDT 2019
User: cochatt
Spectrometer: HR+D1059
Trigger mode: 1
Integration Time (sec): 1.000000E-1
Scans to average: 1
Electric dark correction enabled: true
Nonlinearity correction enabled: false
Boxcar width: 0
XAxis mode: Wavelengths
Number of Pixels in Spectrum: 2048
>>>>>Begin Spectral Data<<<<<
223.165	-11.62
223.4	-11.62
223.635	-11.62
223.869	-12.62
224.104	-21.62
224.338	-2.62
224.573	-14.62
224.808	-20.62
225.042	-20.62
225.277	-14.62
225.511	12.38
225.746	11.38
225.98	19.38
226.215	9.38
226.449	7.38
226.683	12.38
226.918	8.38
227.152	38.38
227.387	32.38
227.621	30.38
227.856	24.38
228.09	38.38
228.324	45.38
228.559	50.38
228.793	58.38
229.027	89.38
229.262	116.38
229.496	116.38
229.73	134.38
229.964	162.38
230.199	134.38
230.433	118.38
230.667	105.38
230.901	121.38
231.136	121.38
231.37	123.38
231.604	114.38
231.838	120.38
232.072	111.38
232.306	109.38
232.541	122.38
232.775	103.38
233.009	105.38
233.243	107.38
233.477	127.38
233.711	102.38
233.945	121.38
234.179	107.38
234.413	121.38
234.647	126.38
234.881	115.38
235.115	106.38
235.349	113.38
235.583	126.38
235.817	130.38
236.051	130.38
236.285	123.38
236.519	129.38
236.753	141.38
236.987	138.38
237.221	178.38
237.455	230.38
237.689	183.38
237.922	138.38
238.156	135.38
238.39	126.38
238.624	129.38
238.858	124.38
239.091	127.38
239.325	125.38
239.559	138.38
239.793	127.38
240.027	130.38
240.26	135.38
240.494	168.38
240.728	153.38
240.961	148.38
241.195	150.38
241.429	150.38
241.662	150.38
241.896	136.38
242.13	141.38
242.363	135.38
242.597	146.38
242.83	131.38
243.064	132.38
243.298	145.38
243.531	149.38
243.765	139.38
243.998	142.38
244.232	142.38
244.465	157.38
244.699	142.38
244.932	151.38
245.166	146.38
245.399	150.38
245.633	162.38
245.866	152.38
246.099	154.38
246.333	160.38
246.566	161.38
246.8	153.38
247.033	154.38
247.266	174.38
247.5	166.38
247.733	158.38
247.966	165.38
248.2	161.38
248.433	167.38
248.666	187.38
248.899	184.38
249.133	197.38
249.366	210.38
249.599	197.38
249.832	198.38
250.066	191.38
250.299	193.38
250.532	215.38
250.765	209.38
250.998	238.38
251.231	220.38
251.465	212.38
251.698	209.38
251.931	204.38
252.164	222.38
252.397	205.38
252.63	216.38
252.863	222.38
253.096	218.38
253.329	237.38
253.562	219.38
253.795	227.38
254.028	212.38
254.261	217.38
254.494	215.38
254.727	268.38
254.96	289.38
255.193	287.38
255.426	265.38
255.659	249.38
255.892	252.38
256.124	234.38
256.357	255.38
256.59	228.38
256.823	222.38
257.056	220.38
257.289	224.38
257.521	225.38
257.754	208.38
257.987	221.38
258.22	206.38
258.452	215.38
258.685	219.38
258.918	204.38
259.151	214.38
259.383	222.38
259.616	222.38
259.849	235.38
260.081	260.38
260.314	259.38
260.547	257.38
260.779	234.38
261.012	249.38
261.244	236.38
261.477	213.38
261.71	215.38
261.942	224.38
262.175	232.38
262.407	231.38
262.64	229.38
262.872	212.38
263.105	234.38
263.337	219.38
263.57	220.38
263.802	206.38
264.035	210.38
264.267	216.38
264.499	201.38
264.732	218.38
264.964	221.38
265.197	195.38
265.429	224.38
265.661	225.38
265.894	228.38
266.126	210.38
266.358	226.38
266.591	229.38
266.823	230.38
267.055	220.38
267.287	245.38
267.52	241.38
267.752	237.38
267.984	231.38
268.216	232.38
268.448	251.38
268.681	229.38
268.913	242.38
269.145	275.38
269.377	275.38
269.609	279.38
269.841	281.38
270.073	278.38
270.306	297.38
270.538	303.38
270.77	319.38
271.002	307.38
271.234	296.38
271.466	290.38
271.698	314.38
271.93	323.38
272.162	324.38
272.394	309.38
272.626	310.38
272.858	291.38
273.09	276.38
273.322	267.38
273.553	283.38
273.785	282.38
274.017	279.38
274.249	279.38
274.481	263.38
274.713	255.38
274.945	284.38
275.176	284.38
275.408	259.38
275.64	267.38
275.872	268.38
276.104	266.38
276.335	271.38
276.567	283.38
276.799	297.38
277.031	313.38
277.262	327.38
277.494	352.38
277.726	299.38
277.957	295.38
278.189	291.38
278.421	283.38
278.652	306.38
278.884	275.38
279.115	273.38
279.347	274.38
279.579	281.38
279.81	259.38
280.042	279.38
280.273	269.38
280.505	282.38
280.736	272.38
280.968	264.38
281.199	285.38
281.431	270.38
281.662	259.38
281.894	268.38
282.125	279.38
282.356	306.38
282.588	319.38
282.819	315.38
283.051	283.38
283.282	275.38
283.513	283.38
283.745	287.38
283.976	290.38
284.207	284.38
284.439	292.38
284.67	278.38
284.901	301.38
285.132	272.38
285.364	277.38
285.595	292.38
285.826	277.38
286.057	277.38
286.288	278.38
286.52	268.38
286.751	287.38
286.982	284.38
287.213	282.38
287.444	289.38
287.675	299.38
287.906	314.38
288.138	309.38
288.369	319.38
288.6	334.38
288.831	296.38
289.062	286.38
289.293	307.38
289.524	272.38
289.755	297.38
289.986	302.38
290.217	315.38
290.448	282.38
290.679	301.38
290.91	285.38
291.141	298.38
291.371	285.38
291.602	284.38
291.833	310.38
292.064	271.38
292.295	305.38
292.526	297.38
292.757	301.38
292.987	306.38
293.218	294.38
293.449	280.38
293.68	299.38
293.91	278.38
294.141	314.38
294.372	305.38
294.603	302.38
294.833	306.38
295.064	302.38
295.295	299.38
295.525	322.38
295.756	311.38
295.987	311.38
296.217	316.38
296.448	340.38
296.679	312.38
296.909	296.38
297.14	305.38
297.37	312.38
297.601	294.38
297.831	289.38
298.062	303.38
298.292	321.38
298.523	316.38
298.753	302.38
298.984	297.38
299.214	323.38
299.445	316.38
299.675	303.38
299.905	321.38
300.136	306.38
300.366	327.38
300.597	324.38
300.827	303.38
301.057	337.38
301.288	352.38
301.518	334.38
301.748	341.38
301.979	345.38
302.209	338.38
302.439	339.38
302.669	358.38
302.9	322.38
303.13	327.38
303.36	329.38
303.59	334.38
303.82	347.38
304.051	341.38
304.281	345.38
304.511	330.38
304.741	338.38
304.971	319.38
305.201	356.38
305.431	334.38
305.661	358.38
305.891	339.38
306.121	358.38
306.352	348.38
306.582	356.38
306.812	349.38
307.042	357.38
307.272	329.38
307.502	335.38
307.731	351.38
307.961	334.38
308.191	330.38
308.421	341.38
308.651	361.38
308.881	342.38
309.111	347.38
309.341	363.38
309.571	353.38
309.8	354.38
310.03	394.38
310.26	389.38
310.49	395.38
310.72	394.38
310.949	396.38
311.179	424.38
311.409	400.38
311.639	379.38
311.868	382.38
312.098	387.38
312.328	399.38
312.557	411.38
312.787	408.38
313.017	407.38
313.246	414.38
313.476	377.38
313.706	393.38
313.935	398.38
314.165	386.38
314.394	403.38
314.624	408.38
314.853	408.38
315.083	386.38
315.312	389.38
315.542	379.38
315.771	385.38
316.001	362.38
316.23	379.38
316.46	371.38
316.689	378.38
316.919	404.38
317.148	390.38
317.377	376.38
317.607	385.38
317.836	385.38
318.065	373.38
318.295	388.38
318.524	396.38
318.753	385.38
318.983	393.38
319.212	381.38
319.441	402.38
319.67	410.38
319.9	414.38
320.129	382.38
320.358	407.38
320.587	390.38
320.816	399.38
321.046	399.38
321.275	408.38
321.504	403.38
321.733	418.38
321.962	423.38
322.191	426.38
322.42	424.38
322.649	445.38
322.878	442.38
323.108	451.38
323.337	462.38
323.566	492.38
323.795	535.38
324.024	587.38
324.253	700.38
324.482	965.38
324.71	1548.38
324.939	2348.38
325.168	2028.38
325.397	986.38
325.626	643.38
325.855	558.38
326.084	512.38
326.313	511.38
326.542	488.38
326.77	577.38
326.999	661.38
327.228	905.38
327.457	1374.38
327.686	1754.38
327.914	1132.38
328.143	709.38
328.372	620.38
328.6	606.38
328.829	555.38
329.058	574.38
329.287	597.38
329.515	558.38
329.744	528.38
329.972	533.38
330.201	538.38
330.43	581.38
330.658	622.38
330.887	620.38
331.115	632.38
331.344	550.38
331.572	529.38
331.801	486.38
332.03	497.38
332.258	486.38
332.486	478.38
332.715	483.38
332.943	484.38
333.172	477.38
333.4	480.38
333.629	496.38
333.857	511.38
334.085	515.38
334.314	525.38
334.542	583.38
334.771	609.38
334.999	546.38
335.227	498.38
335.455	479.38
335.684	481.38
335.912	469.38
336.14	486.38
336.369	477.38
336.597	483.38
336.825	481.38
337.053	449.38
337.281	471.38
337.51	448.38
337.738	482.38
337.966	466.38
338.194	487.38
338.422	469.38
338.65	460.38
338.878	458.38
339.106	446.38
339.334	457.38
339.562	449.38
339.79	427.38
340.018	454.38
340.246	457.38
340.474	458.38
340.702	458.38
340.93	455.38
341.158	443.38
341.386	453.38
341.614	474.38
341.842	441.38
342.07	460.38
342.298	442.38
342.526	428.38
342.754	446.38
342.981	408.38
343.209	436.38
343.437	442.38
343.665	437.38
343.893	443.38
344.12	459.38
344.348	444.38
344.576	447.38
344.804	463.38
345.031	475.38
345.259	470.38
345.487	465.38
345.714	451.38
345.942	439.38
346.17	439.38
346.397	413.38
346.625	433.38
346.853	409.38
347.08	435.38
347.308	429.38
347.535	445.38
347.763	456.38
347.99	423.38
348.218	448.38
348.445	470.38
348.673	474.38
348.9	439.38
349.128	433.38
349.355	427.38
349.583	425.38
349.81	412.38
350.037	421.38
350.265	417.38
350.492	423.38
350.72	443.38
350.947	449.38
351.174	437.38
351.402	460.38
351.629	443.38
351.856	453.38
352.083	431.38
352.311	459.38
352.538	471.38
352.765	433.38
352.992	437.38
353.22	446.38
353.447	458.38
353.674	439.38
353.901	439.38
354.128	409.38
354.355	409.38
354.583	398.38
354.81	398.38
355.037	420.38
355.264	430.38
355.491	405.38
355.718	393.38
355.945	405.38
356.172	426.38
356.399	430.38
356.626	408.38
356.853	417.38
357.08	422.38
357.307	407.38
357.534	420.38
357.761	425.38
357.988	398.38
358.215	417.38
358.441	408.38
358.668	422.38
358.895	417.38
359.122	445.38
359.349	422.38
359.576	451.38
359.802	455.38
360.029	475.38
360.256	509.38
360.483	490.38
360.709	459.38
360.936	468.38
361.163	441.38
361.39	444.38
361.616	445.38
361.843	455.38
362.07	433.38
362.296	463.38
362.523	443.38
362.749	447.38
362.976	435.38
363.203	438.38
363.429	423.38
363.656	437.38
363.882	415.38
364.109	426.38
364.335	445.38
364.562	425.38
364.788	431.38
365.015	412.38
365.241	419.38
365.468	444.38
365.694	451.38
365.92	434.38
366.147	433.38
366.373	421.38
366.599	436.38
366.826	430.38
367.052	419.38
367.278	422.38
367.505	423.38
367.731	435.38
367.957	434.38
368.184	434.38
368.41	420.38
368.636	478.38
368.862	443.38
369.089	441.38
369.315	439.38
369.541	427.38
369.767	440.38
369.993	431.38
370.219	430.38
370.445	430.38
370.672	411.38
370.898	414.38
371.124	423.38
371.35	449.38
371.576	419.38
371.802	452.38
372.028	451.38
372.254	436.38
372.48	429.38
372.706	445.38
372.932	451.38
373.158	455.38
373.384	441.38
373.61	442.38
373.835	437.38
374.061	429.38
374.287	427.38
374.513	451.38
374.739	425.38
374.965	442.38
375.191	441.38
375.416	428.38
375.642	438.38
375.868	417.38
376.094	435.38
376.319	429.38
376.545	439.38
376.771	436.38
376.997	427.38
377.222	435.38
377.448	430.38
377.674	420.38
377.899	433.38
378.125	425.38
378.35	422.38
378.576	413.38
378.802	423.38
379.027	429.38
379.253	427.38
379.478	435.38
379.704	427.38
379.929	421.38
380.155	442.38
380.38	439.38
380.606	448.38
380.831	439.38
381.057	425.38
381.282	420.38
381.507	452.38
381.733	449.38
381.958	443.38
382.184	434.38
382.409	447.38
382.634	423.38
382.86	435.38
383.085	451.38
383.31	447.38
383.535	471.38
383.761	451.38
383.986	470.38
384.211	453.38
384.436	457.38
384.662	474.38
384.887	471.38
385.112	463.38
385.337	474.38
385.562	482.38
385.787	492.38
386.013	507.38
386.238	495.38
386.463	494.38
386.688	481.38
386.913	492.38
387.138	478.38
387.363	475.38
387.588	471.38
387.813	441.38
388.038	475.38
388.263	470.38
388.488	461.38
388.713	475.38
388.938	495.38
389.163	477.38
389.387	503.38
389.612	485.38
389.837	473.38
390.062	469.38
390.287	463.38
390.512	461.38
390.736	487.38
390.961	482.38
391.186	500.38
391.411	527.38
391.636	487.38
391.86	499.38
392.085	527.38
392.31	516.38
392.534	523.38
392.759	501.38
392.984	498.38
393.208	494.38
393.433	489.38
393.658	499.38
393.882	493.38
394.107	492.38
394.331	483.38
394.556	482.38
394.78	501.38
395.005	499.38
395.229	484.38
395.454	493.38
395.678	520.38
395.903	528.38
396.127	539.38
396.352	537.38
396.576	521.38
396.801	502.38
397.025	497.38
397.249	511.38
397.474	530.38
397.698	542.38
397.922	559.38
398.147	539.38
398.371	552.38
398.595	541.38
398.82	559.38
399.044	597.38
399.268	585.38
399.492	612.38
399.717	677.38
399.941	667.38
400.165	679.38
400.389	714.38
400.613	629.38
400.837	588.38
401.062	595.38
401.286	581.38
401.51	585.38
401.734	570.38
401.958	554.38
402.182	577.38
402.406	589.38
402.63	590.38
402.854	573.38
403.078	575.38
403.302	589.38
403.526	597.38
403.75	579.38
403.974	595.38
404.198	558.38
404.422	589.38
404.645	598.38
404.869	612.38
405.093	642.38
405.317	693.38
405.541	731.38
405.765	633.38
405.988	612.38
406.212	633.38
406.436	658.38
406.66	634.38
406.883	642.38
407.107	676.38
407.331	701.38
407.555	781.38
407.778	766.38
408.002	728.38
408.226	661.38
408.449	638.38
408.673	644.38
408.896	686.38
409.12	713.38
409.344	704.38
409.567	637.38
409.791	598.38
410.014	590.38
410.238	612.38
410.461	598.38
410.685	604.38
410.908	636.38
411.132	669.38
411.355	679.38
411.578	636.38
411.802	603.38
412.025	588.38
412.249	615.38
412.472	635.38
412.695	689.38
412.919	670.38
413.142	615.38
413.365	602.38
413.589	577.38
413.812	587.38
414.035	568.38
414.258	591.38
414.482	569.38
414.705	556.38
414.928	555.38
415.151	535.38
415.374	532.38
415.597	547.38
415.821	535.38
416.044	563.38
416.267	563.38
416.49	554.38
416.713	552.38
416.936	548.38
417.159	520.38
417.382	541.38
417.605	571.38
417.828	553.38
418.051	605.38
418.274	589.38
418.497	566.38
418.72	563.38
418.943	537.38
419.166	568.38
419.389	627.38
419.611	585.38
419.834	605.38
420.057	606.38
420.28	624.38
420.503	598.38
420.726	582.38
420.948	580.38
421.171	637.38
421.394	670.38
421.617	610.38
421.839	575.38
422.062	585.38
422.285	612.38
422.507	666.38
422.73	753.38
422.953	714.38
423.175	635.38
423.398	623.38
423.621	595.38
423.843	628.38
424.066	643.38
424.288	619.38
424.511	650.38
424.733	715.38
424.956	813.38
425.178	785.38
425.401	732.38
425.623	806.38
425.846	671.38
426.068	623.38
426.291	651.38
426.513	609.38
426.735	639.38
426.958	685.38
427.18	777.38
427.402	937.38
427.625	994.38
427.847	881.38
428.069	754.38
428.292	685.38
428.514	584.38
428.736	591.38
428.958	578.38
429.181	597.38
429.403	580.38
429.625	591.38
429.847	625.38
430.069	712.38
430.292	686.38
430.514	589.38
430.736	571.38
430.958	575.38
431.18	570.38
431.402	537.38
431.624	527.38
431.846	556.38
432.068	547.38
432.29	539.38
432.512	546.38
432.734	541.38
432.956	565.38
433.178	579.38
433.4	586.38
433.622	589.38
433.844	559.38
434.066	552.38
434.287	541.38
434.509	568.38
434.731	580.38
434.953	574.38
435.175	596.38
435.397	610.38
435.618	635.38
435.84	675.38
436.062	783.38
436.284	871.38
436.505	717.38
436.727	643.38
436.949	609.38
437.17	595.38
437.392	594.38
437.614	596.38
437.835	630.38
438.057	724.38
438.278	850.38
438.5	833.38
438.721	935.38
438.943	923.38
439.165	733.38
439.386	649.38
439.608	630.38
439.829	666.38
440.05	661.38
440.272	729.38
440.493	656.38
440.715	631.38
440.936	589.38
441.158	619.38
441.379	577.38
441.6	600.38
441.822	619.38
442.043	678.38
442.264	761.38
442.486	823.38
442.707	716.38
442.928	675.38
443.149	646.38
443.371	660.38
443.592	733.38
443.813	838.38
444.034	917.38
444.255	719.38
444.476	658.38
444.698	625.38
444.919	658.38
445.14	751.38
445.361	708.38
445.582	665.38
445.803	760.38
446.024	874.38
446.245	891.38
446.466	783.38
446.687	685.38
446.908	641.38
447.129	599.38
447.35	584.38
447.571	582.38
447.792	577.38
448.013	568.38
448.234	598.38
448.455	686.38
448.675	769.38
448.896	921.38
449.117	775.38
449.338	735.38
449.559	837.38
449.779	925.38
450	755.38
450.221	630.38
450.442	589.38
450.662	585.38
450.883	574.38
451.104	587.38
451.324	574.38
451.545	522.38
451.766	536.38
451.986	539.38
452.207	536.38
452.428	528.38
452.648	556.38
452.869	542.38
453.089	552.38
453.31	547.38
453.53	535.38
453.751	520.38
453.971	524.38
454.192	547.38
454.412	517.38
454.633	504.38
454.853	498.38
455.073	498.38
455.294	535.38
455.514	606.38
455.734	620.38
455.955	527.38
456.175	487.38
456.395	495.38
456.616	499.38
456.836	486.38
457.056	481.38
457.276	484.38
457.497	507.38
457.717	497.38
457.937	511.38
458.157	517.38
458.377	516.38
458.598	549.38
458.818	608.38
459.038	647.38
459.258	702.38
459.478	619.38
459.698	578.38
459.918	552.38
460.138	547.38
460.358	573.38
460.578	573.38
460.798	571.38
461.018	559.38
461.238	563.38
461.458	554.38
461.678	569.38
461.898	565.38
462.118	574.38
462.338	575.38
462.558	592.38
462.777	595.38
462.997	596.38
463.217	611.38
463.437	641.38
463.657	622.38
463.876	601.38
464.096	603.38
464.316	605.38
464.536	609.38
464.755	621.38
464.975	609.38
465.195	647.38
465.414	709.38
465.634	636.38
465.854	594.38
466.073	567.38
466.293	555.38
466.512	551.38
466.732	553.38
466.951	541.38
467.171	541.38
467.391	535.38
467.61	550.38
467.829	551.38
468.049	556.38
468.268	553.38
468.488	526.38
468.707	523.38
468.927	540.38
469.146	550.38
469.365	533.38
469.585	527.38
469.804	566.38
470.023	548.38
470.243	536.38
470.462	553.38
470.681	546.38
470.901	563.38
471.12	546.38
471.339	548.38
471.558	570.38
471.777	549.38
471.997	535.38
472.216	545.38
472.435	578.38
472.654	572.38
472.873	565.38
473.092	528.38
473.311	538.38
473.53	545.38
473.749	577.38
473.968	598.38
474.187	699.38
474.406	709.38
474.625	602.38
474.844	567.38
475.063	562.38
475.282	527.38
475.501	577.38
475.72	581.38
475.939	551.38
476.158	548.38
476.377	563.38
476.596	557.38
476.814	577.38
477.033	583.38
477.252	568.38
477.471	563.38
477.69	600.38
477.908	606.38
478.127	592.38
478.346	587.38
478.564	586.38
478.783	627.38
479.002	618.38
479.22	611.38
479.439	626.38
479.658	653.38
479.876	670.38
480.095	657.38
480.313	689.38
480.532	690.38
480.751	669.38
480.969	687.38
481.188	769.38
481.406	812.38
481.624	708.38
481.843	691.38
482.061	653.38
482.28	656.38
482.498	635.38
482.717	649.38
482.935	637.38
483.153	630.38
483.372	643.38
483.59	641.38
483.808	637.38
484.027	647.38
484.245	633.38
484.463	638.38
484.681	669.38
484.9	663.38
485.118	647.38
485.336	665.38
485.554	649.38
485.772	690.38
485.99	659.38
486.209	665.38
486.427	664.38
486.645	673.38
486.863	694.38
487.081	684.38
487.299	677.38
487.517	679.38
487.735	678.38
487.953	667.38
488.171	696.38
488.389	682.38
488.607	694.38
488.825	679.38
489.043	684.38
489.261	713.38
489.479	686.38
489.696	705.38
489.914	701.38
490.132	715.38
490.35	728.38
490.568	731.38
490.786	710.38
491.003	759.38
491.221	767.38
491.439	772.38
491.657	759.38
491.874	778.38
492.092	787.38
492.31	777.38
492.527	806.38
492.745	797.38
492.963	817.38
493.18	824.38
493.398	805.38
493.615	825.38
493.833	847.38
494.05	863.38
494.268	828.38
494.485	814.38
494.703	805.38
494.92	801.38
495.138	827.38
495.355	827.38
495.573	783.38
495.79	802.38
496.008	825.38
496.225	829.38
496.442	824.38
496.66	813.38
496.877	829.38
497.094	823.38
497.312	820.38
497.529	860.38
497.746	851.38
497.963	852.38
498.181	855.38
498.398	909.38
498.615	910.38
498.832	936.38
499.049	968.38
499.267	972.38
499.484	982.38
499.701	1057.38
499.918	1086.38
500.135	1128.38
500.352	1159.38
500.569	1201.38
500.786	1199.38
501.003	1169.38
501.22	1163.38
501.437	1102.38
501.654	1079.38
501.871	1044.38
502.088	1005.38
502.305	997.38
502.522	947.38
502.739	903.38
502.956	892.38
503.172	879.38
503.389	886.38
503.606	860.38
503.823	879.38
504.04	847.38
504.256	834.38
504.473	811.38
504.69	819.38
504.907	830.38
505.123	828.38
505.34	803.38
505.557	831.38
505.773	796.38
505.99	807.38
506.207	776.38
506.423	771.38
506.64	780.38
506.856	775.38
507.073	769.38
507.289	757.38
507.506	743.38
507.722	797.38
507.939	785.38
508.155	759.38
508.372	749.38
508.588	732.38
508.805	740.38
509.021	725.38
509.238	738.38
509.454	763.38
509.67	760.38
509.887	736.38
510.103	736.38
510.319	745.38
510.536	853.38
510.752	1307.38
510.968	1074.38
511.184	737.38
511.401	733.38
511.617	714.38
511.833	679.38
512.049	691.38
512.265	695.38
512.481	713.38
512.698	695.38
512.914	678.38
513.13	674.38
513.346	710.38
513.562	694.38
513.778	695.38
513.994	708.38
514.21	696.38
514.426	714.38
514.642	775.38
514.858	812.38
515.074	834.38
515.29	968.38
515.506	1357.38
515.721	1140.38
515.937	839.38
516.153	761.38
516.369	753.38
516.585	731.38
516.801	719.38
517.016	708.38
517.232	707.38
517.448	727.38
517.664	735.38
517.879	724.38
518.095	731.38
518.311	717.38
518.527	734.38
518.742	735.38
518.958	706.38
519.173	715.38
519.389	684.38
519.605	684.38
519.82	709.38
520.036	722.38
520.251	729.38
520.467	752.38
520.682	737.38
520.898	741.38
521.113	779.38
521.329	813.38
521.544	908.38
521.76	1103.38
521.975	1706.38
522.19	1685.38
522.406	978.38
522.621	788.38
522.836	683.38
523.052	675.38
523.267	685.38
523.482	638.38
523.698	653.38
523.913	651.38
524.128	622.38
524.343	609.38
524.559	602.38
524.774	616.38
524.989	614.38
525.204	602.38
525.419	619.38
525.634	603.38
525.849	589.38
526.064	584.38
526.28	580.38
526.495	561.38
526.71	571.38
526.925	615.38
527.14	592.38
527.355	585.38
527.57	550.38
527.785	571.38
527.999	555.38
528.214	559.38
528.429	556.38
528.644	574.38
528.859	576.38
529.074	589.38
529.289	601.38
529.503	685.38
529.718	648.38
529.933	615.38
530.148	590.38
530.363	587.38
530.577	570.38
530.792	551.38
531.007	554.38
531.221	553.38
531.436	550.38
531.651	585.38
531.865	571.38
532.08	558.38
532.295	551.38
532.509	561.38
532.724	539.38
532.938	555.38
533.153	548.38
533.367	534.38
533.582	547.38
533.796	549.38
534.011	549.38
534.225	524.38
534.44	531.38
534.654	547.38
534.868	563.38
535.083	526.38
535.297	534.38
535.511	541.38
535.726	550.38
535.94	567.38
536.154	527.38
536.369	556.38
536.583	525.38
536.797	521.38
537.011	502.38
537.225	522.38
537.44	510.38
537.654	532.38
537.868	530.38
538.082	527.38
538.296	527.38
538.51	534.38
538.724	539.38
538.938	507.38
539.153	521.38
539.367	542.38
539.581	513.38
539.795	521.38
540.009	514.38
540.222	518.38
540.436	538.38
540.65	539.38
540.864	514.38
541.078	519.38
541.292	526.38
541.506	548.38
541.72	505.38
541.934	523.38
542.147	517.38
542.361	525.38
542.575	523.38
542.789	510.38
543.002	498.38
543.216	530.38
543.43	504.38
543.644	531.38
543.857	518.38
544.071	525.38
544.285	528.38
544.498	514.38
544.712	507.38
544.925	513.38
545.139	519.38
545.352	536.38
545.566	502.38
545.779	496.38
545.993	516.38
546.206	515.38
546.42	502.38
546.633	526.38
546.847	494.38
547.06	517.38
547.274	511.38
547.487	522.38
547.7	499.38
547.914	483.38
548.127	506.38
548.34	499.38
548.554	485.38
548.767	474.38
548.98	502.38
549.193	493.38
549.407	499.38
549.62	503.38
549.833	511.38
550.046	488.38
550.259	501.38
550.473	490.38
550.686	492.38
550.899	487.38
551.112	486.38
551.325	485.38
551.538	470.38
551.751	467.38
551.964	495.38
552.177	501.38
552.39	502.38
552.603	490.38
552.816	498.38
553.029	491.38
553.242	492.38
553.455	508.38
553.667	518.38
553.88	510.38
554.093	496.38
554.306	513.38
554.519	504.38
554.732	501.38
554.944	498.38
555.157	473.38
555.37	462.38
555.583	484.38
555.795	487.38
556.008	470.38
556.221	468.38
556.433	461.38
556.646	464.38
556.859	463.38
557.071	469.38
557.284	444.38
557.496	418.38
557.709	433.38
557.921	435.38
558.134	426.38
558.346	445.38
558.559	463.38
558.771	443.38
558.984	425.38
559.196	432.38
559.409	442.38
559.621	418.38
559.833	437.38
560.046	439.38
560.258	446.38
560.47	442.38
560.683	441.38
560.895	446.38
561.107	438.38
561.32	457.38
561.532	447.38
561.744	450.38
561.956	416.38
562.168	439.38
562.381	438.38
562.593	446.38
562.805	434.38
563.017	446.38
563.229	465.38
563.441	477.38
563.653	456.38
563.865	453.38
564.077	458.38
564.289	444.38
564.501	473.38
564.713	462.38
564.925	459.38
565.137	495.38
565.349	453.38
565.561	471.38
565.773	475.38
565.985	498.38
566.197	475.38
566.408	507.38
566.62	528.38
566.832	555.38
567.044	567.38
567.255	551.38
567.467	556.38
567.679	561.38
567.891	589.38
568.102	568.38
568.314	582.38
568.526	569.38
568.737	525.38
568.949	505.38
569.161	493.38
569.372	480.38
569.584	446.38
569.795	460.38
570.007	448.38
570.218	497.38
570.43	476.38
570.641	445.38
570.853	453.38
571.064	443.38
571.276	429.38
571.487	420.38
571.698	427.38
571.91	417.38
572.121	437.38
572.333	425.38
572.544	396.38
572.755	388.38
572.966	401.38
573.178	395.38
573.389	381.38
573.6	394.38
573.811	399.38
574.023	402.38
574.234	373.38
574.445	380.38
574.656	373.38
574.867	379.38
575.078	374.38
575.289	393.38
575.501	379.38
575.712	380.38
575.923	387.38
576.134	378.38
576.345	373.38
576.556	359.38
576.767	374.38
576.978	360.38
577.188	364.38
577.399	391.38
577.61	377.38
577.821	358.38
578.032	356.38
578.243	403.38
578.454	604.38
578.665	446.38
578.875	364.38
579.086	373.38
579.297	353.38
579.508	351.38
579.718	348.38
579.929	333.38
580.14	357.38
580.35	349.38
580.561	335.38
580.772	350.38
580.982	330.38
581.193	334.38
581.403	338.38
581.614	354.38
581.825	363.38
582.035	355.38
582.246	344.38
582.456	332.38
582.667	354.38
582.877	336.38
583.087	340.38
583.298	333.38
583.508	343.38
583.719	339.38
583.929	362.38
584.139	341.38
584.35	327.38
584.56	336.38
584.77	354.38
584.981	335.38
585.191	329.38
585.401	350.38
585.611	318.38
585.821	349.38
586.032	335.38
586.242	341.38
586.452	358.38
586.662	345.38
586.872	341.38
587.082	317.38
587.292	342.38
587.502	328.38
587.713	321.38
587.923	337.38
588.133	345.38
588.343	329.38
588.553	331.38
588.762	322.38
588.972	311.38
589.182	336.38
589.392	346.38
589.602	347.38
589.812	307.38
590.022	341.38
590.232	317.38
590.441	324.38
590.651	317.38
590.861	335.38
591.071	325.38
591.281	334.38
591.49	339.38
591.7	346.38
591.91	336.38
592.119	342.38
592.329	348.38
592.539	348.38
592.748	339.38
592.958	354.38
593.167	343.38
593.377	360.38
593.587	359.38
593.796	340.38
594.006	356.38
594.215	362.38
594.424	372.38
594.634	357.38
594.843	345.38
595.053	339.38
595.262	343.38
595.472	333.38
595.681	329.38
595.89	335.38
596.1	315.38
596.309	311.38
596.518	326.38
596.727	307.38
596.937	322.38
597.146	336.38
597.355	299.38
597.564	313.38
597.774	301.38
597.983	309.38
598.192	292.38
598.401	308.38
598.61	302.38
598.819	288.38
599.028	305.38
599.237	324.38
599.446	299.38
599.655	297.38
599.864	309.38
600.073	308.38
600.282	293.38
600.491	292.38
600.7	310.38
600.909	300.38
601.118	293.38
601.327	275.38
601.536	294.38
601.745	277.38
601.953	271.38
602.162	289.38
602.371	288.38
602.58	276.38
602.789	289.38
602.997	280.38
603.206	302.38
603.415	280.38
603.623	253.38
603.832	290.38
604.041	276.38
604.249	275.38
604.458	282.38
604.666	279.38
604.875	272.38
605.084	269.38
605.292	274.38
605.501	282.38
605.709	281.38
605.918	261.38
606.126	277.38
606.334	248.38
606.543	287.38
606.751	272.38
606.96	259.38
607.168	275.38
607.376	267.38
607.585	262.38
607.793	291.38
608.001	256.38
608.21	255.38
608.418	267.38
608.626	272.38
608.834	262.38
609.043	279.38
609.251	279.38
609.459	276.38
609.667	257.38
609.875	279.38
610.083	267.38
610.291	289.38
610.499	262.38
610.707	281.38
610.916	272.38
611.124	286.38
611.332	269.38
611.54	277.38
611.748	283.38
611.955	287.38
612.163	259.38
612.371	282.38
612.579	267.38
612.787	260.38
612.995	263.38
613.203	271.38
613.411	259.38
613.618	255.38
613.826	247.38
614.034	257.38
614.242	261.38
614.449	271.38
614.657	281.38
614.865	262.38
615.072	273.38
615.28	254.38
615.488	281.38
615.695	257.38
615.903	264.38
616.111	262.38
616.318	265.38
616.526	262.38
616.733	268.38
616.941	257.38
617.148	269.38
617.356	275.38
617.563	257.38
617.771	251.38
617.978	237.38
618.185	251.38
618.393	241.38
618.6	254.38
618.807	265.38
619.015	274.38
619.222	249.38
619.429	268.38
619.637	255.38
619.844	235.38
620.051	250.38
620.258	260.38
620.466	255.38
620.673	243.38
620.88	228.38
621.087	247.38
621.294	251.38
621.501	248.38
621.708	262.38
621.915	252.38
622.122	246.38
622.329	250.38
622.536	233.38
622.743	229.38
622.95	246.38
623.157	229.38
623.364	259.38
623.571	235.38
623.778	229.38
623.985	223.38
624.192	243.38
624.399	237.38
624.606	235.38
624.812	251.38
625.019	245.38
625.226	237.38
625.433	249.38
625.639	235.38
625.846	225.38
626.053	226.38
626.259	227.38
626.466	234.38
626.673	234.38
626.879	220.38
627.086	227.38
627.293	234.38
627.499	234.38
627.706	240.38
627.912	217.38
628.119	246.38
628.325	224.38
628.532	227.38
628.738	228.38
628.945	229.38
629.151	221.38
629.357	222.38
629.564	224.38
629.77	229.38
629.976	235.38
630.183	212.38
630.389	224.38
630.595	215.38
630.802	221.38
631.008	227.38
631.214	228.38
631.42	218.38
631.627	210.38
631.833	217.38
632.039	207.38
632.245	193.38
632.451	205.38
632.657	223.38
632.863	212.38
633.069	207.38
633.275	194.38
633.481	212.38
633.688	205.38
633.893	209.38
634.099	204.38
634.305	185.38
634.511	215.38
634.717	193.38
634.923	176.38
635.129	187.38
635.335	199.38
635.541	194.38
635.747	195.38
635.952	185.38
636.158	214.38
636.364	198.38
636.57	199.38
636.775	207.38
636.981	185.38
637.187	206.38
637.392	207.38
637.598	211.38
637.804	206.38
638.009	209.38
638.215	189.38
638.421	191.38
638.626	203.38
638.832	197.38
639.037	185.38
639.243	187.38
639.448	204.38
639.654	179.38
639.859	194.38
640.065	196.38
640.27	183.38
640.475	202.38
640.681	185.38
640.886	187.38
641.091	198.38
641.297	195.38
641.502	190.38
641.707	201.38
641.913	186.38
642.118	172.38
642.323	177.38
642.528	188.38
642.733	179.38
642.939	177.38
643.144	164.38
643.349	196.38
643.554	180.38
643.759	188.38
643.964	177.38
644.169	175.38
644.374	185.38
644.579	181.38
644.784	186.38
644.989	188.38
645.194	187.38
645.399	177.38
645.604	189.38
645.809	173.38
646.014	192.38
646.219	170.38
646.423	164.38
646.628	170.38
646.833	179.38
647.038	179.38
647.243	185.38
647.447	178.38
647.652	194.38
647.857	186.38
648.062	191.38
648.266	196.38
648.471	171.38
648.676	188.38
648.88	187.38
649.085	184.38
649.289	179.38
649.494	196.38
649.698	206.38
649.903	192.38
650.107	177.38
650.312	179.38
650.516	173.38
650.721	155.38
650.925	162.38
651.13	166.38
651.334	162.38
651.539	159.38
651.743	144.38
651.947	155.38
652.152	158.38
652.356	165.38
652.56	157.38
652.764	153.38
652.969	162.38
653.173	153.38
653.377	155.38
653.581	137.38
653.785	149.38
653.99	154.38
654.194	140.38
654.398	156.38
654.602	141.38
654.806	144.38
655.01	153.38
655.214	154.38
655.418	142.38
655.622	124.38
655.826	152.38
656.03	144.38
656.234	148.38
656.438	155.38
656.642	129.38
656.846	129.38
657.049	141.38
657.253	127.38
657.457	130.38
657.661	139.38
657.865	122.38
658.068	120.38
658.272	123.38
658.476	126.38
658.68	115.38
658.883	115.38
659.087	103.38
659.291	100.38
659.494	108.38
659.698	106.38
659.901	105.38
660.105	87.38
660.309	82.38
660.512	106.38
660.716	85.38
660.919	93.38
661.123	97.38
661.326	98.38
661.53	85.38
661.733	96.38
661.936	94.38
662.14	76.38
662.343	82.38
662.546	76.38
662.75	87.38
662.953	84.38
663.156	77.38
663.36	78.38
663.563	80.38
663.766	76.38
663.969	78.38
664.173	77.38
664.376	77.38
664.579	80.38
664.782	85.38
664.985	67.38
665.188	78.38
665.391	79.38
665.594	87.38
665.797	85.38
666	74.38
666.203	95.38
666.406	83.38
666.609	78.38
666.812	88.38
667.015	94.38
667.218	87.38
667.421	74.38
667.624	95.38
667.827	84.38
668.03	79.38
668.232	82.38
668.435	92.38
668.638	85.38
668.841	95.38
669.043	92.38
669.246	67.38
669.449	81.38
669.651	70.38
669.854	80.38
670.057	75.38
670.259	85.38
670.462	82.38
670.665	72.38
670.867	82.38
671.07	88.38
671.272	67.38
671.475	82.38
671.677	79.38
671.88	75.38
672.082	88.38
672.284	80.38
672.487	71.38
672.689	77.38
672.892	78.38
