Data from 1966.PennyLincolnUp.Lamp.En5.5.200Scan.071719.P1.Scan2.head_HRD10591_14-17-05-080.txt Node
Date: Thu Jul 18 14:17:05 EDT 2019
User: cochatt
Spectrometer: HR+D1059
Trigger mode: 1
Integration Time (sec): 1.000000E-1
Scans to average: 1
Electric dark correction enabled: true
Nonlinearity correction enabled: false
Boxcar width: 0
XAxis mode: Wavelengths
Number of Pixels in Spectrum: 2048
>>>>>Begin Spectral Data<<<<<
223.165	-11.25
223.4	-11.25
223.635	-11.25
223.869	-11.25
224.104	-13.25
224.338	-33.25
224.573	-9.25
224.808	-8.25
225.042	3.75
225.277	-8.25
225.511	-4.25
225.746	-2.25
225.98	6.75
226.215	17.75
226.449	4.75
226.683	30.75
226.918	10.75
227.152	26.75
227.387	21.75
227.621	34.75
227.856	48.75
228.09	40.75
228.324	54.75
228.559	57.75
228.793	61.75
229.027	99.75
229.262	115.75
229.496	112.75
229.73	128.75
229.964	168.75
230.199	144.75
230.433	108.75
230.667	125.75
230.901	110.75
231.136	118.75
231.37	114.75
231.604	109.75
231.838	97.75
232.072	96.75
232.306	124.75
232.541	114.75
232.775	108.75
233.009	108.75
233.243	123.75
233.477	126.75
233.711	110.75
233.945	122.75
234.179	98.75
234.413	102.75
234.647	134.75
234.881	114.75
235.115	126.75
235.349	111.75
235.583	109.75
235.817	111.75
236.051	118.75
236.285	116.75
236.519	131.75
236.753	139.75
236.987	120.75
237.221	170.75
237.455	235.75
237.689	166.75
237.922	128.75
238.156	138.75
238.39	132.75
238.624	115.75
238.858	128.75
239.091	126.75
239.325	122.75
239.559	108.75
239.793	103.75
240.027	136.75
240.26	130.75
240.494	135.75
240.728	156.75
240.961	150.75
241.195	144.75
241.429	134.75
241.662	134.75
241.896	125.75
242.13	136.75
242.363	139.75
242.597	128.75
242.83	119.75
243.064	142.75
243.298	134.75
243.531	138.75
243.765	151.75
243.998	151.75
244.232	140.75
244.465	142.75
244.699	150.75
244.932	158.75
245.166	137.75
245.399	137.75
245.633	152.75
245.866	158.75
246.099	147.75
246.333	139.75
246.566	150.75
246.8	157.75
247.033	148.75
247.266	150.75
247.5	161.75
247.733	157.75
247.966	176.75
248.2	172.75
248.433	166.75
248.666	183.75
248.899	179.75
249.133	183.75
249.366	198.75
249.599	193.75
249.832	166.75
250.066	187.75
250.299	179.75
250.532	182.75
250.765	201.75
250.998	224.75
251.231	236.75
251.465	201.75
251.698	182.75
251.931	190.75
252.164	199.75
252.397	187.75
252.63	190.75
252.863	206.75
253.096	227.75
253.329	225.75
253.562	222.75
253.795	215.75
254.028	218.75
254.261	218.75
254.494	206.75
254.727	239.75
254.96	276.75
255.193	272.75
255.426	234.75
255.659	238.75
255.892	225.75
256.124	236.75
256.357	231.75
256.59	215.75
256.823	209.75
257.056	200.75
257.289	208.75
257.521	212.75
257.754	200.75
257.987	211.75
258.22	219.75
258.452	199.75
258.685	193.75
258.918	192.75
259.151	218.75
259.383	221.75
259.616	213.75
259.849	197.75
260.081	224.75
260.314	240.75
260.547	256.75
260.779	244.75
261.012	237.75
261.244	228.75
261.477	215.75
261.71	199.75
261.942	224.75
262.175	224.75
262.407	220.75
262.64	222.75
262.872	214.75
263.105	211.75
263.337	194.75
263.57	205.75
263.802	202.75
264.035	205.75
264.267	220.75
264.499	218.75
264.732	212.75
264.964	208.75
265.197	206.75
265.429	226.75
265.661	215.75
265.894	204.75
266.126	205.75
266.358	214.75
266.591	230.75
266.823	209.75
267.055	244.75
267.287	243.75
267.52	211.75
267.752	218.75
267.984	216.75
268.216	242.75
268.448	231.75
268.681	244.75
268.913	226.75
269.145	258.75
269.377	270.75
269.609	255.75
269.841	264.75
270.073	262.75
270.306	279.75
270.538	293.75
270.77	295.75
271.002	281.75
271.234	285.75
271.466	286.75
271.698	294.75
271.93	296.75
272.162	296.75
272.394	307.75
272.626	292.75
272.858	293.75
273.09	269.75
273.322	258.75
273.553	239.75
273.785	250.75
274.017	271.75
274.249	248.75
274.481	268.75
274.713	249.75
274.945	248.75
275.176	256.75
275.408	268.75
275.64	250.75
275.872	246.75
276.104	259.75
276.335	265.75
276.567	268.75
276.799	285.75
277.031	285.75
277.262	320.75
277.494	310.75
277.726	289.75
277.957	277.75
278.189	275.75
278.421	272.75
278.652	263.75
278.884	277.75
279.115	246.75
279.347	263.75
279.579	264.75
279.81	265.75
280.042	262.75
280.273	259.75
280.505	270.75
280.736	255.75
280.968	247.75
281.199	259.75
281.431	270.75
281.662	272.75
281.894	250.75
282.125	269.75
282.356	272.75
282.588	297.75
282.819	302.75
283.051	299.75
283.282	280.75
283.513	264.75
283.745	263.75
283.976	279.75
284.207	260.75
284.439	283.75
284.67	279.75
284.901	283.75
285.132	279.75
285.364	280.75
285.595	286.75
285.826	290.75
286.057	296.75
286.288	288.75
286.52	278.75
286.751	286.75
286.982	279.75
287.213	299.75
287.444	293.75
287.675	277.75
287.906	307.75
288.138	314.75
288.369	322.75
288.6	302.75
288.831	287.75
289.062	285.75
289.293	285.75
289.524	298.75
289.755	296.75
289.986	285.75
290.217	290.75
290.448	292.75
290.679	273.75
290.91	290.75
291.141	291.75
291.371	289.75
291.602	285.75
291.833	283.75
292.064	290.75
292.295	275.75
292.526	302.75
292.757	280.75
292.987	261.75
293.218	293.75
293.449	292.75
293.68	302.75
293.91	283.75
294.141	282.75
294.372	281.75
294.603	282.75
294.833	310.75
295.064	290.75
295.295	291.75
295.525	295.75
295.756	302.75
295.987	293.75
296.217	338.75
296.448	322.75
296.679	304.75
296.909	293.75
297.14	283.75
297.37	314.75
297.601	310.75
297.831	293.75
298.062	301.75
298.292	281.75
298.523	317.75
298.753	323.75
298.984	297.75
299.214	304.75
299.445	326.75
299.675	314.75
299.905	320.75
300.136	312.75
300.366	300.75
300.597	320.75
300.827	309.75
301.057	313.75
301.288	325.75
301.518	344.75
301.748	325.75
301.979	328.75
302.209	312.75
302.439	328.75
302.669	327.75
302.9	336.75
303.13	328.75
303.36	297.75
303.59	315.75
303.82	329.75
304.051	329.75
304.281	326.75
304.511	321.75
304.741	310.75
304.971	314.75
305.201	314.75
305.431	308.75
305.661	322.75
305.891	325.75
306.121	335.75
306.352	343.75
306.582	334.75
306.812	349.75
307.042	332.75
307.272	332.75
307.502	327.75
307.731	329.75
307.961	325.75
308.191	331.75
308.421	352.75
308.651	336.75
308.881	339.75
309.111	342.75
309.341	325.75
309.571	351.75
309.8	355.75
310.03	344.75
310.26	347.75
310.49	360.75
310.72	359.75
310.949	367.75
311.179	377.75
311.409	381.75
311.639	342.75
311.868	372.75
312.098	354.75
312.328	372.75
312.557	380.75
312.787	387.75
313.017	370.75
313.246	391.75
313.476	375.75
313.706	372.75
313.935	370.75
314.165	359.75
314.394	386.75
314.624	396.75
314.853	376.75
315.083	367.75
315.312	374.75
315.542	362.75
315.771	362.75
316.001	362.75
316.23	357.75
316.46	367.75
316.689	371.75
316.919	366.75
317.148	391.75
317.377	399.75
317.607	386.75
317.836	370.75
318.065	377.75
318.295	384.75
318.524	383.75
318.753	381.75
318.983	362.75
319.212	371.75
319.441	367.75
319.67	394.75
319.9	380.75
320.129	373.75
320.358	378.75
320.587	382.75
320.816	378.75
321.046	389.75
321.275	398.75
321.504	397.75
321.733	402.75
321.962	395.75
322.191	421.75
322.42	426.75
322.649	414.75
322.878	424.75
323.108	448.75
323.337	447.75
323.566	453.75
323.795	482.75
324.024	526.75
324.253	615.75
324.482	877.75
324.71	1303.75
324.939	1992.75
325.168	1728.75
325.397	852.75
325.626	598.75
325.855	521.75
326.084	472.75
326.313	448.75
326.542	473.75
326.77	503.75
326.999	594.75
327.228	776.75
327.457	1212.75
327.686	1535.75
327.914	970.75
328.143	637.75
328.372	584.75
328.6	526.75
328.829	532.75
329.058	548.75
329.287	540.75
329.515	495.75
329.744	475.75
329.972	487.75
330.201	491.75
330.43	524.75
330.658	563.75
330.887	585.75
331.115	550.75
331.344	491.75
331.572	450.75
331.801	449.75
332.03	470.75
332.258	466.75
332.486	456.75
332.715	458.75
332.943	466.75
333.172	444.75
333.4	466.75
333.629	477.75
333.857	469.75
334.085	496.75
334.314	486.75
334.542	516.75
334.771	537.75
334.999	504.75
335.227	473.75
335.455	472.75
335.684	464.75
335.912	457.75
336.14	440.75
336.369	447.75
336.597	454.75
336.825	452.75
337.053	442.75
337.281	444.75
337.51	442.75
337.738	461.75
337.966	445.75
338.194	436.75
338.422	427.75
338.65	426.75
338.878	432.75
339.106	436.75
339.334	442.75
339.562	420.75
339.79	423.75
340.018	436.75
340.246	429.75
340.474	423.75
340.702	428.75
340.93	440.75
341.158	431.75
341.386	458.75
341.614	444.75
341.842	430.75
342.07	434.75
342.298	427.75
342.526	414.75
342.754	415.75
342.981	426.75
343.209	398.75
343.437	428.75
343.665	431.75
343.893	437.75
344.12	451.75
344.348	435.75
344.576	475.75
344.804	440.75
345.031	447.75
345.259	446.75
345.487	422.75
345.714	431.75
345.942	437.75
346.17	411.75
346.397	430.75
346.625	417.75
346.853	434.75
347.08	434.75
347.308	424.75
347.535	431.75
347.763	429.75
347.99	437.75
348.218	418.75
348.445	433.75
348.673	435.75
348.9	431.75
349.128	424.75
349.355	416.75
349.583	396.75
349.81	416.75
350.037	402.75
350.265	382.75
350.492	413.75
350.72	396.75
350.947	421.75
351.174	420.75
351.402	416.75
351.629	436.75
351.856	436.75
352.083	427.75
352.311	424.75
352.538	436.75
352.765	437.75
352.992	438.75
353.22	420.75
353.447	405.75
353.674	399.75
353.901	404.75
354.128	407.75
354.355	411.75
354.583	404.75
354.81	409.75
355.037	406.75
355.264	394.75
355.491	391.75
355.718	406.75
355.945	394.75
356.172	400.75
356.399	405.75
356.626	420.75
356.853	392.75
357.08	411.75
357.307	392.75
357.534	413.75
357.761	400.75
357.988	409.75
358.215	432.75
358.441	413.75
358.668	396.75
358.895	404.75
359.122	408.75
359.349	413.75
359.576	437.75
359.802	450.75
360.029	445.75
360.256	475.75
360.483	458.75
360.709	420.75
360.936	425.75
361.163	399.75
361.39	435.75
361.616	442.75
361.843	430.75
362.07	422.75
362.296	428.75
362.523	430.75
362.749	440.75
362.976	421.75
363.203	410.75
363.429	430.75
363.656	414.75
363.882	399.75
364.109	426.75
364.335	411.75
364.562	409.75
364.788	426.75
365.015	411.75
365.241	416.75
365.468	406.75
365.694	412.75
365.92	422.75
366.147	432.75
366.373	418.75
366.599	426.75
366.826	414.75
367.052	415.75
367.278	406.75
367.505	436.75
367.731	412.75
367.957	408.75
368.184	400.75
368.41	422.75
368.636	415.75
368.862	427.75
369.089	422.75
369.315	430.75
369.541	424.75
369.767	431.75
369.993	410.75
370.219	425.75
370.445	412.75
370.672	426.75
370.898	412.75
371.124	427.75
371.35	432.75
371.576	417.75
371.802	426.75
372.028	438.75
372.254	424.75
372.48	416.75
372.706	429.75
372.932	424.75
373.158	448.75
373.384	437.75
373.61	437.75
373.835	435.75
374.061	420.75
374.287	435.75
374.513	421.75
374.739	440.75
374.965	432.75
375.191	432.75
375.416	431.75
375.642	435.75
375.868	440.75
376.094	426.75
376.319	416.75
376.545	432.75
376.771	414.75
376.997	420.75
377.222	423.75
377.448	423.75
377.674	410.75
377.899	406.75
378.125	420.75
378.35	421.75
378.576	408.75
378.802	401.75
379.027	427.75
379.253	432.75
379.478	438.75
379.704	420.75
379.929	430.75
380.155	412.75
380.38	437.75
380.606	437.75
380.831	421.75
381.057	425.75
381.282	450.75
381.507	428.75
381.733	443.75
381.958	427.75
382.184	447.75
382.409	459.75
382.634	444.75
382.86	436.75
383.085	451.75
383.31	443.75
383.535	460.75
383.761	458.75
383.986	464.75
384.211	450.75
384.436	455.75
384.662	466.75
384.887	475.75
385.112	461.75
385.337	471.75
385.562	454.75
385.787	466.75
386.013	473.75
386.238	473.75
386.463	501.75
386.688	466.75
386.913	478.75
387.138	473.75
387.363	468.75
387.588	462.75
387.813	482.75
388.038	483.75
388.263	468.75
388.488	470.75
388.713	492.75
388.938	479.75
389.163	484.75
389.387	482.75
389.612	472.75
389.837	475.75
390.062	484.75
390.287	479.75
390.512	471.75
390.736	473.75
390.961	486.75
391.186	476.75
391.411	492.75
391.636	491.75
391.86	503.75
392.085	506.75
392.31	502.75
392.534	495.75
392.759	525.75
392.984	495.75
393.208	492.75
393.433	494.75
393.658	496.75
393.882	476.75
394.107	481.75
394.331	472.75
394.556	474.75
394.78	472.75
395.005	487.75
395.229	497.75
395.454	515.75
395.678	491.75
395.903	506.75
396.127	521.75
396.352	549.75
396.576	493.75
396.801	501.75
397.025	520.75
397.249	525.75
397.474	521.75
397.698	507.75
397.922	524.75
398.147	540.75
398.371	534.75
398.595	551.75
398.82	551.75
399.044	539.75
399.268	590.75
399.492	612.75
399.717	652.75
399.941	680.75
400.165	697.75
400.389	702.75
400.613	629.75
400.837	595.75
401.062	573.75
401.286	555.75
401.51	546.75
401.734	543.75
401.958	565.75
402.182	566.75
402.406	562.75
402.63	576.75
402.854	585.75
403.078	564.75
403.302	566.75
403.526	583.75
403.75	568.75
403.974	577.75
404.198	562.75
404.422	559.75
404.645	602.75
404.869	594.75
405.093	602.75
405.317	670.75
405.541	704.75
405.765	645.75
405.988	611.75
406.212	598.75
406.436	641.75
406.66	636.75
406.883	616.75
407.107	641.75
407.331	680.75
407.555	740.75
407.778	749.75
408.002	704.75
408.226	663.75
408.449	648.75
408.673	653.75
408.896	668.75
409.12	700.75
409.344	688.75
409.567	638.75
409.791	601.75
410.014	591.75
410.238	576.75
410.461	584.75
410.685	590.75
410.908	604.75
411.132	632.75
411.355	669.75
411.578	647.75
411.802	589.75
412.025	572.75
412.249	574.75
412.472	586.75
412.695	642.75
412.919	633.75
413.142	611.75
413.365	581.75
413.589	574.75
413.812	554.75
414.035	558.75
414.258	554.75
414.482	564.75
414.705	555.75
414.928	547.75
415.151	541.75
415.374	551.75
415.597	528.75
415.821	541.75
416.044	531.75
416.267	557.75
416.49	534.75
416.713	547.75
416.936	557.75
417.159	532.75
417.382	554.75
417.605	545.75
417.828	543.75
418.051	558.75
418.274	566.75
418.497	559.75
418.72	535.75
418.943	544.75
419.166	582.75
419.389	591.75
419.611	591.75
419.834	565.75
420.057	581.75
420.28	574.75
420.503	538.75
420.726	564.75
420.948	563.75
421.171	611.75
421.394	656.75
421.617	602.75
421.839	564.75
422.062	559.75
422.285	589.75
422.507	631.75
422.73	725.75
422.953	717.75
423.175	611.75
423.398	580.75
423.621	596.75
423.843	605.75
424.066	605.75
424.288	611.75
424.511	630.75
424.733	662.75
424.956	756.75
425.178	729.75
425.401	735.75
425.623	743.75
425.846	649.75
426.068	624.75
426.291	616.75
426.513	611.75
426.735	611.75
426.958	640.75
427.18	770.75
427.402	884.75
427.625	962.75
427.847	831.75
428.069	710.75
428.292	612.75
428.514	597.75
428.736	581.75
428.958	580.75
429.181	576.75
429.403	537.75
429.625	557.75
429.847	602.75
430.069	668.75
430.292	644.75
430.514	589.75
430.736	558.75
430.958	551.75
431.18	551.75
431.402	525.75
431.624	511.75
431.846	546.75
432.068	528.75
432.29	540.75
432.512	518.75
432.734	532.75
432.956	522.75
433.178	557.75
433.4	564.75
433.622	553.75
433.844	532.75
434.066	553.75
434.287	562.75
434.509	544.75
434.731	564.75
434.953	556.75
435.175	593.75
435.397	633.75
435.618	619.75
435.84	639.75
436.062	727.75
436.284	838.75
436.505	680.75
436.727	599.75
436.949	594.75
437.17	573.75
437.392	558.75
437.614	569.75
437.835	617.75
438.057	685.75
438.278	800.75
438.5	798.75
438.721	908.75
438.943	844.75
439.165	670.75
439.386	624.75
439.608	635.75
439.829	598.75
440.05	635.75
440.272	685.75
440.493	656.75
440.715	599.75
440.936	561.75
441.158	567.75
441.379	555.75
441.6	595.75
441.822	585.75
442.043	632.75
442.264	741.75
442.486	784.75
442.707	654.75
442.928	601.75
443.149	631.75
443.371	652.75
443.592	675.75
443.813	784.75
444.034	848.75
444.255	720.75
444.476	653.75
444.698	618.75
444.919	613.75
445.14	696.75
445.361	697.75
445.582	659.75
445.803	727.75
446.024	814.75
446.245	837.75
446.466	742.75
446.687	648.75
446.908	608.75
447.129	583.75
447.35	583.75
447.571	568.75
447.792	551.75
448.013	526.75
448.234	594.75
448.455	632.75
448.675	759.75
448.896	859.75
449.117	715.75
449.338	691.75
449.559	810.75
449.779	894.75
450	727.75
450.221	586.75
450.442	543.75
450.662	536.75
450.883	554.75
451.104	556.75
451.324	550.75
451.545	527.75
451.766	518.75
451.986	496.75
452.207	478.75
452.428	478.75
452.648	484.75
452.869	506.75
453.089	507.75
453.31	515.75
453.53	499.75
453.751	493.75
453.971	506.75
454.192	511.75
454.412	518.75
454.633	502.75
454.853	498.75
455.073	492.75
455.294	506.75
455.514	589.75
455.734	579.75
455.955	507.75
456.175	483.75
456.395	463.75
456.616	480.75
456.836	467.75
457.056	472.75
457.276	472.75
457.497	478.75
457.717	481.75
457.937	476.75
458.157	486.75
458.377	488.75
458.598	536.75
458.818	562.75
459.038	606.75
459.258	639.75
459.478	580.75
459.698	556.75
459.918	519.75
460.138	549.75
460.358	542.75
460.578	568.75
460.798	537.75
461.018	556.75
461.238	532.75
461.458	571.75
461.678	558.75
461.898	568.75
462.118	559.75
462.338	578.75
462.558	564.75
462.777	593.75
462.997	610.75
463.217	599.75
463.437	622.75
463.657	612.75
463.876	631.75
464.096	605.75
464.316	608.75
464.536	611.75
464.755	602.75
464.975	614.75
465.195	632.75
465.414	678.75
465.634	603.75
465.854	571.75
466.073	555.75
466.293	547.75
466.512	519.75
466.732	526.75
466.951	530.75
467.171	517.75
467.391	531.75
467.61	500.75
467.829	570.75
468.049	519.75
468.268	501.75
468.488	526.75
468.707	520.75
468.927	505.75
469.146	502.75
469.365	508.75
469.585	505.75
469.804	510.75
470.023	531.75
470.243	526.75
470.462	526.75
470.681	545.75
470.901	544.75
471.12	539.75
471.339	523.75
471.558	514.75
471.777	538.75
471.997	500.75
472.216	548.75
472.435	566.75
472.654	554.75
472.873	535.75
473.092	538.75
473.311	524.75
473.53	539.75
473.749	529.75
473.968	570.75
474.187	668.75
474.406	691.75
474.625	566.75
474.844	550.75
475.063	538.75
475.282	518.75
475.501	540.75
475.72	548.75
475.939	557.75
476.158	570.75
476.377	540.75
476.596	541.75
476.814	547.75
477.033	554.75
477.252	566.75
477.471	584.75
477.69	573.75
477.908	573.75
478.127	581.75
478.346	572.75
478.564	584.75
478.783	590.75
479.002	599.75
479.22	617.75
479.439	630.75
479.658	636.75
479.876	647.75
480.095	655.75
480.313	691.75
480.532	655.75
480.751	641.75
480.969	658.75
481.188	695.75
481.406	709.75
481.624	675.75
481.843	646.75
482.061	626.75
482.28	632.75
482.498	635.75
482.717	611.75
482.935	621.75
483.153	604.75
483.372	608.75
483.59	621.75
483.808	624.75
484.027	606.75
484.245	626.75
484.463	626.75
484.681	630.75
484.9	641.75
485.118	640.75
485.336	666.75
485.554	634.75
485.772	651.75
485.99	642.75
486.209	657.75
486.427	647.75
486.645	643.75
486.863	668.75
487.081	663.75
487.299	654.75
487.517	679.75
487.735	649.75
487.953	686.75
488.171	683.75
488.389	646.75
488.607	667.75
488.825	664.75
489.043	666.75
489.261	669.75
489.479	681.75
489.696	664.75
489.914	671.75
490.132	678.75
490.35	713.75
490.568	714.75
490.786	719.75
491.003	740.75
491.221	733.75
491.439	719.75
491.657	702.75
491.874	763.75
492.092	758.75
492.31	772.75
492.527	753.75
492.745	768.75
492.963	778.75
493.18	750.75
493.398	768.75
493.615	785.75
493.833	793.75
494.05	751.75
494.268	778.75
494.485	770.75
494.703	777.75
494.92	782.75
495.138	804.75
495.355	789.75
495.573	785.75
495.79	801.75
496.008	783.75
496.225	752.75
496.442	799.75
496.66	800.75
496.877	819.75
497.094	819.75
497.312	797.75
497.529	822.75
497.746	855.75
497.963	835.75
498.181	853.75
498.398	861.75
498.615	899.75
498.832	930.75
499.049	909.75
499.267	944.75
499.484	996.75
499.701	1036.75
499.918	1056.75
500.135	1104.75
500.352	1154.75
500.569	1160.75
500.786	1187.75
501.003	1150.75
501.22	1129.75
501.437	1105.75
501.654	1070.75
501.871	1028.75
502.088	988.75
502.305	964.75
502.522	916.75
502.739	873.75
502.956	894.75
503.172	848.75
503.389	855.75
503.606	812.75
503.823	831.75
504.04	816.75
504.256	783.75
504.473	802.75
504.69	811.75
504.907	771.75
505.123	790.75
505.34	772.75
505.557	766.75
505.773	778.75
505.99	758.75
506.207	751.75
506.423	752.75
506.64	749.75
506.856	758.75
507.073	715.75
507.289	717.75
507.506	713.75
507.722	713.75
507.939	751.75
508.155	718.75
508.372	718.75
508.588	688.75
508.805	696.75
509.021	715.75
509.238	696.75
509.454	697.75
509.67	716.75
509.887	715.75
510.103	710.75
510.319	683.75
510.536	761.75
510.752	1158.75
510.968	978.75
511.184	687.75
511.401	668.75
511.617	669.75
511.833	654.75
512.049	664.75
512.265	655.75
512.481	658.75
512.698	630.75
512.914	649.75
513.13	680.75
513.346	663.75
513.562	658.75
513.778	654.75
513.994	656.75
514.21	677.75
514.426	685.75
514.642	703.75
514.858	703.75
515.074	747.75
515.29	868.75
515.506	1170.75
515.721	1000.75
515.937	765.75
516.153	727.75
516.369	686.75
516.585	683.75
516.801	694.75
517.016	678.75
517.232	703.75
517.448	688.75
517.664	692.75
517.879	682.75
518.095	737.75
518.311	674.75
518.527	696.75
518.742	681.75
518.958	666.75
519.173	691.75
519.389	660.75
519.605	672.75
519.82	658.75
520.036	668.75
520.251	685.75
520.467	709.75
520.682	726.75
520.898	692.75
521.113	696.75
521.329	749.75
521.544	809.75
521.76	964.75
521.975	1492.75
522.19	1468.75
522.406	869.75
522.621	709.75
522.836	688.75
523.052	653.75
523.267	611.75
523.482	599.75
523.698	573.75
523.913	611.75
524.128	602.75
524.343	587.75
524.559	596.75
524.774	598.75
524.989	567.75
525.204	598.75
525.419	585.75
525.634	564.75
525.849	578.75
526.064	564.75
526.28	542.75
526.495	540.75
526.71	551.75
526.925	574.75
527.14	568.75
527.355	563.75
527.57	535.75
527.785	550.75
527.999	537.75
528.214	542.75
528.429	585.75
528.644	564.75
528.859	584.75
529.074	589.75
529.289	564.75
529.503	630.75
529.718	620.75
529.933	576.75
530.148	562.75
530.363	564.75
530.577	555.75
530.792	549.75
531.007	532.75
531.221	511.75
531.436	543.75
531.651	535.75
531.865	534.75
532.08	538.75
532.295	538.75
532.509	529.75
532.724	532.75
532.938	527.75
533.153	532.75
533.367	536.75
533.582	529.75
533.796	541.75
534.011	523.75
534.225	530.75
534.44	518.75
534.654	525.75
534.868	511.75
535.083	517.75
535.297	528.75
535.511	495.75
535.726	552.75
535.94	539.75
536.154	538.75
536.369	525.75
536.583	498.75
536.797	534.75
537.011	531.75
537.225	497.75
537.44	516.75
537.654	516.75
537.868	504.75
538.082	498.75
538.296	503.75
538.51	516.75
538.724	537.75
538.938	510.75
539.153	518.75
539.367	538.75
539.581	542.75
539.795	522.75
540.009	522.75
540.222	484.75
540.436	521.75
540.65	509.75
540.864	526.75
541.078	521.75
541.292	501.75
541.506	520.75
541.72	489.75
541.934	518.75
542.147	523.75
542.361	518.75
542.575	482.75
542.789	505.75
543.002	499.75
543.216	521.75
543.43	502.75
543.644	510.75
543.857	494.75
544.071	514.75
544.285	500.75
544.498	517.75
544.712	491.75
544.925	491.75
545.139	494.75
545.352	512.75
545.566	508.75
545.779	473.75
545.993	494.75
546.206	512.75
546.42	493.75
546.633	483.75
546.847	480.75
547.06	483.75
547.274	486.75
547.487	473.75
547.7	495.75
547.914	483.75
548.127	501.75
548.34	496.75
548.554	475.75
548.767	492.75
548.98	487.75
549.193	471.75
549.407	480.75
549.62	510.75
549.833	494.75
550.046	501.75
550.259	488.75
550.473	500.75
550.686	471.75
550.899	475.75
551.112	482.75
551.325	478.75
551.538	472.75
551.751	472.75
551.964	471.75
552.177	479.75
552.39	489.75
552.603	471.75
552.816	474.75
553.029	510.75
553.242	495.75
553.455	502.75
553.667	532.75
553.88	500.75
554.093	522.75
554.306	500.75
554.519	479.75
554.732	483.75
554.944	487.75
555.157	459.75
555.37	483.75
555.583	462.75
555.795	472.75
556.008	460.75
556.221	449.75
556.433	456.75
556.646	451.75
556.859	458.75
557.071	478.75
557.284	451.75
557.496	428.75
557.709	453.75
557.921	444.75
558.134	425.75
558.346	448.75
558.559	444.75
558.771	438.75
558.984	431.75
559.196	436.75
559.409	428.75
559.621	441.75
559.833	431.75
560.046	448.75
560.258	418.75
560.47	444.75
560.683	417.75
560.895	443.75
561.107	438.75
561.32	458.75
561.532	458.75
561.744	425.75
561.956	426.75
562.168	412.75
562.381	430.75
562.593	442.75
562.805	467.75
563.017	448.75
563.229	435.75
563.441	418.75
563.653	439.75
563.865	443.75
564.077	437.75
564.289	424.75
564.501	456.75
564.713	450.75
564.925	461.75
565.137	485.75
565.349	480.75
565.561	470.75
565.773	479.75
565.985	494.75
566.197	503.75
566.408	503.75
566.62	515.75
566.832	532.75
567.044	568.75
567.255	557.75
567.467	558.75
567.679	568.75
567.891	592.75
568.102	580.75
568.314	560.75
568.526	527.75
568.737	528.75
568.949	495.75
569.161	496.75
569.372	506.75
569.584	460.75
569.795	444.75
570.007	468.75
570.218	470.75
570.43	453.75
570.641	435.75
570.853	412.75
571.064	424.75
571.276	442.75
571.487	421.75
571.698	421.75
571.91	409.75
572.121	405.75
572.333	401.75
572.544	403.75
572.755	385.75
572.966	391.75
573.178	390.75
573.389	385.75
573.6	375.75
573.811	374.75
574.023	366.75
574.234	394.75
574.445	363.75
574.656	374.75
574.867	368.75
575.078	380.75
575.289	380.75
575.501	381.75
575.712	372.75
575.923	373.75
576.134	374.75
576.345	361.75
576.556	374.75
576.767	372.75
576.978	378.75
577.188	365.75
577.399	361.75
577.61	378.75
577.821	374.75
578.032	353.75
578.243	381.75
578.454	569.75
578.665	450.75
578.875	371.75
579.086	342.75
579.297	342.75
579.508	372.75
579.718	363.75
579.929	340.75
580.14	349.75
580.35	344.75
580.561	355.75
580.772	345.75
580.982	348.75
581.193	328.75
581.403	367.75
581.614	342.75
581.825	348.75
582.035	361.75
582.246	336.75
582.456	314.75
582.667	331.75
582.877	351.75
583.087	347.75
583.298	338.75
583.508	330.75
583.719	323.75
583.929	331.75
584.139	361.75
584.35	342.75
584.56	324.75
584.77	334.75
584.981	313.75
585.191	338.75
585.401	347.75
585.611	328.75
585.821	336.75
586.032	341.75
586.242	347.75
586.452	342.75
586.662	322.75
586.872	326.75
587.082	340.75
587.292	336.75
587.502	324.75
587.713	328.75
587.923	345.75
588.133	329.75
588.343	322.75
588.553	337.75
588.762	335.75
588.972	336.75
589.182	366.75
589.392	356.75
589.602	330.75
589.812	340.75
590.022	355.75
590.232	329.75
590.441	325.75
590.651	340.75
590.861	328.75
591.071	342.75
591.281	336.75
591.49	327.75
591.7	329.75
591.91	338.75
592.119	318.75
592.329	353.75
592.539	332.75
592.748	347.75
592.958	344.75
593.167	357.75
593.377	363.75
593.587	371.75
593.796	363.75
594.006	363.75
594.215	324.75
594.424	359.75
594.634	337.75
594.843	348.75
595.053	350.75
595.262	358.75
595.472	331.75
595.681	327.75
595.89	334.75
596.1	314.75
596.309	316.75
596.518	316.75
596.727	329.75
596.937	312.75
597.146	308.75
597.355	305.75
597.564	297.75
597.774	310.75
597.983	290.75
598.192	294.75
598.401	332.75
598.61	309.75
598.819	304.75
599.028	294.75
599.237	299.75
599.446	295.75
599.655	285.75
599.864	292.75
600.073	281.75
600.282	285.75
600.491	280.75
600.7	302.75
600.909	282.75
601.118	287.75
601.327	298.75
601.536	293.75
601.745	281.75
601.953	279.75
602.162	298.75
602.371	280.75
602.58	280.75
602.789	268.75
602.997	281.75
603.206	273.75
603.415	279.75
603.623	282.75
603.832	285.75
604.041	273.75
604.249	264.75
604.458	276.75
604.666	291.75
604.875	264.75
605.084	309.75
605.292	275.75
605.501	280.75
605.709	281.75
605.918	269.75
606.126	278.75
606.334	271.75
606.543	270.75
606.751	288.75
606.96	256.75
607.168	289.75
607.376	266.75
607.585	260.75
607.793	286.75
608.001	274.75
608.21	273.75
608.418	271.75
608.626	256.75
608.834	259.75
609.043	282.75
609.251	277.75
609.459	245.75
609.667	263.75
609.875	258.75
610.083	246.75
610.291	264.75
610.499	267.75
610.707	272.75
610.916	280.75
611.124	272.75
611.332	274.75
611.54	288.75
611.748	278.75
611.955	287.75
612.163	270.75
612.371	282.75
612.579	266.75
612.787	272.75
612.995	274.75
613.203	246.75
613.411	267.75
613.618	272.75
613.826	251.75
614.034	251.75
614.242	246.75
614.449	248.75
614.657	264.75
614.865	262.75
615.072	243.75
615.28	266.75
615.488	268.75
615.695	259.75
615.903	242.75
616.111	250.75
616.318	270.75
616.526	270.75
616.733	248.75
616.941	275.75
617.148	256.75
617.356	269.75
617.563	251.75
617.771	263.75
617.978	258.75
618.185	236.75
618.393	248.75
618.6	266.75
618.807	260.75
619.015	243.75
619.222	249.75
619.429	262.75
619.637	260.75
619.844	253.75
620.051	241.75
620.258	261.75
620.466	243.75
620.673	246.75
620.88	229.75
621.087	258.75
621.294	239.75
621.501	253.75
621.708	260.75
621.915	256.75
622.122	256.75
622.329	250.75
622.536	239.75
622.743	245.75
622.95	246.75
623.157	229.75
623.364	245.75
623.571	244.75
623.778	216.75
623.985	253.75
624.192	230.75
624.399	227.75
624.606	226.75
624.812	231.75
625.019	227.75
625.226	239.75
625.433	205.75
625.639	231.75
625.846	230.75
626.053	237.75
626.259	235.75
626.466	228.75
626.673	221.75
626.879	219.75
627.086	235.75
627.293	214.75
627.499	223.75
627.706	216.75
627.912	224.75
628.119	231.75
628.325	241.75
628.532	211.75
628.738	230.75
628.945	211.75
629.151	230.75
629.357	222.75
629.564	223.75
629.77	246.75
629.976	220.75
630.183	210.75
630.389	208.75
630.595	210.75
630.802	205.75
631.008	214.75
631.214	209.75
631.42	226.75
631.627	218.75
631.833	211.75
632.039	192.75
632.245	208.75
632.451	229.75
632.657	212.75
632.863	216.75
633.069	212.75
633.275	215.75
633.481	219.75
633.688	184.75
633.893	194.75
634.099	201.75
634.305	212.75
634.511	204.75
634.717	200.75
634.923	190.75
635.129	181.75
635.335	199.75
635.541	224.75
635.747	209.75
635.952	203.75
636.158	200.75
636.364	196.75
636.57	208.75
636.775	199.75
636.981	208.75
637.187	191.75
637.392	199.75
637.598	210.75
637.804	203.75
638.009	190.75
638.215	209.75
638.421	206.75
638.626	207.75
638.832	187.75
639.037	211.75
639.243	178.75
639.448	189.75
639.654	175.75
639.859	189.75
640.065	186.75
640.27	180.75
640.475	184.75
640.681	184.75
640.886	187.75
641.091	199.75
641.297	189.75
641.502	182.75
641.707	189.75
641.913	184.75
642.118	205.75
642.323	170.75
642.528	180.75
642.733	189.75
642.939	186.75
643.144	193.75
643.349	166.75
643.554	175.75
643.759	178.75
643.964	184.75
644.169	195.75
644.374	175.75
644.579	178.75
644.784	194.75
644.989	172.75
645.194	184.75
645.399	190.75
645.604	175.75
645.809	178.75
646.014	191.75
646.219	199.75
646.423	174.75
646.628	170.75
646.833	175.75
647.038	189.75
647.243	171.75
647.447	169.75
647.652	180.75
647.857	175.75
648.062	150.75
648.266	178.75
648.471	201.75
648.676	190.75
648.88	163.75
649.085	166.75
649.289	197.75
649.494	189.75
649.698	189.75
649.903	189.75
650.107	193.75
650.312	179.75
650.516	188.75
650.721	176.75
650.925	153.75
651.13	162.75
651.334	154.75
651.539	162.75
651.743	157.75
651.947	149.75
652.152	145.75
652.356	166.75
652.56	139.75
652.764	154.75
652.969	155.75
653.173	145.75
653.377	159.75
653.581	151.75
653.785	141.75
653.99	156.75
654.194	140.75
654.398	142.75
654.602	140.75
654.806	143.75
655.01	159.75
655.214	140.75
655.418	136.75
655.622	157.75
655.826	139.75
656.03	132.75
656.234	163.75
656.438	143.75
656.642	143.75
656.846	147.75
657.049	127.75
657.253	139.75
657.457	123.75
657.661	132.75
657.865	121.75
658.068	115.75
658.272	104.75
658.476	116.75
658.68	99.75
658.883	94.75
659.087	106.75
659.291	115.75
659.494	100.75
659.698	106.75
659.901	103.75
660.105	95.75
660.309	99.75
660.512	109.75
660.716	91.75
660.919	99.75
661.123	94.75
661.326	94.75
661.53	97.75
661.733	83.75
661.936	97.75
662.14	88.75
662.343	86.75
662.546	88.75
662.75	97.75
662.953	73.75
663.156	87.75
663.36	84.75
663.563	89.75
663.766	90.75
663.969	81.75
664.173	89.75
664.376	74.75
664.579	85.75
664.782	66.75
664.985	79.75
665.188	86.75
665.391	88.75
665.594	89.75
665.797	87.75
666	87.75
666.203	83.75
666.406	73.75
666.609	82.75
666.812	84.75
667.015	77.75
667.218	78.75
667.421	90.75
667.624	64.75
667.827	92.75
668.03	80.75
668.232	91.75
668.435	89.75
668.638	77.75
668.841	81.75
669.043	81.75
669.246	81.75
669.449	89.75
669.651	91.75
669.854	84.75
670.057	78.75
670.259	88.75
670.462	74.75
670.665	74.75
670.867	93.75
671.07	96.75
671.272	75.75
671.475	86.75
671.677	74.75
671.88	85.75
672.082	82.75
672.284	78.75
672.487	88.75
672.689	73.75
672.892	85.75
