Data from 1966.PennyLincolnUp.Lamp.En5.5.200Scan.071719.P1._HRD10591_14-14-36-914.txt Node
Date: Thu Jul 18 14:14:36 EDT 2019
User: cochatt
Spectrometer: HR+D1059
Trigger mode: 1
Integration Time (sec): 1.000000E-1
Scans to average: 1
Electric dark correction enabled: true
Nonlinearity correction enabled: false
Boxcar width: 0
XAxis mode: Wavelengths
Number of Pixels in Spectrum: 2048
>>>>>Begin Spectral Data<<<<<
223.165	-9.31
223.4	-9.31
223.635	-9.31
223.869	-14.31
224.104	-18.31
224.338	-18.31
224.573	-21.31
224.808	-28.31
225.042	-7.31
225.277	-13.31
225.511	6.69
225.746	8.69
225.98	1.69
226.215	13.69
226.449	12.69
226.683	18.69
226.918	34.69
227.152	33.69
227.387	25.69
227.621	37.69
227.856	29.69
228.09	46.69
228.324	41.69
228.559	44.69
228.793	57.69
229.027	66.69
229.262	61.69
229.496	79.69
229.73	107.69
229.964	110.69
230.199	89.69
230.433	94.69
230.667	94.69
230.901	88.69
231.136	82.69
231.37	75.69
231.604	83.69
231.838	86.69
232.072	73.69
232.306	87.69
232.541	95.69
232.775	96.69
233.009	103.69
233.243	98.69
233.477	90.69
233.711	88.69
233.945	108.69
234.179	97.69
234.413	90.69
234.647	94.69
234.881	84.69
235.115	88.69
235.349	93.69
235.583	87.69
235.817	81.69
236.051	102.69
236.285	94.69
236.519	89.69
236.753	86.69
236.987	100.69
237.221	128.69
237.455	167.69
237.689	119.69
237.922	91.69
238.156	93.69
238.39	86.69
238.624	90.69
238.858	87.69
239.091	96.69
239.325	86.69
239.559	91.69
239.793	91.69
240.027	109.69
240.26	107.69
240.494	109.69
240.728	101.69
240.961	109.69
241.195	110.69
241.429	109.69
241.662	104.69
241.896	89.69
242.13	86.69
242.363	118.69
242.597	109.69
242.83	120.69
243.064	106.69
243.298	89.69
243.531	79.69
243.765	113.69
243.998	93.69
244.232	99.69
244.465	102.69
244.699	99.69
244.932	87.69
245.166	96.69
245.399	100.69
245.633	95.69
245.866	110.69
246.099	100.69
246.333	109.69
246.566	111.69
246.8	101.69
247.033	111.69
247.266	110.69
247.5	100.69
247.733	117.69
247.966	110.69
248.2	103.69
248.433	102.69
248.666	111.69
248.899	122.69
249.133	127.69
249.366	131.69
249.599	135.69
249.832	112.69
250.066	119.69
250.299	110.69
250.532	117.69
250.765	139.69
250.998	170.69
251.231	156.69
251.465	135.69
251.698	114.69
251.931	120.69
252.164	112.69
252.397	112.69
252.63	121.69
252.863	139.69
253.096	138.69
253.329	148.69
253.562	138.69
253.795	129.69
254.028	124.69
254.261	126.69
254.494	154.69
254.727	159.69
254.96	180.69
255.193	157.69
255.426	160.69
255.659	139.69
255.892	128.69
256.124	133.69
256.357	146.69
256.59	135.69
256.823	141.69
257.056	137.69
257.289	132.69
257.521	125.69
257.754	126.69
257.987	133.69
258.22	141.69
258.452	140.69
258.685	123.69
258.918	131.69
259.151	135.69
259.383	146.69
259.616	145.69
259.849	146.69
260.081	151.69
260.314	158.69
260.547	157.69
260.779	154.69
261.012	137.69
261.244	131.69
261.477	146.69
261.71	146.69
261.942	137.69
262.175	145.69
262.407	131.69
262.64	132.69
262.872	147.69
263.105	125.69
263.337	137.69
263.57	119.69
263.802	139.69
264.035	122.69
264.267	134.69
264.499	134.69
264.732	125.69
264.964	139.69
265.197	142.69
265.429	135.69
265.661	131.69
265.894	129.69
266.126	132.69
266.358	143.69
266.591	130.69
266.823	151.69
267.055	149.69
267.287	140.69
267.52	150.69
267.752	139.69
267.984	135.69
268.216	140.69
268.448	148.69
268.681	142.69
268.913	142.69
269.145	148.69
269.377	176.69
269.609	146.69
269.841	152.69
270.073	173.69
270.306	190.69
270.538	181.69
270.77	173.69
271.002	186.69
271.234	168.69
271.466	181.69
271.698	169.69
271.93	167.69
272.162	187.69
272.394	189.69
272.626	188.69
272.858	181.69
273.09	164.69
273.322	147.69
273.553	154.69
273.785	152.69
274.017	145.69
274.249	149.69
274.481	162.69
274.713	149.69
274.945	157.69
275.176	169.69
275.408	155.69
275.64	158.69
275.872	149.69
276.104	140.69
276.335	151.69
276.567	170.69
276.799	197.69
277.031	188.69
277.262	189.69
277.494	190.69
277.726	176.69
277.957	160.69
278.189	137.69
278.421	151.69
278.652	154.69
278.884	155.69
279.115	168.69
279.347	179.69
279.579	157.69
279.81	152.69
280.042	150.69
280.273	165.69
280.505	143.69
280.736	165.69
280.968	166.69
281.199	148.69
281.431	154.69
281.662	155.69
281.894	160.69
282.125	150.69
282.356	162.69
282.588	177.69
282.819	181.69
283.051	151.69
283.282	153.69
283.513	159.69
283.745	170.69
283.976	159.69
284.207	165.69
284.439	167.69
284.67	159.69
284.901	162.69
285.132	168.69
285.364	162.69
285.595	156.69
285.826	168.69
286.057	163.69
286.288	161.69
286.52	163.69
286.751	158.69
286.982	165.69
287.213	156.69
287.444	158.69
287.675	167.69
287.906	164.69
288.138	183.69
288.369	179.69
288.6	184.69
288.831	170.69
289.062	164.69
289.293	182.69
289.524	179.69
289.755	186.69
289.986	167.69
290.217	169.69
290.448	168.69
290.679	174.69
290.91	173.69
291.141	160.69
291.371	181.69
291.602	159.69
291.833	176.69
292.064	180.69
292.295	175.69
292.526	173.69
292.757	163.69
292.987	173.69
293.218	182.69
293.449	158.69
293.68	180.69
293.91	174.69
294.141	169.69
294.372	163.69
294.603	155.69
294.833	171.69
295.064	174.69
295.295	167.69
295.525	150.69
295.756	166.69
295.987	183.69
296.217	194.69
296.448	200.69
296.679	184.69
296.909	162.69
297.14	161.69
297.37	184.69
297.601	170.69
297.831	166.69
298.062	178.69
298.292	191.69
298.523	164.69
298.753	162.69
298.984	181.69
299.214	177.69
299.445	167.69
299.675	165.69
299.905	185.69
300.136	175.69
300.366	190.69
300.597	182.69
300.827	179.69
301.057	199.69
301.288	175.69
301.518	169.69
301.748	176.69
301.979	177.69
302.209	173.69
302.439	188.69
302.669	188.69
302.9	180.69
303.13	178.69
303.36	177.69
303.59	195.69
303.82	207.69
304.051	200.69
304.281	183.69
304.511	181.69
304.741	177.69
304.971	175.69
305.201	176.69
305.431	179.69
305.661	179.69
305.891	192.69
306.121	199.69
306.352	174.69
306.582	171.69
306.812	176.69
307.042	183.69
307.272	184.69
307.502	187.69
307.731	180.69
307.961	182.69
308.191	200.69
308.421	195.69
308.651	179.69
308.881	196.69
309.111	196.69
309.341	193.69
309.571	201.69
309.8	211.69
310.03	193.69
310.26	218.69
310.49	212.69
310.72	225.69
310.949	205.69
311.179	216.69
311.409	218.69
311.639	208.69
311.868	201.69
312.098	211.69
312.328	212.69
312.557	223.69
312.787	222.69
313.017	211.69
313.246	206.69
313.476	222.69
313.706	206.69
313.935	208.69
314.165	225.69
314.394	208.69
314.624	207.69
314.853	214.69
315.083	217.69
315.312	223.69
315.542	196.69
315.771	199.69
316.001	209.69
316.23	203.69
316.46	199.69
316.689	178.69
316.919	200.69
317.148	203.69
317.377	211.69
317.607	217.69
317.836	211.69
318.065	202.69
318.295	203.69
318.524	211.69
318.753	222.69
318.983	218.69
319.212	209.69
319.441	217.69
319.67	216.69
319.9	199.69
320.129	195.69
320.358	217.69
320.587	216.69
320.816	208.69
321.046	219.69
321.275	207.69
321.504	219.69
321.733	232.69
321.962	227.69
322.191	234.69
322.42	237.69
322.649	241.69
322.878	245.69
323.108	244.69
323.337	246.69
323.566	274.69
323.795	295.69
324.024	301.69
324.253	361.69
324.482	535.69
324.71	798.69
324.939	1059.69
325.168	849.69
325.397	426.69
325.626	321.69
325.855	263.69
326.084	237.69
326.313	241.69
326.542	258.69
326.77	297.69
326.999	363.69
327.228	477.69
327.457	698.69
327.686	783.69
327.914	497.69
328.143	356.69
328.372	328.69
328.6	310.69
328.829	297.69
329.058	322.69
329.287	316.69
329.515	306.69
329.744	267.69
329.972	279.69
330.201	270.69
330.43	324.69
330.658	331.69
330.887	353.69
331.115	333.69
331.344	287.69
331.572	251.69
331.801	263.69
332.03	254.69
332.258	238.69
332.486	250.69
332.715	242.69
332.943	243.69
333.172	245.69
333.4	259.69
333.629	258.69
333.857	255.69
334.085	256.69
334.314	283.69
334.542	329.69
334.771	307.69
334.999	276.69
335.227	235.69
335.455	239.69
335.684	234.69
335.912	229.69
336.14	234.69
336.369	240.69
336.597	251.69
336.825	255.69
337.053	248.69
337.281	237.69
337.51	214.69
337.738	212.69
337.966	233.69
338.194	237.69
338.422	236.69
338.65	243.69
338.878	214.69
339.106	233.69
339.334	219.69
339.562	220.69
339.79	238.69
340.018	229.69
340.246	238.69
340.474	225.69
340.702	237.69
340.93	222.69
341.158	213.69
341.386	233.69
341.614	227.69
341.842	229.69
342.07	221.69
342.298	231.69
342.526	238.69
342.754	215.69
342.981	225.69
343.209	190.69
343.437	214.69
343.665	224.69
343.893	231.69
344.12	239.69
344.348	229.69
344.576	221.69
344.804	227.69
345.031	235.69
345.259	233.69
345.487	245.69
345.714	218.69
345.942	205.69
346.17	215.69
346.397	189.69
346.625	219.69
346.853	222.69
347.08	217.69
347.308	207.69
347.535	214.69
347.763	217.69
347.99	226.69
348.218	227.69
348.445	237.69
348.673	222.69
348.9	221.69
349.128	219.69
349.355	223.69
349.583	218.69
349.81	223.69
350.037	207.69
350.265	223.69
350.492	210.69
350.72	206.69
350.947	209.69
351.174	228.69
351.402	232.69
351.629	244.69
351.856	233.69
352.083	228.69
352.311	234.69
352.538	248.69
352.765	217.69
352.992	226.69
353.22	230.69
353.447	232.69
353.674	217.69
353.901	209.69
354.128	194.69
354.355	217.69
354.583	200.69
354.81	197.69
355.037	211.69
355.264	197.69
355.491	196.69
355.718	211.69
355.945	197.69
356.172	195.69
356.399	204.69
356.626	195.69
356.853	205.69
357.08	213.69
357.307	215.69
357.534	214.69
357.761	213.69
357.988	206.69
358.215	194.69
358.441	200.69
358.668	212.69
358.895	194.69
359.122	206.69
359.349	207.69
359.576	227.69
359.802	218.69
360.029	263.69
360.256	257.69
360.483	238.69
360.709	220.69
360.936	214.69
361.163	213.69
361.39	227.69
361.616	224.69
361.843	224.69
362.07	237.69
362.296	221.69
362.523	209.69
362.749	213.69
362.976	204.69
363.203	207.69
363.429	221.69
363.656	202.69
363.882	205.69
364.109	205.69
364.335	197.69
364.562	221.69
364.788	214.69
365.015	199.69
365.241	201.69
365.468	226.69
365.694	211.69
365.92	215.69
366.147	199.69
366.373	208.69
366.599	198.69
366.826	205.69
367.052	197.69
367.278	201.69
367.505	208.69
367.731	206.69
367.957	200.69
368.184	192.69
368.41	211.69
368.636	212.69
368.862	228.69
369.089	220.69
369.315	199.69
369.541	203.69
369.767	202.69
369.993	209.69
370.219	209.69
370.445	203.69
370.672	211.69
370.898	214.69
371.124	192.69
371.35	196.69
371.576	198.69
371.802	205.69
372.028	213.69
372.254	214.69
372.48	214.69
372.706	199.69
372.932	191.69
373.158	203.69
373.384	220.69
373.61	211.69
373.835	210.69
374.061	206.69
374.287	202.69
374.513	216.69
374.739	215.69
374.965	212.69
375.191	217.69
375.416	202.69
375.642	211.69
375.868	222.69
376.094	208.69
376.319	206.69
376.545	210.69
376.771	199.69
376.997	205.69
377.222	197.69
377.448	202.69
377.674	219.69
377.899	203.69
378.125	191.69
378.35	203.69
378.576	203.69
378.802	205.69
379.027	197.69
379.253	206.69
379.478	196.69
379.704	203.69
379.929	207.69
380.155	206.69
380.38	204.69
380.606	209.69
380.831	202.69
381.057	212.69
381.282	183.69
381.507	202.69
381.733	210.69
381.958	217.69
382.184	213.69
382.409	210.69
382.634	218.69
382.86	205.69
383.085	207.69
383.31	202.69
383.535	210.69
383.761	223.69
383.986	214.69
384.211	206.69
384.436	221.69
384.662	203.69
384.887	219.69
385.112	207.69
385.337	222.69
385.562	220.69
385.787	211.69
386.013	221.69
386.238	215.69
386.463	221.69
386.688	208.69
386.913	202.69
387.138	210.69
387.363	211.69
387.588	221.69
387.813	207.69
388.038	237.69
388.263	216.69
388.488	221.69
388.713	214.69
388.938	230.69
389.163	224.69
389.387	225.69
389.612	209.69
389.837	216.69
390.062	217.69
390.287	221.69
390.512	208.69
390.736	215.69
390.961	218.69
391.186	203.69
391.411	235.69
391.636	236.69
391.86	227.69
392.085	206.69
392.31	209.69
392.534	223.69
392.759	218.69
392.984	223.69
393.208	221.69
393.433	232.69
393.658	204.69
393.882	223.69
394.107	223.69
394.331	212.69
394.556	236.69
394.78	227.69
395.005	217.69
395.229	215.69
395.454	221.69
395.678	228.69
395.903	234.69
396.127	242.69
396.352	244.69
396.576	228.69
396.801	224.69
397.025	230.69
397.249	233.69
397.474	226.69
397.698	243.69
397.922	236.69
398.147	259.69
398.371	247.69
398.595	241.69
398.82	246.69
399.044	255.69
399.268	243.69
399.492	272.69
399.717	286.69
399.941	274.69
400.165	308.69
400.389	291.69
400.613	267.69
400.837	270.69
401.062	266.69
401.286	231.69
401.51	245.69
401.734	254.69
401.958	253.69
402.182	259.69
402.406	263.69
402.63	253.69
402.854	272.69
403.078	245.69
403.302	248.69
403.526	253.69
403.75	253.69
403.974	255.69
404.198	267.69
404.422	269.69
404.645	265.69
404.869	277.69
405.093	263.69
405.317	305.69
405.541	305.69
405.765	287.69
405.988	275.69
406.212	278.69
406.436	289.69
406.66	303.69
406.883	267.69
407.107	293.69
407.331	313.69
407.555	318.69
407.778	325.69
408.002	301.69
408.226	272.69
408.449	278.69
408.673	275.69
408.896	262.69
409.12	312.69
409.344	264.69
409.567	260.69
409.791	268.69
410.014	237.69
410.238	258.69
410.461	256.69
410.685	268.69
410.908	274.69
411.132	291.69
411.355	299.69
411.578	290.69
411.802	264.69
412.025	245.69
412.249	258.69
412.472	279.69
412.695	303.69
412.919	280.69
413.142	274.69
413.365	254.69
413.589	256.69
413.812	239.69
414.035	233.69
414.258	240.69
414.482	242.69
414.705	259.69
414.928	259.69
415.151	262.69
415.374	248.69
415.597	249.69
415.821	237.69
416.044	244.69
416.267	241.69
416.49	242.69
416.713	242.69
416.936	248.69
417.159	238.69
417.382	253.69
417.605	256.69
417.828	242.69
418.051	249.69
418.274	266.69
418.497	255.69
418.72	261.69
418.943	235.69
419.166	248.69
419.389	249.69
419.611	263.69
419.834	256.69
420.057	265.69
420.28	265.69
420.503	268.69
420.726	253.69
420.948	267.69
421.171	286.69
421.394	304.69
421.617	259.69
421.839	246.69
422.062	257.69
422.285	275.69
422.507	297.69
422.73	330.69
422.953	311.69
423.175	263.69
423.398	269.69
423.621	271.69
423.843	285.69
424.066	294.69
424.288	302.69
424.511	296.69
424.733	303.69
424.956	337.69
425.178	341.69
425.401	316.69
425.623	314.69
425.846	296.69
426.068	283.69
426.291	260.69
426.513	290.69
426.735	288.69
426.958	296.69
427.18	334.69
427.402	387.69
427.625	448.69
427.847	385.69
428.069	313.69
428.292	291.69
428.514	281.69
428.736	256.69
428.958	256.69
429.181	281.69
429.403	241.69
429.625	241.69
429.847	260.69
430.069	293.69
430.292	304.69
430.514	249.69
430.736	252.69
430.958	267.69
431.18	234.69
431.402	239.69
431.624	253.69
431.846	238.69
432.068	241.69
432.29	238.69
432.512	240.69
432.734	245.69
432.956	258.69
433.178	245.69
433.4	243.69
433.622	240.69
433.844	258.69
434.066	227.69
434.287	240.69
434.509	253.69
434.731	241.69
434.953	242.69
435.175	265.69
435.397	283.69
435.618	266.69
435.84	287.69
436.062	331.69
436.284	342.69
436.505	309.69
436.727	266.69
436.949	262.69
437.17	245.69
437.392	239.69
437.614	261.69
437.835	280.69
438.057	335.69
438.278	371.69
438.5	357.69
438.721	369.69
438.943	344.69
439.165	293.69
439.386	272.69
439.608	279.69
439.829	254.69
440.05	301.69
440.272	292.69
440.493	279.69
440.715	253.69
440.936	243.69
441.158	264.69
441.379	259.69
441.6	271.69
441.822	283.69
442.043	288.69
442.264	309.69
442.486	364.69
442.707	297.69
442.928	281.69
443.149	286.69
443.371	308.69
443.592	318.69
443.813	345.69
444.034	360.69
444.255	294.69
444.476	273.69
444.698	275.69
444.919	277.69
445.14	351.69
445.361	326.69
445.582	296.69
445.803	307.69
446.024	387.69
446.245	369.69
446.466	344.69
446.687	277.69
446.908	281.69
447.129	257.69
447.35	241.69
447.571	240.69
447.792	257.69
448.013	258.69
448.234	267.69
448.455	290.69
448.675	333.69
448.896	388.69
449.117	299.69
449.338	312.69
449.559	362.69
449.779	382.69
450	305.69
450.221	261.69
450.442	257.69
450.662	265.69
450.883	263.69
451.104	275.69
451.324	258.69
451.545	255.69
451.766	233.69
451.986	232.69
452.207	224.69
452.428	224.69
452.648	229.69
452.869	239.69
453.089	228.69
453.31	230.69
453.53	230.69
453.751	231.69
453.971	241.69
454.192	239.69
454.412	243.69
454.633	252.69
454.853	217.69
455.073	227.69
455.294	236.69
455.514	271.69
455.734	265.69
455.955	249.69
456.175	240.69
456.395	213.69
456.616	216.69
456.836	221.69
457.056	213.69
457.276	216.69
457.497	217.69
457.717	235.69
457.937	226.69
458.157	213.69
458.377	233.69
458.598	249.69
458.818	267.69
459.038	330.69
459.258	320.69
459.478	285.69
459.698	247.69
459.918	227.69
460.138	245.69
460.358	242.69
460.578	235.69
460.798	233.69
461.018	254.69
461.238	246.69
461.458	250.69
461.678	245.69
461.898	244.69
462.118	245.69
462.338	251.69
462.558	262.69
462.777	259.69
462.997	246.69
463.217	258.69
463.437	260.69
463.657	240.69
463.876	258.69
464.096	239.69
464.316	262.69
464.536	269.69
464.755	284.69
464.975	258.69
465.195	295.69
465.414	355.69
465.634	290.69
465.854	279.69
466.073	264.69
466.293	238.69
466.512	248.69
466.732	228.69
466.951	231.69
467.171	233.69
467.391	225.69
467.61	254.69
467.829	258.69
468.049	268.69
468.268	249.69
468.488	242.69
468.707	239.69
468.927	218.69
469.146	226.69
469.365	229.69
469.585	227.69
469.804	241.69
470.023	247.69
470.243	253.69
470.462	260.69
470.681	282.69
470.901	263.69
471.12	267.69
471.339	245.69
471.558	253.69
471.777	238.69
471.997	237.69
472.216	246.69
472.435	266.69
472.654	270.69
472.873	232.69
473.092	237.69
473.311	233.69
473.53	221.69
473.749	239.69
473.968	271.69
474.187	320.69
474.406	319.69
474.625	271.69
474.844	245.69
475.063	225.69
475.282	244.69
475.501	253.69
475.72	251.69
475.939	241.69
476.158	249.69
476.377	251.69
476.596	242.69
476.814	252.69
477.033	250.69
477.252	271.69
477.471	249.69
477.69	242.69
477.908	250.69
478.127	261.69
478.346	251.69
478.564	263.69
478.783	267.69
479.002	260.69
479.22	267.69
479.439	274.69
479.658	267.69
479.876	279.69
480.095	283.69
480.313	304.69
480.532	299.69
480.751	296.69
480.969	299.69
481.188	361.69
481.406	383.69
481.624	294.69
481.843	287.69
482.061	269.69
482.28	269.69
482.498	278.69
482.717	266.69
482.935	283.69
483.153	277.69
483.372	272.69
483.59	292.69
483.808	280.69
484.027	277.69
484.245	266.69
484.463	269.69
484.681	265.69
484.9	288.69
485.118	292.69
485.336	299.69
485.554	263.69
485.772	274.69
485.99	309.69
486.209	297.69
486.427	302.69
486.645	296.69
486.863	324.69
487.081	299.69
487.299	290.69
487.517	318.69
487.735	301.69
487.953	312.69
488.171	305.69
488.389	285.69
488.607	301.69
488.825	289.69
489.043	301.69
489.261	291.69
489.479	306.69
489.696	314.69
489.914	321.69
490.132	298.69
490.35	320.69
490.568	327.69
490.786	329.69
491.003	318.69
491.221	357.69
491.439	330.69
491.657	334.69
491.874	321.69
492.092	351.69
492.31	351.69
492.527	346.69
492.745	347.69
492.963	352.69
493.18	365.69
493.398	354.69
493.615	356.69
493.833	355.69
494.05	349.69
494.268	358.69
494.485	347.69
494.703	352.69
494.92	359.69
495.138	348.69
495.355	360.69
495.573	364.69
495.79	352.69
496.008	345.69
496.225	325.69
496.442	365.69
496.66	341.69
496.877	353.69
497.094	365.69
497.312	355.69
497.529	344.69
497.746	346.69
497.963	370.69
498.181	377.69
498.398	368.69
498.615	391.69
498.832	382.69
499.049	369.69
499.267	398.69
499.484	389.69
499.701	426.69
499.918	423.69
500.135	421.69
500.352	477.69
500.569	486.69
500.786	456.69
501.003	438.69
501.22	429.69
501.437	432.69
501.654	445.69
501.871	425.69
502.088	422.69
502.305	394.69
502.522	388.69
502.739	351.69
502.956	371.69
503.172	343.69
503.389	341.69
503.606	336.69
503.823	346.69
504.04	337.69
504.256	354.69
504.473	342.69
504.69	338.69
504.907	362.69
505.123	322.69
505.34	334.69
505.557	330.69
505.773	320.69
505.99	337.69
506.207	325.69
506.423	323.69
506.64	320.69
506.856	325.69
507.073	335.69
507.289	327.69
507.506	311.69
507.722	321.69
507.939	335.69
508.155	315.69
508.372	312.69
508.588	303.69
508.805	330.69
509.021	321.69
509.238	312.69
509.454	334.69
509.67	331.69
509.887	319.69
510.103	318.69
510.319	325.69
510.536	402.69
510.752	756.69
510.968	554.69
511.184	331.69
511.401	305.69
511.617	317.69
511.833	304.69
512.049	277.69
512.265	287.69
512.481	302.69
512.698	294.69
512.914	310.69
513.13	290.69
513.346	271.69
513.562	291.69
513.778	284.69
513.994	301.69
514.21	311.69
514.426	326.69
514.642	346.69
514.858	373.69
515.074	391.69
515.29	497.69
515.506	838.69
515.721	642.69
515.937	405.69
516.153	317.69
516.369	323.69
516.585	302.69
516.801	303.69
517.016	290.69
517.232	309.69
517.448	305.69
517.664	323.69
517.879	304.69
518.095	295.69
518.311	302.69
518.527	301.69
518.742	294.69
518.958	313.69
519.173	303.69
519.389	295.69
519.605	291.69
519.82	303.69
520.036	310.69
520.251	323.69
520.467	349.69
520.682	336.69
520.898	335.69
521.113	356.69
521.329	397.69
521.544	440.69
521.76	611.69
521.975	1177.69
522.19	1128.69
522.406	538.69
522.621	351.69
522.836	295.69
523.052	287.69
523.267	280.69
523.482	295.69
523.698	285.69
523.913	282.69
524.128	287.69
524.343	274.69
524.559	266.69
524.774	259.69
524.989	261.69
525.204	273.69
525.419	266.69
525.634	254.69
525.849	259.69
526.064	250.69
526.28	246.69
526.495	242.69
526.71	259.69
526.925	259.69
527.14	254.69
527.355	240.69
527.57	239.69
527.785	248.69
527.999	263.69
528.214	253.69
528.429	261.69
528.644	261.69
528.859	267.69
529.074	265.69
529.289	268.69
529.503	336.69
529.718	301.69
529.933	267.69
530.148	262.69
530.363	250.69
530.577	237.69
530.792	241.69
531.007	243.69
531.221	240.69
531.436	250.69
531.651	225.69
531.865	252.69
532.08	251.69
532.295	245.69
532.509	235.69
532.724	244.69
532.938	243.69
533.153	233.69
533.367	254.69
533.582	249.69
533.796	250.69
534.011	243.69
534.225	232.69
534.44	252.69
534.654	238.69
534.868	211.69
535.083	231.69
535.297	237.69
535.511	235.69
535.726	265.69
535.94	263.69
536.154	232.69
536.369	259.69
536.583	235.69
536.797	226.69
537.011	226.69
537.225	214.69
537.44	222.69
537.654	227.69
537.868	218.69
538.082	221.69
538.296	246.69
538.51	227.69
538.724	247.69
538.938	239.69
539.153	228.69
539.367	238.69
539.581	235.69
539.795	227.69
540.009	219.69
540.222	229.69
540.436	216.69
540.65	224.69
540.864	265.69
541.078	242.69
541.292	230.69
541.506	232.69
541.72	226.69
541.934	255.69
542.147	241.69
542.361	238.69
542.575	225.69
542.789	215.69
543.002	229.69
543.216	229.69
543.43	226.69
543.644	242.69
543.857	230.69
544.071	238.69
544.285	234.69
544.498	236.69
544.712	245.69
544.925	235.69
545.139	222.69
545.352	229.69
545.566	217.69
545.779	207.69
545.993	231.69
546.206	227.69
546.42	223.69
546.633	221.69
546.847	218.69
547.06	234.69
547.274	216.69
547.487	209.69
547.7	230.69
547.914	239.69
548.127	227.69
548.34	211.69
548.554	216.69
548.767	225.69
548.98	228.69
549.193	208.69
549.407	220.69
549.62	217.69
549.833	204.69
550.046	222.69
550.259	226.69
550.473	221.69
550.686	222.69
550.899	225.69
551.112	208.69
551.325	229.69
551.538	228.69
551.751	215.69
551.964	201.69
552.177	229.69
552.39	217.69
552.603	207.69
552.816	218.69
553.029	213.69
553.242	217.69
553.455	213.69
553.667	237.69
553.88	255.69
554.093	238.69
554.306	239.69
554.519	217.69
554.732	211.69
554.944	197.69
555.157	221.69
555.37	230.69
555.583	203.69
555.795	209.69
556.008	223.69
556.221	213.69
556.433	216.69
556.646	198.69
556.859	196.69
557.071	197.69
557.284	193.69
557.496	196.69
557.709	201.69
557.921	204.69
558.134	207.69
558.346	213.69
558.559	194.69
558.771	209.69
558.984	194.69
559.196	189.69
559.409	183.69
559.621	206.69
559.833	202.69
560.046	200.69
560.258	190.69
560.47	206.69
560.683	205.69
560.895	193.69
561.107	192.69
561.32	195.69
561.532	216.69
561.744	197.69
561.956	196.69
562.168	201.69
562.381	209.69
562.593	201.69
562.805	180.69
563.017	189.69
563.229	203.69
563.441	195.69
563.653	200.69
563.865	201.69
564.077	204.69
564.289	195.69
564.501	206.69
564.713	201.69
564.925	208.69
565.137	205.69
565.349	209.69
565.561	205.69
565.773	220.69
565.985	207.69
566.197	221.69
566.408	223.69
566.62	223.69
566.832	230.69
567.044	234.69
567.255	239.69
567.467	235.69
567.679	243.69
567.891	232.69
568.102	253.69
568.314	229.69
568.526	233.69
568.737	232.69
568.949	208.69
569.161	220.69
569.372	206.69
569.584	178.69
569.795	221.69
570.007	227.69
570.218	242.69
570.43	231.69
570.641	209.69
570.853	180.69
571.064	191.69
571.276	190.69
571.487	199.69
571.698	184.69
571.91	187.69
572.121	178.69
572.333	173.69
572.544	170.69
572.755	186.69
572.966	180.69
573.178	177.69
573.389	181.69
573.6	175.69
573.811	185.69
574.023	185.69
574.234	171.69
574.445	171.69
574.656	195.69
574.867	162.69
575.078	181.69
575.289	177.69
575.501	168.69
575.712	174.69
575.923	168.69
576.134	166.69
576.345	174.69
576.556	167.69
576.767	175.69
576.978	173.69
577.188	173.69
577.399	181.69
577.61	153.69
577.821	162.69
578.032	170.69
578.243	191.69
578.454	378.69
578.665	258.69
578.875	162.69
579.086	191.69
579.297	182.69
579.508	174.69
579.718	155.69
579.929	173.69
580.14	161.69
580.35	166.69
580.561	157.69
580.772	164.69
580.982	168.69
581.193	140.69
581.403	145.69
581.614	162.69
581.825	152.69
582.035	173.69
582.246	159.69
582.456	157.69
582.667	169.69
582.877	155.69
583.087	174.69
583.298	166.69
583.508	170.69
583.719	155.69
583.929	177.69
584.139	159.69
584.35	160.69
584.56	158.69
584.77	176.69
584.981	163.69
585.191	137.69
585.401	165.69
585.611	161.69
585.821	147.69
586.032	147.69
586.242	167.69
586.452	159.69
586.662	161.69
586.872	164.69
587.082	163.69
587.292	161.69
587.502	146.69
587.713	169.69
587.923	151.69
588.133	157.69
588.343	157.69
588.553	153.69
588.762	163.69
588.972	152.69
589.182	172.69
589.392	169.69
589.602	158.69
589.812	158.69
590.022	169.69
590.232	146.69
590.441	159.69
590.651	173.69
590.861	159.69
591.071	156.69
591.281	149.69
591.49	148.69
591.7	160.69
591.91	138.69
592.119	139.69
592.329	157.69
592.539	163.69
592.748	156.69
592.958	173.69
593.167	178.69
593.377	169.69
593.587	178.69
593.796	163.69
594.006	163.69
594.215	161.69
594.424	164.69
594.634	159.69
594.843	167.69
595.053	165.69
595.262	167.69
595.472	149.69
595.681	141.69
595.89	146.69
596.1	164.69
596.309	153.69
596.518	149.69
596.727	167.69
596.937	155.69
597.146	153.69
597.355	153.69
597.564	153.69
597.774	150.69
597.983	150.69
598.192	137.69
598.401	134.69
598.61	145.69
598.819	142.69
599.028	151.69
599.237	159.69
599.446	158.69
599.655	143.69
599.864	154.69
600.073	146.69
600.282	142.69
600.491	129.69
600.7	147.69
600.909	130.69
601.118	139.69
601.327	144.69
601.536	147.69
601.745	129.69
601.953	151.69
602.162	143.69
602.371	153.69
602.58	147.69
602.789	144.69
602.997	147.69
603.206	148.69
603.415	141.69
603.623	144.69
603.832	162.69
604.041	140.69
604.249	137.69
604.458	149.69
604.666	125.69
604.875	130.69
605.084	143.69
605.292	147.69
605.501	126.69
605.709	157.69
605.918	146.69
606.126	147.69
606.334	130.69
606.543	139.69
606.751	139.69
606.96	144.69
607.168	139.69
607.376	133.69
607.585	146.69
607.793	139.69
608.001	158.69
608.21	133.69
608.418	127.69
608.626	134.69
608.834	144.69
609.043	138.69
609.251	145.69
609.459	134.69
609.667	138.69
609.875	139.69
610.083	136.69
610.291	151.69
610.499	123.69
610.707	149.69
610.916	143.69
611.124	138.69
611.332	145.69
611.54	142.69
611.748	150.69
611.955	143.69
612.163	138.69
612.371	135.69
612.579	126.69
612.787	149.69
612.995	151.69
613.203	140.69
613.411	143.69
613.618	151.69
613.826	125.69
614.034	138.69
614.242	141.69
614.449	130.69
614.657	138.69
614.865	128.69
615.072	144.69
615.28	132.69
615.488	147.69
615.695	145.69
615.903	130.69
616.111	124.69
616.318	145.69
616.526	133.69
616.733	134.69
616.941	145.69
617.148	137.69
617.356	134.69
617.563	131.69
617.771	130.69
617.978	119.69
618.185	136.69
618.393	139.69
618.6	134.69
618.807	146.69
619.015	139.69
619.222	134.69
619.429	151.69
619.637	144.69
619.844	138.69
620.051	117.69
620.258	138.69
620.466	128.69
620.673	130.69
620.88	128.69
621.087	136.69
621.294	132.69
621.501	135.69
621.708	134.69
621.915	149.69
622.122	143.69
622.329	134.69
622.536	130.69
622.743	127.69
622.95	133.69
623.157	121.69
623.364	145.69
623.571	123.69
623.778	147.69
623.985	138.69
624.192	132.69
624.399	133.69
624.606	138.69
624.812	130.69
625.019	129.69
625.226	125.69
625.433	139.69
625.639	125.69
625.846	119.69
626.053	140.69
626.259	127.69
626.466	117.69
626.673	138.69
626.879	135.69
627.086	128.69
627.293	145.69
627.499	113.69
627.706	133.69
627.912	125.69
628.119	138.69
628.325	129.69
628.532	121.69
628.738	137.69
628.945	127.69
629.151	107.69
629.357	120.69
629.564	128.69
629.77	125.69
629.976	122.69
630.183	116.69
630.389	117.69
630.595	127.69
630.802	122.69
631.008	139.69
631.214	142.69
631.42	117.69
631.627	133.69
631.833	119.69
632.039	134.69
632.245	119.69
632.451	125.69
632.657	130.69
632.863	104.69
633.069	118.69
633.275	113.69
633.481	114.69
633.688	117.69
633.893	109.69
634.099	126.69
634.305	99.69
634.511	118.69
634.717	102.69
634.923	111.69
635.129	131.69
635.335	125.69
635.541	117.69
635.747	102.69
635.952	117.69
636.158	113.69
636.364	114.69
636.57	121.69
636.775	119.69
636.981	96.69
637.187	111.69
637.392	101.69
637.598	120.69
637.804	125.69
638.009	116.69
638.215	117.69
638.421	102.69
638.626	107.69
638.832	123.69
639.037	103.69
639.243	116.69
639.448	111.69
639.654	115.69
639.859	114.69
640.065	114.69
640.27	122.69
640.475	132.69
640.681	116.69
640.886	111.69
641.091	118.69
641.297	118.69
641.502	113.69
641.707	128.69
641.913	128.69
642.118	114.69
642.323	89.69
642.528	106.69
642.733	102.69
642.939	111.69
643.144	124.69
643.349	113.69
643.554	118.69
643.759	113.69
643.964	110.69
644.169	110.69
644.374	102.69
644.579	109.69
644.784	120.69
644.989	118.69
645.194	109.69
645.399	109.69
645.604	101.69
645.809	117.69
646.014	115.69
646.219	118.69
646.423	109.69
646.628	117.69
646.833	99.69
647.038	119.69
647.243	115.69
647.447	120.69
647.652	129.69
647.857	120.69
648.062	120.69
648.266	106.69
648.471	123.69
648.676	113.69
648.88	112.69
649.085	122.69
649.289	89.69
649.494	110.69
649.698	113.69
649.903	121.69
650.107	107.69
650.312	118.69
650.516	110.69
650.721	110.69
650.925	110.69
651.13	122.69
651.334	112.69
651.539	117.69
651.743	109.69
651.947	114.69
652.152	109.69
652.356	102.69
652.56	105.69
652.764	94.69
652.969	102.69
653.173	107.69
653.377	100.69
653.581	95.69
653.785	95.69
653.99	95.69
654.194	120.69
654.398	96.69
654.602	110.69
654.806	97.69
655.01	111.69
655.214	102.69
655.418	117.69
655.622	100.69
655.826	101.69
656.03	100.69
656.234	112.69
656.438	109.69
656.642	107.69
656.846	101.69
657.049	118.69
657.253	107.69
657.457	83.69
657.661	97.69
657.865	94.69
658.068	86.69
658.272	95.69
658.476	87.69
658.68	91.69
658.883	97.69
659.087	85.69
659.291	87.69
659.494	81.69
659.698	58.69
659.901	87.69
660.105	88.69
660.309	79.69
660.512	77.69
660.716	80.69
660.919	69.69
661.123	74.69
661.326	80.69
661.53	66.69
661.733	74.69
661.936	78.69
662.14	85.69
662.343	75.69
662.546	84.69
662.75	86.69
662.953	94.69
663.156	84.69
663.36	91.69
663.563	91.69
663.766	62.69
663.969	80.69
664.173	68.69
664.376	95.69
664.579	69.69
664.782	69.69
664.985	79.69
665.188	78.69
665.391	75.69
665.594	67.69
665.797	79.69
666	73.69
666.203	76.69
666.406	74.69
666.609	84.69
666.812	98.69
667.015	80.69
667.218	63.69
667.421	69.69
667.624	75.69
667.827	77.69
668.03	83.69
668.232	79.69
668.435	66.69
668.638	75.69
668.841	74.69
669.043	71.69
669.246	86.69
669.449	80.69
669.651	87.69
669.854	86.69
670.057	80.69
670.259	74.69
670.462	83.69
670.665	76.69
670.867	80.69
671.07	88.69
671.272	75.69
671.475	82.69
671.677	62.69
671.88	72.69
672.082	68.69
672.284	67.69
672.487	72.69
672.689	78.69
672.892	87.69
