Data from 1966.PennyLincolnUp.Lamp.En5.5.200Scan.071719.P1.Scan2.head_HRD10591_14-19-13-250.txt Node
Date: Thu Jul 18 14:19:13 EDT 2019
User: cochatt
Spectrometer: HR+D1059
Trigger mode: 1
Integration Time (sec): 1.000000E-1
Scans to average: 1
Electric dark correction enabled: true
Nonlinearity correction enabled: false
Boxcar width: 0
XAxis mode: Wavelengths
Number of Pixels in Spectrum: 2048
>>>>>Begin Spectral Data<<<<<
223.165	-11.19
223.4	-11.19
223.635	-11.19
223.869	-16.19
224.104	-15.19
224.338	-8.19
224.573	6.81
224.808	-10.19
225.042	-18.19
225.277	-17.19
225.511	-10.19
225.746	-0.19
225.98	4.81
226.215	-8.19
226.449	14.81
226.683	38.81
226.918	27.81
227.152	21.81
227.387	30.81
227.621	46.81
227.856	46.81
228.09	48.81
228.324	64.81
228.559	55.81
228.793	76.81
229.027	94.81
229.262	91.81
229.496	118.81
229.73	130.81
229.964	157.81
230.199	125.81
230.433	118.81
230.667	116.81
230.901	111.81
231.136	110.81
231.37	119.81
231.604	106.81
231.838	111.81
232.072	115.81
232.306	120.81
232.541	119.81
232.775	109.81
233.009	126.81
233.243	110.81
233.477	112.81
233.711	117.81
233.945	134.81
234.179	128.81
234.413	123.81
234.647	116.81
234.881	109.81
235.115	118.81
235.349	129.81
235.583	116.81
235.817	123.81
236.051	130.81
236.285	148.81
236.519	125.81
236.753	147.81
236.987	153.81
237.221	182.81
237.455	244.81
237.689	205.81
237.922	148.81
238.156	140.81
238.39	135.81
238.624	132.81
238.858	135.81
239.091	136.81
239.325	131.81
239.559	121.81
239.793	142.81
240.027	140.81
240.26	148.81
240.494	159.81
240.728	161.81
240.961	159.81
241.195	148.81
241.429	143.81
241.662	156.81
241.896	136.81
242.13	126.81
242.363	128.81
242.597	144.81
242.83	160.81
243.064	148.81
243.298	144.81
243.531	150.81
243.765	155.81
243.998	131.81
244.232	124.81
244.465	149.81
244.699	142.81
244.932	162.81
245.166	146.81
245.399	156.81
245.633	145.81
245.866	170.81
246.099	145.81
246.333	154.81
246.566	157.81
246.8	163.81
247.033	166.81
247.266	160.81
247.5	195.81
247.733	186.81
247.966	194.81
248.2	180.81
248.433	168.81
248.666	187.81
248.899	196.81
249.133	206.81
249.366	220.81
249.599	202.81
249.832	200.81
250.066	190.81
250.299	192.81
250.532	194.81
250.765	212.81
250.998	223.81
251.231	244.81
251.465	222.81
251.698	210.81
251.931	218.81
252.164	202.81
252.397	194.81
252.63	217.81
252.863	203.81
253.096	209.81
253.329	219.81
253.562	245.81
253.795	224.81
254.028	221.81
254.261	224.81
254.494	229.81
254.727	265.81
254.96	303.81
255.193	283.81
255.426	264.81
255.659	231.81
255.892	253.81
256.124	254.81
256.357	250.81
256.59	235.81
256.823	226.81
257.056	234.81
257.289	228.81
257.521	203.81
257.754	223.81
257.987	215.81
258.22	213.81
258.452	217.81
258.685	211.81
258.918	220.81
259.151	213.81
259.383	224.81
259.616	222.81
259.849	220.81
260.081	251.81
260.314	265.81
260.547	276.81
260.779	254.81
261.012	251.81
261.244	227.81
261.477	224.81
261.71	228.81
261.942	234.81
262.175	251.81
262.407	238.81
262.64	234.81
262.872	219.81
263.105	223.81
263.337	235.81
263.57	224.81
263.802	214.81
264.035	216.81
264.267	208.81
264.499	216.81
264.732	222.81
264.964	208.81
265.197	226.81
265.429	222.81
265.661	232.81
265.894	233.81
266.126	241.81
266.358	230.81
266.591	229.81
266.823	246.81
267.055	236.81
267.287	244.81
267.52	231.81
267.752	236.81
267.984	237.81
268.216	248.81
268.448	241.81
268.681	237.81
268.913	254.81
269.145	263.81
269.377	266.81
269.609	261.81
269.841	286.81
270.073	283.81
270.306	285.81
270.538	332.81
270.77	308.81
271.002	295.81
271.234	300.81
271.466	314.81
271.698	300.81
271.93	324.81
272.162	324.81
272.394	328.81
272.626	299.81
272.858	300.81
273.09	283.81
273.322	263.81
273.553	271.81
273.785	277.81
274.017	290.81
274.249	269.81
274.481	288.81
274.713	282.81
274.945	248.81
275.176	276.81
275.408	277.81
275.64	279.81
275.872	277.81
276.104	279.81
276.335	262.81
276.567	296.81
276.799	287.81
277.031	319.81
277.262	332.81
277.494	329.81
277.726	315.81
277.957	309.81
278.189	288.81
278.421	271.81
278.652	279.81
278.884	293.81
279.115	265.81
279.347	287.81
279.579	279.81
279.81	277.81
280.042	277.81
280.273	282.81
280.505	270.81
280.736	290.81
280.968	288.81
281.199	276.81
281.431	284.81
281.662	291.81
281.894	255.81
282.125	288.81
282.356	300.81
282.588	335.81
282.819	328.81
283.051	279.81
283.282	284.81
283.513	286.81
283.745	304.81
283.976	278.81
284.207	279.81
284.439	301.81
284.67	294.81
284.901	290.81
285.132	273.81
285.364	284.81
285.595	268.81
285.826	272.81
286.057	295.81
286.288	294.81
286.52	296.81
286.751	286.81
286.982	267.81
287.213	300.81
287.444	288.81
287.675	304.81
287.906	298.81
288.138	310.81
288.369	310.81
288.6	315.81
288.831	301.81
289.062	290.81
289.293	298.81
289.524	296.81
289.755	301.81
289.986	307.81
290.217	295.81
290.448	308.81
290.679	326.81
290.91	293.81
291.141	315.81
291.371	295.81
291.602	302.81
291.833	302.81
292.064	286.81
292.295	288.81
292.526	296.81
292.757	299.81
292.987	294.81
293.218	301.81
293.449	292.81
293.68	302.81
293.91	299.81
294.141	311.81
294.372	302.81
294.603	302.81
294.833	305.81
295.064	314.81
295.295	304.81
295.525	299.81
295.756	298.81
295.987	332.81
296.217	333.81
296.448	340.81
296.679	310.81
296.909	324.81
297.14	322.81
297.37	320.81
297.601	310.81
297.831	310.81
298.062	320.81
298.292	336.81
298.523	323.81
298.753	302.81
298.984	327.81
299.214	327.81
299.445	323.81
299.675	316.81
299.905	340.81
300.136	330.81
300.366	332.81
300.597	321.81
300.827	330.81
301.057	330.81
301.288	343.81
301.518	328.81
301.748	324.81
301.979	334.81
302.209	327.81
302.439	359.81
302.669	339.81
302.9	346.81
303.13	334.81
303.36	356.81
303.59	343.81
303.82	342.81
304.051	371.81
304.281	342.81
304.511	338.81
304.741	354.81
304.971	332.81
305.201	339.81
305.431	325.81
305.661	335.81
305.891	334.81
306.121	350.81
306.352	364.81
306.582	353.81
306.812	341.81
307.042	338.81
307.272	344.81
307.502	344.81
307.731	351.81
307.961	360.81
308.191	364.81
308.421	349.81
308.651	354.81
308.881	336.81
309.111	355.81
309.341	361.81
309.571	341.81
309.8	380.81
310.03	388.81
310.26	379.81
310.49	388.81
310.72	376.81
310.949	404.81
311.179	400.81
311.409	401.81
311.639	379.81
311.868	393.81
312.098	388.81
312.328	383.81
312.557	397.81
312.787	436.81
313.017	404.81
313.246	411.81
313.476	388.81
313.706	391.81
313.935	408.81
314.165	414.81
314.394	414.81
314.624	399.81
314.853	419.81
315.083	406.81
315.312	384.81
315.542	399.81
315.771	381.81
316.001	387.81
316.23	381.81
316.46	390.81
316.689	399.81
316.919	391.81
317.148	396.81
317.377	410.81
317.607	392.81
317.836	395.81
318.065	388.81
318.295	406.81
318.524	386.81
318.753	395.81
318.983	391.81
319.212	389.81
319.441	394.81
319.67	394.81
319.9	389.81
320.129	401.81
320.358	389.81
320.587	393.81
320.816	419.81
321.046	425.81
321.275	436.81
321.504	431.81
321.733	432.81
321.962	420.81
322.191	435.81
322.42	459.81
322.649	445.81
322.878	483.81
323.108	457.81
323.337	491.81
323.566	509.81
323.795	523.81
324.024	570.81
324.253	670.81
324.482	1012.81
324.71	1553.81
324.939	2318.81
325.168	1985.81
325.397	983.81
325.626	662.81
325.855	539.81
326.084	532.81
326.313	517.81
326.542	495.81
326.77	555.81
326.999	656.81
327.228	895.81
327.457	1386.81
327.686	1745.81
327.914	1124.81
328.143	733.81
328.372	668.81
328.6	623.81
328.829	578.81
329.058	592.81
329.287	630.81
329.515	558.81
329.744	523.81
329.972	523.81
330.201	547.81
330.43	600.81
330.658	616.81
330.887	635.81
331.115	615.81
331.344	531.81
331.572	502.81
331.801	506.81
332.03	512.81
332.258	494.81
332.486	472.81
332.715	478.81
332.943	475.81
333.172	471.81
333.4	468.81
333.629	502.81
333.857	501.81
334.085	525.81
334.314	547.81
334.542	581.81
334.771	584.81
334.999	533.81
335.227	504.81
335.455	480.81
335.684	495.81
335.912	471.81
336.14	469.81
336.369	474.81
336.597	465.81
336.825	480.81
337.053	488.81
337.281	474.81
337.51	483.81
337.738	489.81
337.966	451.81
338.194	462.81
338.422	467.81
338.65	480.81
338.878	461.81
339.106	460.81
339.334	459.81
339.562	463.81
339.79	458.81
340.018	460.81
340.246	468.81
340.474	454.81
340.702	473.81
340.93	448.81
341.158	450.81
341.386	468.81
341.614	453.81
341.842	466.81
342.07	438.81
342.298	437.81
342.526	453.81
342.754	458.81
342.981	448.81
343.209	458.81
343.437	454.81
343.665	471.81
343.893	450.81
344.12	463.81
344.348	475.81
344.576	485.81
344.804	459.81
345.031	457.81
345.259	474.81
345.487	479.81
345.714	462.81
345.942	478.81
346.17	458.81
346.397	443.81
346.625	462.81
346.853	427.81
347.08	456.81
347.308	452.81
347.535	448.81
347.763	475.81
347.99	473.81
348.218	462.81
348.445	478.81
348.673	459.81
348.9	426.81
349.128	446.81
349.355	429.81
349.583	437.81
349.81	432.81
350.037	452.81
350.265	440.81
350.492	427.81
350.72	444.81
350.947	471.81
351.174	447.81
351.402	454.81
351.629	454.81
351.856	440.81
352.083	452.81
352.311	470.81
352.538	462.81
352.765	462.81
352.992	454.81
353.22	451.81
353.447	464.81
353.674	444.81
353.901	412.81
354.128	411.81
354.355	420.81
354.583	414.81
354.81	429.81
355.037	427.81
355.264	398.81
355.491	403.81
355.718	410.81
355.945	422.81
356.172	423.81
356.399	415.81
356.626	416.81
356.853	440.81
357.08	413.81
357.307	407.81
357.534	418.81
357.761	436.81
357.988	406.81
358.215	416.81
358.441	415.81
358.668	443.81
358.895	442.81
359.122	447.81
359.349	439.81
359.576	439.81
359.802	487.81
360.029	509.81
360.256	525.81
360.483	479.81
360.709	467.81
360.936	450.81
361.163	439.81
361.39	437.81
361.616	459.81
361.843	443.81
362.07	437.81
362.296	454.81
362.523	458.81
362.749	465.81
362.976	454.81
363.203	424.81
363.429	437.81
363.656	457.81
363.882	435.81
364.109	446.81
364.335	430.81
364.562	414.81
364.788	414.81
365.015	424.81
365.241	422.81
365.468	440.81
365.694	439.81
365.92	451.81
366.147	438.81
366.373	428.81
366.599	442.81
366.826	444.81
367.052	439.81
367.278	434.81
367.505	436.81
367.731	423.81
367.957	464.81
368.184	434.81
368.41	436.81
368.636	437.81
368.862	453.81
369.089	456.81
369.315	446.81
369.541	429.81
369.767	446.81
369.993	425.81
370.219	434.81
370.445	438.81
370.672	436.81
370.898	423.81
371.124	440.81
371.35	418.81
371.576	437.81
371.802	438.81
372.028	435.81
372.254	441.81
372.48	430.81
372.706	451.81
372.932	436.81
373.158	437.81
373.384	441.81
373.61	437.81
373.835	439.81
374.061	447.81
374.287	431.81
374.513	443.81
374.739	431.81
374.965	430.81
375.191	447.81
375.416	470.81
375.642	447.81
375.868	444.81
376.094	424.81
376.319	440.81
376.545	457.81
376.771	438.81
376.997	446.81
377.222	455.81
377.448	439.81
377.674	430.81
377.899	450.81
378.125	442.81
378.35	430.81
378.576	419.81
378.802	421.81
379.027	442.81
379.253	446.81
379.478	443.81
379.704	435.81
379.929	446.81
380.155	429.81
380.38	450.81
380.606	442.81
380.831	453.81
381.057	439.81
381.282	447.81
381.507	448.81
381.733	457.81
381.958	456.81
382.184	448.81
382.409	436.81
382.634	458.81
382.86	457.81
383.085	440.81
383.31	463.81
383.535	467.81
383.761	451.81
383.986	463.81
384.211	463.81
384.436	447.81
384.662	468.81
384.887	484.81
385.112	466.81
385.337	468.81
385.562	459.81
385.787	482.81
386.013	501.81
386.238	512.81
386.463	500.81
386.688	487.81
386.913	508.81
387.138	468.81
387.363	494.81
387.588	490.81
387.813	508.81
388.038	504.81
388.263	494.81
388.488	506.81
388.713	498.81
388.938	487.81
389.163	501.81
389.387	496.81
389.612	481.81
389.837	483.81
390.062	498.81
390.287	490.81
390.512	494.81
390.736	487.81
390.961	499.81
391.186	522.81
391.411	491.81
391.636	502.81
391.86	491.81
392.085	505.81
392.31	513.81
392.534	520.81
392.759	540.81
392.984	483.81
393.208	502.81
393.433	501.81
393.658	519.81
393.882	486.81
394.107	522.81
394.331	490.81
394.556	490.81
394.78	531.81
395.005	513.81
395.229	531.81
395.454	517.81
395.678	542.81
395.903	551.81
396.127	545.81
396.352	567.81
396.576	529.81
396.801	539.81
397.025	543.81
397.249	546.81
397.474	526.81
397.698	550.81
397.922	556.81
398.147	556.81
398.371	567.81
398.595	572.81
398.82	570.81
399.044	570.81
399.268	603.81
399.492	622.81
399.717	657.81
399.941	706.81
400.165	705.81
400.389	708.81
400.613	646.81
400.837	609.81
401.062	590.81
401.286	602.81
401.51	591.81
401.734	567.81
401.958	566.81
402.182	582.81
402.406	591.81
402.63	572.81
402.854	555.81
403.078	567.81
403.302	603.81
403.526	575.81
403.75	608.81
403.974	594.81
404.198	605.81
404.422	614.81
404.645	610.81
404.869	614.81
405.093	637.81
405.317	670.81
405.541	763.81
405.765	666.81
405.988	642.81
406.212	645.81
406.436	647.81
406.66	694.81
406.883	635.81
407.107	663.81
407.331	715.81
407.555	788.81
407.778	800.81
408.002	715.81
408.226	715.81
408.449	678.81
408.673	670.81
408.896	680.81
409.12	744.81
409.344	703.81
409.567	639.81
409.791	629.81
410.014	632.81
410.238	597.81
410.461	607.81
410.685	602.81
410.908	595.81
411.132	647.81
411.355	698.81
411.578	648.81
411.802	610.81
412.025	583.81
412.249	618.81
412.472	622.81
412.695	672.81
412.919	695.81
413.142	628.81
413.365	592.81
413.589	568.81
413.812	574.81
414.035	593.81
414.258	565.81
414.482	582.81
414.705	562.81
414.928	553.81
415.151	579.81
415.374	550.81
415.597	585.81
415.821	542.81
416.044	562.81
416.267	575.81
416.49	557.81
416.713	580.81
416.936	580.81
417.159	580.81
417.382	559.81
417.605	575.81
417.828	617.81
418.051	597.81
418.274	581.81
418.497	588.81
418.72	546.81
418.943	570.81
419.166	592.81
419.389	618.81
419.611	627.81
419.834	614.81
420.057	614.81
420.28	600.81
420.503	607.81
420.726	609.81
420.948	630.81
421.171	654.81
421.394	685.81
421.617	629.81
421.839	582.81
422.062	579.81
422.285	612.81
422.507	663.81
422.73	761.81
422.953	709.81
423.175	656.81
423.398	629.81
423.621	632.81
423.843	634.81
424.066	619.81
424.288	647.81
424.511	650.81
424.733	698.81
424.956	805.81
425.178	759.81
425.401	758.81
425.623	822.81
425.846	684.81
426.068	655.81
426.291	639.81
426.513	642.81
426.735	662.81
426.958	702.81
427.18	777.81
427.402	959.81
427.625	1014.81
427.847	889.81
428.069	807.81
428.292	702.81
428.514	643.81
428.736	616.81
428.958	621.81
429.181	580.81
429.403	578.81
429.625	599.81
429.847	622.81
430.069	706.81
430.292	712.81
430.514	622.81
430.736	593.81
430.958	600.81
431.18	554.81
431.402	564.81
431.624	544.81
431.846	562.81
432.068	562.81
432.29	548.81
432.512	566.81
432.734	583.81
432.956	599.81
433.178	596.81
433.4	588.81
433.622	573.81
433.844	562.81
434.066	562.81
434.287	548.81
434.509	588.81
434.731	584.81
434.953	587.81
435.175	601.81
435.397	638.81
435.618	638.81
435.84	673.81
436.062	800.81
436.284	874.81
436.505	718.81
436.727	639.81
436.949	608.81
437.17	598.81
437.392	582.81
437.614	600.81
437.835	639.81
438.057	737.81
438.278	847.81
438.5	842.81
438.721	976.81
438.943	895.81
439.165	717.81
439.386	674.81
439.608	650.81
439.829	655.81
440.05	665.81
440.272	711.81
440.493	674.81
440.715	647.81
440.936	604.81
441.158	583.81
441.379	593.81
441.6	609.81
441.822	643.81
442.043	684.81
442.264	779.81
442.486	814.81
442.707	695.81
442.928	680.81
443.149	640.81
443.371	678.81
443.592	735.81
443.813	829.81
444.034	891.81
444.255	758.81
444.476	662.81
444.698	670.81
444.919	648.81
445.14	742.81
445.361	680.81
445.582	700.81
445.803	760.81
446.024	870.81
446.245	894.81
446.466	825.81
446.687	692.81
446.908	639.81
447.129	590.81
447.35	606.81
447.571	567.81
447.792	573.81
448.013	607.81
448.234	611.81
448.455	655.81
448.675	790.81
448.896	926.81
449.117	770.81
449.338	719.81
449.559	853.81
449.779	971.81
450	778.81
450.221	634.81
450.442	581.81
450.662	596.81
450.883	580.81
451.104	576.81
451.324	574.81
451.545	574.81
451.766	558.81
451.986	519.81
452.207	528.81
452.428	515.81
452.648	541.81
452.869	528.81
453.089	558.81
453.31	544.81
453.53	548.81
453.751	526.81
453.971	530.81
454.192	514.81
454.412	536.81
454.633	521.81
454.853	523.81
455.073	521.81
455.294	575.81
455.514	627.81
455.734	622.81
455.955	546.81
456.175	505.81
456.395	501.81
456.616	494.81
456.836	500.81
457.056	500.81
457.276	483.81
457.497	510.81
457.717	514.81
457.937	505.81
458.157	521.81
458.377	486.81
458.598	527.81
458.818	599.81
459.038	672.81
459.258	702.81
459.478	609.81
459.698	570.81
459.918	552.81
460.138	555.81
460.358	575.81
460.578	584.81
460.798	574.81
461.018	570.81
461.238	575.81
461.458	557.81
461.678	565.81
461.898	564.81
462.118	585.81
462.338	591.81
462.558	583.81
462.777	616.81
462.997	630.81
463.217	638.81
463.437	635.81
463.657	610.81
463.876	623.81
464.096	631.81
464.316	611.81
464.536	632.81
464.755	638.81
464.975	618.81
465.195	670.81
465.414	713.81
465.634	662.81
465.854	597.81
466.073	579.81
466.293	580.81
466.512	544.81
466.732	548.81
466.951	543.81
467.171	556.81
467.391	577.81
467.61	553.81
467.829	580.81
468.049	538.81
468.268	538.81
468.488	546.81
468.707	510.81
468.927	522.81
469.146	562.81
469.365	550.81
469.585	535.81
469.804	537.81
470.023	566.81
470.243	559.81
470.462	570.81
470.681	573.81
470.901	575.81
471.12	553.81
471.339	556.81
471.558	545.81
471.777	536.81
471.997	560.81
472.216	586.81
472.435	602.81
472.654	588.81
472.873	555.81
473.092	548.81
473.311	552.81
473.53	536.81
473.749	569.81
473.968	590.81
474.187	718.81
474.406	751.81
474.625	626.81
474.844	602.81
475.063	568.81
475.282	560.81
475.501	566.81
475.72	571.81
475.939	560.81
476.158	570.81
476.377	555.81
476.596	558.81
476.814	578.81
477.033	567.81
477.252	592.81
477.471	582.81
477.69	576.81
477.908	611.81
478.127	610.81
478.346	633.81
478.564	607.81
478.783	617.81
479.002	637.81
479.22	616.81
479.439	634.81
479.658	664.81
479.876	660.81
480.095	654.81
480.313	694.81
480.532	699.81
480.751	658.81
480.969	705.81
481.188	746.81
481.406	795.81
481.624	730.81
481.843	679.81
482.061	652.81
482.28	649.81
482.498	637.81
482.717	656.81
482.935	657.81
483.153	634.81
483.372	668.81
483.59	657.81
483.808	649.81
484.027	621.81
484.245	648.81
484.463	674.81
484.681	675.81
484.9	675.81
485.118	671.81
485.336	666.81
485.554	643.81
485.772	656.81
485.99	686.81
486.209	672.81
486.427	692.81
486.645	702.81
486.863	676.81
487.081	693.81
487.299	686.81
487.517	690.81
487.735	687.81
487.953	684.81
488.171	681.81
488.389	716.81
488.607	704.81
488.825	720.81
489.043	698.81
489.261	691.81
489.479	683.81
489.696	712.81
489.914	726.81
490.132	716.81
490.35	759.81
490.568	742.81
490.786	761.81
491.003	758.81
491.221	783.81
491.439	780.81
491.657	807.81
491.874	808.81
492.092	792.81
492.31	803.81
492.527	769.81
492.745	810.81
492.963	811.81
493.18	819.81
493.398	827.81
493.615	831.81
493.833	850.81
494.05	834.81
494.268	816.81
494.485	824.81
494.703	842.81
494.92	801.81
495.138	844.81
495.355	829.81
495.573	844.81
495.79	831.81
496.008	855.81
496.225	844.81
496.442	838.81
496.66	830.81
496.877	843.81
497.094	839.81
497.312	842.81
497.529	873.81
497.746	876.81
497.963	901.81
498.181	901.81
498.398	878.81
498.615	922.81
498.832	943.81
499.049	965.81
499.267	989.81
499.484	972.81
499.701	1066.81
499.918	1099.81
500.135	1126.81
500.352	1174.81
500.569	1188.81
500.786	1199.81
501.003	1202.81
501.22	1160.81
501.437	1132.81
501.654	1066.81
501.871	1078.81
502.088	1051.81
502.305	982.81
502.522	952.81
502.739	936.81
502.956	900.81
503.172	887.81
503.389	891.81
503.606	877.81
503.823	860.81
504.04	875.81
504.256	850.81
504.473	848.81
504.69	837.81
504.907	841.81
505.123	821.81
505.34	819.81
505.557	795.81
505.773	832.81
505.99	808.81
506.207	780.81
506.423	809.81
506.64	815.81
506.856	776.81
507.073	776.81
507.289	784.81
507.506	758.81
507.722	779.81
507.939	807.81
508.155	787.81
508.372	739.81
508.588	746.81
508.805	743.81
509.021	733.81
509.238	754.81
509.454	767.81
509.67	756.81
509.887	733.81
510.103	728.81
510.319	785.81
510.536	846.81
510.752	1278.81
510.968	1090.81
511.184	760.81
511.401	729.81
511.617	709.81
511.833	694.81
512.049	676.81
512.265	718.81
512.481	706.81
512.698	707.81
512.914	694.81
513.13	715.81
513.346	696.81
513.562	702.81
513.778	704.81
513.994	714.81
514.21	701.81
514.426	717.81
514.642	760.81
514.858	829.81
515.074	846.81
515.29	956.81
515.506	1348.81
515.721	1149.81
515.937	833.81
516.153	747.81
516.369	746.81
516.585	742.81
516.801	716.81
517.016	738.81
517.232	735.81
517.448	747.81
517.664	741.81
517.879	729.81
518.095	732.81
518.311	744.81
518.527	727.81
518.742	734.81
518.958	713.81
519.173	711.81
519.389	710.81
519.605	696.81
519.82	718.81
520.036	733.81
520.251	757.81
520.467	751.81
520.682	741.81
520.898	763.81
521.113	765.81
521.329	818.81
521.544	896.81
521.76	1124.81
521.975	1752.81
522.19	1687.81
522.406	997.81
522.621	773.81
522.836	720.81
523.052	694.81
523.267	670.81
523.482	653.81
523.698	640.81
523.913	648.81
524.128	636.81
524.343	621.81
524.559	610.81
524.774	591.81
524.989	618.81
525.204	607.81
525.419	596.81
525.634	610.81
525.849	602.81
526.064	584.81
526.28	566.81
526.495	584.81
526.71	581.81
526.925	584.81
527.14	587.81
527.355	583.81
527.57	577.81
527.785	567.81
527.999	564.81
528.214	574.81
528.429	582.81
528.644	586.81
528.859	606.81
529.074	589.81
529.289	615.81
529.503	709.81
529.718	655.81
529.933	612.81
530.148	607.81
530.363	578.81
530.577	564.81
530.792	558.81
531.007	557.81
531.221	585.81
531.436	578.81
531.651	565.81
531.865	568.81
532.08	563.81
532.295	590.81
532.509	579.81
532.724	558.81
532.938	535.81
533.153	558.81
533.367	550.81
533.582	560.81
533.796	552.81
534.011	544.81
534.225	556.81
534.44	556.81
534.654	539.81
534.868	523.81
535.083	549.81
535.297	539.81
535.511	543.81
535.726	543.81
535.94	557.81
536.154	558.81
536.369	530.81
536.583	542.81
536.797	544.81
537.011	532.81
537.225	524.81
537.44	529.81
537.654	534.81
537.868	522.81
538.082	534.81
538.296	549.81
538.51	537.81
538.724	540.81
538.938	533.81
539.153	534.81
539.367	547.81
539.581	542.81
539.795	526.81
540.009	540.81
540.222	518.81
540.436	540.81
540.65	546.81
540.864	527.81
541.078	552.81
541.292	539.81
541.506	520.81
541.72	543.81
541.934	525.81
542.147	514.81
542.361	521.81
542.575	522.81
542.789	527.81
543.002	507.81
543.216	541.81
543.43	553.81
543.644	526.81
543.857	524.81
544.071	511.81
544.285	536.81
544.498	522.81
544.712	528.81
544.925	541.81
545.139	518.81
545.352	531.81
545.566	522.81
545.779	498.81
545.993	532.81
546.206	500.81
546.42	501.81
546.633	524.81
546.847	519.81
547.06	503.81
547.274	507.81
547.487	495.81
547.7	516.81
547.914	516.81
548.127	519.81
548.34	495.81
548.554	512.81
548.767	500.81
548.98	499.81
549.193	493.81
549.407	509.81
549.62	519.81
549.833	510.81
550.046	516.81
550.259	485.81
550.473	495.81
550.686	500.81
550.899	493.81
551.112	500.81
551.325	469.81
551.538	506.81
551.751	506.81
551.964	491.81
552.177	496.81
552.39	493.81
552.603	500.81
552.816	511.81
553.029	485.81
553.242	517.81
553.455	526.81
553.667	540.81
553.88	524.81
554.093	512.81
554.306	502.81
554.519	520.81
554.732	499.81
554.944	494.81
555.157	473.81
555.37	494.81
555.583	462.81
555.795	479.81
556.008	451.81
556.221	478.81
556.433	459.81
556.646	476.81
556.859	476.81
557.071	449.81
557.284	462.81
557.496	458.81
557.709	464.81
557.921	461.81
558.134	437.81
558.346	447.81
558.559	467.81
558.771	443.81
558.984	452.81
559.196	469.81
559.409	443.81
559.621	459.81
559.833	451.81
560.046	458.81
560.258	427.81
560.47	462.81
560.683	452.81
560.895	439.81
561.107	457.81
561.32	462.81
561.532	434.81
561.744	440.81
561.956	450.81
562.168	462.81
562.381	456.81
562.593	454.81
562.805	468.81
563.017	464.81
563.229	458.81
563.441	471.81
563.653	457.81
563.865	464.81
564.077	450.81
564.289	463.81
564.501	466.81
564.713	461.81
564.925	479.81
565.137	479.81
565.349	488.81
565.561	495.81
565.773	509.81
565.985	499.81
566.197	542.81
566.408	525.81
566.62	564.81
566.832	580.81
567.044	588.81
567.255	573.81
567.467	562.81
567.679	587.81
567.891	586.81
568.102	585.81
568.314	566.81
568.526	546.81
568.737	536.81
568.949	504.81
569.161	492.81
569.372	492.81
569.584	474.81
569.795	460.81
570.007	439.81
570.218	507.81
570.43	486.81
570.641	452.81
570.853	430.81
571.064	436.81
571.276	428.81
571.487	439.81
571.698	441.81
571.91	405.81
572.121	434.81
572.333	431.81
572.544	428.81
572.755	403.81
572.966	422.81
573.178	405.81
573.389	403.81
573.6	386.81
573.811	393.81
574.023	394.81
574.234	382.81
574.445	391.81
574.656	387.81
574.867	389.81
575.078	393.81
575.289	384.81
575.501	406.81
575.712	380.81
575.923	396.81
576.134	398.81
576.345	364.81
576.556	394.81
576.767	376.81
576.978	365.81
577.188	383.81
577.399	382.81
577.61	361.81
577.821	384.81
578.032	387.81
578.243	390.81
578.454	589.81
578.665	471.81
578.875	372.81
579.086	382.81
579.297	376.81
579.508	359.81
579.718	347.81
579.929	354.81
580.14	355.81
580.35	340.81
580.561	350.81
580.772	352.81
580.982	350.81
581.193	352.81
581.403	352.81
581.614	352.81
581.825	368.81
582.035	364.81
582.246	342.81
582.456	359.81
582.667	364.81
582.877	326.81
583.087	346.81
583.298	334.81
583.508	347.81
583.719	346.81
583.929	346.81
584.139	337.81
584.35	336.81
584.56	342.81
584.77	343.81
584.981	354.81
585.191	346.81
585.401	331.81
585.611	349.81
585.821	343.81
586.032	344.81
586.242	333.81
586.452	348.81
586.662	342.81
586.872	326.81
587.082	343.81
587.292	345.81
587.502	322.81
587.713	324.81
587.923	336.81
588.133	327.81
588.343	339.81
588.553	345.81
588.762	346.81
588.972	317.81
589.182	342.81
589.392	315.81
589.602	323.81
589.812	341.81
590.022	362.81
590.232	347.81
590.441	335.81
590.651	347.81
590.861	323.81
591.071	333.81
591.281	342.81
591.49	332.81
591.7	351.81
591.91	354.81
592.119	330.81
592.329	338.81
592.539	357.81
592.748	340.81
592.958	373.81
593.167	380.81
593.377	367.81
593.587	369.81
593.796	372.81
594.006	375.81
594.215	364.81
594.424	344.81
594.634	339.81
594.843	336.81
595.053	348.81
595.262	354.81
595.472	345.81
595.681	351.81
595.89	333.81
596.1	330.81
596.309	340.81
596.518	330.81
596.727	338.81
596.937	319.81
597.146	311.81
597.355	309.81
597.564	310.81
597.774	318.81
597.983	319.81
598.192	292.81
598.401	303.81
598.61	311.81
598.819	296.81
599.028	309.81
599.237	294.81
599.446	308.81
599.655	312.81
599.864	306.81
600.073	294.81
600.282	308.81
600.491	295.81
600.7	289.81
600.909	283.81
601.118	296.81
601.327	290.81
601.536	263.81
601.745	279.81
601.953	288.81
602.162	290.81
602.371	291.81
602.58	293.81
602.789	283.81
602.997	290.81
603.206	313.81
603.415	278.81
603.623	302.81
603.832	286.81
604.041	281.81
604.249	291.81
604.458	280.81
604.666	275.81
604.875	281.81
605.084	287.81
605.292	277.81
605.501	264.81
605.709	261.81
605.918	287.81
606.126	285.81
606.334	288.81
606.543	292.81
606.751	283.81
606.96	282.81
607.168	286.81
607.376	279.81
607.585	282.81
607.793	286.81
608.001	294.81
608.21	301.81
608.418	267.81
608.626	275.81
608.834	258.81
609.043	277.81
609.251	288.81
609.459	278.81
609.667	271.81
609.875	281.81
610.083	274.81
610.291	290.81
610.499	287.81
610.707	280.81
610.916	281.81
611.124	270.81
611.332	271.81
611.54	286.81
611.748	279.81
611.955	278.81
612.163	280.81
612.371	270.81
612.579	291.81
612.787	274.81
612.995	294.81
613.203	286.81
613.411	266.81
613.618	263.81
613.826	278.81
614.034	271.81
614.242	282.81
614.449	251.81
614.657	281.81
614.865	264.81
615.072	250.81
615.28	259.81
615.488	266.81
615.695	274.81
615.903	266.81
616.111	276.81
616.318	278.81
616.526	267.81
616.733	270.81
616.941	262.81
617.148	282.81
617.356	265.81
617.563	273.81
617.771	258.81
617.978	278.81
618.185	270.81
618.393	252.81
618.6	253.81
618.807	260.81
619.015	263.81
619.222	263.81
619.429	262.81
619.637	249.81
619.844	255.81
620.051	248.81
620.258	248.81
620.466	259.81
620.673	240.81
620.88	248.81
621.087	260.81
621.294	251.81
621.501	265.81
621.708	259.81
621.915	257.81
622.122	243.81
622.329	243.81
622.536	237.81
622.743	260.81
622.95	242.81
623.157	251.81
623.364	239.81
623.571	249.81
623.778	242.81
623.985	233.81
624.192	250.81
624.399	236.81
624.606	230.81
624.812	236.81
625.019	226.81
625.226	237.81
625.433	231.81
625.639	249.81
625.846	232.81
626.053	239.81
626.259	237.81
626.466	230.81
626.673	233.81
626.879	220.81
627.086	214.81
627.293	241.81
627.499	230.81
627.706	236.81
627.912	228.81
628.119	225.81
628.325	227.81
628.532	227.81
628.738	214.81
628.945	238.81
629.151	222.81
629.357	219.81
629.564	211.81
629.77	225.81
629.976	250.81
630.183	221.81
630.389	218.81
630.595	199.81
630.802	200.81
631.008	227.81
631.214	218.81
631.42	212.81
631.627	232.81
631.833	232.81
632.039	211.81
632.245	217.81
632.451	203.81
632.657	216.81
632.863	213.81
633.069	201.81
633.275	219.81
633.481	195.81
633.688	194.81
633.893	210.81
634.099	223.81
634.305	221.81
634.511	198.81
634.717	223.81
634.923	204.81
635.129	217.81
635.335	204.81
635.541	208.81
635.747	207.81
635.952	213.81
636.158	197.81
636.364	204.81
636.57	214.81
636.775	210.81
636.981	215.81
637.187	208.81
637.392	199.81
637.598	198.81
637.804	207.81
638.009	193.81
638.215	205.81
638.421	198.81
638.626	195.81
638.832	215.81
639.037	190.81
639.243	199.81
639.448	203.81
639.654	192.81
639.859	188.81
640.065	195.81
640.27	171.81
640.475	192.81
640.681	207.81
640.886	191.81
641.091	193.81
641.297	210.81
641.502	196.81
641.707	210.81
641.913	190.81
642.118	204.81
642.323	198.81
642.528	195.81
642.733	183.81
642.939	183.81
643.144	189.81
643.349	184.81
643.554	198.81
643.759	189.81
643.964	182.81
644.169	189.81
644.374	196.81
644.579	200.81
644.784	199.81
644.989	185.81
645.194	183.81
645.399	172.81
645.604	200.81
645.809	182.81
646.014	167.81
646.219	171.81
646.423	175.81
646.628	196.81
646.833	189.81
647.038	182.81
647.243	180.81
647.447	175.81
647.652	176.81
647.857	182.81
648.062	181.81
648.266	183.81
648.471	175.81
648.676	186.81
648.88	193.81
649.085	204.81
649.289	175.81
649.494	195.81
649.698	201.81
649.903	202.81
650.107	181.81
650.312	193.81
650.516	170.81
650.721	175.81
650.925	182.81
651.13	165.81
651.334	168.81
651.539	157.81
651.743	164.81
651.947	174.81
652.152	150.81
652.356	163.81
652.56	159.81
652.764	161.81
652.969	159.81
653.173	150.81
653.377	154.81
653.581	158.81
653.785	165.81
653.99	143.81
654.194	151.81
654.398	143.81
654.602	148.81
654.806	144.81
655.01	148.81
655.214	136.81
655.418	150.81
655.622	143.81
655.826	138.81
656.03	153.81
656.234	148.81
656.438	147.81
656.642	150.81
656.846	158.81
657.049	149.81
657.253	142.81
657.457	110.81
657.661	116.81
657.865	116.81
658.068	109.81
658.272	106.81
658.476	128.81
658.68	107.81
658.883	112.81
659.087	114.81
659.291	94.81
659.494	106.81
659.698	103.81
659.901	107.81
660.105	103.81
660.309	97.81
660.512	100.81
660.716	99.81
660.919	101.81
661.123	103.81
661.326	99.81
661.53	88.81
661.733	92.81
661.936	96.81
662.14	99.81
662.343	92.81
662.546	83.81
662.75	84.81
662.953	84.81
663.156	86.81
663.36	82.81
663.563	92.81
663.766	86.81
663.969	86.81
664.173	80.81
664.376	83.81
664.579	83.81
664.782	90.81
664.985	79.81
665.188	76.81
665.391	85.81
665.594	80.81
665.797	88.81
666	93.81
666.203	78.81
666.406	83.81
666.609	76.81
666.812	79.81
667.015	87.81
667.218	83.81
667.421	95.81
667.624	80.81
667.827	84.81
668.03	84.81
668.232	99.81
668.435	106.81
668.638	84.81
668.841	91.81
669.043	74.81
669.246	79.81
669.449	85.81
669.651	85.81
669.854	72.81
670.057	79.81
670.259	77.81
670.462	74.81
670.665	87.81
670.867	82.81
671.07	93.81
671.272	79.81
671.475	86.81
671.677	88.81
671.88	85.81
672.082	82.81
672.284	87.81
672.487	90.81
672.689	86.81
672.892	80.81
