Data from 1966.PennyLincolnUp.Lamp.En5.5.200Scan.071719.P1.Scan2.head_HRD10591_14-18-02-156.txt Node
Date: Thu Jul 18 14:18:02 EDT 2019
User: cochatt
Spectrometer: HR+D1059
Trigger mode: 1
Integration Time (sec): 1.000000E-1
Scans to average: 1
Electric dark correction enabled: true
Nonlinearity correction enabled: false
Boxcar width: 0
XAxis mode: Wavelengths
Number of Pixels in Spectrum: 2048
>>>>>Begin Spectral Data<<<<<
223.165	-11.94
223.4	-11.94
223.635	-11.94
223.869	-5.94
224.104	-21.94
224.338	-14.94
224.573	-2.94
224.808	-19.94
225.042	-9.94
225.277	-13.94
225.511	-15.94
225.746	-3.94
225.98	12.06
226.215	6.06
226.449	19.06
226.683	24.06
226.918	20.06
227.152	40.06
227.387	16.06
227.621	34.06
227.856	42.06
228.09	45.06
228.324	37.06
228.559	55.06
228.793	68.06
229.027	100.06
229.262	114.06
229.496	123.06
229.73	128.06
229.964	169.06
230.199	116.06
230.433	95.06
230.667	111.06
230.901	113.06
231.136	120.06
231.37	110.06
231.604	113.06
231.838	125.06
232.072	119.06
232.306	109.06
232.541	116.06
232.775	118.06
233.009	109.06
233.243	105.06
233.477	99.06
233.711	109.06
233.945	98.06
234.179	108.06
234.413	114.06
234.647	124.06
234.881	129.06
235.115	104.06
235.349	125.06
235.583	116.06
235.817	120.06
236.051	135.06
236.285	126.06
236.519	141.06
236.753	130.06
236.987	141.06
237.221	172.06
237.455	244.06
237.689	181.06
237.922	145.06
238.156	142.06
238.39	130.06
238.624	130.06
238.858	131.06
239.091	130.06
239.325	120.06
239.559	124.06
239.793	125.06
240.027	142.06
240.26	138.06
240.494	166.06
240.728	152.06
240.961	166.06
241.195	149.06
241.429	136.06
241.662	135.06
241.896	129.06
242.13	146.06
242.363	138.06
242.597	122.06
242.83	138.06
243.064	141.06
243.298	160.06
243.531	148.06
243.765	149.06
243.998	140.06
244.232	152.06
244.465	134.06
244.699	142.06
244.932	150.06
245.166	134.06
245.399	153.06
245.633	154.06
245.866	156.06
246.099	147.06
246.333	155.06
246.566	142.06
246.8	146.06
247.033	136.06
247.266	144.06
247.5	158.06
247.733	174.06
247.966	183.06
248.2	176.06
248.433	171.06
248.666	198.06
248.899	178.06
249.133	174.06
249.366	211.06
249.599	199.06
249.832	182.06
250.066	189.06
250.299	200.06
250.532	204.06
250.765	212.06
250.998	217.06
251.231	220.06
251.465	214.06
251.698	198.06
251.931	206.06
252.164	192.06
252.397	194.06
252.63	205.06
252.863	204.06
253.096	201.06
253.329	225.06
253.562	229.06
253.795	211.06
254.028	234.06
254.261	230.06
254.494	224.06
254.727	245.06
254.96	278.06
255.193	271.06
255.426	244.06
255.659	234.06
255.892	218.06
256.124	233.06
256.357	232.06
256.59	231.06
256.823	252.06
257.056	215.06
257.289	215.06
257.521	214.06
257.754	215.06
257.987	191.06
258.22	209.06
258.452	196.06
258.685	216.06
258.918	206.06
259.151	210.06
259.383	220.06
259.616	233.06
259.849	228.06
260.081	233.06
260.314	231.06
260.547	266.06
260.779	229.06
261.012	236.06
261.244	224.06
261.477	231.06
261.71	213.06
261.942	229.06
262.175	234.06
262.407	204.06
262.64	203.06
262.872	225.06
263.105	226.06
263.337	230.06
263.57	219.06
263.802	210.06
264.035	215.06
264.267	194.06
264.499	206.06
264.732	205.06
264.964	214.06
265.197	220.06
265.429	211.06
265.661	203.06
265.894	206.06
266.126	211.06
266.358	194.06
266.591	213.06
266.823	228.06
267.055	216.06
267.287	222.06
267.52	228.06
267.752	235.06
267.984	223.06
268.216	233.06
268.448	232.06
268.681	236.06
268.913	234.06
269.145	247.06
269.377	260.06
269.609	253.06
269.841	249.06
270.073	255.06
270.306	300.06
270.538	297.06
270.77	329.06
271.002	284.06
271.234	276.06
271.466	286.06
271.698	301.06
271.93	308.06
272.162	320.06
272.394	333.06
272.626	299.06
272.858	302.06
273.09	287.06
273.322	279.06
273.553	264.06
273.785	280.06
274.017	270.06
274.249	276.06
274.481	251.06
274.713	263.06
274.945	264.06
275.176	270.06
275.408	269.06
275.64	259.06
275.872	266.06
276.104	255.06
276.335	266.06
276.567	264.06
276.799	294.06
277.031	304.06
277.262	321.06
277.494	300.06
277.726	301.06
277.957	284.06
278.189	279.06
278.421	280.06
278.652	269.06
278.884	282.06
279.115	262.06
279.347	286.06
279.579	281.06
279.81	255.06
280.042	271.06
280.273	279.06
280.505	274.06
280.736	261.06
280.968	259.06
281.199	270.06
281.431	280.06
281.662	254.06
281.894	283.06
282.125	280.06
282.356	264.06
282.588	311.06
282.819	319.06
283.051	302.06
283.282	258.06
283.513	282.06
283.745	262.06
283.976	282.06
284.207	292.06
284.439	288.06
284.67	293.06
284.901	285.06
285.132	270.06
285.364	284.06
285.595	274.06
285.826	269.06
286.057	276.06
286.288	291.06
286.52	290.06
286.751	297.06
286.982	286.06
287.213	287.06
287.444	277.06
287.675	296.06
287.906	298.06
288.138	306.06
288.369	316.06
288.6	306.06
288.831	289.06
289.062	288.06
289.293	288.06
289.524	306.06
289.755	286.06
289.986	299.06
290.217	274.06
290.448	284.06
290.679	301.06
290.91	320.06
291.141	302.06
291.371	286.06
291.602	291.06
291.833	286.06
292.064	298.06
292.295	290.06
292.526	304.06
292.757	277.06
292.987	290.06
293.218	279.06
293.449	295.06
293.68	296.06
293.91	297.06
294.141	283.06
294.372	263.06
294.603	290.06
294.833	290.06
295.064	298.06
295.295	276.06
295.525	284.06
295.756	309.06
295.987	330.06
296.217	340.06
296.448	353.06
296.679	308.06
296.909	319.06
297.14	310.06
297.37	302.06
297.601	302.06
297.831	303.06
298.062	302.06
298.292	324.06
298.523	314.06
298.753	310.06
298.984	322.06
299.214	310.06
299.445	316.06
299.675	287.06
299.905	311.06
300.136	306.06
300.366	319.06
300.597	309.06
300.827	317.06
301.057	324.06
301.288	310.06
301.518	335.06
301.748	340.06
301.979	343.06
302.209	343.06
302.439	339.06
302.669	329.06
302.9	333.06
303.13	332.06
303.36	330.06
303.59	325.06
303.82	336.06
304.051	314.06
304.281	329.06
304.511	321.06
304.741	336.06
304.971	327.06
305.201	331.06
305.431	330.06
305.661	351.06
305.891	307.06
306.121	323.06
306.352	342.06
306.582	348.06
306.812	337.06
307.042	332.06
307.272	316.06
307.502	323.06
307.731	328.06
307.961	346.06
308.191	331.06
308.421	355.06
308.651	347.06
308.881	358.06
309.111	338.06
309.341	366.06
309.571	342.06
309.8	373.06
310.03	360.06
310.26	356.06
310.49	364.06
310.72	383.06
310.949	385.06
311.179	394.06
311.409	382.06
311.639	384.06
311.868	385.06
312.098	380.06
312.328	377.06
312.557	384.06
312.787	415.06
313.017	419.06
313.246	399.06
313.476	378.06
313.706	386.06
313.935	382.06
314.165	395.06
314.394	401.06
314.624	399.06
314.853	392.06
315.083	388.06
315.312	378.06
315.542	400.06
315.771	364.06
316.001	394.06
316.23	380.06
316.46	385.06
316.689	366.06
316.919	370.06
317.148	376.06
317.377	401.06
317.607	377.06
317.836	384.06
318.065	386.06
318.295	372.06
318.524	377.06
318.753	363.06
318.983	382.06
319.212	420.06
319.441	389.06
319.67	380.06
319.9	395.06
320.129	380.06
320.358	379.06
320.587	401.06
320.816	381.06
321.046	407.06
321.275	383.06
321.504	388.06
321.733	416.06
321.962	393.06
322.191	419.06
322.42	438.06
322.649	447.06
322.878	442.06
323.108	463.06
323.337	456.06
323.566	487.06
323.795	516.06
324.024	538.06
324.253	641.06
324.482	920.06
324.71	1418.06
324.939	2167.06
325.168	1875.06
325.397	947.06
325.626	620.06
325.855	552.06
326.084	519.06
326.313	490.06
326.542	492.06
326.77	550.06
326.999	628.06
327.228	840.06
327.457	1310.06
327.686	1652.06
327.914	1062.06
328.143	701.06
328.372	632.06
328.6	572.06
328.829	535.06
329.058	579.06
329.287	580.06
329.515	546.06
329.744	546.06
329.972	498.06
330.201	535.06
330.43	558.06
330.658	602.06
330.887	604.06
331.115	590.06
331.344	532.06
331.572	502.06
331.801	484.06
332.03	486.06
332.258	477.06
332.486	430.06
332.715	452.06
332.943	454.06
333.172	479.06
333.4	468.06
333.629	468.06
333.857	485.06
334.085	519.06
334.314	509.06
334.542	548.06
334.771	557.06
334.999	505.06
335.227	481.06
335.455	459.06
335.684	452.06
335.912	448.06
336.14	467.06
336.369	443.06
336.597	442.06
336.825	476.06
337.053	469.06
337.281	440.06
337.51	458.06
337.738	462.06
337.966	446.06
338.194	445.06
338.422	454.06
338.65	444.06
338.878	460.06
339.106	438.06
339.334	449.06
339.562	438.06
339.79	460.06
340.018	456.06
340.246	442.06
340.474	443.06
340.702	437.06
340.93	432.06
341.158	456.06
341.386	448.06
341.614	445.06
341.842	435.06
342.07	424.06
342.298	426.06
342.526	439.06
342.754	425.06
342.981	424.06
343.209	426.06
343.437	430.06
343.665	439.06
343.893	455.06
344.12	447.06
344.348	439.06
344.576	461.06
344.804	451.06
345.031	458.06
345.259	467.06
345.487	440.06
345.714	433.06
345.942	436.06
346.17	438.06
346.397	416.06
346.625	439.06
346.853	430.06
347.08	440.06
347.308	440.06
347.535	423.06
347.763	434.06
347.99	430.06
348.218	439.06
348.445	446.06
348.673	447.06
348.9	433.06
349.128	421.06
349.355	416.06
349.583	391.06
349.81	427.06
350.037	433.06
350.265	412.06
350.492	436.06
350.72	429.06
350.947	401.06
351.174	443.06
351.402	433.06
351.629	446.06
351.856	429.06
352.083	411.06
352.311	428.06
352.538	444.06
352.765	447.06
352.992	428.06
353.22	438.06
353.447	448.06
353.674	433.06
353.901	419.06
354.128	408.06
354.355	416.06
354.583	399.06
354.81	412.06
355.037	380.06
355.264	409.06
355.491	405.06
355.718	414.06
355.945	391.06
356.172	397.06
356.399	393.06
356.626	378.06
356.853	429.06
357.08	412.06
357.307	398.06
357.534	408.06
357.761	405.06
357.988	404.06
358.215	389.06
358.441	400.06
358.668	399.06
358.895	416.06
359.122	395.06
359.349	428.06
359.576	435.06
359.802	455.06
360.029	497.06
360.256	486.06
360.483	457.06
360.709	450.06
360.936	448.06
361.163	443.06
361.39	444.06
361.616	444.06
361.843	448.06
362.07	438.06
362.296	431.06
362.523	430.06
362.749	432.06
362.976	410.06
363.203	443.06
363.429	435.06
363.656	448.06
363.882	421.06
364.109	408.06
364.335	414.06
364.562	431.06
364.788	401.06
365.015	412.06
365.241	434.06
365.468	414.06
365.694	421.06
365.92	429.06
366.147	400.06
366.373	402.06
366.599	441.06
366.826	419.06
367.052	398.06
367.278	410.06
367.505	412.06
367.731	437.06
367.957	421.06
368.184	422.06
368.41	433.06
368.636	435.06
368.862	446.06
369.089	436.06
369.315	410.06
369.541	428.06
369.767	416.06
369.993	433.06
370.219	430.06
370.445	437.06
370.672	420.06
370.898	426.06
371.124	406.06
371.35	419.06
371.576	420.06
371.802	427.06
372.028	416.06
372.254	422.06
372.48	428.06
372.706	406.06
372.932	425.06
373.158	425.06
373.384	448.06
373.61	430.06
373.835	442.06
374.061	422.06
374.287	429.06
374.513	414.06
374.739	428.06
374.965	425.06
375.191	459.06
375.416	426.06
375.642	436.06
375.868	448.06
376.094	445.06
376.319	434.06
376.545	435.06
376.771	446.06
376.997	418.06
377.222	410.06
377.448	438.06
377.674	445.06
377.899	419.06
378.125	423.06
378.35	424.06
378.576	414.06
378.802	431.06
379.027	407.06
379.253	434.06
379.478	428.06
379.704	417.06
379.929	414.06
380.155	438.06
380.38	434.06
380.606	428.06
380.831	432.06
381.057	443.06
381.282	430.06
381.507	432.06
381.733	433.06
381.958	442.06
382.184	452.06
382.409	457.06
382.634	447.06
382.86	431.06
383.085	436.06
383.31	442.06
383.535	450.06
383.761	442.06
383.986	450.06
384.211	472.06
384.436	440.06
384.662	452.06
384.887	465.06
385.112	473.06
385.337	462.06
385.562	450.06
385.787	481.06
386.013	466.06
386.238	492.06
386.463	469.06
386.688	470.06
386.913	471.06
387.138	479.06
387.363	477.06
387.588	474.06
387.813	491.06
388.038	468.06
388.263	467.06
388.488	470.06
388.713	464.06
388.938	487.06
389.163	483.06
389.387	474.06
389.612	471.06
389.837	475.06
390.062	485.06
390.287	478.06
390.512	442.06
390.736	472.06
390.961	492.06
391.186	474.06
391.411	487.06
391.636	476.06
391.86	496.06
392.085	504.06
392.31	506.06
392.534	505.06
392.759	482.06
392.984	483.06
393.208	491.06
393.433	477.06
393.658	497.06
393.882	462.06
394.107	479.06
394.331	500.06
394.556	478.06
394.78	490.06
395.005	471.06
395.229	478.06
395.454	484.06
395.678	489.06
395.903	510.06
396.127	537.06
396.352	543.06
396.576	498.06
396.801	486.06
397.025	495.06
397.249	504.06
397.474	494.06
397.698	519.06
397.922	544.06
398.147	520.06
398.371	532.06
398.595	532.06
398.82	546.06
399.044	557.06
399.268	580.06
399.492	600.06
399.717	650.06
399.941	662.06
400.165	685.06
400.389	695.06
400.613	645.06
400.837	590.06
401.062	564.06
401.286	545.06
401.51	566.06
401.734	549.06
401.958	554.06
402.182	568.06
402.406	556.06
402.63	581.06
402.854	576.06
403.078	563.06
403.302	578.06
403.526	601.06
403.75	592.06
403.974	570.06
404.198	586.06
404.422	576.06
404.645	584.06
404.869	599.06
405.093	624.06
405.317	680.06
405.541	687.06
405.765	639.06
405.988	613.06
406.212	613.06
406.436	639.06
406.66	650.06
406.883	615.06
407.107	631.06
407.331	707.06
407.555	783.06
407.778	750.06
408.002	713.06
408.226	658.06
408.449	644.06
408.673	632.06
408.896	659.06
409.12	698.06
409.344	681.06
409.567	614.06
409.791	589.06
410.014	577.06
410.238	580.06
410.461	589.06
410.685	599.06
410.908	607.06
411.132	645.06
411.355	668.06
411.578	641.06
411.802	606.06
412.025	580.06
412.249	592.06
412.472	605.06
412.695	659.06
412.919	654.06
413.142	598.06
413.365	589.06
413.589	546.06
413.812	552.06
414.035	547.06
414.258	542.06
414.482	554.06
414.705	566.06
414.928	568.06
415.151	557.06
415.374	530.06
415.597	537.06
415.821	519.06
416.044	562.06
416.267	542.06
416.49	549.06
416.713	556.06
416.936	558.06
417.159	527.06
417.382	567.06
417.605	541.06
417.828	565.06
418.051	573.06
418.274	579.06
418.497	561.06
418.72	549.06
418.943	534.06
419.166	578.06
419.389	589.06
419.611	584.06
419.834	584.06
420.057	602.06
420.28	568.06
420.503	570.06
420.726	582.06
420.948	567.06
421.171	620.06
421.394	665.06
421.617	587.06
421.839	580.06
422.062	596.06
422.285	592.06
422.507	660.06
422.73	703.06
422.953	702.06
423.175	610.06
423.398	619.06
423.621	607.06
423.843	627.06
424.066	613.06
424.288	632.06
424.511	651.06
424.733	681.06
424.956	803.06
425.178	744.06
425.401	755.06
425.623	759.06
425.846	669.06
426.068	636.06
426.291	607.06
426.513	589.06
426.735	624.06
426.958	647.06
427.18	738.06
427.402	884.06
427.625	970.06
427.847	859.06
428.069	758.06
428.292	676.06
428.514	589.06
428.736	587.06
428.958	584.06
429.181	569.06
429.403	557.06
429.625	564.06
429.847	607.06
430.069	692.06
430.292	686.06
430.514	614.06
430.736	555.06
430.958	545.06
431.18	554.06
431.402	527.06
431.624	525.06
431.846	527.06
432.068	528.06
432.29	529.06
432.512	524.06
432.734	553.06
432.956	548.06
433.178	548.06
433.4	549.06
433.622	536.06
433.844	537.06
434.066	544.06
434.287	570.06
434.509	536.06
434.731	542.06
434.953	578.06
435.175	565.06
435.397	600.06
435.618	610.06
435.84	682.06
436.062	758.06
436.284	844.06
436.505	686.06
436.727	627.06
436.949	598.06
437.17	586.06
437.392	562.06
437.614	584.06
437.835	618.06
438.057	719.06
438.278	852.06
438.5	831.06
438.721	898.06
438.943	842.06
439.165	674.06
439.386	630.06
439.608	638.06
439.829	627.06
440.05	658.06
440.272	689.06
440.493	670.06
440.715	604.06
440.936	556.06
441.158	591.06
441.379	569.06
441.6	607.06
441.822	592.06
442.043	648.06
442.264	742.06
442.486	788.06
442.707	687.06
442.928	632.06
443.149	641.06
443.371	669.06
443.592	715.06
443.813	814.06
444.034	888.06
444.255	711.06
444.476	657.06
444.698	626.06
444.919	606.06
445.14	747.06
445.361	696.06
445.582	682.06
445.803	734.06
446.024	831.06
446.245	852.06
446.466	783.06
446.687	641.06
446.908	603.06
447.129	587.06
447.35	567.06
447.571	558.06
447.792	548.06
448.013	574.06
448.234	598.06
448.455	643.06
448.675	760.06
448.896	905.06
449.117	764.06
449.338	704.06
449.559	853.06
449.779	924.06
450	734.06
450.221	637.06
450.442	595.06
450.662	565.06
450.883	570.06
451.104	584.06
451.324	586.06
451.545	545.06
451.766	536.06
451.986	519.06
452.207	520.06
452.428	482.06
452.648	525.06
452.869	500.06
453.089	526.06
453.31	533.06
453.53	532.06
453.751	501.06
453.971	514.06
454.192	510.06
454.412	527.06
454.633	510.06
454.853	490.06
455.073	490.06
455.294	534.06
455.514	612.06
455.734	568.06
455.955	516.06
456.175	497.06
456.395	485.06
456.616	480.06
456.836	508.06
457.056	475.06
457.276	476.06
457.497	474.06
457.717	509.06
457.937	495.06
458.157	491.06
458.377	507.06
458.598	528.06
458.818	570.06
459.038	652.06
459.258	703.06
459.478	591.06
459.698	563.06
459.918	541.06
460.138	536.06
460.358	542.06
460.578	559.06
460.798	571.06
461.018	555.06
461.238	567.06
461.458	556.06
461.678	542.06
461.898	579.06
462.118	559.06
462.338	560.06
462.558	587.06
462.777	591.06
462.997	600.06
463.217	608.06
463.437	627.06
463.657	598.06
463.876	596.06
464.096	598.06
464.316	577.06
464.536	591.06
464.755	578.06
464.975	594.06
465.195	625.06
465.414	716.06
465.634	646.06
465.854	605.06
466.073	562.06
466.293	546.06
466.512	535.06
466.732	535.06
466.951	522.06
467.171	532.06
467.391	516.06
467.61	536.06
467.829	529.06
468.049	530.06
468.268	550.06
468.488	516.06
468.707	529.06
468.927	511.06
469.146	491.06
469.365	525.06
469.585	512.06
469.804	538.06
470.023	551.06
470.243	526.06
470.462	500.06
470.681	555.06
470.901	538.06
471.12	542.06
471.339	532.06
471.558	540.06
471.777	551.06
471.997	518.06
472.216	534.06
472.435	574.06
472.654	570.06
472.873	550.06
473.092	520.06
473.311	546.06
473.53	528.06
473.749	531.06
473.968	591.06
474.187	682.06
474.406	717.06
474.625	578.06
474.844	554.06
475.063	534.06
475.282	533.06
475.501	539.06
475.72	550.06
475.939	538.06
476.158	566.06
476.377	553.06
476.596	548.06
476.814	552.06
477.033	577.06
477.252	567.06
477.471	575.06
477.69	569.06
477.908	589.06
478.127	584.06
478.346	598.06
478.564	570.06
478.783	595.06
479.002	612.06
479.22	614.06
479.439	625.06
479.658	640.06
479.876	636.06
480.095	633.06
480.313	677.06
480.532	676.06
480.751	639.06
480.969	680.06
481.188	704.06
481.406	752.06
481.624	688.06
481.843	667.06
482.061	636.06
482.28	632.06
482.498	632.06
482.717	641.06
482.935	631.06
483.153	638.06
483.372	624.06
483.59	636.06
483.808	639.06
484.027	649.06
484.245	638.06
484.463	630.06
484.681	635.06
484.9	623.06
485.118	671.06
485.336	639.06
485.554	652.06
485.772	635.06
485.99	649.06
486.209	645.06
486.427	638.06
486.645	669.06
486.863	653.06
487.081	691.06
487.299	678.06
487.517	693.06
487.735	664.06
487.953	676.06
488.171	677.06
488.389	664.06
488.607	664.06
488.825	676.06
489.043	691.06
489.261	671.06
489.479	692.06
489.696	714.06
489.914	716.06
490.132	692.06
490.35	732.06
490.568	700.06
490.786	719.06
491.003	722.06
491.221	770.06
491.439	741.06
491.657	746.06
491.874	771.06
492.092	763.06
492.31	783.06
492.527	773.06
492.745	773.06
492.963	782.06
493.18	802.06
493.398	790.06
493.615	796.06
493.833	798.06
494.05	793.06
494.268	814.06
494.485	779.06
494.703	781.06
494.92	811.06
495.138	800.06
495.355	811.06
495.573	833.06
495.79	824.06
496.008	788.06
496.225	840.06
496.442	805.06
496.66	800.06
496.877	799.06
497.094	818.06
497.312	808.06
497.529	831.06
497.746	824.06
497.963	852.06
498.181	880.06
498.398	888.06
498.615	934.06
498.832	939.06
499.049	927.06
499.267	958.06
499.484	996.06
499.701	1027.06
499.918	1050.06
500.135	1089.06
500.352	1132.06
500.569	1175.06
500.786	1220.06
501.003	1157.06
501.22	1109.06
501.437	1057.06
501.654	1055.06
501.871	1013.06
502.088	1001.06
502.305	961.06
502.522	900.06
502.739	911.06
502.956	876.06
503.172	869.06
503.389	866.06
503.606	860.06
503.823	831.06
504.04	857.06
504.256	806.06
504.473	821.06
504.69	800.06
504.907	790.06
505.123	786.06
505.34	800.06
505.557	765.06
505.773	774.06
505.99	768.06
506.207	750.06
506.423	770.06
506.64	782.06
506.856	745.06
507.073	747.06
507.289	740.06
507.506	741.06
507.722	756.06
507.939	766.06
508.155	735.06
508.372	718.06
508.588	730.06
508.805	731.06
509.021	718.06
509.238	729.06
509.454	776.06
509.67	723.06
509.887	712.06
510.103	700.06
510.319	700.06
510.536	803.06
510.752	1243.06
510.968	1034.06
511.184	727.06
511.401	706.06
511.617	706.06
511.833	688.06
512.049	681.06
512.265	690.06
512.481	694.06
512.698	663.06
512.914	671.06
513.13	698.06
513.346	676.06
513.562	679.06
513.778	657.06
513.994	698.06
514.21	687.06
514.426	700.06
514.642	741.06
514.858	757.06
515.074	796.06
515.29	940.06
515.506	1284.06
515.721	1110.06
515.937	803.06
516.153	733.06
516.369	714.06
516.585	697.06
516.801	702.06
517.016	717.06
517.232	706.06
517.448	736.06
517.664	722.06
517.879	706.06
518.095	710.06
518.311	708.06
518.527	693.06
518.742	696.06
518.958	686.06
519.173	684.06
519.389	687.06
519.605	686.06
519.82	679.06
520.036	710.06
520.251	693.06
520.467	711.06
520.682	722.06
520.898	730.06
521.113	754.06
521.329	790.06
521.544	877.06
521.76	1022.06
521.975	1636.06
522.19	1635.06
522.406	971.06
522.621	738.06
522.836	659.06
523.052	660.06
523.267	638.06
523.482	618.06
523.698	632.06
523.913	621.06
524.128	605.06
524.343	612.06
524.559	615.06
524.774	580.06
524.989	590.06
525.204	590.06
525.419	626.06
525.634	587.06
525.849	579.06
526.064	568.06
526.28	581.06
526.495	578.06
526.71	571.06
526.925	567.06
527.14	563.06
527.355	568.06
527.57	563.06
527.785	574.06
527.999	565.06
528.214	560.06
528.429	559.06
528.644	563.06
528.859	568.06
529.074	563.06
529.289	588.06
529.503	686.06
529.718	634.06
529.933	579.06
530.148	568.06
530.363	564.06
530.577	579.06
530.792	574.06
531.007	551.06
531.221	545.06
531.436	566.06
531.651	542.06
531.865	535.06
532.08	534.06
532.295	553.06
532.509	546.06
532.724	548.06
532.938	540.06
533.153	538.06
533.367	524.06
533.582	522.06
533.796	531.06
534.011	537.06
534.225	539.06
534.44	535.06
534.654	537.06
534.868	540.06
535.083	534.06
535.297	534.06
535.511	500.06
535.726	539.06
535.94	546.06
536.154	545.06
536.369	540.06
536.583	514.06
536.797	512.06
537.011	524.06
537.225	536.06
537.44	504.06
537.654	519.06
537.868	528.06
538.082	521.06
538.296	528.06
538.51	499.06
538.724	524.06
538.938	495.06
539.153	520.06
539.367	530.06
539.581	531.06
539.795	503.06
540.009	504.06
540.222	513.06
540.436	500.06
540.65	517.06
540.864	505.06
541.078	517.06
541.292	511.06
541.506	515.06
541.72	495.06
541.934	503.06
542.147	528.06
542.361	513.06
542.575	485.06
542.789	504.06
543.002	499.06
543.216	501.06
543.43	509.06
543.644	515.06
543.857	500.06
544.071	493.06
544.285	499.06
544.498	501.06
544.712	479.06
544.925	509.06
545.139	496.06
545.352	479.06
545.566	509.06
545.779	493.06
545.993	513.06
546.206	509.06
546.42	486.06
546.633	508.06
546.847	502.06
547.06	515.06
547.274	482.06
547.487	508.06
547.7	503.06
547.914	480.06
548.127	507.06
548.34	499.06
548.554	486.06
548.767	501.06
548.98	507.06
549.193	488.06
549.407	496.06
549.62	509.06
549.833	507.06
550.046	498.06
550.259	520.06
550.473	471.06
550.686	491.06
550.899	486.06
551.112	475.06
551.325	490.06
551.538	483.06
551.751	495.06
551.964	485.06
552.177	488.06
552.39	478.06
552.603	497.06
552.816	510.06
553.029	491.06
553.242	494.06
553.455	503.06
553.667	507.06
553.88	519.06
554.093	492.06
554.306	495.06
554.519	506.06
554.732	493.06
554.944	509.06
555.157	479.06
555.37	488.06
555.583	438.06
555.795	473.06
556.008	444.06
556.221	459.06
556.433	462.06
556.646	458.06
556.859	432.06
557.071	438.06
557.284	434.06
557.496	447.06
557.709	456.06
557.921	454.06
558.134	437.06
558.346	435.06
558.559	438.06
558.771	436.06
558.984	455.06
559.196	442.06
559.409	454.06
559.621	436.06
559.833	412.06
560.046	421.06
560.258	444.06
560.47	439.06
560.683	423.06
560.895	443.06
561.107	432.06
561.32	418.06
561.532	434.06
561.744	441.06
561.956	429.06
562.168	420.06
562.381	431.06
562.593	435.06
562.805	438.06
563.017	422.06
563.229	430.06
563.441	421.06
563.653	437.06
563.865	439.06
564.077	440.06
564.289	446.06
564.501	460.06
564.713	470.06
564.925	472.06
565.137	471.06
565.349	474.06
565.561	493.06
565.773	490.06
565.985	508.06
566.197	515.06
566.408	521.06
566.62	508.06
566.832	524.06
567.044	542.06
567.255	544.06
567.467	559.06
567.679	567.06
567.891	571.06
568.102	589.06
568.314	570.06
568.526	525.06
568.737	522.06
568.949	512.06
569.161	479.06
569.372	483.06
569.584	473.06
569.795	461.06
570.007	463.06
570.218	482.06
570.43	477.06
570.641	422.06
570.853	450.06
571.064	419.06
571.276	444.06
571.487	426.06
571.698	427.06
571.91	414.06
572.121	408.06
572.333	405.06
572.544	397.06
572.755	388.06
572.966	403.06
573.178	386.06
573.389	397.06
573.6	396.06
573.811	397.06
574.023	390.06
574.234	403.06
574.445	382.06
574.656	401.06
574.867	373.06
575.078	377.06
575.289	401.06
575.501	372.06
575.712	357.06
575.923	382.06
576.134	380.06
576.345	378.06
576.556	365.06
576.767	392.06
576.978	378.06
577.188	361.06
577.399	349.06
577.61	347.06
577.821	353.06
578.032	357.06
578.243	403.06
578.454	608.06
578.665	480.06
578.875	389.06
579.086	360.06
579.297	386.06
579.508	362.06
579.718	361.06
579.929	355.06
580.14	355.06
580.35	342.06
580.561	349.06
580.772	360.06
580.982	361.06
581.193	342.06
581.403	346.06
581.614	341.06
581.825	349.06
582.035	353.06
582.246	351.06
582.456	335.06
582.667	339.06
582.877	327.06
583.087	332.06
583.298	350.06
583.508	341.06
583.719	340.06
583.929	354.06
584.139	352.06
584.35	347.06
584.56	341.06
584.77	327.06
584.981	350.06
585.191	336.06
585.401	341.06
585.611	309.06
585.821	344.06
586.032	306.06
586.242	330.06
586.452	331.06
586.662	326.06
586.872	340.06
587.082	331.06
587.292	345.06
587.502	319.06
587.713	330.06
587.923	341.06
588.133	327.06
588.343	320.06
588.553	329.06
588.762	338.06
588.972	336.06
589.182	330.06
589.392	330.06
589.602	336.06
589.812	330.06
590.022	332.06
590.232	333.06
590.441	346.06
590.651	327.06
590.861	334.06
591.071	324.06
591.281	334.06
591.49	337.06
591.7	342.06
591.91	355.06
592.119	311.06
592.329	340.06
592.539	355.06
592.748	358.06
592.958	357.06
593.167	365.06
593.377	357.06
593.587	366.06
593.796	362.06
594.006	353.06
594.215	348.06
594.424	335.06
594.634	357.06
594.843	318.06
595.053	361.06
595.262	349.06
595.472	311.06
595.681	331.06
595.89	339.06
596.1	333.06
596.309	325.06
596.518	321.06
596.727	323.06
596.937	317.06
597.146	319.06
597.355	314.06
597.564	310.06
597.774	311.06
597.983	314.06
598.192	292.06
598.401	295.06
598.61	299.06
598.819	288.06
599.028	280.06
599.237	296.06
599.446	293.06
599.655	309.06
599.864	296.06
600.073	282.06
600.282	284.06
600.491	294.06
600.7	290.06
600.909	256.06
601.118	282.06
601.327	294.06
601.536	277.06
601.745	287.06
601.953	290.06
602.162	297.06
602.371	282.06
602.58	284.06
602.789	288.06
602.997	266.06
603.206	276.06
603.415	296.06
603.623	263.06
603.832	279.06
604.041	274.06
604.249	266.06
604.458	255.06
604.666	272.06
604.875	267.06
605.084	280.06
605.292	276.06
605.501	261.06
605.709	282.06
605.918	263.06
606.126	273.06
606.334	268.06
606.543	262.06
606.751	264.06
606.96	275.06
607.168	284.06
607.376	286.06
607.585	265.06
607.793	272.06
608.001	281.06
608.21	264.06
608.418	271.06
608.626	269.06
608.834	260.06
609.043	265.06
609.251	262.06
609.459	265.06
609.667	280.06
609.875	270.06
610.083	247.06
610.291	275.06
610.499	287.06
610.707	271.06
610.916	268.06
611.124	285.06
611.332	300.06
611.54	283.06
611.748	258.06
611.955	261.06
612.163	261.06
612.371	269.06
612.579	271.06
612.787	271.06
612.995	277.06
613.203	267.06
613.411	248.06
613.618	268.06
613.826	257.06
614.034	275.06
614.242	255.06
614.449	257.06
614.657	244.06
614.865	251.06
615.072	267.06
615.28	248.06
615.488	250.06
615.695	254.06
615.903	262.06
616.111	267.06
616.318	259.06
616.526	258.06
616.733	252.06
616.941	257.06
617.148	251.06
617.356	261.06
617.563	251.06
617.771	249.06
617.978	259.06
618.185	252.06
618.393	250.06
618.6	258.06
618.807	266.06
619.015	257.06
619.222	257.06
619.429	241.06
619.637	263.06
619.844	264.06
620.051	245.06
620.258	243.06
620.466	240.06
620.673	236.06
620.88	248.06
621.087	231.06
621.294	225.06
621.501	240.06
621.708	237.06
621.915	239.06
622.122	245.06
622.329	242.06
622.536	245.06
622.743	242.06
622.95	230.06
623.157	217.06
623.364	256.06
623.571	233.06
623.778	230.06
623.985	245.06
624.192	229.06
624.399	227.06
624.606	238.06
624.812	232.06
625.019	213.06
625.226	214.06
625.433	218.06
625.639	243.06
625.846	235.06
626.053	219.06
626.259	228.06
626.466	240.06
626.673	223.06
626.879	227.06
627.086	230.06
627.293	225.06
627.499	222.06
627.706	232.06
627.912	240.06
628.119	223.06
628.325	239.06
628.532	213.06
628.738	207.06
628.945	215.06
629.151	207.06
629.357	219.06
629.564	204.06
629.77	218.06
629.976	232.06
630.183	219.06
630.389	212.06
630.595	216.06
630.802	208.06
631.008	218.06
631.214	212.06
631.42	206.06
631.627	221.06
631.833	209.06
632.039	211.06
632.245	203.06
632.451	210.06
632.657	194.06
632.863	199.06
633.069	206.06
633.275	200.06
633.481	215.06
633.688	199.06
633.893	202.06
634.099	204.06
634.305	222.06
634.511	203.06
634.717	208.06
634.923	186.06
635.129	195.06
635.335	216.06
635.541	192.06
635.747	198.06
635.952	206.06
636.158	200.06
636.364	212.06
636.57	220.06
636.775	195.06
636.981	192.06
637.187	207.06
637.392	194.06
637.598	191.06
637.804	188.06
638.009	199.06
638.215	202.06
638.421	199.06
638.626	195.06
638.832	195.06
639.037	184.06
639.243	191.06
639.448	198.06
639.654	185.06
639.859	183.06
640.065	179.06
640.27	212.06
640.475	183.06
640.681	184.06
640.886	183.06
641.091	192.06
641.297	169.06
641.502	189.06
641.707	189.06
641.913	203.06
642.118	185.06
642.323	184.06
642.528	195.06
642.733	187.06
642.939	183.06
643.144	171.06
643.349	160.06
643.554	188.06
643.759	188.06
643.964	184.06
644.169	191.06
644.374	184.06
644.579	178.06
644.784	180.06
644.989	180.06
645.194	184.06
645.399	175.06
645.604	173.06
645.809	178.06
646.014	171.06
646.219	176.06
646.423	171.06
646.628	175.06
646.833	157.06
647.038	174.06
647.243	180.06
647.447	188.06
647.652	172.06
647.857	168.06
648.062	190.06
648.266	184.06
648.471	172.06
648.676	182.06
648.88	182.06
649.085	183.06
649.289	175.06
649.494	179.06
649.698	195.06
649.903	188.06
650.107	156.06
650.312	170.06
650.516	175.06
650.721	164.06
650.925	164.06
651.13	168.06
651.334	168.06
651.539	156.06
651.743	149.06
651.947	167.06
652.152	162.06
652.356	154.06
652.56	140.06
652.764	160.06
652.969	149.06
653.173	149.06
653.377	142.06
653.581	141.06
653.785	147.06
653.99	144.06
654.194	150.06
654.398	133.06
654.602	160.06
654.806	139.06
655.01	145.06
655.214	132.06
655.418	157.06
655.622	139.06
655.826	136.06
656.03	134.06
656.234	144.06
656.438	143.06
656.642	144.06
656.846	145.06
657.049	144.06
657.253	127.06
657.457	131.06
657.661	108.06
657.865	119.06
658.068	116.06
658.272	131.06
658.476	121.06
658.68	103.06
658.883	110.06
659.087	95.06
659.291	94.06
659.494	102.06
659.698	97.06
659.901	97.06
660.105	98.06
660.309	106.06
660.512	84.06
660.716	107.06
660.919	94.06
661.123	93.06
661.326	89.06
661.53	88.06
661.733	87.06
661.936	78.06
662.14	81.06
662.343	82.06
662.546	77.06
662.75	86.06
662.953	90.06
663.156	87.06
663.36	79.06
663.563	95.06
663.766	72.06
663.969	94.06
664.173	105.06
664.376	75.06
664.579	81.06
664.782	98.06
664.985	73.06
665.188	94.06
665.391	88.06
665.594	82.06
665.797	67.06
666	72.06
666.203	63.06
666.406	85.06
666.609	74.06
666.812	91.06
667.015	86.06
667.218	101.06
667.421	85.06
667.624	77.06
667.827	78.06
668.03	76.06
668.232	79.06
668.435	82.06
668.638	78.06
668.841	90.06
669.043	81.06
669.246	88.06
669.449	83.06
669.651	86.06
669.854	83.06
670.057	76.06
670.259	88.06
670.462	84.06
670.665	84.06
670.867	86.06
671.07	88.06
671.272	78.06
671.475	86.06
671.677	84.06
671.88	81.06
672.082	81.06
672.284	108.06
672.487	91.06
672.689	86.06
672.892	77.06
