Data from 1966.PennyLincolnUp.Lamp.En5.5.200Scan.071719.P1.Scan2.head_HRD10591_14-19-01-235.txt Node
Date: Thu Jul 18 14:19:01 EDT 2019
User: cochatt
Spectrometer: HR+D1059
Trigger mode: 1
Integration Time (sec): 1.000000E-1
Scans to average: 1
Electric dark correction enabled: true
Nonlinearity correction enabled: false
Boxcar width: 0
XAxis mode: Wavelengths
Number of Pixels in Spectrum: 2048
>>>>>Begin Spectral Data<<<<<
223.165	-12.94
223.4	-12.94
223.635	-12.94
223.869	-17.94
224.104	-12.94
224.338	-11.94
224.573	-24.94
224.808	-2.94
225.042	-20.94
225.277	-8.94
225.511	-9.94
225.746	1.06
225.98	11.06
226.215	19.06
226.449	8.06
226.683	14.06
226.918	28.06
227.152	42.06
227.387	41.06
227.621	38.06
227.856	50.06
228.09	50.06
228.324	41.06
228.559	49.06
228.793	72.06
229.027	84.06
229.262	111.06
229.496	121.06
229.73	133.06
229.964	141.06
230.199	126.06
230.433	111.06
230.667	111.06
230.901	124.06
231.136	119.06
231.37	99.06
231.604	115.06
231.838	92.06
232.072	97.06
232.306	114.06
232.541	107.06
232.775	119.06
233.009	111.06
233.243	107.06
233.477	113.06
233.711	109.06
233.945	117.06
234.179	130.06
234.413	127.06
234.647	115.06
234.881	116.06
235.115	117.06
235.349	117.06
235.583	121.06
235.817	124.06
236.051	129.06
236.285	136.06
236.519	129.06
236.753	129.06
236.987	160.06
237.221	187.06
237.455	237.06
237.689	192.06
237.922	141.06
238.156	133.06
238.39	128.06
238.624	134.06
238.858	128.06
239.091	120.06
239.325	126.06
239.559	131.06
239.793	137.06
240.027	142.06
240.26	134.06
240.494	136.06
240.728	153.06
240.961	163.06
241.195	131.06
241.429	134.06
241.662	124.06
241.896	130.06
242.13	141.06
242.363	131.06
242.597	128.06
242.83	153.06
243.064	141.06
243.298	144.06
243.531	145.06
243.765	153.06
243.998	142.06
244.232	138.06
244.465	140.06
244.699	144.06
244.932	147.06
245.166	167.06
245.399	154.06
245.633	149.06
245.866	139.06
246.099	153.06
246.333	142.06
246.566	140.06
246.8	147.06
247.033	156.06
247.266	156.06
247.5	175.06
247.733	157.06
247.966	180.06
248.2	171.06
248.433	179.06
248.666	153.06
248.899	185.06
249.133	208.06
249.366	196.06
249.599	214.06
249.832	199.06
250.066	204.06
250.299	179.06
250.532	214.06
250.765	205.06
250.998	223.06
251.231	230.06
251.465	226.06
251.698	202.06
251.931	204.06
252.164	195.06
252.397	193.06
252.63	201.06
252.863	210.06
253.096	226.06
253.329	239.06
253.562	220.06
253.795	213.06
254.028	223.06
254.261	234.06
254.494	239.06
254.727	255.06
254.96	274.06
255.193	277.06
255.426	250.06
255.659	237.06
255.892	231.06
256.124	227.06
256.357	236.06
256.59	233.06
256.823	217.06
257.056	217.06
257.289	216.06
257.521	219.06
257.754	203.06
257.987	217.06
258.22	204.06
258.452	215.06
258.685	232.06
258.918	213.06
259.151	217.06
259.383	228.06
259.616	225.06
259.849	231.06
260.081	233.06
260.314	266.06
260.547	275.06
260.779	232.06
261.012	247.06
261.244	221.06
261.477	233.06
261.71	226.06
261.942	223.06
262.175	245.06
262.407	226.06
262.64	218.06
262.872	224.06
263.105	216.06
263.337	228.06
263.57	209.06
263.802	224.06
264.035	213.06
264.267	215.06
264.499	227.06
264.732	211.06
264.964	213.06
265.197	221.06
265.429	208.06
265.661	231.06
265.894	221.06
266.126	212.06
266.358	229.06
266.591	227.06
266.823	229.06
267.055	244.06
267.287	229.06
267.52	225.06
267.752	227.06
267.984	234.06
268.216	233.06
268.448	248.06
268.681	247.06
268.913	250.06
269.145	276.06
269.377	283.06
269.609	287.06
269.841	272.06
270.073	287.06
270.306	281.06
270.538	329.06
270.77	321.06
271.002	310.06
271.234	290.06
271.466	308.06
271.698	331.06
271.93	328.06
272.162	313.06
272.394	317.06
272.626	301.06
272.858	291.06
273.09	289.06
273.322	282.06
273.553	265.06
273.785	274.06
274.017	260.06
274.249	269.06
274.481	269.06
274.713	275.06
274.945	276.06
275.176	267.06
275.408	266.06
275.64	279.06
275.872	262.06
276.104	271.06
276.335	260.06
276.567	267.06
276.799	295.06
277.031	323.06
277.262	310.06
277.494	316.06
277.726	307.06
277.957	281.06
278.189	299.06
278.421	263.06
278.652	276.06
278.884	280.06
279.115	258.06
279.347	250.06
279.579	263.06
279.81	285.06
280.042	266.06
280.273	267.06
280.505	279.06
280.736	264.06
280.968	287.06
281.199	263.06
281.431	272.06
281.662	268.06
281.894	265.06
282.125	258.06
282.356	283.06
282.588	311.06
282.819	325.06
283.051	285.06
283.282	273.06
283.513	286.06
283.745	281.06
283.976	296.06
284.207	284.06
284.439	290.06
284.67	288.06
284.901	288.06
285.132	278.06
285.364	287.06
285.595	288.06
285.826	295.06
286.057	279.06
286.288	287.06
286.52	284.06
286.751	295.06
286.982	284.06
287.213	295.06
287.444	292.06
287.675	301.06
287.906	301.06
288.138	306.06
288.369	319.06
288.6	295.06
288.831	309.06
289.062	299.06
289.293	287.06
289.524	307.06
289.755	304.06
289.986	278.06
290.217	293.06
290.448	312.06
290.679	302.06
290.91	295.06
291.141	284.06
291.371	300.06
291.602	325.06
291.833	286.06
292.064	291.06
292.295	319.06
292.526	305.06
292.757	298.06
292.987	307.06
293.218	300.06
293.449	284.06
293.68	291.06
293.91	287.06
294.141	284.06
294.372	297.06
294.603	296.06
294.833	286.06
295.064	298.06
295.295	298.06
295.525	308.06
295.756	307.06
295.987	300.06
296.217	325.06
296.448	348.06
296.679	312.06
296.909	324.06
297.14	309.06
297.37	311.06
297.601	305.06
297.831	297.06
298.062	304.06
298.292	305.06
298.523	315.06
298.753	319.06
298.984	313.06
299.214	312.06
299.445	314.06
299.675	310.06
299.905	323.06
300.136	332.06
300.366	338.06
300.597	315.06
300.827	341.06
301.057	331.06
301.288	338.06
301.518	331.06
301.748	324.06
301.979	324.06
302.209	331.06
302.439	338.06
302.669	355.06
302.9	322.06
303.13	321.06
303.36	329.06
303.59	328.06
303.82	343.06
304.051	373.06
304.281	359.06
304.511	359.06
304.741	342.06
304.971	321.06
305.201	318.06
305.431	325.06
305.661	345.06
305.891	321.06
306.121	338.06
306.352	337.06
306.582	335.06
306.812	351.06
307.042	354.06
307.272	344.06
307.502	353.06
307.731	343.06
307.961	339.06
308.191	343.06
308.421	335.06
308.651	334.06
308.881	361.06
309.111	338.06
309.341	350.06
309.571	360.06
309.8	369.06
310.03	381.06
310.26	387.06
310.49	379.06
310.72	392.06
310.949	399.06
311.179	393.06
311.409	379.06
311.639	371.06
311.868	401.06
312.098	379.06
312.328	381.06
312.557	395.06
312.787	423.06
313.017	413.06
313.246	412.06
313.476	378.06
313.706	371.06
313.935	401.06
314.165	407.06
314.394	411.06
314.624	425.06
314.853	372.06
315.083	366.06
315.312	379.06
315.542	381.06
315.771	380.06
316.001	384.06
316.23	392.06
316.46	391.06
316.689	390.06
316.919	395.06
317.148	384.06
317.377	402.06
317.607	396.06
317.836	397.06
318.065	384.06
318.295	408.06
318.524	395.06
318.753	382.06
318.983	395.06
319.212	380.06
319.441	389.06
319.67	399.06
319.9	413.06
320.129	395.06
320.358	396.06
320.587	415.06
320.816	418.06
321.046	398.06
321.275	418.06
321.504	415.06
321.733	415.06
321.962	403.06
322.191	428.06
322.42	444.06
322.649	438.06
322.878	471.06
323.108	459.06
323.337	509.06
323.566	516.06
323.795	536.06
324.024	579.06
324.253	684.06
324.482	981.06
324.71	1543.06
324.939	2294.06
325.168	1996.06
325.397	976.06
325.626	637.06
325.855	570.06
326.084	525.06
326.313	496.06
326.542	509.06
326.77	543.06
326.999	641.06
327.228	917.06
327.457	1383.06
327.686	1742.06
327.914	1153.06
328.143	739.06
328.372	641.06
328.6	601.06
328.829	561.06
329.058	589.06
329.287	617.06
329.515	550.06
329.744	538.06
329.972	504.06
330.201	554.06
330.43	592.06
330.658	594.06
330.887	629.06
331.115	610.06
331.344	537.06
331.572	526.06
331.801	497.06
332.03	514.06
332.258	484.06
332.486	473.06
332.715	482.06
332.943	483.06
333.172	496.06
333.4	465.06
333.629	492.06
333.857	490.06
334.085	523.06
334.314	536.06
334.542	571.06
334.771	591.06
334.999	545.06
335.227	503.06
335.455	483.06
335.684	487.06
335.912	480.06
336.14	461.06
336.369	471.06
336.597	450.06
336.825	467.06
337.053	471.06
337.281	461.06
337.51	461.06
337.738	464.06
337.966	441.06
338.194	455.06
338.422	456.06
338.65	452.06
338.878	458.06
339.106	447.06
339.334	458.06
339.562	440.06
339.79	432.06
340.018	449.06
340.246	438.06
340.474	438.06
340.702	459.06
340.93	451.06
341.158	450.06
341.386	454.06
341.614	461.06
341.842	451.06
342.07	449.06
342.298	442.06
342.526	423.06
342.754	437.06
342.981	429.06
343.209	449.06
343.437	444.06
343.665	461.06
343.893	460.06
344.12	456.06
344.348	474.06
344.576	450.06
344.804	482.06
345.031	469.06
345.259	484.06
345.487	471.06
345.714	462.06
345.942	446.06
346.17	455.06
346.397	437.06
346.625	435.06
346.853	429.06
347.08	429.06
347.308	456.06
347.535	459.06
347.763	452.06
347.99	456.06
348.218	444.06
348.445	444.06
348.673	423.06
348.9	444.06
349.128	428.06
349.355	435.06
349.583	447.06
349.81	438.06
350.037	417.06
350.265	445.06
350.492	418.06
350.72	429.06
350.947	431.06
351.174	441.06
351.402	455.06
351.629	450.06
351.856	460.06
352.083	452.06
352.311	459.06
352.538	460.06
352.765	462.06
352.992	441.06
353.22	440.06
353.447	432.06
353.674	422.06
353.901	442.06
354.128	433.06
354.355	413.06
354.583	421.06
354.81	423.06
355.037	427.06
355.264	420.06
355.491	427.06
355.718	403.06
355.945	402.06
356.172	425.06
356.399	420.06
356.626	429.06
356.853	419.06
357.08	395.06
357.307	393.06
357.534	412.06
357.761	417.06
357.988	434.06
358.215	393.06
358.441	417.06
358.668	394.06
358.895	451.06
359.122	443.06
359.349	447.06
359.576	444.06
359.802	462.06
360.029	487.06
360.256	507.06
360.483	476.06
360.709	443.06
360.936	460.06
361.163	454.06
361.39	447.06
361.616	455.06
361.843	467.06
362.07	451.06
362.296	450.06
362.523	450.06
362.749	437.06
362.976	455.06
363.203	439.06
363.429	418.06
363.656	424.06
363.882	431.06
364.109	428.06
364.335	443.06
364.562	423.06
364.788	410.06
365.015	417.06
365.241	412.06
365.468	418.06
365.694	442.06
365.92	423.06
366.147	436.06
366.373	407.06
366.599	435.06
366.826	422.06
367.052	439.06
367.278	433.06
367.505	435.06
367.731	445.06
367.957	399.06
368.184	437.06
368.41	450.06
368.636	455.06
368.862	448.06
369.089	427.06
369.315	427.06
369.541	432.06
369.767	432.06
369.993	423.06
370.219	440.06
370.445	422.06
370.672	428.06
370.898	442.06
371.124	441.06
371.35	431.06
371.576	430.06
371.802	427.06
372.028	452.06
372.254	427.06
372.48	423.06
372.706	441.06
372.932	415.06
373.158	445.06
373.384	424.06
373.61	440.06
373.835	427.06
374.061	431.06
374.287	433.06
374.513	442.06
374.739	455.06
374.965	459.06
375.191	461.06
375.416	434.06
375.642	433.06
375.868	439.06
376.094	433.06
376.319	436.06
376.545	416.06
376.771	447.06
376.997	448.06
377.222	462.06
377.448	428.06
377.674	443.06
377.899	435.06
378.125	443.06
378.35	423.06
378.576	428.06
378.802	430.06
379.027	453.06
379.253	437.06
379.478	431.06
379.704	443.06
379.929	424.06
380.155	441.06
380.38	447.06
380.606	467.06
380.831	418.06
381.057	450.06
381.282	445.06
381.507	441.06
381.733	440.06
381.958	457.06
382.184	448.06
382.409	465.06
382.634	454.06
382.86	427.06
383.085	457.06
383.31	470.06
383.535	464.06
383.761	435.06
383.986	471.06
384.211	474.06
384.436	475.06
384.662	460.06
384.887	473.06
385.112	471.06
385.337	459.06
385.562	468.06
385.787	484.06
386.013	490.06
386.238	497.06
386.463	482.06
386.688	495.06
386.913	487.06
387.138	478.06
387.363	502.06
387.588	496.06
387.813	487.06
388.038	476.06
388.263	489.06
388.488	485.06
388.713	488.06
388.938	472.06
389.163	490.06
389.387	476.06
389.612	474.06
389.837	457.06
390.062	499.06
390.287	479.06
390.512	485.06
390.736	479.06
390.961	481.06
391.186	487.06
391.411	479.06
391.636	491.06
391.86	488.06
392.085	491.06
392.31	499.06
392.534	496.06
392.759	505.06
392.984	474.06
393.208	485.06
393.433	491.06
393.658	485.06
393.882	467.06
394.107	475.06
394.331	499.06
394.556	513.06
394.78	503.06
395.005	501.06
395.229	489.06
395.454	513.06
395.678	522.06
395.903	512.06
396.127	533.06
396.352	567.06
396.576	528.06
396.801	521.06
397.025	511.06
397.249	530.06
397.474	524.06
397.698	527.06
397.922	529.06
398.147	559.06
398.371	557.06
398.595	560.06
398.82	553.06
399.044	574.06
399.268	563.06
399.492	606.06
399.717	627.06
399.941	681.06
400.165	683.06
400.389	708.06
400.613	637.06
400.837	595.06
401.062	591.06
401.286	570.06
401.51	575.06
401.734	553.06
401.958	548.06
402.182	562.06
402.406	585.06
402.63	593.06
402.854	584.06
403.078	588.06
403.302	597.06
403.526	578.06
403.75	585.06
403.974	594.06
404.198	601.06
404.422	596.06
404.645	604.06
404.869	610.06
405.093	649.06
405.317	687.06
405.541	723.06
405.765	644.06
405.988	648.06
406.212	627.06
406.436	660.06
406.66	646.06
406.883	620.06
407.107	652.06
407.331	723.06
407.555	767.06
407.778	773.06
408.002	731.06
408.226	675.06
408.449	635.06
408.673	627.06
408.896	683.06
409.12	711.06
409.344	677.06
409.567	608.06
409.791	601.06
410.014	613.06
410.238	605.06
410.461	601.06
410.685	614.06
410.908	611.06
411.132	655.06
411.355	689.06
411.578	690.06
411.802	599.06
412.025	576.06
412.249	596.06
412.472	603.06
412.695	676.06
412.919	669.06
413.142	623.06
413.365	591.06
413.589	567.06
413.812	566.06
414.035	552.06
414.258	563.06
414.482	576.06
414.705	574.06
414.928	569.06
415.151	557.06
415.374	576.06
415.597	551.06
415.821	541.06
416.044	570.06
416.267	545.06
416.49	556.06
416.713	545.06
416.936	580.06
417.159	555.06
417.382	570.06
417.605	567.06
417.828	563.06
418.051	579.06
418.274	581.06
418.497	552.06
418.72	562.06
418.943	549.06
419.166	587.06
419.389	608.06
419.611	599.06
419.834	595.06
420.057	602.06
420.28	593.06
420.503	558.06
420.726	595.06
420.948	585.06
421.171	662.06
421.394	687.06
421.617	623.06
421.839	563.06
422.062	584.06
422.285	568.06
422.507	672.06
422.73	730.06
422.953	704.06
423.175	627.06
423.398	601.06
423.621	619.06
423.843	617.06
424.066	625.06
424.288	650.06
424.511	659.06
424.733	696.06
424.956	819.06
425.178	767.06
425.401	760.06
425.623	788.06
425.846	691.06
426.068	616.06
426.291	627.06
426.513	632.06
426.735	624.06
426.958	689.06
427.18	768.06
427.402	930.06
427.625	1007.06
427.847	855.06
428.069	771.06
428.292	671.06
428.514	641.06
428.736	611.06
428.958	583.06
429.181	573.06
429.403	585.06
429.625	594.06
429.847	641.06
430.069	710.06
430.292	705.06
430.514	589.06
430.736	579.06
430.958	575.06
431.18	565.06
431.402	559.06
431.624	549.06
431.846	539.06
432.068	569.06
432.29	576.06
432.512	538.06
432.734	575.06
432.956	567.06
433.178	579.06
433.4	575.06
433.622	565.06
433.844	560.06
434.066	562.06
434.287	552.06
434.509	577.06
434.731	569.06
434.953	570.06
435.175	596.06
435.397	626.06
435.618	615.06
435.84	677.06
436.062	797.06
436.284	867.06
436.505	693.06
436.727	634.06
436.949	596.06
437.17	588.06
437.392	573.06
437.614	586.06
437.835	634.06
438.057	737.06
438.278	860.06
438.5	840.06
438.721	964.06
438.943	899.06
439.165	719.06
439.386	637.06
439.608	659.06
439.829	668.06
440.05	678.06
440.272	704.06
440.493	687.06
440.715	629.06
440.936	601.06
441.158	604.06
441.379	616.06
441.6	588.06
441.822	636.06
442.043	673.06
442.264	774.06
442.486	815.06
442.707	701.06
442.928	668.06
443.149	651.06
443.371	666.06
443.592	737.06
443.813	822.06
444.034	913.06
444.255	732.06
444.476	654.06
444.698	655.06
444.919	624.06
445.14	727.06
445.361	689.06
445.582	690.06
445.803	744.06
446.024	872.06
446.245	905.06
446.466	785.06
446.687	677.06
446.908	636.06
447.129	581.06
447.35	591.06
447.571	571.06
447.792	566.06
448.013	596.06
448.234	601.06
448.455	653.06
448.675	777.06
448.896	882.06
449.117	769.06
449.338	743.06
449.559	850.06
449.779	992.06
450	801.06
450.221	648.06
450.442	603.06
450.662	567.06
450.883	580.06
451.104	592.06
451.324	586.06
451.545	563.06
451.766	556.06
451.986	518.06
452.207	519.06
452.428	503.06
452.648	506.06
452.869	525.06
453.089	521.06
453.31	554.06
453.53	531.06
453.751	492.06
453.971	509.06
454.192	527.06
454.412	524.06
454.633	513.06
454.853	517.06
455.073	511.06
455.294	541.06
455.514	639.06
455.734	599.06
455.955	509.06
456.175	511.06
456.395	500.06
456.616	485.06
456.836	480.06
457.056	501.06
457.276	464.06
457.497	499.06
457.717	502.06
457.937	505.06
458.157	527.06
458.377	516.06
458.598	529.06
458.818	603.06
459.038	689.06
459.258	714.06
459.478	619.06
459.698	572.06
459.918	559.06
460.138	535.06
460.358	564.06
460.578	580.06
460.798	538.06
461.018	543.06
461.238	569.06
461.458	559.06
461.678	566.06
461.898	566.06
462.118	578.06
462.338	582.06
462.558	570.06
462.777	609.06
462.997	623.06
463.217	620.06
463.437	617.06
463.657	608.06
463.876	609.06
464.096	603.06
464.316	595.06
464.536	612.06
464.755	597.06
464.975	609.06
465.195	628.06
465.414	706.06
465.634	656.06
465.854	575.06
466.073	571.06
466.293	552.06
466.512	538.06
466.732	550.06
466.951	529.06
467.171	542.06
467.391	541.06
467.61	537.06
467.829	556.06
468.049	547.06
468.268	549.06
468.488	537.06
468.707	519.06
468.927	515.06
469.146	526.06
469.365	528.06
469.585	484.06
469.804	541.06
470.023	551.06
470.243	537.06
470.462	538.06
470.681	553.06
470.901	555.06
471.12	547.06
471.339	561.06
471.558	551.06
471.777	551.06
471.997	548.06
472.216	544.06
472.435	604.06
472.654	597.06
472.873	576.06
473.092	549.06
473.311	555.06
473.53	553.06
473.749	529.06
473.968	600.06
474.187	691.06
474.406	723.06
474.625	600.06
474.844	553.06
475.063	550.06
475.282	546.06
475.501	560.06
475.72	555.06
475.939	551.06
476.158	576.06
476.377	565.06
476.596	555.06
476.814	552.06
477.033	570.06
477.252	565.06
477.471	589.06
477.69	589.06
477.908	594.06
478.127	622.06
478.346	610.06
478.564	607.06
478.783	591.06
479.002	605.06
479.22	603.06
479.439	628.06
479.658	641.06
479.876	638.06
480.095	661.06
480.313	697.06
480.532	706.06
480.751	665.06
480.969	675.06
481.188	752.06
481.406	801.06
481.624	718.06
481.843	694.06
482.061	651.06
482.28	638.06
482.498	638.06
482.717	629.06
482.935	646.06
483.153	628.06
483.372	627.06
483.59	618.06
483.808	643.06
484.027	659.06
484.245	638.06
484.463	655.06
484.681	643.06
484.9	669.06
485.118	657.06
485.336	659.06
485.554	680.06
485.772	657.06
485.99	653.06
486.209	641.06
486.427	681.06
486.645	688.06
486.863	700.06
487.081	679.06
487.299	683.06
487.517	681.06
487.735	673.06
487.953	677.06
488.171	679.06
488.389	684.06
488.607	688.06
488.825	707.06
489.043	686.06
489.261	695.06
489.479	704.06
489.696	692.06
489.914	708.06
490.132	738.06
490.35	720.06
490.568	733.06
490.786	745.06
491.003	758.06
491.221	765.06
491.439	775.06
491.657	758.06
491.874	777.06
492.092	780.06
492.31	795.06
492.527	794.06
492.745	844.06
492.963	797.06
493.18	817.06
493.398	840.06
493.615	839.06
493.833	822.06
494.05	829.06
494.268	799.06
494.485	818.06
494.703	807.06
494.92	825.06
495.138	825.06
495.355	804.06
495.573	818.06
495.79	821.06
496.008	847.06
496.225	805.06
496.442	833.06
496.66	826.06
496.877	855.06
497.094	819.06
497.312	838.06
497.529	850.06
497.746	849.06
497.963	855.06
498.181	903.06
498.398	896.06
498.615	916.06
498.832	925.06
499.049	955.06
499.267	952.06
499.484	988.06
499.701	1036.06
499.918	1063.06
500.135	1136.06
500.352	1172.06
500.569	1180.06
500.786	1179.06
501.003	1206.06
501.22	1127.06
501.437	1136.06
501.654	1064.06
501.871	1067.06
502.088	1036.06
502.305	963.06
502.522	917.06
502.739	916.06
502.956	879.06
503.172	881.06
503.389	846.06
503.606	867.06
503.823	860.06
504.04	862.06
504.256	830.06
504.473	825.06
504.69	839.06
504.907	837.06
505.123	792.06
505.34	789.06
505.557	816.06
505.773	807.06
505.99	795.06
506.207	793.06
506.423	800.06
506.64	787.06
506.856	756.06
507.073	756.06
507.289	770.06
507.506	760.06
507.722	779.06
507.939	778.06
508.155	770.06
508.372	741.06
508.588	721.06
508.805	753.06
509.021	739.06
509.238	762.06
509.454	776.06
509.67	747.06
509.887	722.06
510.103	719.06
510.319	739.06
510.536	833.06
510.752	1316.06
510.968	1065.06
511.184	743.06
511.401	723.06
511.617	718.06
511.833	685.06
512.049	667.06
512.265	696.06
512.481	684.06
512.698	679.06
512.914	679.06
513.13	683.06
513.346	710.06
513.562	705.06
513.778	679.06
513.994	711.06
514.21	698.06
514.426	744.06
514.642	775.06
514.858	769.06
515.074	834.06
515.29	967.06
515.506	1356.06
515.721	1140.06
515.937	821.06
516.153	791.06
516.369	756.06
516.585	723.06
516.801	752.06
517.016	738.06
517.232	720.06
517.448	744.06
517.664	745.06
517.879	708.06
518.095	730.06
518.311	686.06
518.527	721.06
518.742	714.06
518.958	712.06
519.173	712.06
519.389	726.06
519.605	686.06
519.82	699.06
520.036	732.06
520.251	723.06
520.467	748.06
520.682	752.06
520.898	741.06
521.113	788.06
521.329	809.06
521.544	860.06
521.76	1069.06
521.975	1731.06
522.19	1687.06
522.406	975.06
522.621	795.06
522.836	714.06
523.052	682.06
523.267	671.06
523.482	637.06
523.698	641.06
523.913	636.06
524.128	625.06
524.343	632.06
524.559	620.06
524.774	608.06
524.989	615.06
525.204	611.06
525.419	614.06
525.634	605.06
525.849	589.06
526.064	587.06
526.28	588.06
526.495	580.06
526.71	589.06
526.925	587.06
527.14	578.06
527.355	582.06
527.57	571.06
527.785	582.06
527.999	573.06
528.214	576.06
528.429	606.06
528.644	578.06
528.859	578.06
529.074	591.06
529.289	604.06
529.503	657.06
529.718	639.06
529.933	588.06
530.148	601.06
530.363	587.06
530.577	572.06
530.792	557.06
531.007	563.06
531.221	540.06
531.436	569.06
531.651	581.06
531.865	568.06
532.08	569.06
532.295	561.06
532.509	568.06
532.724	561.06
532.938	536.06
533.153	537.06
533.367	552.06
533.582	545.06
533.796	550.06
534.011	519.06
534.225	549.06
534.44	541.06
534.654	533.06
534.868	555.06
535.083	538.06
535.297	544.06
535.511	528.06
535.726	563.06
535.94	560.06
536.154	540.06
536.369	560.06
536.583	527.06
536.797	545.06
537.011	518.06
537.225	520.06
537.44	528.06
537.654	531.06
537.868	525.06
538.082	518.06
538.296	531.06
538.51	534.06
538.724	532.06
538.938	542.06
539.153	511.06
539.367	536.06
539.581	551.06
539.795	516.06
540.009	529.06
540.222	533.06
540.436	504.06
540.65	495.06
540.864	516.06
541.078	515.06
541.292	521.06
541.506	526.06
541.72	495.06
541.934	517.06
542.147	536.06
542.361	511.06
542.575	503.06
542.789	508.06
543.002	540.06
543.216	511.06
543.43	518.06
543.644	513.06
543.857	513.06
544.071	526.06
544.285	520.06
544.498	517.06
544.712	505.06
544.925	500.06
545.139	516.06
545.352	504.06
545.566	505.06
545.779	529.06
545.993	506.06
546.206	497.06
546.42	508.06
546.633	493.06
546.847	493.06
547.06	510.06
547.274	507.06
547.487	504.06
547.7	495.06
547.914	500.06
548.127	497.06
548.34	492.06
548.554	483.06
548.767	493.06
548.98	500.06
549.193	502.06
549.407	489.06
549.62	500.06
549.833	493.06
550.046	503.06
550.259	491.06
550.473	504.06
550.686	503.06
550.899	476.06
551.112	476.06
551.325	498.06
551.538	501.06
551.751	479.06
551.964	491.06
552.177	471.06
552.39	520.06
552.603	500.06
552.816	500.06
553.029	487.06
553.242	501.06
553.455	521.06
553.667	519.06
553.88	513.06
554.093	516.06
554.306	508.06
554.519	518.06
554.732	476.06
554.944	508.06
555.157	476.06
555.37	497.06
555.583	467.06
555.795	484.06
556.008	457.06
556.221	471.06
556.433	451.06
556.646	459.06
556.859	447.06
557.071	453.06
557.284	447.06
557.496	437.06
557.709	451.06
557.921	448.06
558.134	433.06
558.346	436.06
558.559	451.06
558.771	434.06
558.984	444.06
559.196	453.06
559.409	449.06
559.621	437.06
559.833	468.06
560.046	447.06
560.258	437.06
560.47	447.06
560.683	443.06
560.895	437.06
561.107	447.06
561.32	435.06
561.532	440.06
561.744	451.06
561.956	441.06
562.168	428.06
562.381	436.06
562.593	433.06
562.805	440.06
563.017	456.06
563.229	481.06
563.441	452.06
563.653	431.06
563.865	456.06
564.077	430.06
564.289	454.06
564.501	464.06
564.713	444.06
564.925	444.06
565.137	464.06
565.349	472.06
565.561	482.06
565.773	476.06
565.985	513.06
566.197	492.06
566.408	489.06
566.62	529.06
566.832	543.06
567.044	539.06
567.255	542.06
567.467	559.06
567.679	566.06
567.891	608.06
568.102	578.06
568.314	567.06
568.526	552.06
568.737	538.06
568.949	521.06
569.161	509.06
569.372	477.06
569.584	468.06
569.795	465.06
570.007	473.06
570.218	512.06
570.43	496.06
570.641	425.06
570.853	439.06
571.064	428.06
571.276	433.06
571.487	433.06
571.698	440.06
571.91	438.06
572.121	407.06
572.333	419.06
572.544	382.06
572.755	403.06
572.966	407.06
573.178	399.06
573.389	384.06
573.6	403.06
573.811	401.06
574.023	386.06
574.234	381.06
574.445	389.06
574.656	392.06
574.867	373.06
575.078	391.06
575.289	390.06
575.501	381.06
575.712	378.06
575.923	384.06
576.134	375.06
576.345	397.06
576.556	375.06
576.767	372.06
576.978	377.06
577.188	368.06
577.399	371.06
577.61	362.06
577.821	367.06
578.032	379.06
578.243	405.06
578.454	608.06
578.665	480.06
578.875	367.06
579.086	362.06
579.297	360.06
579.508	329.06
579.718	351.06
579.929	368.06
580.14	348.06
580.35	347.06
580.561	344.06
580.772	355.06
580.982	347.06
581.193	343.06
581.403	345.06
581.614	348.06
581.825	349.06
582.035	345.06
582.246	357.06
582.456	348.06
582.667	337.06
582.877	342.06
583.087	340.06
583.298	334.06
583.508	335.06
583.719	349.06
583.929	351.06
584.139	353.06
584.35	331.06
584.56	349.06
584.77	351.06
584.981	338.06
585.191	347.06
585.401	350.06
585.611	338.06
585.821	306.06
586.032	329.06
586.242	345.06
586.452	356.06
586.662	315.06
586.872	337.06
587.082	339.06
587.292	340.06
587.502	327.06
587.713	327.06
587.923	329.06
588.133	325.06
588.343	352.06
588.553	321.06
588.762	348.06
588.972	350.06
589.182	335.06
589.392	342.06
589.602	326.06
589.812	331.06
590.022	334.06
590.232	337.06
590.441	323.06
590.651	331.06
590.861	343.06
591.071	327.06
591.281	332.06
591.49	332.06
591.7	347.06
591.91	348.06
592.119	341.06
592.329	340.06
592.539	345.06
592.748	337.06
592.958	376.06
593.167	352.06
593.377	340.06
593.587	354.06
593.796	352.06
594.006	357.06
594.215	334.06
594.424	343.06
594.634	352.06
594.843	347.06
595.053	343.06
595.262	337.06
595.472	327.06
595.681	341.06
595.89	326.06
596.1	336.06
596.309	314.06
596.518	320.06
596.727	323.06
596.937	329.06
597.146	297.06
597.355	315.06
597.564	301.06
597.774	319.06
597.983	311.06
598.192	313.06
598.401	314.06
598.61	307.06
598.819	285.06
599.028	289.06
599.237	285.06
599.446	290.06
599.655	294.06
599.864	321.06
600.073	303.06
600.282	304.06
600.491	300.06
600.7	288.06
600.909	296.06
601.118	300.06
601.327	297.06
601.536	295.06
601.745	277.06
601.953	280.06
602.162	294.06
602.371	271.06
602.58	283.06
602.789	283.06
602.997	296.06
603.206	286.06
603.415	281.06
603.623	294.06
603.832	276.06
604.041	287.06
604.249	291.06
604.458	283.06
604.666	287.06
604.875	264.06
605.084	265.06
605.292	277.06
605.501	295.06
605.709	275.06
605.918	262.06
606.126	287.06
606.334	276.06
606.543	274.06
606.751	282.06
606.96	274.06
607.168	279.06
607.376	276.06
607.585	270.06
607.793	272.06
608.001	291.06
608.21	261.06
608.418	271.06
608.626	285.06
608.834	259.06
609.043	277.06
609.251	267.06
609.459	265.06
609.667	283.06
609.875	261.06
610.083	259.06
610.291	275.06
610.499	261.06
610.707	240.06
610.916	268.06
611.124	275.06
611.332	275.06
611.54	280.06
611.748	266.06
611.955	247.06
612.163	257.06
612.371	270.06
612.579	277.06
612.787	266.06
612.995	274.06
613.203	260.06
613.411	262.06
613.618	256.06
613.826	261.06
614.034	256.06
614.242	252.06
614.449	239.06
614.657	268.06
614.865	260.06
615.072	260.06
615.28	253.06
615.488	268.06
615.695	263.06
615.903	241.06
616.111	258.06
616.318	250.06
616.526	260.06
616.733	278.06
616.941	267.06
617.148	268.06
617.356	272.06
617.563	239.06
617.771	244.06
617.978	246.06
618.185	265.06
618.393	249.06
618.6	257.06
618.807	251.06
619.015	263.06
619.222	253.06
619.429	259.06
619.637	260.06
619.844	263.06
620.051	247.06
620.258	259.06
620.466	243.06
620.673	236.06
620.88	249.06
621.087	239.06
621.294	262.06
621.501	246.06
621.708	251.06
621.915	248.06
622.122	246.06
622.329	233.06
622.536	244.06
622.743	230.06
622.95	236.06
623.157	243.06
623.364	236.06
623.571	237.06
623.778	237.06
623.985	247.06
624.192	234.06
624.399	241.06
624.606	227.06
624.812	228.06
625.019	236.06
625.226	248.06
625.433	255.06
625.639	224.06
625.846	247.06
626.053	240.06
626.259	229.06
626.466	250.06
626.673	221.06
626.879	214.06
627.086	234.06
627.293	250.06
627.499	241.06
627.706	206.06
627.912	210.06
628.119	221.06
628.325	230.06
628.532	238.06
628.738	211.06
628.945	228.06
629.151	213.06
629.357	232.06
629.564	224.06
629.77	213.06
629.976	212.06
630.183	234.06
630.389	230.06
630.595	218.06
630.802	223.06
631.008	219.06
631.214	211.06
631.42	205.06
631.627	212.06
631.833	197.06
632.039	217.06
632.245	208.06
632.451	206.06
632.657	211.06
632.863	206.06
633.069	204.06
633.275	207.06
633.481	200.06
633.688	203.06
633.893	211.06
634.099	212.06
634.305	207.06
634.511	210.06
634.717	197.06
634.923	205.06
635.129	191.06
635.335	180.06
635.541	170.06
635.747	203.06
635.952	191.06
636.158	203.06
636.364	199.06
636.57	203.06
636.775	196.06
636.981	191.06
637.187	196.06
637.392	185.06
637.598	197.06
637.804	194.06
638.009	188.06
638.215	201.06
638.421	189.06
638.626	195.06
638.832	203.06
639.037	187.06
639.243	179.06
639.448	171.06
639.654	206.06
639.859	178.06
640.065	186.06
640.27	189.06
640.475	180.06
640.681	202.06
640.886	199.06
641.091	195.06
641.297	187.06
641.502	181.06
641.707	184.06
641.913	188.06
642.118	185.06
642.323	182.06
642.528	176.06
642.733	188.06
642.939	195.06
643.144	199.06
643.349	176.06
643.554	179.06
643.759	178.06
643.964	183.06
644.169	191.06
644.374	187.06
644.579	168.06
644.784	175.06
644.989	156.06
645.194	194.06
645.399	168.06
645.604	189.06
645.809	177.06
646.014	177.06
646.219	184.06
646.423	193.06
646.628	166.06
646.833	183.06
647.038	181.06
647.243	180.06
647.447	174.06
647.652	185.06
647.857	172.06
648.062	179.06
648.266	179.06
648.471	191.06
648.676	195.06
648.88	193.06
649.085	181.06
649.289	180.06
649.494	178.06
649.698	182.06
649.903	193.06
650.107	181.06
650.312	180.06
650.516	177.06
650.721	163.06
650.925	167.06
651.13	167.06
651.334	170.06
651.539	164.06
651.743	152.06
651.947	163.06
652.152	156.06
652.356	156.06
652.56	158.06
652.764	158.06
652.969	151.06
653.173	145.06
653.377	134.06
653.581	151.06
653.785	145.06
653.99	145.06
654.194	148.06
654.398	147.06
654.602	137.06
654.806	138.06
655.01	143.06
655.214	139.06
655.418	137.06
655.622	132.06
655.826	139.06
656.03	141.06
656.234	152.06
656.438	137.06
656.642	129.06
656.846	138.06
657.049	135.06
657.253	126.06
657.457	125.06
657.661	119.06
657.865	121.06
658.068	100.06
658.272	106.06
658.476	105.06
658.68	97.06
658.883	101.06
659.087	95.06
659.291	111.06
659.494	101.06
659.698	85.06
659.901	92.06
660.105	104.06
660.309	95.06
660.512	97.06
660.716	75.06
660.919	95.06
661.123	105.06
661.326	102.06
661.53	100.06
661.733	99.06
661.936	98.06
662.14	90.06
662.343	89.06
662.546	80.06
662.75	92.06
662.953	90.06
663.156	82.06
663.36	86.06
663.563	92.06
663.766	82.06
663.969	81.06
664.173	85.06
664.376	90.06
664.579	78.06
664.782	88.06
664.985	69.06
665.188	83.06
665.391	84.06
665.594	80.06
665.797	68.06
666	87.06
666.203	83.06
666.406	75.06
666.609	76.06
666.812	77.06
667.015	77.06
667.218	91.06
667.421	81.06
667.624	75.06
667.827	92.06
668.03	99.06
668.232	104.06
668.435	89.06
668.638	104.06
668.841	84.06
669.043	82.06
669.246	81.06
669.449	73.06
669.651	92.06
669.854	82.06
670.057	74.06
670.259	77.06
670.462	83.06
670.665	77.06
670.867	86.06
671.07	87.06
671.272	80.06
671.475	82.06
671.677	76.06
671.88	75.06
672.082	93.06
672.284	88.06
672.487	88.06
672.689	84.06
672.892	80.06
