Data from 1966.PennyLincolnUp.Lamp.En5.5.200Scan.071719.P1.Scan2.head_HRD10591_14-18-44-211.txt Node
Date: Thu Jul 18 14:18:44 EDT 2019
User: cochatt
Spectrometer: HR+D1059
Trigger mode: 1
Integration Time (sec): 1.000000E-1
Scans to average: 1
Electric dark correction enabled: true
Nonlinearity correction enabled: false
Boxcar width: 0
XAxis mode: Wavelengths
Number of Pixels in Spectrum: 2048
>>>>>Begin Spectral Data<<<<<
223.165	-35.25
223.4	-35.25
223.635	-35.25
223.869	-25.25
224.104	-22.25
224.338	-1.25
224.573	-1.25
224.808	-7.25
225.042	-18.25
225.277	1.75
225.511	-14.25
225.746	2.75
225.98	7.75
226.215	1.75
226.449	16.75
226.683	20.75
226.918	35.75
227.152	37.75
227.387	17.75
227.621	33.75
227.856	38.75
228.09	32.75
228.324	34.75
228.559	45.75
228.793	41.75
229.027	106.75
229.262	96.75
229.496	121.75
229.73	143.75
229.964	153.75
230.199	137.75
230.433	120.75
230.667	120.75
230.901	108.75
231.136	117.75
231.37	122.75
231.604	105.75
231.838	114.75
232.072	106.75
232.306	101.75
232.541	118.75
232.775	116.75
233.009	123.75
233.243	112.75
233.477	100.75
233.711	120.75
233.945	99.75
234.179	124.75
234.413	120.75
234.647	116.75
234.881	104.75
235.115	126.75
235.349	124.75
235.583	113.75
235.817	123.75
236.051	132.75
236.285	138.75
236.519	128.75
236.753	125.75
236.987	155.75
237.221	180.75
237.455	254.75
237.689	192.75
237.922	141.75
238.156	128.75
238.39	146.75
238.624	124.75
238.858	130.75
239.091	126.75
239.325	125.75
239.559	129.75
239.793	138.75
240.027	135.75
240.26	150.75
240.494	176.75
240.728	165.75
240.961	155.75
241.195	149.75
241.429	145.75
241.662	142.75
241.896	133.75
242.13	151.75
242.363	156.75
242.597	142.75
242.83	144.75
243.064	149.75
243.298	132.75
243.531	135.75
243.765	131.75
243.998	142.75
244.232	160.75
244.465	142.75
244.699	134.75
244.932	150.75
245.166	152.75
245.399	152.75
245.633	153.75
245.866	153.75
246.099	151.75
246.333	142.75
246.566	156.75
246.8	150.75
247.033	155.75
247.266	149.75
247.5	157.75
247.733	152.75
247.966	177.75
248.2	174.75
248.433	172.75
248.666	195.75
248.899	185.75
249.133	201.75
249.366	210.75
249.599	204.75
249.832	190.75
250.066	201.75
250.299	192.75
250.532	205.75
250.765	195.75
250.998	232.75
251.231	236.75
251.465	219.75
251.698	208.75
251.931	201.75
252.164	208.75
252.397	212.75
252.63	205.75
252.863	212.75
253.096	219.75
253.329	244.75
253.562	233.75
253.795	226.75
254.028	221.75
254.261	220.75
254.494	235.75
254.727	263.75
254.96	280.75
255.193	277.75
255.426	273.75
255.659	247.75
255.892	246.75
256.124	247.75
256.357	230.75
256.59	228.75
256.823	227.75
257.056	219.75
257.289	202.75
257.521	213.75
257.754	214.75
257.987	205.75
258.22	194.75
258.452	211.75
258.685	206.75
258.918	209.75
259.151	214.75
259.383	225.75
259.616	227.75
259.849	240.75
260.081	252.75
260.314	277.75
260.547	252.75
260.779	258.75
261.012	257.75
261.244	219.75
261.477	256.75
261.71	226.75
261.942	231.75
262.175	228.75
262.407	217.75
262.64	213.75
262.872	222.75
263.105	224.75
263.337	226.75
263.57	219.75
263.802	214.75
264.035	215.75
264.267	198.75
264.499	215.75
264.732	230.75
264.964	205.75
265.197	209.75
265.429	236.75
265.661	222.75
265.894	228.75
266.126	228.75
266.358	206.75
266.591	230.75
266.823	233.75
267.055	231.75
267.287	244.75
267.52	240.75
267.752	223.75
267.984	249.75
268.216	242.75
268.448	233.75
268.681	240.75
268.913	245.75
269.145	270.75
269.377	292.75
269.609	293.75
269.841	276.75
270.073	293.75
270.306	287.75
270.538	334.75
270.77	324.75
271.002	307.75
271.234	306.75
271.466	318.75
271.698	322.75
271.93	326.75
272.162	343.75
272.394	337.75
272.626	314.75
272.858	301.75
273.09	275.75
273.322	301.75
273.553	270.75
273.785	278.75
274.017	291.75
274.249	278.75
274.481	257.75
274.713	259.75
274.945	267.75
275.176	291.75
275.408	266.75
275.64	259.75
275.872	266.75
276.104	272.75
276.335	280.75
276.567	296.75
276.799	286.75
277.031	316.75
277.262	326.75
277.494	341.75
277.726	324.75
277.957	295.75
278.189	285.75
278.421	300.75
278.652	284.75
278.884	284.75
279.115	276.75
279.347	282.75
279.579	285.75
279.81	277.75
280.042	276.75
280.273	289.75
280.505	280.75
280.736	280.75
280.968	282.75
281.199	253.75
281.431	270.75
281.662	274.75
281.894	269.75
282.125	263.75
282.356	301.75
282.588	307.75
282.819	320.75
283.051	310.75
283.282	283.75
283.513	285.75
283.745	268.75
283.976	280.75
284.207	301.75
284.439	283.75
284.67	309.75
284.901	288.75
285.132	268.75
285.364	258.75
285.595	285.75
285.826	294.75
286.057	276.75
286.288	284.75
286.52	291.75
286.751	285.75
286.982	309.75
287.213	288.75
287.444	296.75
287.675	309.75
287.906	300.75
288.138	316.75
288.369	317.75
288.6	311.75
288.831	334.75
289.062	296.75
289.293	310.75
289.524	324.75
289.755	307.75
289.986	306.75
290.217	292.75
290.448	280.75
290.679	290.75
290.91	308.75
291.141	290.75
291.371	313.75
291.602	308.75
291.833	298.75
292.064	287.75
292.295	292.75
292.526	298.75
292.757	286.75
292.987	311.75
293.218	286.75
293.449	299.75
293.68	304.75
293.91	300.75
294.141	317.75
294.372	308.75
294.603	309.75
294.833	293.75
295.064	312.75
295.295	300.75
295.525	298.75
295.756	309.75
295.987	285.75
296.217	341.75
296.448	342.75
296.679	312.75
296.909	299.75
297.14	316.75
297.37	323.75
297.601	320.75
297.831	295.75
298.062	322.75
298.292	316.75
298.523	320.75
298.753	320.75
298.984	315.75
299.214	334.75
299.445	339.75
299.675	304.75
299.905	319.75
300.136	310.75
300.366	343.75
300.597	326.75
300.827	314.75
301.057	333.75
301.288	324.75
301.518	332.75
301.748	355.75
301.979	344.75
302.209	340.75
302.439	348.75
302.669	337.75
302.9	328.75
303.13	344.75
303.36	320.75
303.59	357.75
303.82	353.75
304.051	386.75
304.281	368.75
304.511	337.75
304.741	338.75
304.971	322.75
305.201	344.75
305.431	344.75
305.661	344.75
305.891	325.75
306.121	348.75
306.352	349.75
306.582	362.75
306.812	347.75
307.042	354.75
307.272	324.75
307.502	360.75
307.731	337.75
307.961	357.75
308.191	361.75
308.421	354.75
308.651	360.75
308.881	353.75
309.111	379.75
309.341	356.75
309.571	359.75
309.8	377.75
310.03	386.75
310.26	388.75
310.49	378.75
310.72	384.75
310.949	397.75
311.179	422.75
311.409	372.75
311.639	379.75
311.868	381.75
312.098	390.75
312.328	413.75
312.557	417.75
312.787	416.75
313.017	420.75
313.246	398.75
313.476	405.75
313.706	402.75
313.935	396.75
314.165	404.75
314.394	409.75
314.624	408.75
314.853	408.75
315.083	400.75
315.312	402.75
315.542	387.75
315.771	414.75
316.001	384.75
316.23	403.75
316.46	396.75
316.689	395.75
316.919	395.75
317.148	424.75
317.377	417.75
317.607	413.75
317.836	390.75
318.065	417.75
318.295	393.75
318.524	390.75
318.753	376.75
318.983	382.75
319.212	379.75
319.441	416.75
319.67	407.75
319.9	418.75
320.129	412.75
320.358	389.75
320.587	428.75
320.816	418.75
321.046	424.75
321.275	392.75
321.504	422.75
321.733	429.75
321.962	439.75
322.191	434.75
322.42	428.75
322.649	450.75
322.878	467.75
323.108	442.75
323.337	485.75
323.566	516.75
323.795	541.75
324.024	606.75
324.253	715.75
324.482	988.75
324.71	1550.75
324.939	2340.75
325.168	2055.75
325.397	991.75
325.626	675.75
325.855	574.75
326.084	529.75
326.313	530.75
326.542	512.75
326.77	571.75
326.999	647.75
327.228	924.75
327.457	1390.75
327.686	1763.75
327.914	1158.75
328.143	722.75
328.372	641.75
328.6	616.75
328.829	603.75
329.058	596.75
329.287	619.75
329.515	573.75
329.744	536.75
329.972	536.75
330.201	545.75
330.43	589.75
330.658	606.75
330.887	644.75
331.115	613.75
331.344	541.75
331.572	501.75
331.801	522.75
332.03	521.75
332.258	501.75
332.486	480.75
332.715	492.75
332.943	474.75
333.172	486.75
333.4	497.75
333.629	527.75
333.857	522.75
334.085	558.75
334.314	538.75
334.542	579.75
334.771	591.75
334.999	537.75
335.227	500.75
335.455	505.75
335.684	453.75
335.912	481.75
336.14	474.75
336.369	460.75
336.597	486.75
336.825	489.75
337.053	498.75
337.281	481.75
337.51	474.75
337.738	469.75
337.966	476.75
338.194	462.75
338.422	469.75
338.65	465.75
338.878	469.75
339.106	460.75
339.334	444.75
339.562	446.75
339.79	440.75
340.018	459.75
340.246	468.75
340.474	467.75
340.702	438.75
340.93	458.75
341.158	446.75
341.386	472.75
341.614	462.75
341.842	460.75
342.07	461.75
342.298	466.75
342.526	434.75
342.754	429.75
342.981	452.75
343.209	444.75
343.437	458.75
343.665	461.75
343.893	484.75
344.12	460.75
344.348	470.75
344.576	474.75
344.804	484.75
345.031	489.75
345.259	482.75
345.487	466.75
345.714	461.75
345.942	462.75
346.17	448.75
346.397	436.75
346.625	448.75
346.853	453.75
347.08	440.75
347.308	439.75
347.535	463.75
347.763	483.75
347.99	487.75
348.218	463.75
348.445	467.75
348.673	448.75
348.9	458.75
349.128	460.75
349.355	433.75
349.583	434.75
349.81	443.75
350.037	420.75
350.265	438.75
350.492	424.75
350.72	425.75
350.947	451.75
351.174	454.75
351.402	436.75
351.629	445.75
351.856	450.75
352.083	428.75
352.311	468.75
352.538	469.75
352.765	446.75
352.992	446.75
353.22	453.75
353.447	441.75
353.674	444.75
353.901	435.75
354.128	445.75
354.355	425.75
354.583	397.75
354.81	427.75
355.037	424.75
355.264	413.75
355.491	415.75
355.718	424.75
355.945	413.75
356.172	429.75
356.399	421.75
356.626	428.75
356.853	420.75
357.08	421.75
357.307	412.75
357.534	408.75
357.761	416.75
357.988	435.75
358.215	420.75
358.441	408.75
358.668	422.75
358.895	425.75
359.122	434.75
359.349	465.75
359.576	437.75
359.802	455.75
360.029	484.75
360.256	529.75
360.483	477.75
360.709	447.75
360.936	460.75
361.163	461.75
361.39	456.75
361.616	456.75
361.843	442.75
362.07	457.75
362.296	442.75
362.523	424.75
362.749	456.75
362.976	452.75
363.203	444.75
363.429	451.75
363.656	443.75
363.882	450.75
364.109	432.75
364.335	436.75
364.562	416.75
364.788	460.75
365.015	445.75
365.241	424.75
365.468	434.75
365.694	452.75
365.92	455.75
366.147	438.75
366.373	430.75
366.599	425.75
366.826	444.75
367.052	442.75
367.278	460.75
367.505	447.75
367.731	442.75
367.957	444.75
368.184	454.75
368.41	431.75
368.636	477.75
368.862	442.75
369.089	435.75
369.315	442.75
369.541	428.75
369.767	435.75
369.993	439.75
370.219	455.75
370.445	441.75
370.672	433.75
370.898	424.75
371.124	436.75
371.35	456.75
371.576	451.75
371.802	440.75
372.028	427.75
372.254	446.75
372.48	450.75
372.706	442.75
372.932	441.75
373.158	441.75
373.384	439.75
373.61	439.75
373.835	438.75
374.061	428.75
374.287	469.75
374.513	442.75
374.739	452.75
374.965	465.75
375.191	460.75
375.416	448.75
375.642	466.75
375.868	460.75
376.094	440.75
376.319	452.75
376.545	448.75
376.771	427.75
376.997	428.75
377.222	434.75
377.448	429.75
377.674	452.75
377.899	419.75
378.125	434.75
378.35	434.75
378.576	439.75
378.802	441.75
379.027	440.75
379.253	443.75
379.478	449.75
379.704	448.75
379.929	429.75
380.155	457.75
380.38	450.75
380.606	449.75
380.831	423.75
381.057	456.75
381.282	449.75
381.507	436.75
381.733	446.75
381.958	449.75
382.184	439.75
382.409	467.75
382.634	487.75
382.86	448.75
383.085	469.75
383.31	464.75
383.535	477.75
383.761	466.75
383.986	472.75
384.211	474.75
384.436	478.75
384.662	466.75
384.887	474.75
385.112	490.75
385.337	490.75
385.562	489.75
385.787	484.75
386.013	476.75
386.238	507.75
386.463	483.75
386.688	474.75
386.913	508.75
387.138	500.75
387.363	500.75
387.588	494.75
387.813	514.75
388.038	473.75
388.263	504.75
388.488	498.75
388.713	489.75
388.938	495.75
389.163	480.75
389.387	500.75
389.612	501.75
389.837	498.75
390.062	487.75
390.287	508.75
390.512	490.75
390.736	496.75
390.961	491.75
391.186	485.75
391.411	516.75
391.636	510.75
391.86	494.75
392.085	517.75
392.31	516.75
392.534	533.75
392.759	501.75
392.984	487.75
393.208	507.75
393.433	510.75
393.658	519.75
393.882	508.75
394.107	509.75
394.331	493.75
394.556	506.75
394.78	500.75
395.005	516.75
395.229	519.75
395.454	523.75
395.678	513.75
395.903	541.75
396.127	556.75
396.352	560.75
396.576	546.75
396.801	499.75
397.025	522.75
397.249	553.75
397.474	547.75
397.698	534.75
397.922	567.75
398.147	570.75
398.371	564.75
398.595	560.75
398.82	547.75
399.044	591.75
399.268	622.75
399.492	629.75
399.717	658.75
399.941	688.75
400.165	737.75
400.389	718.75
400.613	645.75
400.837	628.75
401.062	588.75
401.286	562.75
401.51	592.75
401.734	587.75
401.958	612.75
402.182	581.75
402.406	576.75
402.63	578.75
402.854	577.75
403.078	620.75
403.302	614.75
403.526	610.75
403.75	589.75
403.974	606.75
404.198	608.75
404.422	600.75
404.645	609.75
404.869	601.75
405.093	650.75
405.317	708.75
405.541	754.75
405.765	676.75
405.988	647.75
406.212	650.75
406.436	669.75
406.66	684.75
406.883	682.75
407.107	662.75
407.331	745.75
407.555	805.75
407.778	801.75
408.002	746.75
408.226	674.75
408.449	659.75
408.673	673.75
408.896	679.75
409.12	722.75
409.344	710.75
409.567	622.75
409.791	600.75
410.014	605.75
410.238	588.75
410.461	598.75
410.685	616.75
410.908	632.75
411.132	654.75
411.355	709.75
411.578	682.75
411.802	601.75
412.025	606.75
412.249	617.75
412.472	644.75
412.695	699.75
412.919	668.75
413.142	619.75
413.365	596.75
413.589	590.75
413.812	583.75
414.035	568.75
414.258	564.75
414.482	557.75
414.705	559.75
414.928	568.75
415.151	556.75
415.374	579.75
415.597	557.75
415.821	563.75
416.044	580.75
416.267	558.75
416.49	563.75
416.713	568.75
416.936	566.75
417.159	570.75
417.382	552.75
417.605	585.75
417.828	583.75
418.051	604.75
418.274	607.75
418.497	582.75
418.72	550.75
418.943	554.75
419.166	595.75
419.389	628.75
419.611	599.75
419.834	602.75
420.057	593.75
420.28	600.75
420.503	580.75
420.726	576.75
420.948	617.75
421.171	654.75
421.394	679.75
421.617	628.75
421.839	589.75
422.062	628.75
422.285	622.75
422.507	666.75
422.73	749.75
422.953	736.75
423.175	665.75
423.398	629.75
423.621	630.75
423.843	674.75
424.066	645.75
424.288	614.75
424.511	666.75
424.733	726.75
424.956	834.75
425.178	802.75
425.401	781.75
425.623	781.75
425.846	701.75
426.068	634.75
426.291	640.75
426.513	645.75
426.735	665.75
426.958	692.75
427.18	810.75
427.402	955.75
427.625	1026.75
427.847	894.75
428.069	774.75
428.292	700.75
428.514	654.75
428.736	590.75
428.958	610.75
429.181	613.75
429.403	596.75
429.625	586.75
429.847	642.75
430.069	701.75
430.292	698.75
430.514	633.75
430.736	591.75
430.958	590.75
431.18	580.75
431.402	576.75
431.624	558.75
431.846	587.75
432.068	552.75
432.29	556.75
432.512	585.75
432.734	579.75
432.956	556.75
433.178	588.75
433.4	581.75
433.622	583.75
433.844	573.75
434.066	581.75
434.287	573.75
434.509	553.75
434.731	592.75
434.953	583.75
435.175	596.75
435.397	633.75
435.618	643.75
435.84	696.75
436.062	792.75
436.284	867.75
436.505	718.75
436.727	665.75
436.949	607.75
437.17	592.75
437.392	604.75
437.614	602.75
437.835	617.75
438.057	761.75
438.278	866.75
438.5	880.75
438.721	958.75
438.943	915.75
439.165	724.75
439.386	665.75
439.608	640.75
439.829	632.75
440.05	677.75
440.272	727.75
440.493	666.75
440.715	640.75
440.936	614.75
441.158	603.75
441.379	606.75
441.6	612.75
441.822	646.75
442.043	685.75
442.264	780.75
442.486	827.75
442.707	694.75
442.928	644.75
443.149	670.75
443.371	677.75
443.592	756.75
443.813	844.75
444.034	893.75
444.255	746.75
444.476	683.75
444.698	655.75
444.919	662.75
445.14	784.75
445.361	722.75
445.582	676.75
445.803	746.75
446.024	870.75
446.245	891.75
446.466	824.75
446.687	688.75
446.908	625.75
447.129	589.75
447.35	587.75
447.571	589.75
447.792	584.75
448.013	586.75
448.234	624.75
448.455	667.75
448.675	796.75
448.896	977.75
449.117	788.75
449.338	727.75
449.559	856.75
449.779	993.75
450	778.75
450.221	638.75
450.442	594.75
450.662	568.75
450.883	609.75
451.104	577.75
451.324	562.75
451.545	578.75
451.766	569.75
451.986	539.75
452.207	524.75
452.428	524.75
452.648	523.75
452.869	523.75
453.089	547.75
453.31	569.75
453.53	575.75
453.751	530.75
453.971	541.75
454.192	556.75
454.412	535.75
454.633	532.75
454.853	530.75
455.073	505.75
455.294	586.75
455.514	646.75
455.734	604.75
455.955	524.75
456.175	520.75
456.395	494.75
456.616	487.75
456.836	516.75
457.056	516.75
457.276	474.75
457.497	504.75
457.717	508.75
457.937	502.75
458.157	535.75
458.377	517.75
458.598	554.75
458.818	600.75
459.038	686.75
459.258	700.75
459.478	636.75
459.698	604.75
459.918	564.75
460.138	559.75
460.358	576.75
460.578	541.75
460.798	584.75
461.018	575.75
461.238	595.75
461.458	580.75
461.678	572.75
461.898	574.75
462.118	599.75
462.338	598.75
462.558	595.75
462.777	608.75
462.997	628.75
463.217	662.75
463.437	637.75
463.657	635.75
463.876	603.75
464.096	608.75
464.316	622.75
464.536	632.75
464.755	611.75
464.975	637.75
465.195	653.75
465.414	718.75
465.634	641.75
465.854	621.75
466.073	590.75
466.293	569.75
466.512	543.75
466.732	553.75
466.951	558.75
467.171	552.75
467.391	545.75
467.61	556.75
467.829	579.75
468.049	571.75
468.268	575.75
468.488	530.75
468.707	517.75
468.927	527.75
469.146	525.75
469.365	533.75
469.585	513.75
469.804	559.75
470.023	571.75
470.243	553.75
470.462	576.75
470.681	586.75
470.901	577.75
471.12	574.75
471.339	565.75
471.558	564.75
471.777	555.75
471.997	552.75
472.216	530.75
472.435	602.75
472.654	600.75
472.873	556.75
473.092	547.75
473.311	544.75
473.53	545.75
473.749	552.75
473.968	589.75
474.187	739.75
474.406	748.75
474.625	603.75
474.844	574.75
475.063	573.75
475.282	573.75
475.501	577.75
475.72	553.75
475.939	566.75
476.158	582.75
476.377	562.75
476.596	549.75
476.814	594.75
477.033	597.75
477.252	604.75
477.471	611.75
477.69	604.75
477.908	588.75
478.127	615.75
478.346	607.75
478.564	606.75
478.783	613.75
479.002	632.75
479.22	644.75
479.439	646.75
479.658	671.75
479.876	678.75
480.095	659.75
480.313	708.75
480.532	691.75
480.751	698.75
480.969	709.75
481.188	757.75
481.406	807.75
481.624	725.75
481.843	692.75
482.061	663.75
482.28	680.75
482.498	645.75
482.717	620.75
482.935	652.75
483.153	653.75
483.372	655.75
483.59	672.75
483.808	654.75
484.027	667.75
484.245	652.75
484.463	646.75
484.681	680.75
484.9	676.75
485.118	642.75
485.336	653.75
485.554	693.75
485.772	675.75
485.99	686.75
486.209	672.75
486.427	676.75
486.645	670.75
486.863	684.75
487.081	716.75
487.299	719.75
487.517	706.75
487.735	726.75
487.953	720.75
488.171	737.75
488.389	702.75
488.607	704.75
488.825	717.75
489.043	712.75
489.261	696.75
489.479	698.75
489.696	693.75
489.914	721.75
490.132	721.75
490.35	725.75
490.568	705.75
490.786	759.75
491.003	740.75
491.221	767.75
491.439	794.75
491.657	793.75
491.874	809.75
492.092	820.75
492.31	821.75
492.527	827.75
492.745	836.75
492.963	809.75
493.18	826.75
493.398	829.75
493.615	842.75
493.833	837.75
494.05	816.75
494.268	840.75
494.485	813.75
494.703	838.75
494.92	790.75
495.138	856.75
495.355	835.75
495.573	847.75
495.79	861.75
496.008	829.75
496.225	832.75
496.442	862.75
496.66	828.75
496.877	832.75
497.094	854.75
497.312	857.75
497.529	832.75
497.746	868.75
497.963	867.75
498.181	926.75
498.398	920.75
498.615	927.75
498.832	956.75
499.049	981.75
499.267	1012.75
499.484	1008.75
499.701	1078.75
499.918	1056.75
500.135	1129.75
500.352	1173.75
500.569	1222.75
500.786	1231.75
501.003	1186.75
501.22	1195.75
501.437	1165.75
501.654	1096.75
501.871	1070.75
502.088	1037.75
502.305	1003.75
502.522	962.75
502.739	961.75
502.956	899.75
503.172	924.75
503.389	899.75
503.606	906.75
503.823	882.75
504.04	848.75
504.256	828.75
504.473	853.75
504.69	822.75
504.907	834.75
505.123	808.75
505.34	786.75
505.557	832.75
505.773	801.75
505.99	800.75
506.207	792.75
506.423	778.75
506.64	801.75
506.856	807.75
507.073	798.75
507.289	762.75
507.506	763.75
507.722	781.75
507.939	785.75
508.155	769.75
508.372	748.75
508.588	739.75
508.805	774.75
509.021	761.75
509.238	774.75
509.454	779.75
509.67	755.75
509.887	758.75
510.103	768.75
510.319	761.75
510.536	867.75
510.752	1348.75
510.968	1069.75
511.184	758.75
511.401	701.75
511.617	724.75
511.833	712.75
512.049	697.75
512.265	684.75
512.481	674.75
512.698	709.75
512.914	686.75
513.13	710.75
513.346	717.75
513.562	702.75
513.778	690.75
513.994	717.75
514.21	710.75
514.426	730.75
514.642	790.75
514.858	821.75
515.074	854.75
515.29	993.75
515.506	1368.75
515.721	1147.75
515.937	850.75
516.153	770.75
516.369	774.75
516.585	741.75
516.801	742.75
517.016	733.75
517.232	732.75
517.448	732.75
517.664	747.75
517.879	732.75
518.095	740.75
518.311	724.75
518.527	730.75
518.742	721.75
518.958	719.75
519.173	709.75
519.389	715.75
519.605	699.75
519.82	711.75
520.036	728.75
520.251	736.75
520.467	764.75
520.682	754.75
520.898	772.75
521.113	768.75
521.329	825.75
521.544	909.75
521.76	1100.75
521.975	1772.75
522.19	1733.75
522.406	998.75
522.621	790.75
522.836	723.75
523.052	706.75
523.267	656.75
523.482	632.75
523.698	631.75
523.913	637.75
524.128	650.75
524.343	655.75
524.559	634.75
524.774	644.75
524.989	624.75
525.204	614.75
525.419	626.75
525.634	628.75
525.849	610.75
526.064	602.75
526.28	625.75
526.495	591.75
526.71	599.75
526.925	585.75
527.14	578.75
527.355	597.75
527.57	601.75
527.785	583.75
527.999	572.75
528.214	574.75
528.429	574.75
528.644	582.75
528.859	579.75
529.074	589.75
529.289	594.75
529.503	688.75
529.718	654.75
529.933	612.75
530.148	598.75
530.363	591.75
530.577	584.75
530.792	577.75
531.007	573.75
531.221	568.75
531.436	552.75
531.651	578.75
531.865	581.75
532.08	560.75
532.295	561.75
532.509	581.75
532.724	543.75
532.938	570.75
533.153	560.75
533.367	552.75
533.582	572.75
533.796	548.75
534.011	543.75
534.225	556.75
534.44	540.75
534.654	526.75
534.868	541.75
535.083	545.75
535.297	540.75
535.511	525.75
535.726	570.75
535.94	562.75
536.154	555.75
536.369	566.75
536.583	560.75
536.797	533.75
537.011	544.75
537.225	541.75
537.44	533.75
537.654	535.75
537.868	513.75
538.082	525.75
538.296	551.75
538.51	539.75
538.724	535.75
538.938	524.75
539.153	537.75
539.367	548.75
539.581	550.75
539.795	511.75
540.009	516.75
540.222	520.75
540.436	531.75
540.65	558.75
540.864	552.75
541.078	534.75
541.292	521.75
541.506	530.75
541.72	527.75
541.934	502.75
542.147	542.75
542.361	511.75
542.575	496.75
542.789	527.75
543.002	538.75
543.216	515.75
543.43	536.75
543.644	529.75
543.857	538.75
544.071	526.75
544.285	514.75
544.498	501.75
544.712	521.75
544.925	539.75
545.139	524.75
545.352	541.75
545.566	500.75
545.779	521.75
545.993	494.75
546.206	526.75
546.42	499.75
546.633	506.75
546.847	532.75
547.06	515.75
547.274	509.75
547.487	510.75
547.7	509.75
547.914	531.75
548.127	518.75
548.34	506.75
548.554	499.75
548.767	490.75
548.98	522.75
549.193	497.75
549.407	520.75
549.62	483.75
549.833	530.75
550.046	535.75
550.259	496.75
550.473	517.75
550.686	498.75
550.899	489.75
551.112	496.75
551.325	494.75
551.538	488.75
551.751	480.75
551.964	478.75
552.177	506.75
552.39	491.75
552.603	502.75
552.816	514.75
553.029	500.75
553.242	532.75
553.455	511.75
553.667	529.75
553.88	526.75
554.093	531.75
554.306	525.75
554.519	507.75
554.732	506.75
554.944	503.75
555.157	488.75
555.37	478.75
555.583	476.75
555.795	485.75
556.008	480.75
556.221	464.75
556.433	467.75
556.646	451.75
556.859	446.75
557.071	470.75
557.284	476.75
557.496	455.75
557.709	444.75
557.921	470.75
558.134	452.75
558.346	434.75
558.559	440.75
558.771	453.75
558.984	453.75
559.196	460.75
559.409	461.75
559.621	460.75
559.833	468.75
560.046	437.75
560.258	465.75
560.47	462.75
560.683	460.75
560.895	439.75
561.107	439.75
561.32	463.75
561.532	456.75
561.744	450.75
561.956	438.75
562.168	446.75
562.381	457.75
562.593	459.75
562.805	443.75
563.017	467.75
563.229	463.75
563.441	450.75
563.653	452.75
563.865	471.75
564.077	486.75
564.289	455.75
564.501	477.75
564.713	484.75
564.925	475.75
565.137	501.75
565.349	498.75
565.561	493.75
565.773	496.75
565.985	498.75
566.197	531.75
566.408	522.75
566.62	542.75
566.832	576.75
567.044	565.75
567.255	550.75
567.467	579.75
567.679	550.75
567.891	600.75
568.102	574.75
568.314	609.75
568.526	562.75
568.737	530.75
568.949	520.75
569.161	519.75
569.372	491.75
569.584	459.75
569.795	469.75
570.007	461.75
570.218	506.75
570.43	505.75
570.641	444.75
570.853	432.75
571.064	449.75
571.276	450.75
571.487	429.75
571.698	428.75
571.91	421.75
572.121	426.75
572.333	411.75
572.544	407.75
572.755	417.75
572.966	407.75
573.178	409.75
573.389	394.75
573.6	405.75
573.811	408.75
574.023	405.75
574.234	400.75
574.445	394.75
574.656	410.75
574.867	403.75
575.078	399.75
575.289	397.75
575.501	388.75
575.712	383.75
575.923	378.75
576.134	382.75
576.345	404.75
576.556	385.75
576.767	372.75
576.978	374.75
577.188	388.75
577.399	374.75
577.61	373.75
577.821	363.75
578.032	370.75
578.243	408.75
578.454	633.75
578.665	476.75
578.875	382.75
579.086	365.75
579.297	371.75
579.508	360.75
579.718	356.75
579.929	364.75
580.14	359.75
580.35	364.75
580.561	353.75
580.772	358.75
580.982	351.75
581.193	359.75
581.403	379.75
581.614	350.75
581.825	355.75
582.035	364.75
582.246	370.75
582.456	352.75
582.667	343.75
582.877	346.75
583.087	339.75
583.298	339.75
583.508	347.75
583.719	339.75
583.929	346.75
584.139	346.75
584.35	348.75
584.56	345.75
584.77	347.75
584.981	357.75
585.191	340.75
585.401	342.75
585.611	335.75
585.821	345.75
586.032	349.75
586.242	342.75
586.452	337.75
586.662	349.75
586.872	334.75
587.082	344.75
587.292	348.75
587.502	342.75
587.713	337.75
587.923	360.75
588.133	314.75
588.343	354.75
588.553	339.75
588.762	338.75
588.972	339.75
589.182	341.75
589.392	345.75
589.602	353.75
589.812	357.75
590.022	340.75
590.232	330.75
590.441	358.75
590.651	347.75
590.861	343.75
591.071	350.75
591.281	316.75
591.49	345.75
591.7	352.75
591.91	358.75
592.119	354.75
592.329	368.75
592.539	363.75
592.748	406.75
592.958	353.75
593.167	356.75
593.377	370.75
593.587	373.75
593.796	364.75
594.006	357.75
594.215	356.75
594.424	342.75
594.634	376.75
594.843	348.75
595.053	345.75
595.262	364.75
595.472	342.75
595.681	312.75
595.89	352.75
596.1	325.75
596.309	329.75
596.518	314.75
596.727	307.75
596.937	330.75
597.146	319.75
597.355	327.75
597.564	311.75
597.774	312.75
597.983	313.75
598.192	312.75
598.401	302.75
598.61	300.75
598.819	317.75
599.028	312.75
599.237	310.75
599.446	286.75
599.655	299.75
599.864	304.75
600.073	306.75
600.282	281.75
600.491	312.75
600.7	301.75
600.909	296.75
601.118	277.75
601.327	294.75
601.536	289.75
601.745	280.75
601.953	296.75
602.162	291.75
602.371	305.75
602.58	284.75
602.789	288.75
602.997	282.75
603.206	282.75
603.415	291.75
603.623	289.75
603.832	287.75
604.041	292.75
604.249	292.75
604.458	295.75
604.666	282.75
604.875	270.75
605.084	266.75
605.292	272.75
605.501	282.75
605.709	290.75
605.918	268.75
606.126	292.75
606.334	273.75
606.543	267.75
606.751	268.75
606.96	292.75
607.168	285.75
607.376	283.75
607.585	284.75
607.793	301.75
608.001	287.75
608.21	293.75
608.418	276.75
608.626	282.75
608.834	282.75
609.043	283.75
609.251	264.75
609.459	264.75
609.667	294.75
609.875	277.75
610.083	271.75
610.291	286.75
610.499	267.75
610.707	290.75
610.916	256.75
611.124	257.75
611.332	282.75
611.54	281.75
611.748	286.75
611.955	278.75
612.163	265.75
612.371	260.75
612.579	275.75
612.787	284.75
612.995	269.75
613.203	284.75
613.411	254.75
613.618	253.75
613.826	256.75
614.034	258.75
614.242	276.75
614.449	278.75
614.657	259.75
614.865	262.75
615.072	269.75
615.28	261.75
615.488	274.75
615.695	272.75
615.903	259.75
616.111	270.75
616.318	264.75
616.526	274.75
616.733	270.75
616.941	256.75
617.148	278.75
617.356	276.75
617.563	264.75
617.771	284.75
617.978	268.75
618.185	266.75
618.393	253.75
618.6	256.75
618.807	278.75
619.015	264.75
619.222	267.75
619.429	256.75
619.637	248.75
619.844	248.75
620.051	250.75
620.258	252.75
620.466	256.75
620.673	257.75
620.88	256.75
621.087	234.75
621.294	252.75
621.501	248.75
621.708	249.75
621.915	252.75
622.122	254.75
622.329	261.75
622.536	265.75
622.743	242.75
622.95	236.75
623.157	228.75
623.364	229.75
623.571	240.75
623.778	237.75
623.985	242.75
624.192	233.75
624.399	230.75
624.606	242.75
624.812	245.75
625.019	262.75
625.226	240.75
625.433	249.75
625.639	225.75
625.846	212.75
626.053	256.75
626.259	243.75
626.466	242.75
626.673	222.75
626.879	234.75
627.086	252.75
627.293	237.75
627.499	228.75
627.706	237.75
627.912	225.75
628.119	224.75
628.325	228.75
628.532	232.75
628.738	229.75
628.945	230.75
629.151	217.75
629.357	229.75
629.564	214.75
629.77	221.75
629.976	218.75
630.183	216.75
630.389	216.75
630.595	206.75
630.802	238.75
631.008	235.75
631.214	228.75
631.42	219.75
631.627	217.75
631.833	213.75
632.039	206.75
632.245	206.75
632.451	198.75
632.657	210.75
632.863	213.75
633.069	220.75
633.275	222.75
633.481	223.75
633.688	200.75
633.893	208.75
634.099	215.75
634.305	205.75
634.511	209.75
634.717	197.75
634.923	208.75
635.129	200.75
635.335	212.75
635.541	186.75
635.747	198.75
635.952	164.75
636.158	192.75
636.364	197.75
636.57	204.75
636.775	224.75
636.981	205.75
637.187	186.75
637.392	198.75
637.598	205.75
637.804	203.75
638.009	204.75
638.215	193.75
638.421	192.75
638.626	190.75
638.832	199.75
639.037	191.75
639.243	195.75
639.448	204.75
639.654	201.75
639.859	189.75
640.065	187.75
640.27	190.75
640.475	198.75
640.681	186.75
640.886	205.75
641.091	188.75
641.297	206.75
641.502	194.75
641.707	193.75
641.913	200.75
642.118	177.75
642.323	180.75
642.528	175.75
642.733	187.75
642.939	174.75
643.144	185.75
643.349	177.75
643.554	187.75
643.759	170.75
643.964	192.75
644.169	178.75
644.374	171.75
644.579	208.75
644.784	187.75
644.989	202.75
645.194	174.75
645.399	171.75
645.604	168.75
645.809	176.75
646.014	170.75
646.219	192.75
646.423	175.75
646.628	192.75
646.833	181.75
647.038	183.75
647.243	200.75
647.447	177.75
647.652	180.75
647.857	192.75
648.062	182.75
648.266	206.75
648.471	193.75
648.676	189.75
648.88	204.75
649.085	179.75
649.289	172.75
649.494	180.75
649.698	204.75
649.903	197.75
650.107	170.75
650.312	178.75
650.516	180.75
650.721	162.75
650.925	177.75
651.13	171.75
651.334	156.75
651.539	162.75
651.743	167.75
651.947	160.75
652.152	174.75
652.356	147.75
652.56	155.75
652.764	155.75
652.969	160.75
653.173	140.75
653.377	150.75
653.581	134.75
653.785	148.75
653.99	149.75
654.194	152.75
654.398	150.75
654.602	150.75
654.806	142.75
655.01	162.75
655.214	157.75
655.418	143.75
655.622	163.75
655.826	140.75
656.03	138.75
656.234	133.75
656.438	140.75
656.642	140.75
656.846	141.75
657.049	132.75
657.253	124.75
657.457	132.75
657.661	124.75
657.865	121.75
658.068	112.75
658.272	97.75
658.476	108.75
658.68	110.75
658.883	104.75
659.087	109.75
659.291	110.75
659.494	125.75
659.698	103.75
659.901	106.75
660.105	100.75
660.309	93.75
660.512	79.75
660.716	101.75
660.919	97.75
661.123	113.75
661.326	87.75
661.53	90.75
661.733	106.75
661.936	86.75
662.14	76.75
662.343	93.75
662.546	88.75
662.75	87.75
662.953	88.75
663.156	92.75
663.36	88.75
663.563	91.75
663.766	102.75
663.969	83.75
664.173	83.75
664.376	85.75
664.579	85.75
664.782	89.75
664.985	82.75
665.188	82.75
665.391	85.75
665.594	75.75
665.797	88.75
666	74.75
666.203	73.75
666.406	71.75
666.609	79.75
666.812	58.75
667.015	98.75
667.218	88.75
667.421	81.75
667.624	94.75
667.827	76.75
668.03	91.75
668.232	77.75
668.435	91.75
668.638	80.75
668.841	82.75
669.043	86.75
669.246	83.75
669.449	82.75
669.651	92.75
669.854	81.75
670.057	78.75
670.259	72.75
670.462	85.75
670.665	88.75
670.867	87.75
671.07	76.75
671.272	86.75
671.475	85.75
671.677	86.75
671.88	89.75
672.082	98.75
672.284	88.75
672.487	84.75
672.689	75.75
672.892	74.75
