Data from 1966.PennyLincolnUp.Lamp.En5.5.200Scan.071719.P1.Scan2.head_HRD10591_14-18-34-199.txt Node
Date: Thu Jul 18 14:18:34 EDT 2019
User: cochatt
Spectrometer: HR+D1059
Trigger mode: 1
Integration Time (sec): 1.000000E-1
Scans to average: 1
Electric dark correction enabled: true
Nonlinearity correction enabled: false
Boxcar width: 0
XAxis mode: Wavelengths
Number of Pixels in Spectrum: 2048
>>>>>Begin Spectral Data<<<<<
223.165	-19.19
223.4	-19.19
223.635	-19.19
223.869	-19.19
224.104	-29.19
224.338	-15.19
224.573	-3.19
224.808	-13.19
225.042	-0.19
225.277	2.81
225.511	-1.19
225.746	3.81
225.98	11.81
226.215	6.81
226.449	21.81
226.683	20.81
226.918	12.81
227.152	19.81
227.387	35.81
227.621	30.81
227.856	51.81
228.09	33.81
228.324	49.81
228.559	49.81
228.793	73.81
229.027	86.81
229.262	108.81
229.496	127.81
229.73	132.81
229.964	167.81
230.199	116.81
230.433	117.81
230.667	100.81
230.901	111.81
231.136	121.81
231.37	119.81
231.604	122.81
231.838	117.81
232.072	117.81
232.306	118.81
232.541	124.81
232.775	137.81
233.009	106.81
233.243	114.81
233.477	125.81
233.711	108.81
233.945	106.81
234.179	119.81
234.413	105.81
234.647	114.81
234.881	109.81
235.115	106.81
235.349	121.81
235.583	128.81
235.817	118.81
236.051	129.81
236.285	125.81
236.519	123.81
236.753	130.81
236.987	140.81
237.221	183.81
237.455	243.81
237.689	202.81
237.922	149.81
238.156	137.81
238.39	137.81
238.624	119.81
238.858	124.81
239.091	133.81
239.325	124.81
239.559	127.81
239.793	118.81
240.027	137.81
240.26	145.81
240.494	180.81
240.728	157.81
240.961	165.81
241.195	141.81
241.429	137.81
241.662	149.81
241.896	146.81
242.13	141.81
242.363	119.81
242.597	136.81
242.83	141.81
243.064	147.81
243.298	143.81
243.531	137.81
243.765	147.81
243.998	143.81
244.232	146.81
244.465	147.81
244.699	149.81
244.932	154.81
245.166	141.81
245.399	153.81
245.633	152.81
245.866	137.81
246.099	148.81
246.333	139.81
246.566	145.81
246.8	161.81
247.033	160.81
247.266	158.81
247.5	152.81
247.733	192.81
247.966	169.81
248.2	191.81
248.433	184.81
248.666	170.81
248.899	183.81
249.133	215.81
249.366	202.81
249.599	196.81
249.832	210.81
250.066	172.81
250.299	192.81
250.532	189.81
250.765	222.81
250.998	232.81
251.231	219.81
251.465	241.81
251.698	211.81
251.931	212.81
252.164	204.81
252.397	214.81
252.63	210.81
252.863	203.81
253.096	219.81
253.329	233.81
253.562	218.81
253.795	225.81
254.028	227.81
254.261	225.81
254.494	222.81
254.727	256.81
254.96	303.81
255.193	284.81
255.426	232.81
255.659	233.81
255.892	220.81
256.124	231.81
256.357	246.81
256.59	234.81
256.823	226.81
257.056	234.81
257.289	215.81
257.521	209.81
257.754	208.81
257.987	214.81
258.22	226.81
258.452	231.81
258.685	214.81
258.918	215.81
259.151	201.81
259.383	210.81
259.616	232.81
259.849	225.81
260.081	245.81
260.314	277.81
260.547	256.81
260.779	254.81
261.012	227.81
261.244	231.81
261.477	218.81
261.71	225.81
261.942	239.81
262.175	224.81
262.407	231.81
262.64	219.81
262.872	218.81
263.105	222.81
263.337	225.81
263.57	219.81
263.802	219.81
264.035	220.81
264.267	216.81
264.499	199.81
264.732	215.81
264.964	215.81
265.197	217.81
265.429	202.81
265.661	221.81
265.894	232.81
266.126	218.81
266.358	229.81
266.591	221.81
266.823	229.81
267.055	237.81
267.287	238.81
267.52	223.81
267.752	229.81
267.984	231.81
268.216	245.81
268.448	245.81
268.681	250.81
268.913	249.81
269.145	253.81
269.377	274.81
269.609	280.81
269.841	265.81
270.073	270.81
270.306	277.81
270.538	313.81
270.77	335.81
271.002	314.81
271.234	302.81
271.466	308.81
271.698	321.81
271.93	321.81
272.162	312.81
272.394	332.81
272.626	301.81
272.858	296.81
273.09	294.81
273.322	281.81
273.553	265.81
273.785	267.81
274.017	270.81
274.249	274.81
274.481	255.81
274.713	261.81
274.945	260.81
275.176	263.81
275.408	259.81
275.64	290.81
275.872	262.81
276.104	248.81
276.335	275.81
276.567	267.81
276.799	284.81
277.031	317.81
277.262	318.81
277.494	338.81
277.726	305.81
277.957	285.81
278.189	265.81
278.421	279.81
278.652	291.81
278.884	273.81
279.115	266.81
279.347	299.81
279.579	274.81
279.81	279.81
280.042	281.81
280.273	277.81
280.505	279.81
280.736	279.81
280.968	257.81
281.199	263.81
281.431	290.81
281.662	260.81
281.894	282.81
282.125	281.81
282.356	277.81
282.588	292.81
282.819	322.81
283.051	301.81
283.282	288.81
283.513	285.81
283.745	281.81
283.976	258.81
284.207	292.81
284.439	291.81
284.67	288.81
284.901	286.81
285.132	297.81
285.364	297.81
285.595	290.81
285.826	286.81
286.057	285.81
286.288	293.81
286.52	289.81
286.751	286.81
286.982	284.81
287.213	283.81
287.444	299.81
287.675	294.81
287.906	290.81
288.138	321.81
288.369	293.81
288.6	323.81
288.831	297.81
289.062	309.81
289.293	306.81
289.524	296.81
289.755	296.81
289.986	286.81
290.217	302.81
290.448	290.81
290.679	291.81
290.91	300.81
291.141	275.81
291.371	301.81
291.602	285.81
291.833	282.81
292.064	279.81
292.295	290.81
292.526	293.81
292.757	298.81
292.987	294.81
293.218	285.81
293.449	304.81
293.68	306.81
293.91	301.81
294.141	292.81
294.372	291.81
294.603	295.81
294.833	299.81
295.064	297.81
295.295	292.81
295.525	287.81
295.756	327.81
295.987	307.81
296.217	342.81
296.448	341.81
296.679	318.81
296.909	305.81
297.14	293.81
297.37	305.81
297.601	310.81
297.831	299.81
298.062	318.81
298.292	325.81
298.523	314.81
298.753	334.81
298.984	317.81
299.214	314.81
299.445	326.81
299.675	333.81
299.905	321.81
300.136	331.81
300.366	322.81
300.597	318.81
300.827	313.81
301.057	307.81
301.288	325.81
301.518	344.81
301.748	344.81
301.979	344.81
302.209	349.81
302.439	359.81
302.669	345.81
302.9	333.81
303.13	314.81
303.36	353.81
303.59	344.81
303.82	349.81
304.051	370.81
304.281	349.81
304.511	337.81
304.741	327.81
304.971	345.81
305.201	350.81
305.431	343.81
305.661	342.81
305.891	338.81
306.121	354.81
306.352	334.81
306.582	340.81
306.812	345.81
307.042	337.81
307.272	347.81
307.502	342.81
307.731	343.81
307.961	367.81
308.191	350.81
308.421	347.81
308.651	347.81
308.881	364.81
309.111	355.81
309.341	363.81
309.571	381.81
309.8	373.81
310.03	379.81
310.26	369.81
310.49	389.81
310.72	382.81
310.949	393.81
311.179	403.81
311.409	385.81
311.639	395.81
311.868	377.81
312.098	385.81
312.328	392.81
312.557	426.81
312.787	411.81
313.017	408.81
313.246	418.81
313.476	377.81
313.706	387.81
313.935	387.81
314.165	398.81
314.394	426.81
314.624	407.81
314.853	402.81
315.083	388.81
315.312	388.81
315.542	377.81
315.771	384.81
316.001	375.81
316.23	386.81
316.46	391.81
316.689	387.81
316.919	396.81
317.148	391.81
317.377	425.81
317.607	400.81
317.836	397.81
318.065	395.81
318.295	377.81
318.524	384.81
318.753	376.81
318.983	399.81
319.212	383.81
319.441	392.81
319.67	389.81
319.9	387.81
320.129	390.81
320.358	390.81
320.587	391.81
320.816	411.81
321.046	387.81
321.275	421.81
321.504	421.81
321.733	398.81
321.962	414.81
322.191	429.81
322.42	438.81
322.649	458.81
322.878	463.81
323.108	470.81
323.337	497.81
323.566	516.81
323.795	522.81
324.024	567.81
324.253	674.81
324.482	958.81
324.71	1494.81
324.939	2290.81
325.168	1963.81
325.397	960.81
325.626	653.81
325.855	552.81
326.084	521.81
326.313	525.81
326.542	502.81
326.77	526.81
326.999	642.81
327.228	916.81
327.457	1345.81
327.686	1702.81
327.914	1105.81
328.143	715.81
328.372	647.81
328.6	600.81
328.829	591.81
329.058	563.81
329.287	592.81
329.515	564.81
329.744	521.81
329.972	507.81
330.201	542.81
330.43	567.81
330.658	620.81
330.887	619.81
331.115	603.81
331.344	554.81
331.572	521.81
331.801	514.81
332.03	499.81
332.258	499.81
332.486	477.81
332.715	469.81
332.943	463.81
333.172	479.81
333.4	481.81
333.629	491.81
333.857	492.81
334.085	517.81
334.314	503.81
334.542	568.81
334.771	575.81
334.999	524.81
335.227	501.81
335.455	488.81
335.684	462.81
335.912	462.81
336.14	462.81
336.369	473.81
336.597	501.81
336.825	483.81
337.053	473.81
337.281	459.81
337.51	469.81
337.738	460.81
337.966	462.81
338.194	465.81
338.422	475.81
338.65	449.81
338.878	472.81
339.106	454.81
339.334	463.81
339.562	456.81
339.79	428.81
340.018	463.81
340.246	458.81
340.474	457.81
340.702	467.81
340.93	455.81
341.158	413.81
341.386	443.81
341.614	444.81
341.842	441.81
342.07	446.81
342.298	454.81
342.526	438.81
342.754	474.81
342.981	446.81
343.209	438.81
343.437	422.81
343.665	439.81
343.893	463.81
344.12	493.81
344.348	452.81
344.576	449.81
344.804	482.81
345.031	470.81
345.259	479.81
345.487	478.81
345.714	447.81
345.942	451.81
346.17	450.81
346.397	434.81
346.625	434.81
346.853	427.81
347.08	435.81
347.308	439.81
347.535	447.81
347.763	443.81
347.99	429.81
348.218	447.81
348.445	451.81
348.673	450.81
348.9	434.81
349.128	423.81
349.355	419.81
349.583	431.81
349.81	433.81
350.037	422.81
350.265	421.81
350.492	431.81
350.72	434.81
350.947	422.81
351.174	443.81
351.402	452.81
351.629	443.81
351.856	456.81
352.083	465.81
352.311	457.81
352.538	471.81
352.765	471.81
352.992	444.81
353.22	449.81
353.447	438.81
353.674	428.81
353.901	428.81
354.128	435.81
354.355	423.81
354.583	419.81
354.81	415.81
355.037	429.81
355.264	418.81
355.491	405.81
355.718	416.81
355.945	433.81
356.172	409.81
356.399	424.81
356.626	407.81
356.853	420.81
357.08	423.81
357.307	406.81
357.534	449.81
357.761	394.81
357.988	420.81
358.215	421.81
358.441	402.81
358.668	415.81
358.895	431.81
359.122	435.81
359.349	422.81
359.576	425.81
359.802	449.81
360.029	494.81
360.256	494.81
360.483	477.81
360.709	453.81
360.936	452.81
361.163	437.81
361.39	436.81
361.616	445.81
361.843	445.81
362.07	431.81
362.296	456.81
362.523	459.81
362.749	445.81
362.976	437.81
363.203	425.81
363.429	439.81
363.656	435.81
363.882	420.81
364.109	433.81
364.335	431.81
364.562	440.81
364.788	461.81
365.015	440.81
365.241	431.81
365.468	423.81
365.694	447.81
365.92	445.81
366.147	414.81
366.373	409.81
366.599	442.81
366.826	405.81
367.052	424.81
367.278	428.81
367.505	423.81
367.731	441.81
367.957	455.81
368.184	443.81
368.41	430.81
368.636	453.81
368.862	456.81
369.089	441.81
369.315	438.81
369.541	419.81
369.767	430.81
369.993	430.81
370.219	437.81
370.445	426.81
370.672	457.81
370.898	443.81
371.124	438.81
371.35	451.81
371.576	441.81
371.802	439.81
372.028	421.81
372.254	431.81
372.48	402.81
372.706	437.81
372.932	431.81
373.158	432.81
373.384	429.81
373.61	443.81
373.835	449.81
374.061	422.81
374.287	445.81
374.513	455.81
374.739	459.81
374.965	441.81
375.191	457.81
375.416	422.81
375.642	426.81
375.868	461.81
376.094	453.81
376.319	440.81
376.545	427.81
376.771	433.81
376.997	433.81
377.222	429.81
377.448	440.81
377.674	437.81
377.899	436.81
378.125	412.81
378.35	412.81
378.576	438.81
378.802	428.81
379.027	419.81
379.253	427.81
379.478	431.81
379.704	436.81
379.929	456.81
380.155	440.81
380.38	440.81
380.606	446.81
380.831	439.81
381.057	457.81
381.282	452.81
381.507	440.81
381.733	446.81
381.958	436.81
382.184	445.81
382.409	457.81
382.634	478.81
382.86	435.81
383.085	450.81
383.31	467.81
383.535	465.81
383.761	428.81
383.986	465.81
384.211	449.81
384.436	483.81
384.662	463.81
384.887	471.81
385.112	463.81
385.337	458.81
385.562	483.81
385.787	494.81
386.013	490.81
386.238	478.81
386.463	492.81
386.688	480.81
386.913	468.81
387.138	468.81
387.363	460.81
387.588	493.81
387.813	472.81
388.038	486.81
388.263	484.81
388.488	491.81
388.713	488.81
388.938	476.81
389.163	498.81
389.387	493.81
389.612	483.81
389.837	470.81
390.062	485.81
390.287	491.81
390.512	493.81
390.736	497.81
390.961	495.81
391.186	483.81
391.411	523.81
391.636	483.81
391.86	489.81
392.085	495.81
392.31	486.81
392.534	529.81
392.759	513.81
392.984	495.81
393.208	490.81
393.433	486.81
393.658	518.81
393.882	499.81
394.107	497.81
394.331	490.81
394.556	497.81
394.78	521.81
395.005	513.81
395.229	487.81
395.454	509.81
395.678	526.81
395.903	539.81
396.127	535.81
396.352	544.81
396.576	530.81
396.801	534.81
397.025	521.81
397.249	534.81
397.474	547.81
397.698	527.81
397.922	534.81
398.147	551.81
398.371	590.81
398.595	545.81
398.82	570.81
399.044	579.81
399.268	595.81
399.492	627.81
399.717	646.81
399.941	691.81
400.165	692.81
400.389	702.81
400.613	643.81
400.837	612.81
401.062	580.81
401.286	589.81
401.51	578.81
401.734	568.81
401.958	571.81
402.182	578.81
402.406	566.81
402.63	581.81
402.854	581.81
403.078	552.81
403.302	575.81
403.526	591.81
403.75	611.81
403.974	591.81
404.198	588.81
404.422	595.81
404.645	597.81
404.869	605.81
405.093	630.81
405.317	691.81
405.541	742.81
405.765	648.81
405.988	625.81
406.212	629.81
406.436	646.81
406.66	685.81
406.883	631.81
407.107	649.81
407.331	715.81
407.555	774.81
407.778	809.81
408.002	725.81
408.226	681.81
408.449	663.81
408.673	680.81
408.896	700.81
409.12	713.81
409.344	685.81
409.567	633.81
409.791	591.81
410.014	603.81
410.238	596.81
410.461	607.81
410.685	587.81
410.908	603.81
411.132	665.81
411.355	703.81
411.578	670.81
411.802	610.81
412.025	603.81
412.249	611.81
412.472	631.81
412.695	685.81
412.919	652.81
413.142	627.81
413.365	599.81
413.589	577.81
413.812	585.81
414.035	589.81
414.258	585.81
414.482	572.81
414.705	568.81
414.928	561.81
415.151	579.81
415.374	560.81
415.597	575.81
415.821	565.81
416.044	562.81
416.267	563.81
416.49	553.81
416.713	539.81
416.936	550.81
417.159	554.81
417.382	557.81
417.605	562.81
417.828	582.81
418.051	577.81
418.274	599.81
418.497	571.81
418.72	556.81
418.943	562.81
419.166	578.81
419.389	646.81
419.611	611.81
419.834	583.81
420.057	587.81
420.28	592.81
420.503	581.81
420.726	582.81
420.948	603.81
421.171	648.81
421.394	680.81
421.617	610.81
421.839	583.81
422.062	592.81
422.285	611.81
422.507	691.81
422.73	749.81
422.953	717.81
423.175	620.81
423.398	612.81
423.621	605.81
423.843	626.81
424.066	653.81
424.288	629.81
424.511	665.81
424.733	717.81
424.956	783.81
425.178	749.81
425.401	772.81
425.623	781.81
425.846	709.81
426.068	641.81
426.291	634.81
426.513	631.81
426.735	629.81
426.958	677.81
427.18	771.81
427.402	931.81
427.625	992.81
427.847	881.81
428.069	775.81
428.292	677.81
428.514	618.81
428.736	600.81
428.958	589.81
429.181	578.81
429.403	588.81
429.625	589.81
429.847	606.81
430.069	694.81
430.292	684.81
430.514	629.81
430.736	603.81
430.958	559.81
431.18	574.81
431.402	528.81
431.624	547.81
431.846	552.81
432.068	563.81
432.29	553.81
432.512	543.81
432.734	566.81
432.956	564.81
433.178	545.81
433.4	557.81
433.622	550.81
433.844	562.81
434.066	558.81
434.287	541.81
434.509	545.81
434.731	565.81
434.953	561.81
435.175	598.81
435.397	615.81
435.618	623.81
435.84	668.81
436.062	784.81
436.284	833.81
436.505	707.81
436.727	634.81
436.949	589.81
437.17	578.81
437.392	572.81
437.614	601.81
437.835	628.81
438.057	719.81
438.278	854.81
438.5	858.81
438.721	910.81
438.943	897.81
439.165	694.81
439.386	639.81
439.608	626.81
439.829	655.81
440.05	648.81
440.272	725.81
440.493	690.81
440.715	633.81
440.936	602.81
441.158	595.81
441.379	579.81
441.6	605.81
441.822	625.81
442.043	689.81
442.264	780.81
442.486	813.81
442.707	692.81
442.928	640.81
443.149	671.81
443.371	675.81
443.592	713.81
443.813	850.81
444.034	909.81
444.255	755.81
444.476	649.81
444.698	650.81
444.919	658.81
445.14	741.81
445.361	715.81
445.582	681.81
445.803	752.81
446.024	862.81
446.245	866.81
446.466	813.81
446.687	680.81
446.908	607.81
447.129	586.81
447.35	573.81
447.571	597.81
447.792	567.81
448.013	586.81
448.234	578.81
448.455	662.81
448.675	757.81
448.896	922.81
449.117	767.81
449.338	739.81
449.559	865.81
449.779	950.81
450	775.81
450.221	630.81
450.442	617.81
450.662	593.81
450.883	569.81
451.104	595.81
451.324	574.81
451.545	565.81
451.766	539.81
451.986	520.81
452.207	521.81
452.428	522.81
452.648	507.81
452.869	526.81
453.089	515.81
453.31	539.81
453.53	515.81
453.751	527.81
453.971	526.81
454.192	552.81
454.412	531.81
454.633	524.81
454.853	499.81
455.073	508.81
455.294	543.81
455.514	647.81
455.734	601.81
455.955	526.81
456.175	497.81
456.395	494.81
456.616	492.81
456.836	476.81
457.056	483.81
457.276	468.81
457.497	500.81
457.717	491.81
457.937	490.81
458.157	513.81
458.377	501.81
458.598	519.81
458.818	603.81
459.038	650.81
459.258	689.81
459.478	605.81
459.698	580.81
459.918	564.81
460.138	575.81
460.358	568.81
460.578	555.81
460.798	583.81
461.018	589.81
461.238	580.81
461.458	576.81
461.678	567.81
461.898	566.81
462.118	570.81
462.338	587.81
462.558	605.81
462.777	577.81
462.997	605.81
463.217	616.81
463.437	628.81
463.657	599.81
463.876	603.81
464.096	620.81
464.316	632.81
464.536	621.81
464.755	610.81
464.975	607.81
465.195	636.81
465.414	706.81
465.634	619.81
465.854	615.81
466.073	592.81
466.293	567.81
466.512	561.81
466.732	552.81
466.951	507.81
467.171	527.81
467.391	527.81
467.61	538.81
467.829	577.81
468.049	544.81
468.268	541.81
468.488	537.81
468.707	494.81
468.927	525.81
469.146	528.81
469.365	523.81
469.585	535.81
469.804	511.81
470.023	530.81
470.243	541.81
470.462	552.81
470.681	575.81
470.901	563.81
471.12	541.81
471.339	567.81
471.558	565.81
471.777	520.81
471.997	547.81
472.216	528.81
472.435	578.81
472.654	588.81
472.873	569.81
473.092	554.81
473.311	543.81
473.53	507.81
473.749	549.81
473.968	612.81
474.187	692.81
474.406	725.81
474.625	602.81
474.844	565.81
475.063	537.81
475.282	556.81
475.501	558.81
475.72	547.81
475.939	551.81
476.158	557.81
476.377	567.81
476.596	547.81
476.814	569.81
477.033	567.81
477.252	591.81
477.471	567.81
477.69	595.81
477.908	577.81
478.127	582.81
478.346	602.81
478.564	580.81
478.783	594.81
479.002	635.81
479.22	643.81
479.439	666.81
479.658	628.81
479.876	647.81
480.095	650.81
480.313	708.81
480.532	693.81
480.751	677.81
480.969	674.81
481.188	759.81
481.406	795.81
481.624	690.81
481.843	671.81
482.061	669.81
482.28	646.81
482.498	637.81
482.717	644.81
482.935	660.81
483.153	664.81
483.372	636.81
483.59	667.81
483.808	638.81
484.027	661.81
484.245	651.81
484.463	662.81
484.681	675.81
484.9	661.81
485.118	664.81
485.336	643.81
485.554	673.81
485.772	695.81
485.99	681.81
486.209	685.81
486.427	679.81
486.645	663.81
486.863	694.81
487.081	666.81
487.299	680.81
487.517	685.81
487.735	711.81
487.953	709.81
488.171	686.81
488.389	695.81
488.607	702.81
488.825	676.81
489.043	689.81
489.261	679.81
489.479	708.81
489.696	728.81
489.914	691.81
490.132	713.81
490.35	714.81
490.568	752.81
490.786	740.81
491.003	739.81
491.221	735.81
491.439	781.81
491.657	778.81
491.874	781.81
492.092	813.81
492.31	804.81
492.527	810.81
492.745	771.81
492.963	805.81
493.18	813.81
493.398	814.81
493.615	845.81
493.833	841.81
494.05	825.81
494.268	804.81
494.485	836.81
494.703	813.81
494.92	809.81
495.138	821.81
495.355	808.81
495.573	815.81
495.79	807.81
496.008	836.81
496.225	819.81
496.442	837.81
496.66	817.81
496.877	814.81
497.094	835.81
497.312	839.81
497.529	854.81
497.746	840.81
497.963	833.81
498.181	910.81
498.398	909.81
498.615	925.81
498.832	932.81
499.049	952.81
499.267	994.81
499.484	998.81
499.701	1042.81
499.918	1075.81
500.135	1142.81
500.352	1162.81
500.569	1185.81
500.786	1194.81
501.003	1163.81
501.22	1148.81
501.437	1103.81
501.654	1045.81
501.871	1067.81
502.088	1018.81
502.305	992.81
502.522	963.81
502.739	953.81
502.956	881.81
503.172	910.81
503.389	879.81
503.606	855.81
503.823	863.81
504.04	862.81
504.256	828.81
504.473	836.81
504.69	841.81
504.907	830.81
505.123	830.81
505.34	801.81
505.557	817.81
505.773	817.81
505.99	791.81
506.207	779.81
506.423	799.81
506.64	770.81
506.856	759.81
507.073	739.81
507.289	735.81
507.506	779.81
507.722	775.81
507.939	794.81
508.155	746.81
508.372	771.81
508.588	715.81
508.805	727.81
509.021	751.81
509.238	740.81
509.454	747.81
509.67	754.81
509.887	725.81
510.103	728.81
510.319	748.81
510.536	871.81
510.752	1317.81
510.968	1070.81
511.184	736.81
511.401	723.81
511.617	697.81
511.833	708.81
512.049	678.81
512.265	696.81
512.481	680.81
512.698	678.81
512.914	694.81
513.13	667.81
513.346	672.81
513.562	698.81
513.778	705.81
513.994	712.81
514.21	693.81
514.426	718.81
514.642	774.81
514.858	802.81
515.074	825.81
515.29	937.81
515.506	1326.81
515.721	1153.81
515.937	825.81
516.153	773.81
516.369	762.81
516.585	735.81
516.801	724.81
517.016	724.81
517.232	722.81
517.448	732.81
517.664	737.81
517.879	717.81
518.095	722.81
518.311	718.81
518.527	714.81
518.742	699.81
518.958	695.81
519.173	717.81
519.389	699.81
519.605	705.81
519.82	704.81
520.036	693.81
520.251	707.81
520.467	762.81
520.682	765.81
520.898	733.81
521.113	754.81
521.329	804.81
521.544	891.81
521.76	1103.81
521.975	1714.81
522.19	1680.81
522.406	996.81
522.621	771.81
522.836	701.81
523.052	659.81
523.267	654.81
523.482	656.81
523.698	639.81
523.913	633.81
524.128	637.81
524.343	649.81
524.559	617.81
524.774	601.81
524.989	615.81
525.204	623.81
525.419	621.81
525.634	597.81
525.849	611.81
526.064	597.81
526.28	609.81
526.495	558.81
526.71	590.81
526.925	579.81
527.14	567.81
527.355	573.81
527.57	591.81
527.785	588.81
527.999	552.81
528.214	556.81
528.429	566.81
528.644	575.81
528.859	591.81
529.074	578.81
529.289	600.81
529.503	649.81
529.718	664.81
529.933	613.81
530.148	597.81
530.363	579.81
530.577	556.81
530.792	579.81
531.007	554.81
531.221	570.81
531.436	562.81
531.651	571.81
531.865	550.81
532.08	540.81
532.295	560.81
532.509	546.81
532.724	543.81
532.938	546.81
533.153	563.81
533.367	542.81
533.582	557.81
533.796	536.81
534.011	539.81
534.225	553.81
534.44	565.81
534.654	539.81
534.868	548.81
535.083	564.81
535.297	552.81
535.511	553.81
535.726	545.81
535.94	558.81
536.154	552.81
536.369	541.81
536.583	548.81
536.797	548.81
537.011	514.81
537.225	518.81
537.44	530.81
537.654	542.81
537.868	538.81
538.082	511.81
538.296	541.81
538.51	515.81
538.724	530.81
538.938	512.81
539.153	535.81
539.367	541.81
539.581	536.81
539.795	524.81
540.009	533.81
540.222	536.81
540.436	522.81
540.65	541.81
540.864	506.81
541.078	517.81
541.292	532.81
541.506	525.81
541.72	518.81
541.934	541.81
542.147	527.81
542.361	518.81
542.575	510.81
542.789	507.81
543.002	510.81
543.216	501.81
543.43	527.81
543.644	526.81
543.857	522.81
544.071	516.81
544.285	517.81
544.498	497.81
544.712	505.81
544.925	521.81
545.139	528.81
545.352	497.81
545.566	518.81
545.779	490.81
545.993	493.81
546.206	503.81
546.42	520.81
546.633	513.81
546.847	525.81
547.06	523.81
547.274	513.81
547.487	506.81
547.7	510.81
547.914	485.81
548.127	504.81
548.34	504.81
548.554	509.81
548.767	510.81
548.98	504.81
549.193	477.81
549.407	505.81
549.62	494.81
549.833	493.81
550.046	493.81
550.259	475.81
550.473	495.81
550.686	502.81
550.899	511.81
551.112	491.81
551.325	500.81
551.538	511.81
551.751	471.81
551.964	484.81
552.177	501.81
552.39	492.81
552.603	503.81
552.816	500.81
553.029	492.81
553.242	508.81
553.455	530.81
553.667	517.81
553.88	539.81
554.093	526.81
554.306	515.81
554.519	487.81
554.732	492.81
554.944	488.81
555.157	477.81
555.37	485.81
555.583	492.81
555.795	482.81
556.008	473.81
556.221	468.81
556.433	459.81
556.646	473.81
556.859	450.81
557.071	453.81
557.284	474.81
557.496	477.81
557.709	442.81
557.921	454.81
558.134	457.81
558.346	445.81
558.559	450.81
558.771	458.81
558.984	449.81
559.196	434.81
559.409	440.81
559.621	449.81
559.833	451.81
560.046	455.81
560.258	435.81
560.47	451.81
560.683	453.81
560.895	435.81
561.107	445.81
561.32	434.81
561.532	455.81
561.744	440.81
561.956	446.81
562.168	441.81
562.381	451.81
562.593	437.81
562.805	444.81
563.017	451.81
563.229	447.81
563.441	453.81
563.653	444.81
563.865	469.81
564.077	466.81
564.289	457.81
564.501	459.81
564.713	458.81
564.925	457.81
565.137	480.81
565.349	478.81
565.561	477.81
565.773	502.81
565.985	509.81
566.197	498.81
566.408	531.81
566.62	542.81
566.832	546.81
567.044	567.81
567.255	546.81
567.467	550.81
567.679	554.81
567.891	595.81
568.102	577.81
568.314	557.81
568.526	558.81
568.737	564.81
568.949	521.81
569.161	482.81
569.372	483.81
569.584	479.81
569.795	471.81
570.007	462.81
570.218	493.81
570.43	488.81
570.641	456.81
570.853	449.81
571.064	440.81
571.276	432.81
571.487	434.81
571.698	427.81
571.91	418.81
572.121	430.81
572.333	403.81
572.544	411.81
572.755	374.81
572.966	404.81
573.178	418.81
573.389	400.81
573.6	388.81
573.811	378.81
574.023	387.81
574.234	374.81
574.445	387.81
574.656	404.81
574.867	386.81
575.078	380.81
575.289	394.81
575.501	394.81
575.712	361.81
575.923	381.81
576.134	381.81
576.345	376.81
576.556	392.81
576.767	372.81
576.978	379.81
577.188	386.81
577.399	372.81
577.61	382.81
577.821	370.81
578.032	388.81
578.243	401.81
578.454	621.81
578.665	478.81
578.875	373.81
579.086	362.81
579.297	357.81
579.508	355.81
579.718	348.81
579.929	365.81
580.14	354.81
580.35	339.81
580.561	366.81
580.772	343.81
580.982	351.81
581.193	351.81
581.403	359.81
581.614	359.81
581.825	353.81
582.035	359.81
582.246	355.81
582.456	355.81
582.667	362.81
582.877	345.81
583.087	342.81
583.298	335.81
583.508	357.81
583.719	341.81
583.929	345.81
584.139	337.81
584.35	356.81
584.56	328.81
584.77	364.81
584.981	351.81
585.191	335.81
585.401	329.81
585.611	328.81
585.821	332.81
586.032	342.81
586.242	335.81
586.452	355.81
586.662	326.81
586.872	356.81
587.082	319.81
587.292	351.81
587.502	335.81
587.713	356.81
587.923	343.81
588.133	341.81
588.343	326.81
588.553	340.81
588.762	321.81
588.972	336.81
589.182	346.81
589.392	328.81
589.602	348.81
589.812	339.81
590.022	343.81
590.232	339.81
590.441	345.81
590.651	324.81
590.861	331.81
591.071	341.81
591.281	346.81
591.49	331.81
591.7	355.81
591.91	345.81
592.119	355.81
592.329	352.81
592.539	356.81
592.748	355.81
592.958	347.81
593.167	346.81
593.377	340.81
593.587	371.81
593.796	366.81
594.006	337.81
594.215	351.81
594.424	350.81
594.634	345.81
594.843	328.81
595.053	347.81
595.262	335.81
595.472	350.81
595.681	337.81
595.89	347.81
596.1	343.81
596.309	334.81
596.518	342.81
596.727	320.81
596.937	317.81
597.146	318.81
597.355	313.81
597.564	301.81
597.774	295.81
597.983	288.81
598.192	299.81
598.401	294.81
598.61	306.81
598.819	304.81
599.028	273.81
599.237	277.81
599.446	304.81
599.655	291.81
599.864	304.81
600.073	285.81
600.282	310.81
600.491	287.81
600.7	307.81
600.909	289.81
601.118	286.81
601.327	296.81
601.536	296.81
601.745	285.81
601.953	297.81
602.162	277.81
602.371	288.81
602.58	295.81
602.789	305.81
602.997	279.81
603.206	290.81
603.415	282.81
603.623	283.81
603.832	267.81
604.041	290.81
604.249	276.81
604.458	295.81
604.666	278.81
604.875	279.81
605.084	250.81
605.292	272.81
605.501	274.81
605.709	273.81
605.918	296.81
606.126	277.81
606.334	267.81
606.543	275.81
606.751	286.81
606.96	257.81
607.168	267.81
607.376	282.81
607.585	289.81
607.793	300.81
608.001	276.81
608.21	282.81
608.418	269.81
608.626	275.81
608.834	268.81
609.043	279.81
609.251	276.81
609.459	272.81
609.667	266.81
609.875	269.81
610.083	279.81
610.291	271.81
610.499	281.81
610.707	283.81
610.916	279.81
611.124	268.81
611.332	265.81
611.54	266.81
611.748	278.81
611.955	268.81
612.163	276.81
612.371	266.81
612.579	287.81
612.787	270.81
612.995	243.81
613.203	259.81
613.411	255.81
613.618	265.81
613.826	275.81
614.034	268.81
614.242	281.81
614.449	261.81
614.657	259.81
614.865	259.81
615.072	269.81
615.28	279.81
615.488	263.81
615.695	264.81
615.903	249.81
616.111	270.81
616.318	264.81
616.526	267.81
616.733	271.81
616.941	282.81
617.148	266.81
617.356	241.81
617.563	255.81
617.771	264.81
617.978	261.81
618.185	265.81
618.393	266.81
618.6	248.81
618.807	257.81
619.015	243.81
619.222	255.81
619.429	263.81
619.637	269.81
619.844	253.81
620.051	247.81
620.258	246.81
620.466	264.81
620.673	245.81
620.88	250.81
621.087	237.81
621.294	267.81
621.501	269.81
621.708	245.81
621.915	253.81
622.122	246.81
622.329	247.81
622.536	242.81
622.743	251.81
622.95	243.81
623.157	229.81
623.364	236.81
623.571	236.81
623.778	234.81
623.985	244.81
624.192	249.81
624.399	227.81
624.606	247.81
624.812	244.81
625.019	232.81
625.226	243.81
625.433	235.81
625.639	229.81
625.846	221.81
626.053	234.81
626.259	234.81
626.466	229.81
626.673	216.81
626.879	225.81
627.086	231.81
627.293	220.81
627.499	235.81
627.706	238.81
627.912	231.81
628.119	242.81
628.325	226.81
628.532	231.81
628.738	244.81
628.945	236.81
629.151	239.81
629.357	217.81
629.564	212.81
629.77	223.81
629.976	217.81
630.183	201.81
630.389	208.81
630.595	210.81
630.802	223.81
631.008	217.81
631.214	218.81
631.42	204.81
631.627	214.81
631.833	205.81
632.039	223.81
632.245	221.81
632.451	218.81
632.657	205.81
632.863	222.81
633.069	211.81
633.275	220.81
633.481	212.81
633.688	185.81
633.893	204.81
634.099	205.81
634.305	214.81
634.511	211.81
634.717	205.81
634.923	190.81
635.129	215.81
635.335	212.81
635.541	204.81
635.747	213.81
635.952	186.81
636.158	188.81
636.364	210.81
636.57	199.81
636.775	209.81
636.981	201.81
637.187	207.81
637.392	208.81
637.598	197.81
637.804	198.81
638.009	212.81
638.215	199.81
638.421	193.81
638.626	182.81
638.832	175.81
639.037	179.81
639.243	201.81
639.448	191.81
639.654	183.81
639.859	182.81
640.065	188.81
640.27	203.81
640.475	185.81
640.681	197.81
640.886	182.81
641.091	191.81
641.297	192.81
641.502	193.81
641.707	193.81
641.913	194.81
642.118	181.81
642.323	175.81
642.528	189.81
642.733	182.81
642.939	169.81
643.144	173.81
643.349	181.81
643.554	187.81
643.759	176.81
643.964	178.81
644.169	189.81
644.374	175.81
644.579	191.81
644.784	186.81
644.989	191.81
645.194	167.81
645.399	183.81
645.604	173.81
645.809	181.81
646.014	183.81
646.219	187.81
646.423	168.81
646.628	174.81
646.833	179.81
647.038	179.81
647.243	189.81
647.447	168.81
647.652	192.81
647.857	188.81
648.062	182.81
648.266	189.81
648.471	182.81
648.676	194.81
648.88	191.81
649.085	184.81
649.289	184.81
649.494	188.81
649.698	206.81
649.903	209.81
650.107	170.81
650.312	178.81
650.516	174.81
650.721	184.81
650.925	174.81
651.13	164.81
651.334	173.81
651.539	182.81
651.743	175.81
651.947	163.81
652.152	161.81
652.356	153.81
652.56	154.81
652.764	162.81
652.969	168.81
653.173	154.81
653.377	149.81
653.581	148.81
653.785	151.81
653.99	157.81
654.194	140.81
654.398	159.81
654.602	146.81
654.806	133.81
655.01	182.81
655.214	167.81
655.418	147.81
655.622	139.81
655.826	143.81
656.03	130.81
656.234	141.81
656.438	143.81
656.642	152.81
656.846	143.81
657.049	143.81
657.253	137.81
657.457	136.81
657.661	129.81
657.865	130.81
658.068	115.81
658.272	115.81
658.476	112.81
658.68	117.81
658.883	128.81
659.087	117.81
659.291	105.81
659.494	88.81
659.698	102.81
659.901	101.81
660.105	102.81
660.309	106.81
660.512	101.81
660.716	89.81
660.919	94.81
661.123	104.81
661.326	97.81
661.53	101.81
661.733	86.81
661.936	83.81
662.14	85.81
662.343	89.81
662.546	89.81
662.75	93.81
662.953	87.81
663.156	88.81
663.36	91.81
663.563	90.81
663.766	76.81
663.969	86.81
664.173	84.81
664.376	92.81
664.579	88.81
664.782	86.81
664.985	77.81
665.188	86.81
665.391	87.81
665.594	91.81
665.797	87.81
666	78.81
666.203	105.81
666.406	79.81
666.609	88.81
666.812	73.81
667.015	80.81
667.218	95.81
667.421	83.81
667.624	91.81
667.827	82.81
668.03	68.81
668.232	85.81
668.435	86.81
668.638	69.81
668.841	88.81
669.043	84.81
669.246	89.81
669.449	93.81
669.651	76.81
669.854	82.81
670.057	76.81
670.259	83.81
670.462	96.81
670.665	90.81
670.867	79.81
671.07	91.81
671.272	80.81
671.475	80.81
671.677	94.81
671.88	81.81
672.082	83.81
672.284	69.81
672.487	81.81
672.689	89.81
672.892	82.81
