Data from 1966.PennyLincolnUp.Lamp.En5.5.200Scan.071719.P1.Scan2.head_HRD10591_14-19-03-237.txt Node
Date: Thu Jul 18 14:19:03 EDT 2019
User: cochatt
Spectrometer: HR+D1059
Trigger mode: 1
Integration Time (sec): 1.000000E-1
Scans to average: 1
Electric dark correction enabled: true
Nonlinearity correction enabled: false
Boxcar width: 0
XAxis mode: Wavelengths
Number of Pixels in Spectrum: 2048
>>>>>Begin Spectral Data<<<<<
223.165	-16.19
223.4	-16.19
223.635	-16.19
223.869	-18.19
224.104	-19.19
224.338	-5.19
224.573	-9.19
224.808	-11.19
225.042	-21.19
225.277	-11.19
225.511	-4.19
225.746	1.81
225.98	6.81
226.215	4.81
226.449	16.81
226.683	33.81
226.918	20.81
227.152	30.81
227.387	34.81
227.621	37.81
227.856	46.81
228.09	43.81
228.324	60.81
228.559	58.81
228.793	69.81
229.027	97.81
229.262	98.81
229.496	117.81
229.73	133.81
229.964	165.81
230.199	142.81
230.433	119.81
230.667	106.81
230.901	106.81
231.136	117.81
231.37	122.81
231.604	107.81
231.838	119.81
232.072	115.81
232.306	119.81
232.541	113.81
232.775	117.81
233.009	119.81
233.243	110.81
233.477	110.81
233.711	132.81
233.945	122.81
234.179	122.81
234.413	115.81
234.647	105.81
234.881	108.81
235.115	129.81
235.349	117.81
235.583	131.81
235.817	134.81
236.051	129.81
236.285	136.81
236.519	130.81
236.753	136.81
236.987	146.81
237.221	199.81
237.455	245.81
237.689	193.81
237.922	139.81
238.156	138.81
238.39	131.81
238.624	143.81
238.858	124.81
239.091	135.81
239.325	124.81
239.559	120.81
239.793	119.81
240.027	140.81
240.26	149.81
240.494	151.81
240.728	156.81
240.961	170.81
241.195	149.81
241.429	143.81
241.662	145.81
241.896	137.81
242.13	144.81
242.363	137.81
242.597	144.81
242.83	149.81
243.064	135.81
243.298	131.81
243.531	147.81
243.765	128.81
243.998	141.81
244.232	137.81
244.465	141.81
244.699	148.81
244.932	149.81
245.166	150.81
245.399	160.81
245.633	143.81
245.866	156.81
246.099	155.81
246.333	157.81
246.566	153.81
246.8	150.81
247.033	171.81
247.266	174.81
247.5	193.81
247.733	163.81
247.966	181.81
248.2	167.81
248.433	186.81
248.666	187.81
248.899	190.81
249.133	212.81
249.366	213.81
249.599	211.81
249.832	193.81
250.066	177.81
250.299	174.81
250.532	185.81
250.765	209.81
250.998	235.81
251.231	257.81
251.465	225.81
251.698	202.81
251.931	197.81
252.164	213.81
252.397	212.81
252.63	189.81
252.863	201.81
253.096	211.81
253.329	243.81
253.562	236.81
253.795	229.81
254.028	225.81
254.261	207.81
254.494	238.81
254.727	259.81
254.96	295.81
255.193	286.81
255.426	236.81
255.659	221.81
255.892	230.81
256.124	259.81
256.357	241.81
256.59	224.81
256.823	226.81
257.056	211.81
257.289	227.81
257.521	231.81
257.754	220.81
257.987	211.81
258.22	204.81
258.452	204.81
258.685	217.81
258.918	226.81
259.151	201.81
259.383	236.81
259.616	235.81
259.849	220.81
260.081	243.81
260.314	261.81
260.547	294.81
260.779	251.81
261.012	233.81
261.244	226.81
261.477	219.81
261.71	218.81
261.942	210.81
262.175	233.81
262.407	217.81
262.64	213.81
262.872	221.81
263.105	218.81
263.337	213.81
263.57	202.81
263.802	197.81
264.035	204.81
264.267	224.81
264.499	218.81
264.732	205.81
264.964	216.81
265.197	234.81
265.429	218.81
265.661	231.81
265.894	216.81
266.126	225.81
266.358	221.81
266.591	213.81
266.823	231.81
267.055	230.81
267.287	257.81
267.52	237.81
267.752	250.81
267.984	244.81
268.216	237.81
268.448	228.81
268.681	246.81
268.913	253.81
269.145	272.81
269.377	283.81
269.609	278.81
269.841	251.81
270.073	278.81
270.306	293.81
270.538	329.81
270.77	317.81
271.002	318.81
271.234	289.81
271.466	283.81
271.698	319.81
271.93	325.81
272.162	323.81
272.394	317.81
272.626	315.81
272.858	284.81
273.09	297.81
273.322	278.81
273.553	287.81
273.785	276.81
274.017	274.81
274.249	283.81
274.481	261.81
274.713	277.81
274.945	277.81
275.176	267.81
275.408	271.81
275.64	269.81
275.872	261.81
276.104	276.81
276.335	264.81
276.567	284.81
276.799	283.81
277.031	313.81
277.262	327.81
277.494	326.81
277.726	307.81
277.957	301.81
278.189	284.81
278.421	294.81
278.652	291.81
278.884	283.81
279.115	269.81
279.347	287.81
279.579	284.81
279.81	268.81
280.042	277.81
280.273	250.81
280.505	273.81
280.736	281.81
280.968	261.81
281.199	277.81
281.431	274.81
281.662	281.81
281.894	288.81
282.125	275.81
282.356	290.81
282.588	306.81
282.819	314.81
283.051	282.81
283.282	274.81
283.513	301.81
283.745	301.81
283.976	265.81
284.207	301.81
284.439	309.81
284.67	289.81
284.901	280.81
285.132	268.81
285.364	276.81
285.595	275.81
285.826	289.81
286.057	301.81
286.288	286.81
286.52	289.81
286.751	281.81
286.982	299.81
287.213	295.81
287.444	277.81
287.675	301.81
287.906	297.81
288.138	310.81
288.369	300.81
288.6	312.81
288.831	318.81
289.062	312.81
289.293	321.81
289.524	306.81
289.755	300.81
289.986	293.81
290.217	303.81
290.448	289.81
290.679	311.81
290.91	316.81
291.141	301.81
291.371	313.81
291.602	299.81
291.833	289.81
292.064	298.81
292.295	312.81
292.526	293.81
292.757	313.81
292.987	298.81
293.218	298.81
293.449	289.81
293.68	294.81
293.91	333.81
294.141	312.81
294.372	297.81
294.603	313.81
294.833	313.81
295.064	310.81
295.295	313.81
295.525	309.81
295.756	303.81
295.987	303.81
296.217	347.81
296.448	347.81
296.679	322.81
296.909	310.81
297.14	307.81
297.37	318.81
297.601	329.81
297.831	301.81
298.062	319.81
298.292	311.81
298.523	321.81
298.753	318.81
298.984	315.81
299.214	329.81
299.445	326.81
299.675	327.81
299.905	322.81
300.136	327.81
300.366	321.81
300.597	322.81
300.827	324.81
301.057	333.81
301.288	345.81
301.518	330.81
301.748	329.81
301.979	334.81
302.209	356.81
302.439	357.81
302.669	355.81
302.9	365.81
303.13	327.81
303.36	350.81
303.59	357.81
303.82	352.81
304.051	347.81
304.281	355.81
304.511	348.81
304.741	338.81
304.971	336.81
305.201	334.81
305.431	337.81
305.661	327.81
305.891	335.81
306.121	329.81
306.352	354.81
306.582	346.81
306.812	336.81
307.042	323.81
307.272	339.81
307.502	345.81
307.731	337.81
307.961	360.81
308.191	345.81
308.421	341.81
308.651	367.81
308.881	353.81
309.111	372.81
309.341	360.81
309.571	359.81
309.8	391.81
310.03	371.81
310.26	377.81
310.49	389.81
310.72	406.81
310.949	403.81
311.179	408.81
311.409	400.81
311.639	384.81
311.868	396.81
312.098	403.81
312.328	404.81
312.557	405.81
312.787	440.81
313.017	422.81
313.246	412.81
313.476	404.81
313.706	407.81
313.935	401.81
314.165	408.81
314.394	415.81
314.624	410.81
314.853	403.81
315.083	397.81
315.312	393.81
315.542	381.81
315.771	379.81
316.001	387.81
316.23	373.81
316.46	393.81
316.689	387.81
316.919	405.81
317.148	388.81
317.377	395.81
317.607	396.81
317.836	387.81
318.065	411.81
318.295	401.81
318.524	382.81
318.753	385.81
318.983	394.81
319.212	396.81
319.441	393.81
319.67	390.81
319.9	421.81
320.129	398.81
320.358	395.81
320.587	414.81
320.816	405.81
321.046	402.81
321.275	441.81
321.504	418.81
321.733	403.81
321.962	415.81
322.191	445.81
322.42	439.81
322.649	452.81
322.878	458.81
323.108	481.81
323.337	489.81
323.566	526.81
323.795	555.81
324.024	568.81
324.253	709.81
324.482	1003.81
324.71	1543.81
324.939	2339.81
325.168	2045.81
325.397	1000.81
325.626	686.81
325.855	539.81
326.084	527.81
326.313	506.81
326.542	547.81
326.77	557.81
326.999	667.81
327.228	889.81
327.457	1415.81
327.686	1768.81
327.914	1150.81
328.143	736.81
328.372	645.81
328.6	586.81
328.829	577.81
329.058	600.81
329.287	608.81
329.515	587.81
329.744	549.81
329.972	537.81
330.201	536.81
330.43	585.81
330.658	631.81
330.887	642.81
331.115	601.81
331.344	559.81
331.572	510.81
331.801	515.81
332.03	523.81
332.258	501.81
332.486	493.81
332.715	482.81
332.943	474.81
333.172	478.81
333.4	486.81
333.629	478.81
333.857	512.81
334.085	533.81
334.314	535.81
334.542	584.81
334.771	587.81
334.999	561.81
335.227	520.81
335.455	486.81
335.684	485.81
335.912	473.81
336.14	469.81
336.369	465.81
336.597	483.81
336.825	489.81
337.053	466.81
337.281	468.81
337.51	490.81
337.738	482.81
337.966	463.81
338.194	466.81
338.422	477.81
338.65	445.81
338.878	470.81
339.106	449.81
339.334	454.81
339.562	456.81
339.79	464.81
340.018	460.81
340.246	473.81
340.474	477.81
340.702	449.81
340.93	444.81
341.158	461.81
341.386	453.81
341.614	460.81
341.842	470.81
342.07	455.81
342.298	445.81
342.526	436.81
342.754	441.81
342.981	436.81
343.209	449.81
343.437	446.81
343.665	455.81
343.893	470.81
344.12	474.81
344.348	492.81
344.576	484.81
344.804	478.81
345.031	475.81
345.259	490.81
345.487	471.81
345.714	455.81
345.942	446.81
346.17	444.81
346.397	447.81
346.625	452.81
346.853	452.81
347.08	444.81
347.308	430.81
347.535	437.81
347.763	458.81
347.99	456.81
348.218	452.81
348.445	475.81
348.673	452.81
348.9	441.81
349.128	462.81
349.355	438.81
349.583	449.81
349.81	442.81
350.037	445.81
350.265	449.81
350.492	428.81
350.72	418.81
350.947	435.81
351.174	447.81
351.402	438.81
351.629	439.81
351.856	463.81
352.083	464.81
352.311	482.81
352.538	463.81
352.765	463.81
352.992	441.81
353.22	434.81
353.447	467.81
353.674	457.81
353.901	436.81
354.128	427.81
354.355	433.81
354.583	433.81
354.81	423.81
355.037	427.81
355.264	423.81
355.491	410.81
355.718	411.81
355.945	402.81
356.172	429.81
356.399	428.81
356.626	414.81
356.853	418.81
357.08	431.81
357.307	422.81
357.534	420.81
357.761	426.81
357.988	414.81
358.215	422.81
358.441	433.81
358.668	425.81
358.895	433.81
359.122	437.81
359.349	426.81
359.576	467.81
359.802	460.81
360.029	506.81
360.256	525.81
360.483	479.81
360.709	448.81
360.936	469.81
361.163	464.81
361.39	464.81
361.616	450.81
361.843	476.81
362.07	463.81
362.296	463.81
362.523	453.81
362.749	444.81
362.976	450.81
363.203	441.81
363.429	419.81
363.656	430.81
363.882	439.81
364.109	455.81
364.335	443.81
364.562	441.81
364.788	439.81
365.015	426.81
365.241	451.81
365.468	444.81
365.694	447.81
365.92	446.81
366.147	438.81
366.373	445.81
366.599	438.81
366.826	419.81
367.052	441.81
367.278	466.81
367.505	437.81
367.731	437.81
367.957	444.81
368.184	447.81
368.41	439.81
368.636	466.81
368.862	467.81
369.089	454.81
369.315	434.81
369.541	450.81
369.767	460.81
369.993	455.81
370.219	454.81
370.445	437.81
370.672	436.81
370.898	441.81
371.124	442.81
371.35	428.81
371.576	419.81
371.802	454.81
372.028	440.81
372.254	448.81
372.48	436.81
372.706	433.81
372.932	446.81
373.158	458.81
373.384	442.81
373.61	445.81
373.835	442.81
374.061	431.81
374.287	429.81
374.513	445.81
374.739	429.81
374.965	454.81
375.191	439.81
375.416	445.81
375.642	446.81
375.868	448.81
376.094	450.81
376.319	439.81
376.545	446.81
376.771	459.81
376.997	428.81
377.222	466.81
377.448	439.81
377.674	441.81
377.899	433.81
378.125	428.81
378.35	444.81
378.576	429.81
378.802	422.81
379.027	441.81
379.253	443.81
379.478	440.81
379.704	434.81
379.929	445.81
380.155	458.81
380.38	449.81
380.606	456.81
380.831	445.81
381.057	427.81
381.282	443.81
381.507	452.81
381.733	444.81
381.958	441.81
382.184	438.81
382.409	462.81
382.634	445.81
382.86	462.81
383.085	435.81
383.31	449.81
383.535	453.81
383.761	455.81
383.986	461.81
384.211	461.81
384.436	463.81
384.662	473.81
384.887	486.81
385.112	494.81
385.337	479.81
385.562	487.81
385.787	463.81
386.013	516.81
386.238	499.81
386.463	494.81
386.688	473.81
386.913	460.81
387.138	498.81
387.363	500.81
387.588	481.81
387.813	497.81
388.038	473.81
388.263	479.81
388.488	474.81
388.713	499.81
388.938	504.81
389.163	515.81
389.387	527.81
389.612	475.81
389.837	490.81
390.062	503.81
390.287	494.81
390.512	503.81
390.736	499.81
390.961	519.81
391.186	505.81
391.411	502.81
391.636	517.81
391.86	483.81
392.085	525.81
392.31	490.81
392.534	520.81
392.759	516.81
392.984	513.81
393.208	511.81
393.433	513.81
393.658	501.81
393.882	478.81
394.107	509.81
394.331	503.81
394.556	486.81
394.78	491.81
395.005	497.81
395.229	510.81
395.454	510.81
395.678	531.81
395.903	549.81
396.127	536.81
396.352	544.81
396.576	512.81
396.801	526.81
397.025	525.81
397.249	530.81
397.474	561.81
397.698	527.81
397.922	549.81
398.147	571.81
398.371	573.81
398.595	549.81
398.82	549.81
399.044	585.81
399.268	602.81
399.492	631.81
399.717	638.81
399.941	701.81
400.165	734.81
400.389	714.81
400.613	653.81
400.837	602.81
401.062	601.81
401.286	570.81
401.51	579.81
401.734	564.81
401.958	577.81
402.182	558.81
402.406	593.81
402.63	575.81
402.854	588.81
403.078	582.81
403.302	598.81
403.526	601.81
403.75	626.81
403.974	569.81
404.198	589.81
404.422	613.81
404.645	604.81
404.869	609.81
405.093	644.81
405.317	698.81
405.541	705.81
405.765	661.81
405.988	635.81
406.212	621.81
406.436	677.81
406.66	682.81
406.883	650.81
407.107	668.81
407.331	699.81
407.555	796.81
407.778	806.81
408.002	718.81
408.226	660.81
408.449	679.81
408.673	666.81
408.896	695.81
409.12	725.81
409.344	693.81
409.567	620.81
409.791	613.81
410.014	608.81
410.238	630.81
410.461	585.81
410.685	625.81
410.908	622.81
411.132	664.81
411.355	695.81
411.578	655.81
411.802	614.81
412.025	601.81
412.249	629.81
412.472	649.81
412.695	700.81
412.919	660.81
413.142	606.81
413.365	603.81
413.589	588.81
413.812	583.81
414.035	551.81
414.258	599.81
414.482	562.81
414.705	586.81
414.928	567.81
415.151	562.81
415.374	565.81
415.597	568.81
415.821	573.81
416.044	569.81
416.267	591.81
416.49	571.81
416.713	556.81
416.936	573.81
417.159	573.81
417.382	568.81
417.605	577.81
417.828	588.81
418.051	601.81
418.274	570.81
418.497	552.81
418.72	579.81
418.943	570.81
419.166	604.81
419.389	628.81
419.611	606.81
419.834	602.81
420.057	589.81
420.28	605.81
420.503	613.81
420.726	579.81
420.948	591.81
421.171	659.81
421.394	697.81
421.617	617.81
421.839	596.81
422.062	612.81
422.285	627.81
422.507	697.81
422.73	767.81
422.953	753.81
423.175	653.81
423.398	619.81
423.621	610.81
423.843	649.81
424.066	668.81
424.288	659.81
424.511	675.81
424.733	761.81
424.956	817.81
425.178	783.81
425.401	791.81
425.623	802.81
425.846	683.81
426.068	656.81
426.291	636.81
426.513	631.81
426.735	646.81
426.958	697.81
427.18	792.81
427.402	948.81
427.625	1033.81
427.847	913.81
428.069	788.81
428.292	705.81
428.514	643.81
428.736	633.81
428.958	587.81
429.181	596.81
429.403	587.81
429.625	579.81
429.847	660.81
430.069	726.81
430.292	706.81
430.514	613.81
430.736	612.81
430.958	570.81
431.18	559.81
431.402	576.81
431.624	556.81
431.846	554.81
432.068	565.81
432.29	577.81
432.512	573.81
432.734	565.81
432.956	575.81
433.178	574.81
433.4	557.81
433.622	569.81
433.844	566.81
434.066	577.81
434.287	535.81
434.509	563.81
434.731	587.81
434.953	591.81
435.175	596.81
435.397	633.81
435.618	621.81
435.84	668.81
436.062	797.81
436.284	893.81
436.505	736.81
436.727	695.81
436.949	609.81
437.17	597.81
437.392	605.81
437.614	607.81
437.835	602.81
438.057	754.81
438.278	855.81
438.5	877.81
438.721	958.81
438.943	903.81
439.165	727.81
439.386	676.81
439.608	643.81
439.829	641.81
440.05	677.81
440.272	722.81
440.493	678.81
440.715	641.81
440.936	615.81
441.158	616.81
441.379	595.81
441.6	615.81
441.822	638.81
442.043	682.81
442.264	806.81
442.486	814.81
442.707	705.81
442.928	675.81
443.149	669.81
443.371	699.81
443.592	737.81
443.813	837.81
444.034	910.81
444.255	768.81
444.476	682.81
444.698	672.81
444.919	667.81
445.14	729.81
445.361	709.81
445.582	701.81
445.803	764.81
446.024	893.81
446.245	889.81
446.466	812.81
446.687	666.81
446.908	629.81
447.129	600.81
447.35	602.81
447.571	597.81
447.792	561.81
448.013	588.81
448.234	603.81
448.455	677.81
448.675	817.81
448.896	933.81
449.117	768.81
449.338	751.81
449.559	867.81
449.779	1009.81
450	775.81
450.221	658.81
450.442	602.81
450.662	584.81
450.883	583.81
451.104	578.81
451.324	567.81
451.545	561.81
451.766	539.81
451.986	545.81
452.207	513.81
452.428	516.81
452.648	517.81
452.869	513.81
453.089	566.81
453.31	555.81
453.53	571.81
453.751	557.81
453.971	531.81
454.192	533.81
454.412	548.81
454.633	521.81
454.853	519.81
455.073	506.81
455.294	563.81
455.514	634.81
455.734	602.81
455.955	526.81
456.175	509.81
456.395	499.81
456.616	502.81
456.836	517.81
457.056	503.81
457.276	479.81
457.497	524.81
457.717	507.81
457.937	498.81
458.157	504.81
458.377	502.81
458.598	556.81
458.818	619.81
459.038	693.81
459.258	713.81
459.478	633.81
459.698	581.81
459.918	562.81
460.138	574.81
460.358	584.81
460.578	558.81
460.798	573.81
461.018	571.81
461.238	556.81
461.458	559.81
461.678	557.81
461.898	580.81
462.118	581.81
462.338	581.81
462.558	598.81
462.777	620.81
462.997	624.81
463.217	633.81
463.437	629.81
463.657	634.81
463.876	619.81
464.096	601.81
464.316	602.81
464.536	616.81
464.755	615.81
464.975	635.81
465.195	651.81
465.414	721.81
465.634	667.81
465.854	617.81
466.073	573.81
466.293	562.81
466.512	558.81
466.732	546.81
466.951	533.81
467.171	538.81
467.391	527.81
467.61	562.81
467.829	563.81
468.049	568.81
468.268	547.81
468.488	523.81
468.707	541.81
468.927	546.81
469.146	521.81
469.365	534.81
469.585	510.81
469.804	557.81
470.023	530.81
470.243	532.81
470.462	554.81
470.681	562.81
470.901	571.81
471.12	564.81
471.339	573.81
471.558	559.81
471.777	579.81
471.997	546.81
472.216	573.81
472.435	605.81
472.654	570.81
472.873	574.81
473.092	554.81
473.311	554.81
473.53	537.81
473.749	561.81
473.968	595.81
474.187	698.81
474.406	748.81
474.625	639.81
474.844	541.81
475.063	571.81
475.282	574.81
475.501	527.81
475.72	555.81
475.939	542.81
476.158	554.81
476.377	572.81
476.596	562.81
476.814	557.81
477.033	587.81
477.252	573.81
477.471	587.81
477.69	594.81
477.908	605.81
478.127	598.81
478.346	619.81
478.564	615.81
478.783	608.81
479.002	614.81
479.22	614.81
479.439	633.81
479.658	645.81
479.876	667.81
480.095	677.81
480.313	697.81
480.532	724.81
480.751	689.81
480.969	714.81
481.188	769.81
481.406	787.81
481.624	719.81
481.843	658.81
482.061	689.81
482.28	680.81
482.498	649.81
482.717	646.81
482.935	679.81
483.153	647.81
483.372	630.81
483.59	634.81
483.808	631.81
484.027	657.81
484.245	635.81
484.463	654.81
484.681	678.81
484.9	671.81
485.118	675.81
485.336	671.81
485.554	679.81
485.772	679.81
485.99	689.81
486.209	677.81
486.427	683.81
486.645	685.81
486.863	706.81
487.081	691.81
487.299	714.81
487.517	700.81
487.735	704.81
487.953	699.81
488.171	708.81
488.389	672.81
488.607	699.81
488.825	703.81
489.043	709.81
489.261	709.81
489.479	713.81
489.696	720.81
489.914	722.81
490.132	737.81
490.35	728.81
490.568	723.81
490.786	744.81
491.003	755.81
491.221	775.81
491.439	780.81
491.657	797.81
491.874	819.81
492.092	779.81
492.31	777.81
492.527	807.81
492.745	812.81
492.963	839.81
493.18	827.81
493.398	819.81
493.615	860.81
493.833	834.81
494.05	825.81
494.268	837.81
494.485	840.81
494.703	847.81
494.92	844.81
495.138	824.81
495.355	857.81
495.573	843.81
495.79	833.81
496.008	850.81
496.225	833.81
496.442	823.81
496.66	845.81
496.877	842.81
497.094	873.81
497.312	837.81
497.529	853.81
497.746	857.81
497.963	889.81
498.181	923.81
498.398	922.81
498.615	940.81
498.832	934.81
499.049	952.81
499.267	984.81
499.484	1033.81
499.701	1045.81
499.918	1068.81
500.135	1141.81
500.352	1186.81
500.569	1189.81
500.786	1230.81
501.003	1185.81
501.22	1165.81
501.437	1125.81
501.654	1087.81
501.871	1066.81
502.088	1045.81
502.305	973.81
502.522	965.81
502.739	954.81
502.956	909.81
503.172	893.81
503.389	879.81
503.606	869.81
503.823	887.81
504.04	861.81
504.256	865.81
504.473	842.81
504.69	846.81
504.907	818.81
505.123	834.81
505.34	798.81
505.557	814.81
505.773	801.81
505.99	810.81
506.207	776.81
506.423	819.81
506.64	807.81
506.856	809.81
507.073	773.81
507.289	771.81
507.506	780.81
507.722	807.81
507.939	773.81
508.155	803.81
508.372	787.81
508.588	754.81
508.805	747.81
509.021	753.81
509.238	768.81
509.454	762.81
509.67	752.81
509.887	736.81
510.103	750.81
510.319	762.81
510.536	844.81
510.752	1333.81
510.968	1093.81
511.184	790.81
511.401	704.81
511.617	693.81
511.833	725.81
512.049	741.81
512.265	733.81
512.481	716.81
512.698	708.81
512.914	700.81
513.13	704.81
513.346	705.81
513.562	715.81
513.778	711.81
513.994	697.81
514.21	714.81
514.426	734.81
514.642	798.81
514.858	790.81
515.074	846.81
515.29	977.81
515.506	1386.81
515.721	1141.81
515.937	823.81
516.153	760.81
516.369	734.81
516.585	713.81
516.801	724.81
517.016	718.81
517.232	737.81
517.448	733.81
517.664	752.81
517.879	748.81
518.095	730.81
518.311	739.81
518.527	703.81
518.742	729.81
518.958	719.81
519.173	736.81
519.389	706.81
519.605	737.81
519.82	692.81
520.036	713.81
520.251	738.81
520.467	777.81
520.682	752.81
520.898	781.81
521.113	784.81
521.329	823.81
521.544	891.81
521.76	1111.81
521.975	1726.81
522.19	1709.81
522.406	1015.81
522.621	791.81
522.836	728.81
523.052	696.81
523.267	662.81
523.482	653.81
523.698	643.81
523.913	632.81
524.128	650.81
524.343	634.81
524.559	611.81
524.774	613.81
524.989	609.81
525.204	626.81
525.419	618.81
525.634	633.81
525.849	613.81
526.064	595.81
526.28	598.81
526.495	597.81
526.71	589.81
526.925	583.81
527.14	577.81
527.355	576.81
527.57	564.81
527.785	582.81
527.999	579.81
528.214	591.81
528.429	578.81
528.644	571.81
528.859	570.81
529.074	586.81
529.289	637.81
529.503	708.81
529.718	667.81
529.933	604.81
530.148	574.81
530.363	601.81
530.577	575.81
530.792	546.81
531.007	567.81
531.221	576.81
531.436	568.81
531.651	565.81
531.865	550.81
532.08	561.81
532.295	541.81
532.509	550.81
532.724	547.81
532.938	541.81
533.153	544.81
533.367	565.81
533.582	559.81
533.796	557.81
534.011	557.81
534.225	549.81
534.44	547.81
534.654	562.81
534.868	553.81
535.083	533.81
535.297	545.81
535.511	542.81
535.726	560.81
535.94	543.81
536.154	547.81
536.369	546.81
536.583	537.81
536.797	531.81
537.011	559.81
537.225	521.81
537.44	546.81
537.654	554.81
537.868	520.81
538.082	537.81
538.296	545.81
538.51	555.81
538.724	531.81
538.938	541.81
539.153	533.81
539.367	537.81
539.581	549.81
539.795	529.81
540.009	504.81
540.222	518.81
540.436	522.81
540.65	545.81
540.864	544.81
541.078	556.81
541.292	533.81
541.506	544.81
541.72	507.81
541.934	517.81
542.147	522.81
542.361	524.81
542.575	533.81
542.789	521.81
543.002	520.81
543.216	531.81
543.43	539.81
543.644	520.81
543.857	510.81
544.071	556.81
544.285	527.81
544.498	507.81
544.712	534.81
544.925	513.81
545.139	524.81
545.352	528.81
545.566	504.81
545.779	508.81
545.993	494.81
546.206	529.81
546.42	514.81
546.633	502.81
546.847	504.81
547.06	502.81
547.274	529.81
547.487	495.81
547.7	533.81
547.914	506.81
548.127	515.81
548.34	513.81
548.554	491.81
548.767	514.81
548.98	497.81
549.193	513.81
549.407	491.81
549.62	497.81
549.833	507.81
550.046	507.81
550.259	514.81
550.473	493.81
550.686	505.81
550.899	503.81
551.112	513.81
551.325	497.81
551.538	483.81
551.751	511.81
551.964	490.81
552.177	488.81
552.39	525.81
552.603	502.81
552.816	505.81
553.029	510.81
553.242	519.81
553.455	512.81
553.667	511.81
553.88	544.81
554.093	515.81
554.306	526.81
554.519	523.81
554.732	501.81
554.944	503.81
555.157	486.81
555.37	486.81
555.583	482.81
555.795	490.81
556.008	490.81
556.221	458.81
556.433	479.81
556.646	447.81
556.859	459.81
557.071	451.81
557.284	457.81
557.496	469.81
557.709	455.81
557.921	437.81
558.134	458.81
558.346	443.81
558.559	429.81
558.771	436.81
558.984	457.81
559.196	439.81
559.409	438.81
559.621	446.81
559.833	440.81
560.046	435.81
560.258	415.81
560.47	437.81
560.683	456.81
560.895	435.81
561.107	462.81
561.32	414.81
561.532	437.81
561.744	433.81
561.956	446.81
562.168	430.81
562.381	455.81
562.593	448.81
562.805	459.81
563.017	431.81
563.229	462.81
563.441	479.81
563.653	462.81
563.865	461.81
564.077	466.81
564.289	471.81
564.501	450.81
564.713	467.81
564.925	472.81
565.137	476.81
565.349	493.81
565.561	483.81
565.773	476.81
565.985	525.81
566.197	503.81
566.408	515.81
566.62	547.81
566.832	554.81
567.044	548.81
567.255	546.81
567.467	555.81
567.679	584.81
567.891	602.81
568.102	594.81
568.314	570.81
568.526	551.81
568.737	519.81
568.949	520.81
569.161	505.81
569.372	477.81
569.584	484.81
569.795	473.81
570.007	467.81
570.218	488.81
570.43	475.81
570.641	465.81
570.853	449.81
571.064	443.81
571.276	435.81
571.487	423.81
571.698	428.81
571.91	428.81
572.121	434.81
572.333	400.81
572.544	407.81
572.755	401.81
572.966	405.81
573.178	390.81
573.389	403.81
573.6	398.81
573.811	403.81
574.023	411.81
574.234	392.81
574.445	399.81
574.656	381.81
574.867	378.81
575.078	385.81
575.289	393.81
575.501	389.81
575.712	377.81
575.923	369.81
576.134	385.81
576.345	396.81
576.556	377.81
576.767	379.81
576.978	384.81
577.188	390.81
577.399	372.81
577.61	373.81
577.821	351.81
578.032	365.81
578.243	417.81
578.454	607.81
578.665	482.81
578.875	396.81
579.086	371.81
579.297	369.81
579.508	370.81
579.718	377.81
579.929	363.81
580.14	363.81
580.35	351.81
580.561	356.81
580.772	373.81
580.982	337.81
581.193	361.81
581.403	352.81
581.614	340.81
581.825	352.81
582.035	348.81
582.246	364.81
582.456	355.81
582.667	354.81
582.877	349.81
583.087	359.81
583.298	351.81
583.508	353.81
583.719	353.81
583.929	340.81
584.139	339.81
584.35	356.81
584.56	349.81
584.77	354.81
584.981	348.81
585.191	345.81
585.401	340.81
585.611	351.81
585.821	330.81
586.032	334.81
586.242	328.81
586.452	341.81
586.662	328.81
586.872	331.81
587.082	318.81
587.292	332.81
587.502	321.81
587.713	333.81
587.923	340.81
588.133	329.81
588.343	342.81
588.553	328.81
588.762	334.81
588.972	344.81
589.182	354.81
589.392	342.81
589.602	334.81
589.812	328.81
590.022	346.81
590.232	348.81
590.441	338.81
590.651	344.81
590.861	349.81
591.071	354.81
591.281	340.81
591.49	342.81
591.7	345.81
591.91	342.81
592.119	346.81
592.329	354.81
592.539	360.81
592.748	364.81
592.958	369.81
593.167	345.81
593.377	361.81
593.587	369.81
593.796	371.81
594.006	354.81
594.215	352.81
594.424	356.81
594.634	346.81
594.843	359.81
595.053	358.81
595.262	349.81
595.472	339.81
595.681	332.81
595.89	327.81
596.1	325.81
596.309	335.81
596.518	305.81
596.727	315.81
596.937	320.81
597.146	307.81
597.355	310.81
597.564	320.81
597.774	301.81
597.983	313.81
598.192	301.81
598.401	313.81
598.61	315.81
598.819	294.81
599.028	282.81
599.237	301.81
599.446	297.81
599.655	328.81
599.864	317.81
600.073	295.81
600.282	309.81
600.491	298.81
600.7	296.81
600.909	285.81
601.118	280.81
601.327	290.81
601.536	284.81
601.745	307.81
601.953	298.81
602.162	295.81
602.371	279.81
602.58	283.81
602.789	293.81
602.997	290.81
603.206	286.81
603.415	296.81
603.623	278.81
603.832	279.81
604.041	294.81
604.249	295.81
604.458	278.81
604.666	286.81
604.875	281.81
605.084	271.81
605.292	284.81
605.501	289.81
605.709	276.81
605.918	292.81
606.126	280.81
606.334	291.81
606.543	277.81
606.751	268.81
606.96	295.81
607.168	275.81
607.376	266.81
607.585	298.81
607.793	285.81
608.001	270.81
608.21	292.81
608.418	275.81
608.626	283.81
608.834	275.81
609.043	264.81
609.251	274.81
609.459	252.81
609.667	258.81
609.875	265.81
610.083	288.81
610.291	280.81
610.499	280.81
610.707	260.81
610.916	270.81
611.124	289.81
611.332	277.81
611.54	265.81
611.748	288.81
611.955	265.81
612.163	269.81
612.371	276.81
612.579	278.81
612.787	269.81
612.995	267.81
613.203	275.81
613.411	275.81
613.618	281.81
613.826	275.81
614.034	255.81
614.242	259.81
614.449	264.81
614.657	256.81
614.865	253.81
615.072	266.81
615.28	286.81
615.488	261.81
615.695	266.81
615.903	252.81
616.111	266.81
616.318	273.81
616.526	268.81
616.733	271.81
616.941	230.81
617.148	273.81
617.356	267.81
617.563	236.81
617.771	251.81
617.978	261.81
618.185	291.81
618.393	266.81
618.6	255.81
618.807	249.81
619.015	257.81
619.222	232.81
619.429	257.81
619.637	249.81
619.844	252.81
620.051	275.81
620.258	260.81
620.466	236.81
620.673	226.81
620.88	231.81
621.087	254.81
621.294	259.81
621.501	244.81
621.708	265.81
621.915	247.81
622.122	241.81
622.329	247.81
622.536	243.81
622.743	235.81
622.95	243.81
623.157	250.81
623.364	234.81
623.571	248.81
623.778	268.81
623.985	255.81
624.192	236.81
624.399	238.81
624.606	244.81
624.812	237.81
625.019	253.81
625.226	235.81
625.433	230.81
625.639	239.81
625.846	251.81
626.053	225.81
626.259	216.81
626.466	237.81
626.673	247.81
626.879	236.81
627.086	237.81
627.293	238.81
627.499	217.81
627.706	228.81
627.912	217.81
628.119	233.81
628.325	214.81
628.532	225.81
628.738	237.81
628.945	230.81
629.151	230.81
629.357	219.81
629.564	229.81
629.77	206.81
629.976	221.81
630.183	233.81
630.389	234.81
630.595	217.81
630.802	210.81
631.008	215.81
631.214	214.81
631.42	209.81
631.627	235.81
631.833	215.81
632.039	218.81
632.245	193.81
632.451	196.81
632.657	209.81
632.863	222.81
633.069	220.81
633.275	206.81
633.481	195.81
633.688	225.81
633.893	211.81
634.099	218.81
634.305	205.81
634.511	197.81
634.717	220.81
634.923	215.81
635.129	191.81
635.335	197.81
635.541	217.81
635.747	195.81
635.952	195.81
636.158	200.81
636.364	208.81
636.57	212.81
636.775	212.81
636.981	205.81
637.187	224.81
637.392	203.81
637.598	179.81
637.804	189.81
638.009	187.81
638.215	203.81
638.421	202.81
638.626	194.81
638.832	191.81
639.037	186.81
639.243	179.81
639.448	198.81
639.654	187.81
639.859	201.81
640.065	181.81
640.27	204.81
640.475	205.81
640.681	193.81
640.886	195.81
641.091	183.81
641.297	201.81
641.502	203.81
641.707	179.81
641.913	169.81
642.118	178.81
642.323	178.81
642.528	195.81
642.733	194.81
642.939	179.81
643.144	186.81
643.349	171.81
643.554	201.81
643.759	201.81
643.964	171.81
644.169	174.81
644.374	166.81
644.579	194.81
644.784	181.81
644.989	171.81
645.194	176.81
645.399	191.81
645.604	182.81
645.809	188.81
646.014	194.81
646.219	180.81
646.423	169.81
646.628	178.81
646.833	195.81
647.038	178.81
647.243	172.81
647.447	187.81
647.652	179.81
647.857	186.81
648.062	179.81
648.266	178.81
648.471	203.81
648.676	196.81
648.88	195.81
649.085	194.81
649.289	185.81
649.494	196.81
649.698	192.81
649.903	194.81
650.107	201.81
650.312	162.81
650.516	179.81
650.721	183.81
650.925	145.81
651.13	149.81
651.334	158.81
651.539	163.81
651.743	161.81
651.947	171.81
652.152	151.81
652.356	157.81
652.56	164.81
652.764	154.81
652.969	156.81
653.173	155.81
653.377	144.81
653.581	153.81
653.785	142.81
653.99	154.81
654.194	141.81
654.398	135.81
654.602	147.81
654.806	147.81
655.01	163.81
655.214	150.81
655.418	135.81
655.622	146.81
655.826	140.81
656.03	139.81
656.234	138.81
656.438	142.81
656.642	145.81
656.846	151.81
657.049	156.81
657.253	133.81
657.457	123.81
657.661	124.81
657.865	123.81
658.068	126.81
658.272	119.81
658.476	101.81
658.68	112.81
658.883	98.81
659.087	104.81
659.291	105.81
659.494	100.81
659.698	106.81
659.901	104.81
660.105	102.81
660.309	86.81
660.512	105.81
660.716	102.81
660.919	85.81
661.123	108.81
661.326	86.81
661.53	96.81
661.733	114.81
661.936	96.81
662.14	96.81
662.343	102.81
662.546	96.81
662.75	94.81
662.953	78.81
663.156	82.81
663.36	84.81
663.563	84.81
663.766	81.81
663.969	82.81
664.173	76.81
664.376	80.81
664.579	98.81
664.782	100.81
664.985	78.81
665.188	81.81
665.391	89.81
665.594	85.81
665.797	96.81
666	86.81
666.203	83.81
666.406	84.81
666.609	89.81
666.812	98.81
667.015	92.81
667.218	85.81
667.421	84.81
667.624	84.81
667.827	91.81
668.03	82.81
668.232	90.81
668.435	80.81
668.638	91.81
668.841	89.81
669.043	76.81
669.246	86.81
669.449	90.81
669.651	61.81
669.854	84.81
670.057	75.81
670.259	83.81
670.462	85.81
670.665	98.81
670.867	89.81
671.07	74.81
671.272	84.81
671.475	90.81
671.677	86.81
671.88	90.81
672.082	100.81
672.284	85.81
672.487	61.81
672.689	71.81
672.892	100.81
