Data from 1966.PennyLincolnUp.Lamp.En5.5.200Scan.071719.P1.Scan2.head_HRD10591_14-19-21-260.txt Node
Date: Thu Jul 18 14:19:21 EDT 2019
User: cochatt
Spectrometer: HR+D1059
Trigger mode: 1
Integration Time (sec): 1.000000E-1
Scans to average: 1
Electric dark correction enabled: true
Nonlinearity correction enabled: false
Boxcar width: 0
XAxis mode: Wavelengths
Number of Pixels in Spectrum: 2048
>>>>>Begin Spectral Data<<<<<
223.165	-3.06
223.4	-3.06
223.635	-3.06
223.869	-25.06
224.104	-9.06
224.338	-10.06
224.573	-18.06
224.808	-16.06
225.042	-11.06
225.277	-14.06
225.511	9.94
225.746	-0.06
225.98	15.94
226.215	10.94
226.449	11.94
226.683	22.94
226.918	21.94
227.152	12.94
227.387	11.94
227.621	21.94
227.856	38.94
228.09	45.94
228.324	35.94
228.559	49.94
228.793	63.94
229.027	73.94
229.262	103.94
229.496	127.94
229.73	129.94
229.964	155.94
230.199	135.94
230.433	123.94
230.667	126.94
230.901	119.94
231.136	122.94
231.37	116.94
231.604	120.94
231.838	114.94
232.072	112.94
232.306	120.94
232.541	121.94
232.775	107.94
233.009	103.94
233.243	124.94
233.477	115.94
233.711	121.94
233.945	108.94
234.179	105.94
234.413	119.94
234.647	113.94
234.881	118.94
235.115	118.94
235.349	125.94
235.583	130.94
235.817	137.94
236.051	108.94
236.285	122.94
236.519	127.94
236.753	127.94
236.987	138.94
237.221	177.94
237.455	230.94
237.689	181.94
237.922	149.94
238.156	149.94
238.39	131.94
238.624	146.94
238.858	137.94
239.091	131.94
239.325	134.94
239.559	116.94
239.793	124.94
240.027	145.94
240.26	143.94
240.494	162.94
240.728	161.94
240.961	149.94
241.195	139.94
241.429	157.94
241.662	131.94
241.896	130.94
242.13	131.94
242.363	138.94
242.597	146.94
242.83	149.94
243.064	137.94
243.298	128.94
243.531	163.94
243.765	149.94
243.998	148.94
244.232	131.94
244.465	135.94
244.699	149.94
244.932	147.94
245.166	158.94
245.399	148.94
245.633	170.94
245.866	153.94
246.099	136.94
246.333	148.94
246.566	141.94
246.8	145.94
247.033	164.94
247.266	159.94
247.5	139.94
247.733	178.94
247.966	173.94
248.2	166.94
248.433	177.94
248.666	189.94
248.899	182.94
249.133	204.94
249.366	199.94
249.599	197.94
249.832	177.94
250.066	181.94
250.299	200.94
250.532	204.94
250.765	203.94
250.998	223.94
251.231	216.94
251.465	207.94
251.698	203.94
251.931	210.94
252.164	187.94
252.397	202.94
252.63	189.94
252.863	199.94
253.096	212.94
253.329	225.94
253.562	221.94
253.795	234.94
254.028	226.94
254.261	211.94
254.494	234.94
254.727	265.94
254.96	267.94
255.193	279.94
255.426	240.94
255.659	235.94
255.892	243.94
256.124	245.94
256.357	258.94
256.59	241.94
256.823	217.94
257.056	221.94
257.289	208.94
257.521	211.94
257.754	218.94
257.987	212.94
258.22	204.94
258.452	219.94
258.685	203.94
258.918	202.94
259.151	230.94
259.383	233.94
259.616	215.94
259.849	227.94
260.081	241.94
260.314	263.94
260.547	272.94
260.779	250.94
261.012	245.94
261.244	236.94
261.477	234.94
261.71	232.94
261.942	223.94
262.175	242.94
262.407	224.94
262.64	230.94
262.872	226.94
263.105	235.94
263.337	232.94
263.57	209.94
263.802	228.94
264.035	221.94
264.267	228.94
264.499	211.94
264.732	220.94
264.964	222.94
265.197	231.94
265.429	232.94
265.661	219.94
265.894	226.94
266.126	200.94
266.358	217.94
266.591	223.94
266.823	223.94
267.055	223.94
267.287	231.94
267.52	221.94
267.752	213.94
267.984	225.94
268.216	224.94
268.448	219.94
268.681	234.94
268.913	236.94
269.145	277.94
269.377	273.94
269.609	281.94
269.841	268.94
270.073	273.94
270.306	294.94
270.538	321.94
270.77	305.94
271.002	309.94
271.234	300.94
271.466	282.94
271.698	332.94
271.93	324.94
272.162	315.94
272.394	311.94
272.626	308.94
272.858	293.94
273.09	290.94
273.322	267.94
273.553	266.94
273.785	280.94
274.017	263.94
274.249	251.94
274.481	266.94
274.713	264.94
274.945	280.94
275.176	275.94
275.408	261.94
275.64	261.94
275.872	258.94
276.104	282.94
276.335	276.94
276.567	289.94
276.799	289.94
277.031	306.94
277.262	344.94
277.494	326.94
277.726	313.94
277.957	293.94
278.189	276.94
278.421	271.94
278.652	282.94
278.884	275.94
279.115	266.94
279.347	283.94
279.579	257.94
279.81	274.94
280.042	289.94
280.273	291.94
280.505	263.94
280.736	283.94
280.968	279.94
281.199	292.94
281.431	267.94
281.662	294.94
281.894	275.94
282.125	291.94
282.356	295.94
282.588	306.94
282.819	303.94
283.051	299.94
283.282	279.94
283.513	291.94
283.745	292.94
283.976	300.94
284.207	284.94
284.439	292.94
284.67	284.94
284.901	264.94
285.132	291.94
285.364	308.94
285.595	284.94
285.826	276.94
286.057	304.94
286.288	289.94
286.52	286.94
286.751	272.94
286.982	294.94
287.213	307.94
287.444	299.94
287.675	309.94
287.906	294.94
288.138	314.94
288.369	300.94
288.6	308.94
288.831	318.94
289.062	336.94
289.293	295.94
289.524	297.94
289.755	289.94
289.986	288.94
290.217	275.94
290.448	306.94
290.679	295.94
290.91	277.94
291.141	324.94
291.371	293.94
291.602	307.94
291.833	296.94
292.064	317.94
292.295	307.94
292.526	298.94
292.757	295.94
292.987	294.94
293.218	299.94
293.449	290.94
293.68	306.94
293.91	299.94
294.141	294.94
294.372	292.94
294.603	307.94
294.833	307.94
295.064	298.94
295.295	324.94
295.525	311.94
295.756	298.94
295.987	325.94
296.217	319.94
296.448	344.94
296.679	317.94
296.909	308.94
297.14	317.94
297.37	312.94
297.601	320.94
297.831	314.94
298.062	304.94
298.292	314.94
298.523	320.94
298.753	302.94
298.984	307.94
299.214	323.94
299.445	300.94
299.675	310.94
299.905	325.94
300.136	323.94
300.366	308.94
300.597	320.94
300.827	331.94
301.057	339.94
301.288	328.94
301.518	347.94
301.748	341.94
301.979	345.94
302.209	331.94
302.439	336.94
302.669	337.94
302.9	337.94
303.13	347.94
303.36	352.94
303.59	333.94
303.82	331.94
304.051	359.94
304.281	355.94
304.511	329.94
304.741	341.94
304.971	332.94
305.201	339.94
305.431	341.94
305.661	340.94
305.891	353.94
306.121	338.94
306.352	335.94
306.582	348.94
306.812	348.94
307.042	348.94
307.272	343.94
307.502	318.94
307.731	331.94
307.961	346.94
308.191	332.94
308.421	359.94
308.651	343.94
308.881	344.94
309.111	345.94
309.341	356.94
309.571	334.94
309.8	368.94
310.03	379.94
310.26	384.94
310.49	377.94
310.72	388.94
310.949	389.94
311.179	388.94
311.409	362.94
311.639	387.94
311.868	401.94
312.098	394.94
312.328	403.94
312.557	414.94
312.787	414.94
313.017	423.94
313.246	407.94
313.476	389.94
313.706	389.94
313.935	395.94
314.165	412.94
314.394	412.94
314.624	399.94
314.853	393.94
315.083	389.94
315.312	404.94
315.542	397.94
315.771	376.94
316.001	395.94
316.23	381.94
316.46	374.94
316.689	380.94
316.919	380.94
317.148	413.94
317.377	408.94
317.607	389.94
317.836	391.94
318.065	390.94
318.295	407.94
318.524	403.94
318.753	362.94
318.983	375.94
319.212	399.94
319.441	397.94
319.67	419.94
319.9	386.94
320.129	374.94
320.358	396.94
320.587	388.94
320.816	401.94
321.046	418.94
321.275	420.94
321.504	428.94
321.733	419.94
321.962	413.94
322.191	426.94
322.42	419.94
322.649	454.94
322.878	451.94
323.108	455.94
323.337	486.94
323.566	498.94
323.795	521.94
324.024	575.94
324.253	695.94
324.482	1011.94
324.71	1541.94
324.939	2314.94
325.168	1993.94
325.397	996.94
325.626	643.94
325.855	556.94
326.084	541.94
326.313	519.94
326.542	535.94
326.77	571.94
326.999	675.94
327.228	905.94
327.457	1409.94
327.686	1736.94
327.914	1141.94
328.143	740.94
328.372	647.94
328.6	597.94
328.829	594.94
329.058	579.94
329.287	596.94
329.515	559.94
329.744	539.94
329.972	526.94
330.201	562.94
330.43	571.94
330.658	596.94
330.887	643.94
331.115	620.94
331.344	549.94
331.572	516.94
331.801	518.94
332.03	526.94
332.258	497.94
332.486	493.94
332.715	473.94
332.943	475.94
333.172	474.94
333.4	483.94
333.629	493.94
333.857	500.94
334.085	527.94
334.314	534.94
334.542	582.94
334.771	590.94
334.999	533.94
335.227	520.94
335.455	493.94
335.684	487.94
335.912	462.94
336.14	462.94
336.369	447.94
336.597	477.94
336.825	480.94
337.053	482.94
337.281	468.94
337.51	464.94
337.738	455.94
337.966	468.94
338.194	465.94
338.422	483.94
338.65	468.94
338.878	458.94
339.106	448.94
339.334	452.94
339.562	465.94
339.79	466.94
340.018	466.94
340.246	436.94
340.474	453.94
340.702	479.94
340.93	454.94
341.158	456.94
341.386	438.94
341.614	451.94
341.842	448.94
342.07	449.94
342.298	453.94
342.526	437.94
342.754	429.94
342.981	419.94
343.209	451.94
343.437	431.94
343.665	443.94
343.893	469.94
344.12	461.94
344.348	460.94
344.576	479.94
344.804	458.94
345.031	479.94
345.259	479.94
345.487	464.94
345.714	467.94
345.942	466.94
346.17	453.94
346.397	440.94
346.625	436.94
346.853	453.94
347.08	458.94
347.308	438.94
347.535	456.94
347.763	464.94
347.99	440.94
348.218	443.94
348.445	464.94
348.673	428.94
348.9	459.94
349.128	421.94
349.355	415.94
349.583	436.94
349.81	419.94
350.037	421.94
350.265	418.94
350.492	426.94
350.72	431.94
350.947	443.94
351.174	437.94
351.402	439.94
351.629	474.94
351.856	446.94
352.083	453.94
352.311	461.94
352.538	462.94
352.765	455.94
352.992	445.94
353.22	429.94
353.447	447.94
353.674	428.94
353.901	438.94
354.128	421.94
354.355	422.94
354.583	429.94
354.81	422.94
355.037	432.94
355.264	406.94
355.491	423.94
355.718	412.94
355.945	409.94
356.172	428.94
356.399	407.94
356.626	411.94
356.853	447.94
357.08	419.94
357.307	416.94
357.534	412.94
357.761	426.94
357.988	437.94
358.215	417.94
358.441	398.94
358.668	433.94
358.895	428.94
359.122	431.94
359.349	428.94
359.576	439.94
359.802	449.94
360.029	483.94
360.256	509.94
360.483	523.94
360.709	458.94
360.936	431.94
361.163	441.94
361.39	442.94
361.616	449.94
361.843	444.94
362.07	453.94
362.296	458.94
362.523	435.94
362.749	455.94
362.976	444.94
363.203	427.94
363.429	415.94
363.656	431.94
363.882	444.94
364.109	437.94
364.335	421.94
364.562	428.94
364.788	445.94
365.015	418.94
365.241	431.94
365.468	436.94
365.694	441.94
365.92	452.94
366.147	437.94
366.373	433.94
366.599	436.94
366.826	459.94
367.052	420.94
367.278	438.94
367.505	444.94
367.731	452.94
367.957	434.94
368.184	435.94
368.41	452.94
368.636	442.94
368.862	443.94
369.089	444.94
369.315	429.94
369.541	423.94
369.767	434.94
369.993	448.94
370.219	427.94
370.445	451.94
370.672	420.94
370.898	436.94
371.124	437.94
371.35	429.94
371.576	428.94
371.802	446.94
372.028	443.94
372.254	425.94
372.48	439.94
372.706	433.94
372.932	445.94
373.158	432.94
373.384	429.94
373.61	444.94
373.835	453.94
374.061	433.94
374.287	444.94
374.513	452.94
374.739	434.94
374.965	447.94
375.191	464.94
375.416	460.94
375.642	447.94
375.868	442.94
376.094	442.94
376.319	447.94
376.545	427.94
376.771	439.94
376.997	437.94
377.222	445.94
377.448	432.94
377.674	443.94
377.899	424.94
378.125	431.94
378.35	411.94
378.576	434.94
378.802	439.94
379.027	417.94
379.253	422.94
379.478	427.94
379.704	439.94
379.929	449.94
380.155	439.94
380.38	445.94
380.606	441.94
380.831	441.94
381.057	434.94
381.282	448.94
381.507	438.94
381.733	442.94
381.958	434.94
382.184	455.94
382.409	464.94
382.634	459.94
382.86	431.94
383.085	467.94
383.31	456.94
383.535	471.94
383.761	486.94
383.986	470.94
384.211	465.94
384.436	465.94
384.662	472.94
384.887	483.94
385.112	479.94
385.337	482.94
385.562	484.94
385.787	480.94
386.013	485.94
386.238	504.94
386.463	489.94
386.688	495.94
386.913	489.94
387.138	479.94
387.363	481.94
387.588	508.94
387.813	501.94
388.038	499.94
388.263	485.94
388.488	474.94
388.713	490.94
388.938	506.94
389.163	501.94
389.387	509.94
389.612	479.94
389.837	478.94
390.062	482.94
390.287	473.94
390.512	480.94
390.736	493.94
390.961	477.94
391.186	479.94
391.411	501.94
391.636	494.94
391.86	482.94
392.085	504.94
392.31	507.94
392.534	503.94
392.759	511.94
392.984	528.94
393.208	518.94
393.433	523.94
393.658	511.94
393.882	475.94
394.107	505.94
394.331	487.94
394.556	495.94
394.78	514.94
395.005	496.94
395.229	499.94
395.454	520.94
395.678	518.94
395.903	518.94
396.127	541.94
396.352	547.94
396.576	521.94
396.801	524.94
397.025	538.94
397.249	497.94
397.474	532.94
397.698	526.94
397.922	542.94
398.147	573.94
398.371	571.94
398.595	562.94
398.82	565.94
399.044	549.94
399.268	590.94
399.492	611.94
399.717	669.94
399.941	712.94
400.165	741.94
400.389	734.94
400.613	666.94
400.837	647.94
401.062	597.94
401.286	571.94
401.51	573.94
401.734	573.94
401.958	571.94
402.182	577.94
402.406	604.94
402.63	574.94
402.854	585.94
403.078	588.94
403.302	589.94
403.526	617.94
403.75	601.94
403.974	606.94
404.198	598.94
404.422	602.94
404.645	602.94
404.869	609.94
405.093	651.94
405.317	685.94
405.541	757.94
405.765	679.94
405.988	625.94
406.212	619.94
406.436	649.94
406.66	653.94
406.883	636.94
407.107	666.94
407.331	711.94
407.555	803.94
407.778	784.94
408.002	713.94
408.226	663.94
408.449	660.94
408.673	654.94
408.896	673.94
409.12	736.94
409.344	687.94
409.567	625.94
409.791	612.94
410.014	606.94
410.238	599.94
410.461	602.94
410.685	598.94
410.908	610.94
411.132	683.94
411.355	703.94
411.578	653.94
411.802	628.94
412.025	599.94
412.249	619.94
412.472	657.94
412.695	674.94
412.919	666.94
413.142	610.94
413.365	593.94
413.589	586.94
413.812	571.94
414.035	565.94
414.258	575.94
414.482	568.94
414.705	571.94
414.928	575.94
415.151	562.94
415.374	565.94
415.597	582.94
415.821	579.94
416.044	574.94
416.267	568.94
416.49	559.94
416.713	558.94
416.936	551.94
417.159	567.94
417.382	582.94
417.605	601.94
417.828	572.94
418.051	583.94
418.274	586.94
418.497	580.94
418.72	595.94
418.943	568.94
419.166	571.94
419.389	613.94
419.611	621.94
419.834	576.94
420.057	631.94
420.28	585.94
420.503	595.94
420.726	593.94
420.948	612.94
421.171	654.94
421.394	697.94
421.617	618.94
421.839	594.94
422.062	593.94
422.285	603.94
422.507	662.94
422.73	787.94
422.953	721.94
423.175	650.94
423.398	629.94
423.621	633.94
423.843	632.94
424.066	634.94
424.288	627.94
424.511	652.94
424.733	711.94
424.956	830.94
425.178	779.94
425.401	764.94
425.623	805.94
425.846	684.94
426.068	611.94
426.291	633.94
426.513	637.94
426.735	631.94
426.958	662.94
427.18	784.94
427.402	943.94
427.625	1023.94
427.847	869.94
428.069	795.94
428.292	701.94
428.514	620.94
428.736	616.94
428.958	599.94
429.181	617.94
429.403	597.94
429.625	611.94
429.847	643.94
430.069	709.94
430.292	706.94
430.514	604.94
430.736	604.94
430.958	588.94
431.18	583.94
431.402	577.94
431.624	581.94
431.846	563.94
432.068	570.94
432.29	563.94
432.512	575.94
432.734	582.94
432.956	559.94
433.178	574.94
433.4	589.94
433.622	565.94
433.844	565.94
434.066	551.94
434.287	559.94
434.509	571.94
434.731	613.94
434.953	610.94
435.175	597.94
435.397	616.94
435.618	661.94
435.84	680.94
436.062	797.94
436.284	891.94
436.505	716.94
436.727	636.94
436.949	621.94
437.17	601.94
437.392	596.94
437.614	576.94
437.835	640.94
438.057	741.94
438.278	876.94
438.5	871.94
438.721	964.94
438.943	873.94
439.165	716.94
439.386	657.94
439.608	647.94
439.829	630.94
440.05	684.94
440.272	729.94
440.493	668.94
440.715	615.94
440.936	600.94
441.158	593.94
441.379	612.94
441.6	597.94
441.822	618.94
442.043	679.94
442.264	809.94
442.486	828.94
442.707	704.94
442.928	659.94
443.149	678.94
443.371	673.94
443.592	763.94
443.813	843.94
444.034	911.94
444.255	764.94
444.476	679.94
444.698	666.94
444.919	647.94
445.14	746.94
445.361	690.94
445.582	716.94
445.803	754.94
446.024	892.94
446.245	907.94
446.466	811.94
446.687	679.94
446.908	630.94
447.129	615.94
447.35	567.94
447.571	588.94
447.792	583.94
448.013	584.94
448.234	614.94
448.455	668.94
448.675	820.94
448.896	905.94
449.117	780.94
449.338	720.94
449.559	875.94
449.779	969.94
450	778.94
450.221	631.94
450.442	583.94
450.662	586.94
450.883	581.94
451.104	588.94
451.324	570.94
451.545	548.94
451.766	516.94
451.986	522.94
452.207	512.94
452.428	527.94
452.648	514.94
452.869	527.94
453.089	515.94
453.31	545.94
453.53	531.94
453.751	526.94
453.971	541.94
454.192	531.94
454.412	545.94
454.633	516.94
454.853	507.94
455.073	500.94
455.294	557.94
455.514	629.94
455.734	603.94
455.955	523.94
456.175	501.94
456.395	513.94
456.616	492.94
456.836	488.94
457.056	464.94
457.276	471.94
457.497	497.94
457.717	499.94
457.937	499.94
458.157	516.94
458.377	522.94
458.598	538.94
458.818	612.94
459.038	676.94
459.258	699.94
459.478	610.94
459.698	547.94
459.918	547.94
460.138	582.94
460.358	556.94
460.578	570.94
460.798	584.94
461.018	576.94
461.238	590.94
461.458	583.94
461.678	539.94
461.898	566.94
462.118	586.94
462.338	582.94
462.558	569.94
462.777	639.94
462.997	617.94
463.217	603.94
463.437	648.94
463.657	615.94
463.876	613.94
464.096	605.94
464.316	614.94
464.536	607.94
464.755	614.94
464.975	584.94
465.195	639.94
465.414	707.94
465.634	673.94
465.854	601.94
466.073	569.94
466.293	559.94
466.512	555.94
466.732	561.94
466.951	561.94
467.171	528.94
467.391	537.94
467.61	546.94
467.829	544.94
468.049	539.94
468.268	538.94
468.488	558.94
468.707	536.94
468.927	541.94
469.146	537.94
469.365	552.94
469.585	521.94
469.804	571.94
470.023	542.94
470.243	581.94
470.462	552.94
470.681	562.94
470.901	564.94
471.12	539.94
471.339	538.94
471.558	549.94
471.777	547.94
471.997	544.94
472.216	553.94
472.435	575.94
472.654	587.94
472.873	545.94
473.092	555.94
473.311	552.94
473.53	527.94
473.749	562.94
473.968	601.94
474.187	712.94
474.406	757.94
474.625	623.94
474.844	552.94
475.063	547.94
475.282	550.94
475.501	537.94
475.72	557.94
475.939	573.94
476.158	560.94
476.377	561.94
476.596	537.94
476.814	563.94
477.033	577.94
477.252	588.94
477.471	570.94
477.69	593.94
477.908	597.94
478.127	587.94
478.346	601.94
478.564	604.94
478.783	623.94
479.002	623.94
479.22	652.94
479.439	651.94
479.658	663.94
479.876	671.94
480.095	654.94
480.313	681.94
480.532	697.94
480.751	685.94
480.969	696.94
481.188	735.94
481.406	789.94
481.624	717.94
481.843	699.94
482.061	681.94
482.28	667.94
482.498	650.94
482.717	649.94
482.935	651.94
483.153	633.94
483.372	637.94
483.59	644.94
483.808	637.94
484.027	653.94
484.245	651.94
484.463	643.94
484.681	686.94
484.9	653.94
485.118	647.94
485.336	680.94
485.554	668.94
485.772	696.94
485.99	659.94
486.209	664.94
486.427	672.94
486.645	691.94
486.863	719.94
487.081	707.94
487.299	711.94
487.517	688.94
487.735	694.94
487.953	699.94
488.171	692.94
488.389	684.94
488.607	684.94
488.825	705.94
489.043	714.94
489.261	693.94
489.479	708.94
489.696	699.94
489.914	722.94
490.132	740.94
490.35	723.94
490.568	727.94
490.786	733.94
491.003	755.94
491.221	799.94
491.439	758.94
491.657	769.94
491.874	780.94
492.092	800.94
492.31	806.94
492.527	817.94
492.745	818.94
492.963	832.94
493.18	843.94
493.398	814.94
493.615	854.94
493.833	836.94
494.05	853.94
494.268	819.94
494.485	819.94
494.703	825.94
494.92	828.94
495.138	799.94
495.355	832.94
495.573	841.94
495.79	833.94
496.008	842.94
496.225	814.94
496.442	817.94
496.66	832.94
496.877	827.94
497.094	849.94
497.312	841.94
497.529	866.94
497.746	885.94
497.963	873.94
498.181	914.94
498.398	923.94
498.615	915.94
498.832	920.94
499.049	961.94
499.267	981.94
499.484	1042.94
499.701	1058.94
499.918	1061.94
500.135	1162.94
500.352	1201.94
500.569	1202.94
500.786	1215.94
501.003	1191.94
501.22	1173.94
501.437	1114.94
501.654	1111.94
501.871	1065.94
502.088	1027.94
502.305	989.94
502.522	983.94
502.739	969.94
502.956	903.94
503.172	910.94
503.389	840.94
503.606	859.94
503.823	885.94
504.04	868.94
504.256	883.94
504.473	828.94
504.69	854.94
504.907	852.94
505.123	854.94
505.34	817.94
505.557	807.94
505.773	787.94
505.99	791.94
506.207	780.94
506.423	792.94
506.64	820.94
506.856	797.94
507.073	773.94
507.289	758.94
507.506	769.94
507.722	769.94
507.939	787.94
508.155	767.94
508.372	760.94
508.588	716.94
508.805	727.94
509.021	746.94
509.238	766.94
509.454	788.94
509.67	739.94
509.887	731.94
510.103	739.94
510.319	757.94
510.536	847.94
510.752	1321.94
510.968	1101.94
511.184	764.94
511.401	716.94
511.617	723.94
511.833	709.94
512.049	680.94
512.265	695.94
512.481	693.94
512.698	699.94
512.914	701.94
513.13	702.94
513.346	682.94
513.562	679.94
513.778	690.94
513.994	709.94
514.21	727.94
514.426	729.94
514.642	771.94
514.858	806.94
515.074	808.94
515.29	979.94
515.506	1319.94
515.721	1137.94
515.937	819.94
516.153	779.94
516.369	721.94
516.585	749.94
516.801	726.94
517.016	720.94
517.232	725.94
517.448	733.94
517.664	734.94
517.879	713.94
518.095	743.94
518.311	735.94
518.527	699.94
518.742	722.94
518.958	707.94
519.173	721.94
519.389	687.94
519.605	696.94
519.82	689.94
520.036	714.94
520.251	727.94
520.467	755.94
520.682	751.94
520.898	778.94
521.113	797.94
521.329	810.94
521.544	884.94
521.76	1092.94
521.975	1765.94
522.19	1665.94
522.406	990.94
522.621	758.94
522.836	733.94
523.052	703.94
523.267	663.94
523.482	620.94
523.698	629.94
523.913	646.94
524.128	639.94
524.343	641.94
524.559	617.94
524.774	608.94
524.989	601.94
525.204	621.94
525.419	587.94
525.634	597.94
525.849	588.94
526.064	616.94
526.28	577.94
526.495	594.94
526.71	569.94
526.925	575.94
527.14	582.94
527.355	595.94
527.57	570.94
527.785	559.94
527.999	581.94
528.214	590.94
528.429	594.94
528.644	577.94
528.859	574.94
529.074	583.94
529.289	611.94
529.503	658.94
529.718	636.94
529.933	599.94
530.148	596.94
530.363	577.94
530.577	590.94
530.792	570.94
531.007	565.94
531.221	588.94
531.436	581.94
531.651	577.94
531.865	564.94
532.08	555.94
532.295	555.94
532.509	548.94
532.724	542.94
532.938	559.94
533.153	567.94
533.367	561.94
533.582	552.94
533.796	554.94
534.011	535.94
534.225	570.94
534.44	544.94
534.654	521.94
534.868	552.94
535.083	554.94
535.297	553.94
535.511	556.94
535.726	544.94
535.94	569.94
536.154	549.94
536.369	555.94
536.583	530.94
536.797	547.94
537.011	537.94
537.225	537.94
537.44	549.94
537.654	526.94
537.868	538.94
538.082	526.94
538.296	540.94
538.51	532.94
538.724	531.94
538.938	559.94
539.153	537.94
539.367	572.94
539.581	559.94
539.795	545.94
540.009	538.94
540.222	531.94
540.436	531.94
540.65	554.94
540.864	537.94
541.078	525.94
541.292	541.94
541.506	542.94
541.72	522.94
541.934	527.94
542.147	515.94
542.361	527.94
542.575	518.94
542.789	537.94
543.002	514.94
543.216	528.94
543.43	536.94
543.644	495.94
543.857	531.94
544.071	529.94
544.285	510.94
544.498	509.94
544.712	503.94
544.925	527.94
545.139	516.94
545.352	511.94
545.566	505.94
545.779	515.94
545.993	504.94
546.206	503.94
546.42	521.94
546.633	516.94
546.847	509.94
547.06	483.94
547.274	495.94
547.487	502.94
547.7	513.94
547.914	486.94
548.127	515.94
548.34	503.94
548.554	506.94
548.767	500.94
548.98	518.94
549.193	493.94
549.407	498.94
549.62	482.94
549.833	500.94
550.046	509.94
550.259	506.94
550.473	494.94
550.686	507.94
550.899	489.94
551.112	468.94
551.325	512.94
551.538	507.94
551.751	500.94
551.964	481.94
552.177	487.94
552.39	482.94
552.603	488.94
552.816	498.94
553.029	503.94
553.242	501.94
553.455	519.94
553.667	510.94
553.88	529.94
554.093	517.94
554.306	516.94
554.519	502.94
554.732	516.94
554.944	504.94
555.157	475.94
555.37	493.94
555.583	475.94
555.795	478.94
556.008	486.94
556.221	477.94
556.433	463.94
556.646	452.94
556.859	451.94
557.071	453.94
557.284	445.94
557.496	486.94
557.709	447.94
557.921	437.94
558.134	437.94
558.346	451.94
558.559	453.94
558.771	453.94
558.984	433.94
559.196	443.94
559.409	438.94
559.621	446.94
559.833	439.94
560.046	444.94
560.258	442.94
560.47	444.94
560.683	444.94
560.895	439.94
561.107	441.94
561.32	452.94
561.532	449.94
561.744	469.94
561.956	433.94
562.168	446.94
562.381	462.94
562.593	472.94
562.805	437.94
563.017	459.94
563.229	440.94
563.441	442.94
563.653	456.94
563.865	451.94
564.077	459.94
564.289	459.94
564.501	460.94
564.713	479.94
564.925	470.94
565.137	473.94
565.349	492.94
565.561	496.94
565.773	514.94
565.985	523.94
566.197	531.94
566.408	503.94
566.62	524.94
566.832	538.94
567.044	562.94
567.255	559.94
567.467	552.94
567.679	571.94
567.891	573.94
568.102	584.94
568.314	586.94
568.526	544.94
568.737	520.94
568.949	524.94
569.161	487.94
569.372	479.94
569.584	483.94
569.795	472.94
570.007	464.94
570.218	479.94
570.43	495.94
570.641	441.94
570.853	443.94
571.064	438.94
571.276	441.94
571.487	441.94
571.698	434.94
571.91	457.94
572.121	433.94
572.333	397.94
572.544	394.94
572.755	409.94
572.966	390.94
573.178	406.94
573.389	393.94
573.6	393.94
573.811	383.94
574.023	393.94
574.234	390.94
574.445	393.94
574.656	389.94
574.867	377.94
575.078	380.94
575.289	374.94
575.501	395.94
575.712	379.94
575.923	386.94
576.134	372.94
576.345	356.94
576.556	397.94
576.767	381.94
576.978	389.94
577.188	394.94
577.399	381.94
577.61	377.94
577.821	375.94
578.032	395.94
578.243	418.94
578.454	600.94
578.665	461.94
578.875	383.94
579.086	360.94
579.297	375.94
579.508	375.94
579.718	362.94
579.929	358.94
580.14	341.94
580.35	343.94
580.561	360.94
580.772	341.94
580.982	356.94
581.193	342.94
581.403	345.94
581.614	338.94
581.825	362.94
582.035	333.94
582.246	339.94
582.456	355.94
582.667	331.94
582.877	342.94
583.087	345.94
583.298	366.94
583.508	347.94
583.719	356.94
583.929	343.94
584.139	359.94
584.35	347.94
584.56	350.94
584.77	364.94
584.981	339.94
585.191	368.94
585.401	310.94
585.611	336.94
585.821	337.94
586.032	333.94
586.242	341.94
586.452	347.94
586.662	358.94
586.872	342.94
587.082	330.94
587.292	337.94
587.502	326.94
587.713	324.94
587.923	311.94
588.133	314.94
588.343	324.94
588.553	344.94
588.762	352.94
588.972	326.94
589.182	331.94
589.392	302.94
589.602	344.94
589.812	334.94
590.022	325.94
590.232	344.94
590.441	322.94
590.651	316.94
590.861	327.94
591.071	335.94
591.281	341.94
591.49	337.94
591.7	354.94
591.91	337.94
592.119	337.94
592.329	340.94
592.539	354.94
592.748	345.94
592.958	358.94
593.167	362.94
593.377	357.94
593.587	363.94
593.796	363.94
594.006	367.94
594.215	375.94
594.424	345.94
594.634	365.94
594.843	339.94
595.053	363.94
595.262	360.94
595.472	322.94
595.681	340.94
595.89	327.94
596.1	340.94
596.309	320.94
596.518	305.94
596.727	320.94
596.937	303.94
597.146	319.94
597.355	312.94
597.564	319.94
597.774	305.94
597.983	301.94
598.192	315.94
598.401	308.94
598.61	307.94
598.819	297.94
599.028	286.94
599.237	298.94
599.446	301.94
599.655	295.94
599.864	311.94
600.073	306.94
600.282	287.94
600.491	293.94
600.7	283.94
600.909	309.94
601.118	311.94
601.327	281.94
601.536	312.94
601.745	290.94
601.953	291.94
602.162	281.94
602.371	293.94
602.58	281.94
602.789	308.94
602.997	283.94
603.206	314.94
603.415	288.94
603.623	290.94
603.832	259.94
604.041	284.94
604.249	277.94
604.458	281.94
604.666	278.94
604.875	275.94
605.084	272.94
605.292	283.94
605.501	292.94
605.709	281.94
605.918	277.94
606.126	269.94
606.334	269.94
606.543	294.94
606.751	263.94
606.96	283.94
607.168	277.94
607.376	287.94
607.585	285.94
607.793	287.94
608.001	265.94
608.21	282.94
608.418	265.94
608.626	271.94
608.834	266.94
609.043	271.94
609.251	266.94
609.459	269.94
609.667	281.94
609.875	261.94
610.083	266.94
610.291	273.94
610.499	276.94
610.707	261.94
610.916	267.94
611.124	277.94
611.332	270.94
611.54	275.94
611.748	274.94
611.955	275.94
612.163	274.94
612.371	259.94
612.579	248.94
612.787	278.94
612.995	273.94
613.203	270.94
613.411	262.94
613.618	259.94
613.826	265.94
614.034	248.94
614.242	243.94
614.449	261.94
614.657	245.94
614.865	296.94
615.072	266.94
615.28	267.94
615.488	275.94
615.695	259.94
615.903	256.94
616.111	255.94
616.318	268.94
616.526	247.94
616.733	267.94
616.941	271.94
617.148	257.94
617.356	266.94
617.563	290.94
617.771	266.94
617.978	289.94
618.185	264.94
618.393	249.94
618.6	259.94
618.807	250.94
619.015	256.94
619.222	257.94
619.429	256.94
619.637	262.94
619.844	263.94
620.051	259.94
620.258	257.94
620.466	253.94
620.673	252.94
620.88	239.94
621.087	251.94
621.294	244.94
621.501	258.94
621.708	239.94
621.915	224.94
622.122	254.94
622.329	249.94
622.536	255.94
622.743	240.94
622.95	244.94
623.157	238.94
623.364	230.94
623.571	239.94
623.778	251.94
623.985	251.94
624.192	244.94
624.399	227.94
624.606	228.94
624.812	233.94
625.019	219.94
625.226	245.94
625.433	244.94
625.639	242.94
625.846	240.94
626.053	220.94
626.259	232.94
626.466	230.94
626.673	240.94
626.879	224.94
627.086	223.94
627.293	237.94
627.499	228.94
627.706	242.94
627.912	216.94
628.119	224.94
628.325	228.94
628.532	232.94
628.738	216.94
628.945	213.94
629.151	217.94
629.357	198.94
629.564	207.94
629.77	209.94
629.976	218.94
630.183	209.94
630.389	219.94
630.595	223.94
630.802	237.94
631.008	212.94
631.214	204.94
631.42	213.94
631.627	229.94
631.833	217.94
632.039	212.94
632.245	211.94
632.451	198.94
632.657	208.94
632.863	208.94
633.069	203.94
633.275	207.94
633.481	206.94
633.688	202.94
633.893	202.94
634.099	198.94
634.305	206.94
634.511	209.94
634.717	206.94
634.923	195.94
635.129	204.94
635.335	195.94
635.541	208.94
635.747	199.94
635.952	205.94
636.158	199.94
636.364	196.94
636.57	218.94
636.775	201.94
636.981	209.94
637.187	200.94
637.392	195.94
637.598	205.94
637.804	186.94
638.009	188.94
638.215	180.94
638.421	192.94
638.626	199.94
638.832	179.94
639.037	189.94
639.243	186.94
639.448	184.94
639.654	190.94
639.859	187.94
640.065	190.94
640.27	177.94
640.475	181.94
640.681	180.94
640.886	187.94
641.091	182.94
641.297	180.94
641.502	196.94
641.707	180.94
641.913	193.94
642.118	181.94
642.323	175.94
642.528	188.94
642.733	185.94
642.939	187.94
643.144	184.94
643.349	181.94
643.554	185.94
643.759	172.94
643.964	187.94
644.169	180.94
644.374	178.94
644.579	183.94
644.784	188.94
644.989	180.94
645.194	194.94
645.399	171.94
645.604	184.94
645.809	184.94
646.014	193.94
646.219	167.94
646.423	163.94
646.628	165.94
646.833	196.94
647.038	194.94
647.243	185.94
647.447	177.94
647.652	179.94
647.857	181.94
648.062	209.94
648.266	202.94
648.471	175.94
648.676	177.94
648.88	191.94
649.085	173.94
649.289	189.94
649.494	203.94
649.698	201.94
649.903	212.94
650.107	182.94
650.312	178.94
650.516	173.94
650.721	167.94
650.925	161.94
651.13	162.94
651.334	160.94
651.539	146.94
651.743	160.94
651.947	155.94
652.152	151.94
652.356	160.94
652.56	147.94
652.764	157.94
652.969	162.94
653.173	148.94
653.377	155.94
653.581	147.94
653.785	132.94
653.99	152.94
654.194	133.94
654.398	152.94
654.602	163.94
654.806	143.94
655.01	163.94
655.214	150.94
655.418	152.94
655.622	150.94
655.826	153.94
656.03	134.94
656.234	153.94
656.438	144.94
656.642	155.94
656.846	158.94
657.049	125.94
657.253	139.94
657.457	126.94
657.661	118.94
657.865	126.94
658.068	118.94
658.272	114.94
658.476	119.94
658.68	117.94
658.883	110.94
659.087	100.94
659.291	93.94
659.494	96.94
659.698	107.94
659.901	93.94
660.105	92.94
660.309	95.94
660.512	103.94
660.716	94.94
660.919	86.94
661.123	93.94
661.326	93.94
661.53	82.94
661.733	73.94
661.936	77.94
662.14	76.94
662.343	83.94
662.546	89.94
662.75	78.94
662.953	80.94
663.156	70.94
663.36	89.94
663.563	94.94
663.766	91.94
663.969	76.94
664.173	83.94
664.376	92.94
664.579	75.94
664.782	82.94
664.985	88.94
665.188	87.94
665.391	76.94
665.594	89.94
665.797	77.94
666	81.94
666.203	71.94
666.406	90.94
666.609	74.94
666.812	71.94
667.015	73.94
667.218	75.94
667.421	83.94
667.624	97.94
667.827	96.94
668.03	84.94
668.232	80.94
668.435	92.94
668.638	67.94
668.841	84.94
669.043	82.94
669.246	84.94
669.449	84.94
669.651	74.94
669.854	77.94
670.057	89.94
670.259	88.94
670.462	81.94
670.665	77.94
670.867	84.94
671.07	84.94
671.272	90.94
671.475	87.94
671.677	92.94
671.88	82.94
672.082	71.94
672.284	89.94
672.487	78.94
672.689	85.94
672.892	76.94
