Data from 1966.PennyLincolnUp.Lamp.En5.5.200Scan.071719.P1.Scan2.head_HRD10591_14-18-29-192.txt Node
Date: Thu Jul 18 14:18:29 EDT 2019
User: cochatt
Spectrometer: HR+D1059
Trigger mode: 1
Integration Time (sec): 1.000000E-1
Scans to average: 1
Electric dark correction enabled: true
Nonlinearity correction enabled: false
Boxcar width: 0
XAxis mode: Wavelengths
Number of Pixels in Spectrum: 2048
>>>>>Begin Spectral Data<<<<<
223.165	-15.25
223.4	-15.25
223.635	-15.25
223.869	-12.25
224.104	-23.25
224.338	-26.25
224.573	-15.25
224.808	-17.25
225.042	-11.25
225.277	-8.25
225.511	-2.25
225.746	0.75
225.98	8.75
226.215	24.75
226.449	23.75
226.683	28.75
226.918	25.75
227.152	18.75
227.387	16.75
227.621	40.75
227.856	23.75
228.09	43.75
228.324	47.75
228.559	47.75
228.793	48.75
229.027	97.75
229.262	101.75
229.496	118.75
229.73	147.75
229.964	138.75
230.199	121.75
230.433	102.75
230.667	112.75
230.901	122.75
231.136	114.75
231.37	106.75
231.604	114.75
231.838	110.75
232.072	109.75
232.306	112.75
232.541	115.75
232.775	113.75
233.009	107.75
233.243	118.75
233.477	110.75
233.711	106.75
233.945	120.75
234.179	122.75
234.413	104.75
234.647	105.75
234.881	118.75
235.115	119.75
235.349	125.75
235.583	122.75
235.817	121.75
236.051	135.75
236.285	124.75
236.519	121.75
236.753	117.75
236.987	142.75
237.221	171.75
237.455	250.75
237.689	174.75
237.922	145.75
238.156	138.75
238.39	129.75
238.624	124.75
238.858	130.75
239.091	116.75
239.325	132.75
239.559	123.75
239.793	135.75
240.027	142.75
240.26	137.75
240.494	171.75
240.728	158.75
240.961	147.75
241.195	143.75
241.429	138.75
241.662	131.75
241.896	141.75
242.13	124.75
242.363	118.75
242.597	130.75
242.83	135.75
243.064	137.75
243.298	141.75
243.531	123.75
243.765	132.75
243.998	151.75
244.232	144.75
244.465	141.75
244.699	151.75
244.932	162.75
245.166	146.75
245.399	145.75
245.633	131.75
245.866	135.75
246.099	153.75
246.333	144.75
246.566	163.75
246.8	142.75
247.033	172.75
247.266	144.75
247.5	165.75
247.733	166.75
247.966	174.75
248.2	172.75
248.433	141.75
248.666	183.75
248.899	191.75
249.133	198.75
249.366	214.75
249.599	198.75
249.832	180.75
250.066	193.75
250.299	180.75
250.532	207.75
250.765	204.75
250.998	242.75
251.231	217.75
251.465	218.75
251.698	219.75
251.931	202.75
252.164	190.75
252.397	195.75
252.63	210.75
252.863	199.75
253.096	219.75
253.329	238.75
253.562	235.75
253.795	231.75
254.028	222.75
254.261	204.75
254.494	232.75
254.727	263.75
254.96	270.75
255.193	264.75
255.426	250.75
255.659	228.75
255.892	206.75
256.124	230.75
256.357	254.75
256.59	232.75
256.823	239.75
257.056	227.75
257.289	211.75
257.521	201.75
257.754	220.75
257.987	219.75
258.22	198.75
258.452	207.75
258.685	200.75
258.918	193.75
259.151	210.75
259.383	223.75
259.616	210.75
259.849	219.75
260.081	221.75
260.314	265.75
260.547	266.75
260.779	255.75
261.012	231.75
261.244	240.75
261.477	222.75
261.71	202.75
261.942	223.75
262.175	238.75
262.407	239.75
262.64	222.75
262.872	227.75
263.105	201.75
263.337	225.75
263.57	212.75
263.802	206.75
264.035	221.75
264.267	217.75
264.499	210.75
264.732	225.75
264.964	209.75
265.197	203.75
265.429	197.75
265.661	207.75
265.894	228.75
266.126	220.75
266.358	216.75
266.591	216.75
266.823	222.75
267.055	218.75
267.287	239.75
267.52	229.75
267.752	228.75
267.984	216.75
268.216	233.75
268.448	230.75
268.681	242.75
268.913	253.75
269.145	259.75
269.377	280.75
269.609	292.75
269.841	280.75
270.073	266.75
270.306	311.75
270.538	314.75
270.77	318.75
271.002	311.75
271.234	313.75
271.466	307.75
271.698	325.75
271.93	331.75
272.162	311.75
272.394	327.75
272.626	310.75
272.858	295.75
273.09	302.75
273.322	274.75
273.553	286.75
273.785	277.75
274.017	257.75
274.249	276.75
274.481	271.75
274.713	266.75
274.945	284.75
275.176	296.75
275.408	273.75
275.64	265.75
275.872	263.75
276.104	259.75
276.335	266.75
276.567	274.75
276.799	287.75
277.031	312.75
277.262	323.75
277.494	338.75
277.726	311.75
277.957	286.75
278.189	275.75
278.421	273.75
278.652	271.75
278.884	275.75
279.115	278.75
279.347	284.75
279.579	274.75
279.81	263.75
280.042	251.75
280.273	286.75
280.505	282.75
280.736	268.75
280.968	272.75
281.199	279.75
281.431	274.75
281.662	275.75
281.894	275.75
282.125	290.75
282.356	279.75
282.588	294.75
282.819	293.75
283.051	284.75
283.282	259.75
283.513	268.75
283.745	280.75
283.976	278.75
284.207	279.75
284.439	283.75
284.67	284.75
284.901	290.75
285.132	315.75
285.364	265.75
285.595	276.75
285.826	274.75
286.057	285.75
286.288	282.75
286.52	294.75
286.751	303.75
286.982	302.75
287.213	287.75
287.444	313.75
287.675	278.75
287.906	302.75
288.138	310.75
288.369	311.75
288.6	306.75
288.831	298.75
289.062	293.75
289.293	298.75
289.524	294.75
289.755	299.75
289.986	316.75
290.217	282.75
290.448	292.75
290.679	296.75
290.91	308.75
291.141	303.75
291.371	287.75
291.602	302.75
291.833	276.75
292.064	302.75
292.295	291.75
292.526	302.75
292.757	309.75
292.987	298.75
293.218	308.75
293.449	299.75
293.68	303.75
293.91	307.75
294.141	289.75
294.372	291.75
294.603	297.75
294.833	299.75
295.064	308.75
295.295	298.75
295.525	318.75
295.756	319.75
295.987	320.75
296.217	334.75
296.448	328.75
296.679	315.75
296.909	295.75
297.14	308.75
297.37	308.75
297.601	307.75
297.831	299.75
298.062	314.75
298.292	320.75
298.523	327.75
298.753	320.75
298.984	326.75
299.214	310.75
299.445	334.75
299.675	310.75
299.905	326.75
300.136	316.75
300.366	313.75
300.597	316.75
300.827	307.75
301.057	332.75
301.288	344.75
301.518	350.75
301.748	327.75
301.979	327.75
302.209	346.75
302.439	346.75
302.669	311.75
302.9	340.75
303.13	321.75
303.36	326.75
303.59	338.75
303.82	360.75
304.051	367.75
304.281	333.75
304.511	346.75
304.741	334.75
304.971	331.75
305.201	337.75
305.431	326.75
305.661	354.75
305.891	342.75
306.121	340.75
306.352	346.75
306.582	346.75
306.812	344.75
307.042	356.75
307.272	339.75
307.502	339.75
307.731	366.75
307.961	352.75
308.191	338.75
308.421	345.75
308.651	344.75
308.881	376.75
309.111	356.75
309.341	351.75
309.571	357.75
309.8	359.75
310.03	361.75
310.26	377.75
310.49	378.75
310.72	391.75
310.949	399.75
311.179	410.75
311.409	376.75
311.639	373.75
311.868	402.75
312.098	382.75
312.328	397.75
312.557	400.75
312.787	407.75
313.017	433.75
313.246	415.75
313.476	404.75
313.706	379.75
313.935	381.75
314.165	408.75
314.394	402.75
314.624	416.75
314.853	407.75
315.083	386.75
315.312	394.75
315.542	396.75
315.771	377.75
316.001	392.75
316.23	389.75
316.46	379.75
316.689	376.75
316.919	411.75
317.148	394.75
317.377	413.75
317.607	398.75
317.836	405.75
318.065	399.75
318.295	402.75
318.524	395.75
318.753	396.75
318.983	404.75
319.212	384.75
319.441	385.75
319.67	388.75
319.9	404.75
320.129	412.75
320.358	383.75
320.587	402.75
320.816	380.75
321.046	415.75
321.275	408.75
321.504	404.75
321.733	421.75
321.962	434.75
322.191	446.75
322.42	449.75
322.649	467.75
322.878	476.75
323.108	466.75
323.337	487.75
323.566	496.75
323.795	548.75
324.024	585.75
324.253	700.75
324.482	953.75
324.71	1507.75
324.939	2335.75
325.168	2005.75
325.397	988.75
325.626	656.75
325.855	575.75
326.084	512.75
326.313	526.75
326.542	522.75
326.77	572.75
326.999	639.75
327.228	891.75
327.457	1383.75
327.686	1751.75
327.914	1127.75
328.143	731.75
328.372	615.75
328.6	585.75
328.829	592.75
329.058	599.75
329.287	600.75
329.515	559.75
329.744	538.75
329.972	516.75
330.201	538.75
330.43	582.75
330.658	628.75
330.887	626.75
331.115	617.75
331.344	533.75
331.572	493.75
331.801	503.75
332.03	522.75
332.258	481.75
332.486	458.75
332.715	478.75
332.943	454.75
333.172	471.75
333.4	480.75
333.629	480.75
333.857	507.75
334.085	512.75
334.314	511.75
334.542	585.75
334.771	587.75
334.999	538.75
335.227	508.75
335.455	480.75
335.684	496.75
335.912	478.75
336.14	457.75
336.369	457.75
336.597	478.75
336.825	480.75
337.053	453.75
337.281	474.75
337.51	465.75
337.738	450.75
337.966	462.75
338.194	487.75
338.422	470.75
338.65	463.75
338.878	453.75
339.106	456.75
339.334	449.75
339.562	452.75
339.79	468.75
340.018	464.75
340.246	456.75
340.474	477.75
340.702	467.75
340.93	444.75
341.158	438.75
341.386	467.75
341.614	449.75
341.842	451.75
342.07	452.75
342.298	439.75
342.526	458.75
342.754	435.75
342.981	442.75
343.209	445.75
343.437	444.75
343.665	438.75
343.893	469.75
344.12	449.75
344.348	465.75
344.576	482.75
344.804	458.75
345.031	467.75
345.259	482.75
345.487	461.75
345.714	481.75
345.942	446.75
346.17	442.75
346.397	425.75
346.625	456.75
346.853	440.75
347.08	435.75
347.308	448.75
347.535	458.75
347.763	450.75
347.99	436.75
348.218	452.75
348.445	459.75
348.673	455.75
348.9	457.75
349.128	436.75
349.355	436.75
349.583	423.75
349.81	425.75
350.037	418.75
350.265	400.75
350.492	425.75
350.72	403.75
350.947	419.75
351.174	457.75
351.402	462.75
351.629	452.75
351.856	442.75
352.083	457.75
352.311	492.75
352.538	476.75
352.765	484.75
352.992	459.75
353.22	449.75
353.447	434.75
353.674	447.75
353.901	449.75
354.128	430.75
354.355	430.75
354.583	395.75
354.81	410.75
355.037	427.75
355.264	418.75
355.491	405.75
355.718	424.75
355.945	420.75
356.172	416.75
356.399	424.75
356.626	431.75
356.853	434.75
357.08	411.75
357.307	397.75
357.534	418.75
357.761	415.75
357.988	425.75
358.215	420.75
358.441	402.75
358.668	426.75
358.895	432.75
359.122	456.75
359.349	450.75
359.576	432.75
359.802	468.75
360.029	481.75
360.256	498.75
360.483	489.75
360.709	452.75
360.936	438.75
361.163	455.75
361.39	454.75
361.616	466.75
361.843	442.75
362.07	448.75
362.296	446.75
362.523	442.75
362.749	457.75
362.976	463.75
363.203	438.75
363.429	423.75
363.656	433.75
363.882	437.75
364.109	418.75
364.335	446.75
364.562	464.75
364.788	408.75
365.015	435.75
365.241	433.75
365.468	447.75
365.694	445.75
365.92	429.75
366.147	442.75
366.373	434.75
366.599	429.75
366.826	433.75
367.052	433.75
367.278	425.75
367.505	424.75
367.731	422.75
367.957	435.75
368.184	446.75
368.41	447.75
368.636	470.75
368.862	464.75
369.089	433.75
369.315	424.75
369.541	420.75
369.767	430.75
369.993	418.75
370.219	445.75
370.445	444.75
370.672	438.75
370.898	436.75
371.124	431.75
371.35	438.75
371.576	424.75
371.802	448.75
372.028	430.75
372.254	455.75
372.48	443.75
372.706	431.75
372.932	434.75
373.158	457.75
373.384	446.75
373.61	428.75
373.835	441.75
374.061	422.75
374.287	434.75
374.513	454.75
374.739	442.75
374.965	452.75
375.191	467.75
375.416	430.75
375.642	440.75
375.868	451.75
376.094	437.75
376.319	419.75
376.545	445.75
376.771	435.75
376.997	421.75
377.222	450.75
377.448	426.75
377.674	463.75
377.899	404.75
378.125	441.75
378.35	426.75
378.576	447.75
378.802	425.75
379.027	448.75
379.253	448.75
379.478	443.75
379.704	438.75
379.929	471.75
380.155	438.75
380.38	438.75
380.606	459.75
380.831	443.75
381.057	434.75
381.282	443.75
381.507	455.75
381.733	472.75
381.958	431.75
382.184	440.75
382.409	452.75
382.634	461.75
382.86	446.75
383.085	469.75
383.31	454.75
383.535	455.75
383.761	458.75
383.986	478.75
384.211	468.75
384.436	462.75
384.662	487.75
384.887	468.75
385.112	459.75
385.337	462.75
385.562	477.75
385.787	469.75
386.013	491.75
386.238	505.75
386.463	494.75
386.688	480.75
386.913	479.75
387.138	481.75
387.363	500.75
387.588	476.75
387.813	479.75
388.038	484.75
388.263	506.75
388.488	487.75
388.713	482.75
388.938	484.75
389.163	480.75
389.387	484.75
389.612	470.75
389.837	467.75
390.062	481.75
390.287	496.75
390.512	480.75
390.736	481.75
390.961	480.75
391.186	501.75
391.411	493.75
391.636	498.75
391.86	510.75
392.085	521.75
392.31	508.75
392.534	504.75
392.759	479.75
392.984	497.75
393.208	472.75
393.433	489.75
393.658	503.75
393.882	503.75
394.107	499.75
394.331	516.75
394.556	510.75
394.78	499.75
395.005	494.75
395.229	514.75
395.454	517.75
395.678	499.75
395.903	531.75
396.127	555.75
396.352	559.75
396.576	526.75
396.801	521.75
397.025	528.75
397.249	507.75
397.474	534.75
397.698	510.75
397.922	551.75
398.147	566.75
398.371	586.75
398.595	568.75
398.82	577.75
399.044	593.75
399.268	610.75
399.492	631.75
399.717	667.75
399.941	707.75
400.165	706.75
400.389	720.75
400.613	644.75
400.837	596.75
401.062	600.75
401.286	565.75
401.51	562.75
401.734	578.75
401.958	582.75
402.182	587.75
402.406	584.75
402.63	588.75
402.854	576.75
403.078	575.75
403.302	589.75
403.526	589.75
403.75	596.75
403.974	600.75
404.198	586.75
404.422	590.75
404.645	588.75
404.869	597.75
405.093	644.75
405.317	706.75
405.541	726.75
405.765	667.75
405.988	645.75
406.212	646.75
406.436	640.75
406.66	695.75
406.883	648.75
407.107	668.75
407.331	703.75
407.555	787.75
407.778	808.75
408.002	730.75
408.226	696.75
408.449	646.75
408.673	663.75
408.896	676.75
409.12	729.75
409.344	707.75
409.567	620.75
409.791	619.75
410.014	602.75
410.238	593.75
410.461	602.75
410.685	597.75
410.908	598.75
411.132	668.75
411.355	689.75
411.578	650.75
411.802	596.75
412.025	611.75
412.249	616.75
412.472	640.75
412.695	664.75
412.919	680.75
413.142	628.75
413.365	579.75
413.589	589.75
413.812	596.75
414.035	572.75
414.258	571.75
414.482	540.75
414.705	570.75
414.928	560.75
415.151	583.75
415.374	563.75
415.597	547.75
415.821	565.75
416.044	555.75
416.267	562.75
416.49	568.75
416.713	570.75
416.936	547.75
417.159	551.75
417.382	554.75
417.605	581.75
417.828	568.75
418.051	591.75
418.274	588.75
418.497	564.75
418.72	550.75
418.943	580.75
419.166	564.75
419.389	616.75
419.611	603.75
419.834	610.75
420.057	616.75
420.28	606.75
420.503	593.75
420.726	596.75
420.948	609.75
421.171	654.75
421.394	695.75
421.617	618.75
421.839	600.75
422.062	578.75
422.285	596.75
422.507	665.75
422.73	786.75
422.953	719.75
423.175	644.75
423.398	611.75
423.621	620.75
423.843	636.75
424.066	642.75
424.288	609.75
424.511	652.75
424.733	728.75
424.956	782.75
425.178	780.75
425.401	751.75
425.623	796.75
425.846	682.75
426.068	628.75
426.291	611.75
426.513	640.75
426.735	642.75
426.958	698.75
427.18	796.75
427.402	931.75
427.625	1048.75
427.847	889.75
428.069	795.75
428.292	689.75
428.514	619.75
428.736	602.75
428.958	607.75
429.181	594.75
429.403	569.75
429.625	606.75
429.847	625.75
430.069	703.75
430.292	677.75
430.514	620.75
430.736	568.75
430.958	572.75
431.18	554.75
431.402	562.75
431.624	544.75
431.846	540.75
432.068	561.75
432.29	556.75
432.512	563.75
432.734	572.75
432.956	567.75
433.178	561.75
433.4	589.75
433.622	578.75
433.844	569.75
434.066	536.75
434.287	577.75
434.509	577.75
434.731	560.75
434.953	582.75
435.175	588.75
435.397	631.75
435.618	644.75
435.84	679.75
436.062	808.75
436.284	893.75
436.505	711.75
436.727	683.75
436.949	618.75
437.17	582.75
437.392	574.75
437.614	594.75
437.835	642.75
438.057	748.75
438.278	858.75
438.5	830.75
438.721	942.75
438.943	902.75
439.165	734.75
439.386	662.75
439.608	665.75
439.829	655.75
440.05	654.75
440.272	713.75
440.493	684.75
440.715	632.75
440.936	600.75
441.158	588.75
441.379	592.75
441.6	610.75
441.822	625.75
442.043	681.75
442.264	747.75
442.486	815.75
442.707	718.75
442.928	659.75
443.149	636.75
443.371	698.75
443.592	739.75
443.813	828.75
444.034	875.75
444.255	768.75
444.476	682.75
444.698	642.75
444.919	650.75
445.14	767.75
445.361	692.75
445.582	667.75
445.803	746.75
446.024	888.75
446.245	898.75
446.466	793.75
446.687	686.75
446.908	630.75
447.129	601.75
447.35	592.75
447.571	605.75
447.792	562.75
448.013	570.75
448.234	616.75
448.455	671.75
448.675	789.75
448.896	908.75
449.117	785.75
449.338	724.75
449.559	865.75
449.779	980.75
450	781.75
450.221	646.75
450.442	612.75
450.662	583.75
450.883	575.75
451.104	607.75
451.324	585.75
451.545	535.75
451.766	528.75
451.986	546.75
452.207	525.75
452.428	524.75
452.648	525.75
452.869	543.75
453.089	524.75
453.31	548.75
453.53	536.75
453.751	503.75
453.971	531.75
454.192	540.75
454.412	516.75
454.633	527.75
454.853	521.75
455.073	535.75
455.294	556.75
455.514	640.75
455.734	614.75
455.955	528.75
456.175	507.75
456.395	519.75
456.616	490.75
456.836	504.75
457.056	466.75
457.276	467.75
457.497	490.75
457.717	498.75
457.937	500.75
458.157	496.75
458.377	501.75
458.598	558.75
458.818	606.75
459.038	705.75
459.258	701.75
459.478	620.75
459.698	587.75
459.918	559.75
460.138	546.75
460.358	568.75
460.578	564.75
460.798	581.75
461.018	594.75
461.238	581.75
461.458	589.75
461.678	562.75
461.898	573.75
462.118	578.75
462.338	596.75
462.558	584.75
462.777	609.75
462.997	622.75
463.217	627.75
463.437	638.75
463.657	648.75
463.876	624.75
464.096	606.75
464.316	619.75
464.536	617.75
464.755	627.75
464.975	626.75
465.195	631.75
465.414	707.75
465.634	652.75
465.854	615.75
466.073	588.75
466.293	558.75
466.512	581.75
466.732	542.75
466.951	544.75
467.171	550.75
467.391	522.75
467.61	531.75
467.829	558.75
468.049	535.75
468.268	555.75
468.488	546.75
468.707	528.75
468.927	521.75
469.146	524.75
469.365	537.75
469.585	532.75
469.804	528.75
470.023	536.75
470.243	549.75
470.462	555.75
470.681	564.75
470.901	578.75
471.12	546.75
471.339	549.75
471.558	539.75
471.777	564.75
471.997	540.75
472.216	551.75
472.435	598.75
472.654	599.75
472.873	523.75
473.092	560.75
473.311	529.75
473.53	544.75
473.749	555.75
473.968	587.75
474.187	728.75
474.406	732.75
474.625	618.75
474.844	551.75
475.063	553.75
475.282	542.75
475.501	562.75
475.72	564.75
475.939	567.75
476.158	574.75
476.377	568.75
476.596	559.75
476.814	567.75
477.033	578.75
477.252	593.75
477.471	579.75
477.69	583.75
477.908	577.75
478.127	597.75
478.346	610.75
478.564	597.75
478.783	611.75
479.002	640.75
479.22	630.75
479.439	648.75
479.658	662.75
479.876	684.75
480.095	689.75
480.313	690.75
480.532	684.75
480.751	660.75
480.969	703.75
481.188	740.75
481.406	770.75
481.624	716.75
481.843	676.75
482.061	660.75
482.28	637.75
482.498	652.75
482.717	640.75
482.935	662.75
483.153	640.75
483.372	634.75
483.59	640.75
483.808	650.75
484.027	622.75
484.245	643.75
484.463	682.75
484.681	662.75
484.9	644.75
485.118	642.75
485.336	667.75
485.554	643.75
485.772	681.75
485.99	688.75
486.209	679.75
486.427	659.75
486.645	666.75
486.863	715.75
487.081	686.75
487.299	694.75
487.517	718.75
487.735	711.75
487.953	674.75
488.171	687.75
488.389	715.75
488.607	696.75
488.825	695.75
489.043	709.75
489.261	708.75
489.479	686.75
489.696	695.75
489.914	732.75
490.132	714.75
490.35	702.75
490.568	751.75
490.786	726.75
491.003	729.75
491.221	755.75
491.439	773.75
491.657	782.75
491.874	786.75
492.092	825.75
492.31	802.75
492.527	804.75
492.745	804.75
492.963	826.75
493.18	798.75
493.398	803.75
493.615	814.75
493.833	814.75
494.05	840.75
494.268	836.75
494.485	838.75
494.703	795.75
494.92	836.75
495.138	823.75
495.355	854.75
495.573	835.75
495.79	818.75
496.008	855.75
496.225	853.75
496.442	842.75
496.66	819.75
496.877	851.75
497.094	842.75
497.312	855.75
497.529	844.75
497.746	867.75
497.963	882.75
498.181	891.75
498.398	895.75
498.615	941.75
498.832	934.75
499.049	963.75
499.267	966.75
499.484	1031.75
499.701	1068.75
499.918	1117.75
500.135	1125.75
500.352	1170.75
500.569	1203.75
500.786	1182.75
501.003	1190.75
501.22	1146.75
501.437	1129.75
501.654	1082.75
501.871	1065.75
502.088	1032.75
502.305	1010.75
502.522	971.75
502.739	960.75
502.956	896.75
503.172	923.75
503.389	881.75
503.606	888.75
503.823	859.75
504.04	870.75
504.256	840.75
504.473	829.75
504.69	835.75
504.907	848.75
505.123	845.75
505.34	835.75
505.557	794.75
505.773	766.75
505.99	781.75
506.207	798.75
506.423	808.75
506.64	789.75
506.856	769.75
507.073	788.75
507.289	789.75
507.506	755.75
507.722	778.75
507.939	781.75
508.155	774.75
508.372	750.75
508.588	743.75
508.805	734.75
509.021	718.75
509.238	747.75
509.454	760.75
509.67	751.75
509.887	743.75
510.103	736.75
510.319	748.75
510.536	833.75
510.752	1281.75
510.968	1091.75
511.184	751.75
511.401	721.75
511.617	724.75
511.833	707.75
512.049	691.75
512.265	674.75
512.481	678.75
512.698	705.75
512.914	704.75
513.13	684.75
513.346	692.75
513.562	706.75
513.778	702.75
513.994	694.75
514.21	715.75
514.426	741.75
514.642	771.75
514.858	809.75
515.074	812.75
515.29	941.75
515.506	1330.75
515.721	1145.75
515.937	832.75
516.153	766.75
516.369	734.75
516.585	732.75
516.801	744.75
517.016	733.75
517.232	720.75
517.448	745.75
517.664	734.75
517.879	736.75
518.095	729.75
518.311	722.75
518.527	737.75
518.742	729.75
518.958	756.75
519.173	721.75
519.389	710.75
519.605	710.75
519.82	709.75
520.036	731.75
520.251	743.75
520.467	754.75
520.682	761.75
520.898	759.75
521.113	761.75
521.329	809.75
521.544	888.75
521.76	1110.75
521.975	1722.75
522.19	1674.75
522.406	978.75
522.621	784.75
522.836	714.75
523.052	670.75
523.267	656.75
523.482	630.75
523.698	633.75
523.913	655.75
524.128	628.75
524.343	632.75
524.559	615.75
524.774	617.75
524.989	607.75
525.204	614.75
525.419	606.75
525.634	612.75
525.849	596.75
526.064	595.75
526.28	593.75
526.495	583.75
526.71	580.75
526.925	607.75
527.14	559.75
527.355	578.75
527.57	570.75
527.785	574.75
527.999	588.75
528.214	562.75
528.429	570.75
528.644	579.75
528.859	584.75
529.074	583.75
529.289	595.75
529.503	675.75
529.718	648.75
529.933	613.75
530.148	580.75
530.363	591.75
530.577	583.75
530.792	573.75
531.007	544.75
531.221	567.75
531.436	577.75
531.651	553.75
531.865	570.75
532.08	549.75
532.295	555.75
532.509	547.75
532.724	546.75
532.938	578.75
533.153	564.75
533.367	542.75
533.582	548.75
533.796	544.75
534.011	556.75
534.225	532.75
534.44	546.75
534.654	550.75
534.868	560.75
535.083	552.75
535.297	535.75
535.511	575.75
535.726	551.75
535.94	545.75
536.154	542.75
536.369	554.75
536.583	529.75
536.797	539.75
537.011	531.75
537.225	542.75
537.44	530.75
537.654	511.75
537.868	506.75
538.082	522.75
538.296	525.75
538.51	539.75
538.724	545.75
538.938	539.75
539.153	531.75
539.367	538.75
539.581	553.75
539.795	529.75
540.009	518.75
540.222	542.75
540.436	535.75
540.65	536.75
540.864	525.75
541.078	536.75
541.292	535.75
541.506	509.75
541.72	533.75
541.934	543.75
542.147	530.75
542.361	525.75
542.575	529.75
542.789	501.75
543.002	514.75
543.216	520.75
543.43	512.75
543.644	545.75
543.857	514.75
544.071	530.75
544.285	539.75
544.498	507.75
544.712	524.75
544.925	516.75
545.139	518.75
545.352	508.75
545.566	526.75
545.779	503.75
545.993	490.75
546.206	521.75
546.42	514.75
546.633	536.75
546.847	516.75
547.06	494.75
547.274	512.75
547.487	507.75
547.7	498.75
547.914	514.75
548.127	523.75
548.34	497.75
548.554	492.75
548.767	514.75
548.98	508.75
549.193	500.75
549.407	497.75
549.62	502.75
549.833	516.75
550.046	518.75
550.259	498.75
550.473	502.75
550.686	500.75
550.899	470.75
551.112	482.75
551.325	478.75
551.538	481.75
551.751	467.75
551.964	507.75
552.177	496.75
552.39	500.75
552.603	501.75
552.816	523.75
553.029	496.75
553.242	505.75
553.455	523.75
553.667	512.75
553.88	538.75
554.093	522.75
554.306	514.75
554.519	507.75
554.732	504.75
554.944	469.75
555.157	469.75
555.37	491.75
555.583	472.75
555.795	487.75
556.008	470.75
556.221	477.75
556.433	454.75
556.646	472.75
556.859	466.75
557.071	441.75
557.284	450.75
557.496	452.75
557.709	470.75
557.921	446.75
558.134	448.75
558.346	454.75
558.559	450.75
558.771	438.75
558.984	440.75
559.196	437.75
559.409	448.75
559.621	463.75
559.833	434.75
560.046	438.75
560.258	448.75
560.47	457.75
560.683	452.75
560.895	443.75
561.107	454.75
561.32	451.75
561.532	424.75
561.744	438.75
561.956	438.75
562.168	428.75
562.381	467.75
562.593	453.75
562.805	440.75
563.017	448.75
563.229	456.75
563.441	446.75
563.653	461.75
563.865	440.75
564.077	454.75
564.289	450.75
564.501	456.75
564.713	468.75
564.925	476.75
565.137	489.75
565.349	465.75
565.561	485.75
565.773	493.75
565.985	510.75
566.197	518.75
566.408	512.75
566.62	536.75
566.832	576.75
567.044	568.75
567.255	577.75
567.467	574.75
567.679	583.75
567.891	588.75
568.102	602.75
568.314	585.75
568.526	563.75
568.737	542.75
568.949	534.75
569.161	490.75
569.372	499.75
569.584	491.75
569.795	478.75
570.007	460.75
570.218	482.75
570.43	495.75
570.641	456.75
570.853	449.75
571.064	454.75
571.276	454.75
571.487	442.75
571.698	432.75
571.91	431.75
572.121	433.75
572.333	422.75
572.544	422.75
572.755	409.75
572.966	418.75
573.178	415.75
573.389	397.75
573.6	391.75
573.811	391.75
574.023	405.75
574.234	383.75
574.445	403.75
574.656	386.75
574.867	398.75
575.078	393.75
575.289	380.75
575.501	365.75
575.712	375.75
575.923	382.75
576.134	394.75
576.345	391.75
576.556	362.75
576.767	382.75
576.978	378.75
577.188	394.75
577.399	390.75
577.61	381.75
577.821	363.75
578.032	368.75
578.243	412.75
578.454	637.75
578.665	474.75
578.875	386.75
579.086	384.75
579.297	375.75
579.508	356.75
579.718	362.75
579.929	366.75
580.14	354.75
580.35	356.75
580.561	369.75
580.772	371.75
580.982	353.75
581.193	336.75
581.403	351.75
581.614	351.75
581.825	355.75
582.035	359.75
582.246	325.75
582.456	348.75
582.667	343.75
582.877	351.75
583.087	362.75
583.298	337.75
583.508	333.75
583.719	327.75
583.929	361.75
584.139	342.75
584.35	343.75
584.56	329.75
584.77	337.75
584.981	350.75
585.191	346.75
585.401	352.75
585.611	357.75
585.821	346.75
586.032	336.75
586.242	345.75
586.452	333.75
586.662	351.75
586.872	329.75
587.082	347.75
587.292	332.75
587.502	335.75
587.713	336.75
587.923	337.75
588.133	345.75
588.343	319.75
588.553	323.75
588.762	330.75
588.972	330.75
589.182	346.75
589.392	366.75
589.602	342.75
589.812	355.75
590.022	362.75
590.232	327.75
590.441	326.75
590.651	332.75
590.861	337.75
591.071	331.75
591.281	338.75
591.49	344.75
591.7	346.75
591.91	346.75
592.119	330.75
592.329	347.75
592.539	360.75
592.748	370.75
592.958	355.75
593.167	353.75
593.377	352.75
593.587	368.75
593.796	359.75
594.006	370.75
594.215	340.75
594.424	342.75
594.634	366.75
594.843	344.75
595.053	343.75
595.262	350.75
595.472	346.75
595.681	319.75
595.89	325.75
596.1	334.75
596.309	358.75
596.518	332.75
596.727	321.75
596.937	314.75
597.146	314.75
597.355	304.75
597.564	320.75
597.774	313.75
597.983	306.75
598.192	316.75
598.401	308.75
598.61	328.75
598.819	303.75
599.028	292.75
599.237	304.75
599.446	291.75
599.655	299.75
599.864	303.75
600.073	287.75
600.282	286.75
600.491	309.75
600.7	300.75
600.909	302.75
601.118	298.75
601.327	282.75
601.536	296.75
601.745	276.75
601.953	295.75
602.162	307.75
602.371	276.75
602.58	285.75
602.789	299.75
602.997	295.75
603.206	285.75
603.415	297.75
603.623	288.75
603.832	300.75
604.041	265.75
604.249	290.75
604.458	278.75
604.666	268.75
604.875	287.75
605.084	252.75
605.292	270.75
605.501	284.75
605.709	281.75
605.918	272.75
606.126	274.75
606.334	266.75
606.543	285.75
606.751	259.75
606.96	270.75
607.168	236.75
607.376	279.75
607.585	282.75
607.793	281.75
608.001	274.75
608.21	278.75
608.418	271.75
608.626	278.75
608.834	270.75
609.043	265.75
609.251	285.75
609.459	280.75
609.667	264.75
609.875	262.75
610.083	266.75
610.291	265.75
610.499	269.75
610.707	267.75
610.916	271.75
611.124	265.75
611.332	274.75
611.54	277.75
611.748	290.75
611.955	266.75
612.163	271.75
612.371	275.75
612.579	273.75
612.787	263.75
612.995	264.75
613.203	274.75
613.411	266.75
613.618	274.75
613.826	264.75
614.034	262.75
614.242	264.75
614.449	267.75
614.657	255.75
614.865	264.75
615.072	274.75
615.28	270.75
615.488	249.75
615.695	257.75
615.903	251.75
616.111	260.75
616.318	265.75
616.526	263.75
616.733	262.75
616.941	253.75
617.148	263.75
617.356	269.75
617.563	256.75
617.771	283.75
617.978	246.75
618.185	249.75
618.393	246.75
618.6	274.75
618.807	240.75
619.015	255.75
619.222	246.75
619.429	265.75
619.637	246.75
619.844	246.75
620.051	274.75
620.258	244.75
620.466	238.75
620.673	232.75
620.88	239.75
621.087	227.75
621.294	243.75
621.501	263.75
621.708	261.75
621.915	261.75
622.122	259.75
622.329	228.75
622.536	264.75
622.743	249.75
622.95	249.75
623.157	232.75
623.364	235.75
623.571	249.75
623.778	255.75
623.985	238.75
624.192	210.75
624.399	238.75
624.606	240.75
624.812	222.75
625.019	223.75
625.226	229.75
625.433	236.75
625.639	208.75
625.846	239.75
626.053	222.75
626.259	223.75
626.466	228.75
626.673	233.75
626.879	225.75
627.086	241.75
627.293	218.75
627.499	230.75
627.706	210.75
627.912	234.75
628.119	247.75
628.325	229.75
628.532	201.75
628.738	216.75
628.945	222.75
629.151	215.75
629.357	219.75
629.564	214.75
629.77	231.75
629.976	235.75
630.183	231.75
630.389	216.75
630.595	217.75
630.802	210.75
631.008	210.75
631.214	207.75
631.42	203.75
631.627	214.75
631.833	219.75
632.039	203.75
632.245	202.75
632.451	196.75
632.657	202.75
632.863	211.75
633.069	199.75
633.275	195.75
633.481	192.75
633.688	201.75
633.893	206.75
634.099	206.75
634.305	210.75
634.511	201.75
634.717	193.75
634.923	214.75
635.129	202.75
635.335	190.75
635.541	198.75
635.747	203.75
635.952	202.75
636.158	193.75
636.364	204.75
636.57	209.75
636.775	203.75
636.981	184.75
637.187	197.75
637.392	198.75
637.598	207.75
637.804	220.75
638.009	192.75
638.215	210.75
638.421	190.75
638.626	184.75
638.832	198.75
639.037	203.75
639.243	194.75
639.448	184.75
639.654	192.75
639.859	197.75
640.065	182.75
640.27	175.75
640.475	203.75
640.681	190.75
640.886	181.75
641.091	187.75
641.297	182.75
641.502	182.75
641.707	184.75
641.913	203.75
642.118	190.75
642.323	182.75
642.528	180.75
642.733	199.75
642.939	184.75
643.144	180.75
643.349	183.75
643.554	189.75
643.759	188.75
643.964	167.75
644.169	176.75
644.374	164.75
644.579	192.75
644.784	185.75
644.989	186.75
645.194	181.75
645.399	189.75
645.604	175.75
645.809	188.75
646.014	181.75
646.219	178.75
646.423	199.75
646.628	182.75
646.833	178.75
647.038	178.75
647.243	163.75
647.447	176.75
647.652	194.75
647.857	184.75
648.062	176.75
648.266	184.75
648.471	198.75
648.676	171.75
648.88	167.75
649.085	184.75
649.289	163.75
649.494	186.75
649.698	194.75
649.903	186.75
650.107	173.75
650.312	172.75
650.516	169.75
650.721	170.75
650.925	155.75
651.13	147.75
651.334	164.75
651.539	160.75
651.743	167.75
651.947	159.75
652.152	158.75
652.356	160.75
652.56	150.75
652.764	147.75
652.969	152.75
653.173	160.75
653.377	157.75
653.581	156.75
653.785	147.75
653.99	147.75
654.194	143.75
654.398	138.75
654.602	151.75
654.806	151.75
655.01	163.75
655.214	154.75
655.418	139.75
655.622	154.75
655.826	128.75
656.03	131.75
656.234	128.75
656.438	133.75
656.642	137.75
656.846	136.75
657.049	146.75
657.253	131.75
657.457	119.75
657.661	120.75
657.865	126.75
658.068	108.75
658.272	110.75
658.476	110.75
658.68	107.75
658.883	110.75
659.087	98.75
659.291	92.75
659.494	95.75
659.698	92.75
659.901	106.75
660.105	90.75
660.309	96.75
660.512	91.75
660.716	90.75
660.919	83.75
661.123	78.75
661.326	94.75
661.53	82.75
661.733	91.75
661.936	88.75
662.14	84.75
662.343	86.75
662.546	93.75
662.75	72.75
662.953	90.75
663.156	79.75
663.36	66.75
663.563	82.75
663.766	90.75
663.969	67.75
664.173	78.75
664.376	83.75
664.579	80.75
664.782	68.75
664.985	68.75
665.188	72.75
665.391	83.75
665.594	82.75
665.797	64.75
666	90.75
666.203	75.75
666.406	75.75
666.609	74.75
666.812	71.75
667.015	100.75
667.218	90.75
667.421	70.75
667.624	76.75
667.827	81.75
668.03	83.75
668.232	84.75
668.435	78.75
668.638	80.75
668.841	77.75
669.043	81.75
669.246	86.75
669.449	79.75
669.651	82.75
669.854	75.75
670.057	78.75
670.259	68.75
670.462	76.75
670.665	81.75
670.867	66.75
671.07	67.75
671.272	93.75
671.475	90.75
671.677	84.75
671.88	66.75
672.082	86.75
672.284	75.75
672.487	77.75
672.689	78.75
672.892	66.75
