Data from 1966.PennyLincolnUp.Lamp.En5.5.200Scan.071719.P1.Scan2.head_HRD10591_14-19-39-285.txt Node
Date: Thu Jul 18 14:19:39 EDT 2019
User: cochatt
Spectrometer: HR+D1059
Trigger mode: 1
Integration Time (sec): 1.000000E-1
Scans to average: 1
Electric dark correction enabled: true
Nonlinearity correction enabled: false
Boxcar width: 0
XAxis mode: Wavelengths
Number of Pixels in Spectrum: 2048
>>>>>Begin Spectral Data<<<<<
223.165	-16.94
223.4	-16.94
223.635	-16.94
223.869	-18.94
224.104	-24.94
224.338	-17.94
224.573	6.06
224.808	-4.94
225.042	-9.94
225.277	-15.94
225.511	2.06
225.746	4.06
225.98	10.06
226.215	11.06
226.449	17.06
226.683	9.06
226.918	28.06
227.152	22.06
227.387	32.06
227.621	33.06
227.856	49.06
228.09	60.06
228.324	44.06
228.559	57.06
228.793	75.06
229.027	96.06
229.262	118.06
229.496	125.06
229.73	122.06
229.964	173.06
230.199	124.06
230.433	113.06
230.667	101.06
230.901	121.06
231.136	104.06
231.37	118.06
231.604	115.06
231.838	132.06
232.072	114.06
232.306	104.06
232.541	111.06
232.775	128.06
233.009	134.06
233.243	103.06
233.477	120.06
233.711	115.06
233.945	128.06
234.179	122.06
234.413	114.06
234.647	126.06
234.881	120.06
235.115	117.06
235.349	134.06
235.583	133.06
235.817	117.06
236.051	142.06
236.285	134.06
236.519	140.06
236.753	126.06
236.987	169.06
237.221	192.06
237.455	243.06
237.689	204.06
237.922	138.06
238.156	134.06
238.39	137.06
238.624	129.06
238.858	132.06
239.091	124.06
239.325	130.06
239.559	134.06
239.793	136.06
240.027	130.06
240.26	136.06
240.494	165.06
240.728	157.06
240.961	151.06
241.195	143.06
241.429	134.06
241.662	145.06
241.896	141.06
242.13	143.06
242.363	139.06
242.597	152.06
242.83	142.06
243.064	135.06
243.298	140.06
243.531	148.06
243.765	131.06
243.998	151.06
244.232	140.06
244.465	144.06
244.699	157.06
244.932	148.06
245.166	137.06
245.399	157.06
245.633	152.06
245.866	150.06
246.099	147.06
246.333	165.06
246.566	135.06
246.8	159.06
247.033	143.06
247.266	147.06
247.5	171.06
247.733	156.06
247.966	170.06
248.2	187.06
248.433	187.06
248.666	187.06
248.899	213.06
249.133	212.06
249.366	231.06
249.599	206.06
249.832	193.06
250.066	183.06
250.299	179.06
250.532	197.06
250.765	208.06
250.998	236.06
251.231	246.06
251.465	226.06
251.698	216.06
251.931	214.06
252.164	209.06
252.397	198.06
252.63	209.06
252.863	223.06
253.096	230.06
253.329	220.06
253.562	238.06
253.795	208.06
254.028	204.06
254.261	235.06
254.494	245.06
254.727	274.06
254.96	288.06
255.193	288.06
255.426	267.06
255.659	244.06
255.892	242.06
256.124	240.06
256.357	255.06
256.59	236.06
256.823	208.06
257.056	223.06
257.289	213.06
257.521	218.06
257.754	211.06
257.987	235.06
258.22	227.06
258.452	198.06
258.685	203.06
258.918	209.06
259.151	218.06
259.383	210.06
259.616	232.06
259.849	258.06
260.081	244.06
260.314	264.06
260.547	270.06
260.779	254.06
261.012	250.06
261.244	237.06
261.477	237.06
261.71	214.06
261.942	227.06
262.175	244.06
262.407	249.06
262.64	228.06
262.872	225.06
263.105	198.06
263.337	208.06
263.57	227.06
263.802	233.06
264.035	214.06
264.267	212.06
264.499	204.06
264.732	235.06
264.964	222.06
265.197	226.06
265.429	214.06
265.661	224.06
265.894	226.06
266.126	225.06
266.358	207.06
266.591	232.06
266.823	232.06
267.055	223.06
267.287	226.06
267.52	234.06
267.752	206.06
267.984	245.06
268.216	228.06
268.448	235.06
268.681	237.06
268.913	245.06
269.145	272.06
269.377	292.06
269.609	264.06
269.841	270.06
270.073	281.06
270.306	290.06
270.538	344.06
270.77	328.06
271.002	309.06
271.234	297.06
271.466	310.06
271.698	316.06
271.93	333.06
272.162	333.06
272.394	295.06
272.626	306.06
272.858	299.06
273.09	278.06
273.322	291.06
273.553	290.06
273.785	275.06
274.017	282.06
274.249	261.06
274.481	258.06
274.713	251.06
274.945	266.06
275.176	278.06
275.408	285.06
275.64	266.06
275.872	286.06
276.104	265.06
276.335	281.06
276.567	293.06
276.799	287.06
277.031	310.06
277.262	317.06
277.494	333.06
277.726	303.06
277.957	292.06
278.189	294.06
278.421	274.06
278.652	290.06
278.884	272.06
279.115	296.06
279.347	297.06
279.579	262.06
279.81	284.06
280.042	283.06
280.273	291.06
280.505	285.06
280.736	265.06
280.968	278.06
281.199	269.06
281.431	270.06
281.662	278.06
281.894	273.06
282.125	299.06
282.356	301.06
282.588	330.06
282.819	310.06
283.051	287.06
283.282	275.06
283.513	290.06
283.745	283.06
283.976	298.06
284.207	288.06
284.439	300.06
284.67	302.06
284.901	283.06
285.132	284.06
285.364	296.06
285.595	300.06
285.826	285.06
286.057	273.06
286.288	285.06
286.52	298.06
286.751	282.06
286.982	265.06
287.213	273.06
287.444	297.06
287.675	303.06
287.906	323.06
288.138	330.06
288.369	292.06
288.6	311.06
288.831	316.06
289.062	317.06
289.293	284.06
289.524	278.06
289.755	293.06
289.986	305.06
290.217	299.06
290.448	303.06
290.679	318.06
290.91	298.06
291.141	303.06
291.371	291.06
291.602	282.06
291.833	301.06
292.064	311.06
292.295	301.06
292.526	311.06
292.757	298.06
292.987	310.06
293.218	303.06
293.449	311.06
293.68	307.06
293.91	302.06
294.141	297.06
294.372	303.06
294.603	317.06
294.833	304.06
295.064	299.06
295.295	309.06
295.525	312.06
295.756	318.06
295.987	307.06
296.217	344.06
296.448	335.06
296.679	322.06
296.909	306.06
297.14	320.06
297.37	327.06
297.601	314.06
297.831	310.06
298.062	308.06
298.292	329.06
298.523	327.06
298.753	303.06
298.984	316.06
299.214	302.06
299.445	333.06
299.675	314.06
299.905	342.06
300.136	304.06
300.366	334.06
300.597	340.06
300.827	347.06
301.057	349.06
301.288	371.06
301.518	366.06
301.748	336.06
301.979	346.06
302.209	340.06
302.439	359.06
302.669	344.06
302.9	349.06
303.13	337.06
303.36	351.06
303.59	349.06
303.82	342.06
304.051	334.06
304.281	346.06
304.511	327.06
304.741	335.06
304.971	347.06
305.201	332.06
305.431	340.06
305.661	328.06
305.891	344.06
306.121	342.06
306.352	357.06
306.582	346.06
306.812	343.06
307.042	338.06
307.272	338.06
307.502	339.06
307.731	349.06
307.961	339.06
308.191	345.06
308.421	336.06
308.651	359.06
308.881	346.06
309.111	356.06
309.341	365.06
309.571	360.06
309.8	378.06
310.03	388.06
310.26	373.06
310.49	378.06
310.72	389.06
310.949	416.06
311.179	430.06
311.409	391.06
311.639	373.06
311.868	401.06
312.098	403.06
312.328	380.06
312.557	400.06
312.787	419.06
313.017	412.06
313.246	399.06
313.476	380.06
313.706	404.06
313.935	393.06
314.165	415.06
314.394	410.06
314.624	394.06
314.853	408.06
315.083	409.06
315.312	384.06
315.542	388.06
315.771	378.06
316.001	402.06
316.23	392.06
316.46	406.06
316.689	381.06
316.919	388.06
317.148	415.06
317.377	416.06
317.607	398.06
317.836	399.06
318.065	398.06
318.295	388.06
318.524	392.06
318.753	383.06
318.983	399.06
319.212	394.06
319.441	410.06
319.67	404.06
319.9	405.06
320.129	386.06
320.358	402.06
320.587	414.06
320.816	418.06
321.046	414.06
321.275	423.06
321.504	410.06
321.733	431.06
321.962	427.06
322.191	434.06
322.42	472.06
322.649	447.06
322.878	460.06
323.108	463.06
323.337	486.06
323.566	506.06
323.795	550.06
324.024	579.06
324.253	698.06
324.482	994.06
324.71	1587.06
324.939	2371.06
325.168	2039.06
325.397	1000.06
325.626	660.06
325.855	566.06
326.084	526.06
326.313	515.06
326.542	521.06
326.77	543.06
326.999	666.06
327.228	920.06
327.457	1395.06
327.686	1792.06
327.914	1144.06
328.143	738.06
328.372	663.06
328.6	604.06
328.829	586.06
329.058	605.06
329.287	610.06
329.515	584.06
329.744	544.06
329.972	543.06
330.201	571.06
330.43	597.06
330.658	630.06
330.887	624.06
331.115	639.06
331.344	562.06
331.572	514.06
331.801	523.06
332.03	506.06
332.258	488.06
332.486	481.06
332.715	458.06
332.943	491.06
333.172	471.06
333.4	473.06
333.629	493.06
333.857	508.06
334.085	530.06
334.314	549.06
334.542	575.06
334.771	602.06
334.999	556.06
335.227	510.06
335.455	494.06
335.684	469.06
335.912	471.06
336.14	475.06
336.369	475.06
336.597	470.06
336.825	485.06
337.053	470.06
337.281	437.06
337.51	462.06
337.738	455.06
337.966	464.06
338.194	446.06
338.422	449.06
338.65	456.06
338.878	482.06
339.106	443.06
339.334	459.06
339.562	457.06
339.79	439.06
340.018	445.06
340.246	469.06
340.474	477.06
340.702	451.06
340.93	445.06
341.158	452.06
341.386	447.06
341.614	477.06
341.842	463.06
342.07	468.06
342.298	443.06
342.526	438.06
342.754	479.06
342.981	446.06
343.209	460.06
343.437	462.06
343.665	464.06
343.893	475.06
344.12	490.06
344.348	476.06
344.576	464.06
344.804	474.06
345.031	472.06
345.259	485.06
345.487	480.06
345.714	455.06
345.942	449.06
346.17	468.06
346.397	442.06
346.625	460.06
346.853	458.06
347.08	436.06
347.308	447.06
347.535	445.06
347.763	473.06
347.99	449.06
348.218	460.06
348.445	467.06
348.673	470.06
348.9	468.06
349.128	454.06
349.355	440.06
349.583	442.06
349.81	436.06
350.037	442.06
350.265	436.06
350.492	431.06
350.72	444.06
350.947	457.06
351.174	464.06
351.402	454.06
351.629	458.06
351.856	466.06
352.083	446.06
352.311	450.06
352.538	459.06
352.765	475.06
352.992	450.06
353.22	439.06
353.447	452.06
353.674	435.06
353.901	428.06
354.128	431.06
354.355	422.06
354.583	428.06
354.81	421.06
355.037	418.06
355.264	414.06
355.491	417.06
355.718	427.06
355.945	441.06
356.172	408.06
356.399	390.06
356.626	411.06
356.853	412.06
357.08	406.06
357.307	407.06
357.534	416.06
357.761	423.06
357.988	437.06
358.215	422.06
358.441	438.06
358.668	437.06
358.895	441.06
359.122	443.06
359.349	434.06
359.576	449.06
359.802	462.06
360.029	502.06
360.256	503.06
360.483	479.06
360.709	465.06
360.936	444.06
361.163	451.06
361.39	451.06
361.616	457.06
361.843	444.06
362.07	459.06
362.296	458.06
362.523	451.06
362.749	446.06
362.976	443.06
363.203	457.06
363.429	410.06
363.656	437.06
363.882	441.06
364.109	432.06
364.335	461.06
364.562	451.06
364.788	441.06
365.015	422.06
365.241	414.06
365.468	438.06
365.694	448.06
365.92	455.06
366.147	457.06
366.373	449.06
366.599	446.06
366.826	439.06
367.052	435.06
367.278	432.06
367.505	437.06
367.731	418.06
367.957	442.06
368.184	438.06
368.41	433.06
368.636	451.06
368.862	457.06
369.089	445.06
369.315	438.06
369.541	427.06
369.767	437.06
369.993	460.06
370.219	436.06
370.445	452.06
370.672	453.06
370.898	440.06
371.124	430.06
371.35	436.06
371.576	406.06
371.802	431.06
372.028	431.06
372.254	430.06
372.48	434.06
372.706	435.06
372.932	454.06
373.158	444.06
373.384	454.06
373.61	430.06
373.835	453.06
374.061	438.06
374.287	429.06
374.513	443.06
374.739	439.06
374.965	448.06
375.191	462.06
375.416	458.06
375.642	446.06
375.868	445.06
376.094	451.06
376.319	448.06
376.545	429.06
376.771	445.06
376.997	447.06
377.222	424.06
377.448	420.06
377.674	431.06
377.899	427.06
378.125	452.06
378.35	434.06
378.576	428.06
378.802	424.06
379.027	446.06
379.253	453.06
379.478	426.06
379.704	429.06
379.929	442.06
380.155	428.06
380.38	430.06
380.606	445.06
380.831	442.06
381.057	446.06
381.282	439.06
381.507	444.06
381.733	446.06
381.958	456.06
382.184	472.06
382.409	468.06
382.634	472.06
382.86	459.06
383.085	459.06
383.31	465.06
383.535	451.06
383.761	457.06
383.986	459.06
384.211	475.06
384.436	472.06
384.662	483.06
384.887	484.06
385.112	484.06
385.337	500.06
385.562	488.06
385.787	480.06
386.013	489.06
386.238	510.06
386.463	499.06
386.688	511.06
386.913	489.06
387.138	501.06
387.363	477.06
387.588	486.06
387.813	477.06
388.038	488.06
388.263	496.06
388.488	494.06
388.713	501.06
388.938	504.06
389.163	477.06
389.387	510.06
389.612	471.06
389.837	496.06
390.062	483.06
390.287	494.06
390.512	487.06
390.736	484.06
390.961	494.06
391.186	505.06
391.411	530.06
391.636	503.06
391.86	520.06
392.085	496.06
392.31	503.06
392.534	512.06
392.759	500.06
392.984	494.06
393.208	488.06
393.433	496.06
393.658	517.06
393.882	516.06
394.107	493.06
394.331	488.06
394.556	508.06
394.78	506.06
395.005	490.06
395.229	521.06
395.454	517.06
395.678	524.06
395.903	535.06
396.127	540.06
396.352	547.06
396.576	539.06
396.801	511.06
397.025	524.06
397.249	520.06
397.474	544.06
397.698	525.06
397.922	537.06
398.147	562.06
398.371	583.06
398.595	563.06
398.82	565.06
399.044	574.06
399.268	591.06
399.492	603.06
399.717	672.06
399.941	672.06
400.165	730.06
400.389	712.06
400.613	639.06
400.837	612.06
401.062	588.06
401.286	574.06
401.51	586.06
401.734	588.06
401.958	575.06
402.182	574.06
402.406	577.06
402.63	593.06
402.854	590.06
403.078	591.06
403.302	583.06
403.526	619.06
403.75	611.06
403.974	586.06
404.198	597.06
404.422	620.06
404.645	586.06
404.869	621.06
405.093	655.06
405.317	719.06
405.541	721.06
405.765	658.06
405.988	635.06
406.212	628.06
406.436	670.06
406.66	656.06
406.883	634.06
407.107	671.06
407.331	713.06
407.555	801.06
407.778	805.06
408.002	703.06
408.226	664.06
408.449	656.06
408.673	667.06
408.896	687.06
409.12	748.06
409.344	698.06
409.567	620.06
409.791	588.06
410.014	611.06
410.238	598.06
410.461	611.06
410.685	623.06
410.908	614.06
411.132	660.06
411.355	701.06
411.578	652.06
411.802	605.06
412.025	605.06
412.249	617.06
412.472	636.06
412.695	663.06
412.919	698.06
413.142	613.06
413.365	589.06
413.589	591.06
413.812	572.06
414.035	591.06
414.258	583.06
414.482	568.06
414.705	559.06
414.928	576.06
415.151	571.06
415.374	575.06
415.597	576.06
415.821	565.06
416.044	564.06
416.267	562.06
416.49	555.06
416.713	568.06
416.936	575.06
417.159	550.06
417.382	588.06
417.605	588.06
417.828	569.06
418.051	594.06
418.274	584.06
418.497	568.06
418.72	574.06
418.943	572.06
419.166	583.06
419.389	615.06
419.611	605.06
419.834	590.06
420.057	582.06
420.28	603.06
420.503	592.06
420.726	588.06
420.948	596.06
421.171	682.06
421.394	697.06
421.617	607.06
421.839	573.06
422.062	584.06
422.285	600.06
422.507	663.06
422.73	783.06
422.953	743.06
423.175	654.06
423.398	616.06
423.621	625.06
423.843	614.06
424.066	660.06
424.288	634.06
424.511	679.06
424.733	750.06
424.956	810.06
425.178	778.06
425.401	739.06
425.623	800.06
425.846	694.06
426.068	648.06
426.291	640.06
426.513	644.06
426.735	629.06
426.958	700.06
427.18	782.06
427.402	926.06
427.625	1023.06
427.847	905.06
428.069	800.06
428.292	704.06
428.514	642.06
428.736	612.06
428.958	613.06
429.181	583.06
429.403	611.06
429.625	600.06
429.847	643.06
430.069	713.06
430.292	719.06
430.514	602.06
430.736	580.06
430.958	581.06
431.18	570.06
431.402	594.06
431.624	552.06
431.846	541.06
432.068	553.06
432.29	540.06
432.512	532.06
432.734	577.06
432.956	593.06
433.178	551.06
433.4	594.06
433.622	582.06
433.844	582.06
434.066	549.06
434.287	596.06
434.509	544.06
434.731	585.06
434.953	601.06
435.175	601.06
435.397	639.06
435.618	644.06
435.84	679.06
436.062	808.06
436.284	883.06
436.505	716.06
436.727	670.06
436.949	605.06
437.17	583.06
437.392	593.06
437.614	596.06
437.835	634.06
438.057	743.06
438.278	862.06
438.5	851.06
438.721	962.06
438.943	894.06
439.165	725.06
439.386	664.06
439.608	636.06
439.829	618.06
440.05	682.06
440.272	743.06
440.493	702.06
440.715	646.06
440.936	628.06
441.158	614.06
441.379	612.06
441.6	616.06
441.822	649.06
442.043	654.06
442.264	782.06
442.486	843.06
442.707	701.06
442.928	644.06
443.149	679.06
443.371	704.06
443.592	720.06
443.813	829.06
444.034	912.06
444.255	728.06
444.476	674.06
444.698	650.06
444.919	651.06
445.14	772.06
445.361	706.06
445.582	686.06
445.803	774.06
446.024	891.06
446.245	892.06
446.466	843.06
446.687	680.06
446.908	660.06
447.129	622.06
447.35	603.06
447.571	580.06
447.792	571.06
448.013	580.06
448.234	622.06
448.455	671.06
448.675	811.06
448.896	936.06
449.117	776.06
449.338	743.06
449.559	877.06
449.779	968.06
450	774.06
450.221	665.06
450.442	577.06
450.662	571.06
450.883	590.06
451.104	630.06
451.324	584.06
451.545	546.06
451.766	567.06
451.986	530.06
452.207	514.06
452.428	516.06
452.648	526.06
452.869	547.06
453.089	522.06
453.31	557.06
453.53	527.06
453.751	518.06
453.971	544.06
454.192	529.06
454.412	534.06
454.633	527.06
454.853	522.06
455.073	530.06
455.294	564.06
455.514	615.06
455.734	624.06
455.955	531.06
456.175	488.06
456.395	485.06
456.616	510.06
456.836	487.06
457.056	484.06
457.276	499.06
457.497	494.06
457.717	523.06
457.937	518.06
458.157	515.06
458.377	512.06
458.598	558.06
458.818	594.06
459.038	680.06
459.258	711.06
459.478	600.06
459.698	554.06
459.918	561.06
460.138	578.06
460.358	581.06
460.578	566.06
460.798	578.06
461.018	604.06
461.238	581.06
461.458	588.06
461.678	571.06
461.898	574.06
462.118	568.06
462.338	596.06
462.558	605.06
462.777	620.06
462.997	603.06
463.217	627.06
463.437	637.06
463.657	626.06
463.876	596.06
464.096	616.06
464.316	611.06
464.536	595.06
464.755	626.06
464.975	624.06
465.195	655.06
465.414	748.06
465.634	657.06
465.854	619.06
466.073	590.06
466.293	575.06
466.512	541.06
466.732	532.06
466.951	532.06
467.171	552.06
467.391	558.06
467.61	552.06
467.829	566.06
468.049	566.06
468.268	576.06
468.488	549.06
468.707	529.06
468.927	533.06
469.146	519.06
469.365	519.06
469.585	517.06
469.804	559.06
470.023	548.06
470.243	554.06
470.462	549.06
470.681	582.06
470.901	580.06
471.12	563.06
471.339	555.06
471.558	554.06
471.777	536.06
471.997	557.06
472.216	539.06
472.435	583.06
472.654	584.06
472.873	579.06
473.092	551.06
473.311	524.06
473.53	552.06
473.749	552.06
473.968	595.06
474.187	724.06
474.406	741.06
474.625	618.06
474.844	582.06
475.063	574.06
475.282	552.06
475.501	566.06
475.72	559.06
475.939	581.06
476.158	550.06
476.377	558.06
476.596	546.06
476.814	570.06
477.033	596.06
477.252	605.06
477.471	602.06
477.69	614.06
477.908	587.06
478.127	619.06
478.346	618.06
478.564	629.06
478.783	623.06
479.002	637.06
479.22	642.06
479.439	636.06
479.658	662.06
479.876	650.06
480.095	653.06
480.313	736.06
480.532	700.06
480.751	687.06
480.969	685.06
481.188	739.06
481.406	808.06
481.624	711.06
481.843	712.06
482.061	640.06
482.28	651.06
482.498	655.06
482.717	652.06
482.935	665.06
483.153	660.06
483.372	667.06
483.59	661.06
483.808	660.06
484.027	648.06
484.245	660.06
484.463	653.06
484.681	682.06
484.9	665.06
485.118	655.06
485.336	672.06
485.554	686.06
485.772	674.06
485.99	667.06
486.209	681.06
486.427	695.06
486.645	676.06
486.863	707.06
487.081	712.06
487.299	697.06
487.517	688.06
487.735	705.06
487.953	715.06
488.171	703.06
488.389	701.06
488.607	694.06
488.825	704.06
489.043	704.06
489.261	712.06
489.479	709.06
489.696	715.06
489.914	736.06
490.132	736.06
490.35	736.06
490.568	743.06
490.786	739.06
491.003	746.06
491.221	774.06
491.439	790.06
491.657	794.06
491.874	787.06
492.092	791.06
492.31	816.06
492.527	826.06
492.745	810.06
492.963	807.06
493.18	828.06
493.398	829.06
493.615	834.06
493.833	854.06
494.05	830.06
494.268	827.06
494.485	805.06
494.703	835.06
494.92	848.06
495.138	837.06
495.355	859.06
495.573	862.06
495.79	864.06
496.008	841.06
496.225	816.06
496.442	843.06
496.66	850.06
496.877	844.06
497.094	866.06
497.312	873.06
497.529	870.06
497.746	879.06
497.963	875.06
498.181	911.06
498.398	928.06
498.615	926.06
498.832	956.06
499.049	980.06
499.267	1007.06
499.484	1033.06
499.701	1060.06
499.918	1096.06
500.135	1129.06
500.352	1190.06
500.569	1192.06
500.786	1218.06
501.003	1181.06
501.22	1174.06
501.437	1113.06
501.654	1090.06
501.871	1092.06
502.088	1010.06
502.305	983.06
502.522	962.06
502.739	961.06
502.956	919.06
503.172	900.06
503.389	863.06
503.606	880.06
503.823	880.06
504.04	848.06
504.256	878.06
504.473	863.06
504.69	827.06
504.907	850.06
505.123	812.06
505.34	821.06
505.557	788.06
505.773	795.06
505.99	785.06
506.207	799.06
506.423	806.06
506.64	824.06
506.856	778.06
507.073	785.06
507.289	782.06
507.506	762.06
507.722	793.06
507.939	803.06
508.155	799.06
508.372	727.06
508.588	759.06
508.805	728.06
509.021	749.06
509.238	774.06
509.454	754.06
509.67	771.06
509.887	739.06
510.103	711.06
510.319	754.06
510.536	834.06
510.752	1318.06
510.968	1088.06
511.184	765.06
511.401	716.06
511.617	724.06
511.833	716.06
512.049	710.06
512.265	700.06
512.481	715.06
512.698	702.06
512.914	701.06
513.13	684.06
513.346	710.06
513.562	713.06
513.778	698.06
513.994	698.06
514.21	720.06
514.426	749.06
514.642	775.06
514.858	813.06
515.074	860.06
515.29	974.06
515.506	1355.06
515.721	1132.06
515.937	860.06
516.153	779.06
516.369	742.06
516.585	756.06
516.801	739.06
517.016	746.06
517.232	748.06
517.448	744.06
517.664	733.06
517.879	759.06
518.095	740.06
518.311	709.06
518.527	700.06
518.742	731.06
518.958	715.06
519.173	737.06
519.389	716.06
519.605	710.06
519.82	716.06
520.036	727.06
520.251	741.06
520.467	778.06
520.682	759.06
520.898	756.06
521.113	777.06
521.329	815.06
521.544	880.06
521.76	1096.06
521.975	1731.06
522.19	1711.06
522.406	973.06
522.621	795.06
522.836	714.06
523.052	684.06
523.267	663.06
523.482	635.06
523.698	661.06
523.913	653.06
524.128	637.06
524.343	607.06
524.559	615.06
524.774	618.06
524.989	599.06
525.204	641.06
525.419	627.06
525.634	594.06
525.849	603.06
526.064	627.06
526.28	620.06
526.495	584.06
526.71	546.06
526.925	572.06
527.14	589.06
527.355	590.06
527.57	585.06
527.785	588.06
527.999	587.06
528.214	589.06
528.429	560.06
528.644	592.06
528.859	582.06
529.074	605.06
529.289	589.06
529.503	683.06
529.718	675.06
529.933	616.06
530.148	601.06
530.363	588.06
530.577	591.06
530.792	575.06
531.007	595.06
531.221	557.06
531.436	570.06
531.651	578.06
531.865	572.06
532.08	597.06
532.295	559.06
532.509	572.06
532.724	586.06
532.938	579.06
533.153	557.06
533.367	556.06
533.582	565.06
533.796	547.06
534.011	553.06
534.225	560.06
534.44	541.06
534.654	558.06
534.868	534.06
535.083	534.06
535.297	536.06
535.511	580.06
535.726	559.06
535.94	547.06
536.154	552.06
536.369	531.06
536.583	519.06
536.797	540.06
537.011	547.06
537.225	529.06
537.44	545.06
537.654	534.06
537.868	510.06
538.082	506.06
538.296	520.06
538.51	556.06
538.724	525.06
538.938	527.06
539.153	532.06
539.367	534.06
539.581	530.06
539.795	521.06
540.009	535.06
540.222	506.06
540.436	514.06
540.65	536.06
540.864	531.06
541.078	536.06
541.292	539.06
541.506	532.06
541.72	519.06
541.934	534.06
542.147	562.06
542.361	518.06
542.575	517.06
542.789	521.06
543.002	526.06
543.216	541.06
543.43	533.06
543.644	528.06
543.857	515.06
544.071	508.06
544.285	534.06
544.498	526.06
544.712	504.06
544.925	516.06
545.139	504.06
545.352	515.06
545.566	518.06
545.779	495.06
545.993	499.06
546.206	515.06
546.42	517.06
546.633	512.06
546.847	520.06
547.06	520.06
547.274	495.06
547.487	496.06
547.7	499.06
547.914	498.06
548.127	495.06
548.34	502.06
548.554	502.06
548.767	505.06
548.98	518.06
549.193	507.06
549.407	482.06
549.62	524.06
549.833	502.06
550.046	521.06
550.259	500.06
550.473	492.06
550.686	498.06
550.899	495.06
551.112	491.06
551.325	501.06
551.538	507.06
551.751	469.06
551.964	512.06
552.177	490.06
552.39	495.06
552.603	515.06
552.816	516.06
553.029	525.06
553.242	525.06
553.455	509.06
553.667	538.06
553.88	516.06
554.093	532.06
554.306	503.06
554.519	490.06
554.732	501.06
554.944	492.06
555.157	487.06
555.37	501.06
555.583	453.06
555.795	487.06
556.008	466.06
556.221	466.06
556.433	445.06
556.646	444.06
556.859	454.06
557.071	464.06
557.284	463.06
557.496	460.06
557.709	452.06
557.921	450.06
558.134	458.06
558.346	469.06
558.559	436.06
558.771	438.06
558.984	443.06
559.196	459.06
559.409	440.06
559.621	443.06
559.833	436.06
560.046	445.06
560.258	448.06
560.47	456.06
560.683	451.06
560.895	442.06
561.107	450.06
561.32	449.06
561.532	434.06
561.744	445.06
561.956	456.06
562.168	459.06
562.381	438.06
562.593	471.06
562.805	454.06
563.017	460.06
563.229	449.06
563.441	454.06
563.653	449.06
563.865	465.06
564.077	468.06
564.289	454.06
564.501	463.06
564.713	482.06
564.925	476.06
565.137	509.06
565.349	516.06
565.561	502.06
565.773	510.06
565.985	504.06
566.197	518.06
566.408	531.06
566.62	530.06
566.832	552.06
567.044	574.06
567.255	579.06
567.467	562.06
567.679	563.06
567.891	583.06
568.102	600.06
568.314	588.06
568.526	552.06
568.737	544.06
568.949	535.06
569.161	506.06
569.372	490.06
569.584	482.06
569.795	508.06
570.007	469.06
570.218	510.06
570.43	495.06
570.641	461.06
570.853	451.06
571.064	453.06
571.276	423.06
571.487	420.06
571.698	437.06
571.91	422.06
572.121	411.06
572.333	421.06
572.544	399.06
572.755	420.06
572.966	423.06
573.178	421.06
573.389	400.06
573.6	386.06
573.811	400.06
574.023	407.06
574.234	400.06
574.445	402.06
574.656	388.06
574.867	404.06
575.078	396.06
575.289	379.06
575.501	380.06
575.712	383.06
575.923	374.06
576.134	360.06
576.345	382.06
576.556	400.06
576.767	379.06
576.978	371.06
577.188	391.06
577.399	367.06
577.61	373.06
577.821	374.06
578.032	382.06
578.243	405.06
578.454	620.06
578.665	478.06
578.875	384.06
579.086	370.06
579.297	374.06
579.508	364.06
579.718	370.06
579.929	356.06
580.14	348.06
580.35	363.06
580.561	360.06
580.772	381.06
580.982	367.06
581.193	363.06
581.403	370.06
581.614	356.06
581.825	350.06
582.035	332.06
582.246	356.06
582.456	342.06
582.667	344.06
582.877	359.06
583.087	346.06
583.298	347.06
583.508	335.06
583.719	338.06
583.929	365.06
584.139	326.06
584.35	344.06
584.56	348.06
584.77	349.06
584.981	382.06
585.191	351.06
585.401	365.06
585.611	322.06
585.821	344.06
586.032	340.06
586.242	337.06
586.452	348.06
586.662	318.06
586.872	319.06
587.082	347.06
587.292	331.06
587.502	339.06
587.713	336.06
587.923	333.06
588.133	324.06
588.343	334.06
588.553	340.06
588.762	325.06
588.972	327.06
589.182	343.06
589.392	332.06
589.602	336.06
589.812	355.06
590.022	339.06
590.232	335.06
590.441	341.06
590.651	350.06
590.861	353.06
591.071	343.06
591.281	354.06
591.49	329.06
591.7	355.06
591.91	353.06
592.119	341.06
592.329	342.06
592.539	345.06
592.748	355.06
592.958	356.06
593.167	378.06
593.377	354.06
593.587	380.06
593.796	365.06
594.006	371.06
594.215	361.06
594.424	366.06
594.634	350.06
594.843	340.06
595.053	347.06
595.262	339.06
595.472	353.06
595.681	351.06
595.89	342.06
596.1	339.06
596.309	314.06
596.518	316.06
596.727	304.06
596.937	342.06
597.146	319.06
597.355	326.06
597.564	301.06
597.774	305.06
597.983	304.06
598.192	310.06
598.401	291.06
598.61	292.06
598.819	297.06
599.028	297.06
599.237	292.06
599.446	300.06
599.655	309.06
599.864	316.06
600.073	306.06
600.282	286.06
600.491	302.06
600.7	314.06
600.909	292.06
601.118	306.06
601.327	293.06
601.536	307.06
601.745	287.06
601.953	291.06
602.162	284.06
602.371	281.06
602.58	284.06
602.789	290.06
602.997	295.06
603.206	290.06
603.415	289.06
603.623	286.06
603.832	283.06
604.041	267.06
604.249	291.06
604.458	294.06
604.666	270.06
604.875	255.06
605.084	284.06
605.292	277.06
605.501	275.06
605.709	286.06
605.918	276.06
606.126	261.06
606.334	297.06
606.543	268.06
606.751	276.06
606.96	279.06
607.168	279.06
607.376	284.06
607.585	282.06
607.793	293.06
608.001	267.06
608.21	278.06
608.418	286.06
608.626	261.06
608.834	270.06
609.043	260.06
609.251	270.06
609.459	276.06
609.667	283.06
609.875	290.06
610.083	284.06
610.291	278.06
610.499	270.06
610.707	278.06
610.916	288.06
611.124	276.06
611.332	276.06
611.54	294.06
611.748	273.06
611.955	280.06
612.163	267.06
612.371	270.06
612.579	253.06
612.787	261.06
612.995	238.06
613.203	282.06
613.411	258.06
613.618	264.06
613.826	273.06
614.034	285.06
614.242	256.06
614.449	251.06
614.657	270.06
614.865	258.06
615.072	239.06
615.28	251.06
615.488	264.06
615.695	233.06
615.903	258.06
616.111	283.06
616.318	274.06
616.526	259.06
616.733	271.06
616.941	257.06
617.148	260.06
617.356	273.06
617.563	260.06
617.771	253.06
617.978	258.06
618.185	267.06
618.393	272.06
618.6	244.06
618.807	270.06
619.015	266.06
619.222	260.06
619.429	254.06
619.637	253.06
619.844	247.06
620.051	256.06
620.258	253.06
620.466	279.06
620.673	234.06
620.88	246.06
621.087	243.06
621.294	243.06
621.501	240.06
621.708	237.06
621.915	238.06
622.122	261.06
622.329	254.06
622.536	252.06
622.743	246.06
622.95	246.06
623.157	235.06
623.364	252.06
623.571	225.06
623.778	249.06
623.985	239.06
624.192	260.06
624.399	249.06
624.606	256.06
624.812	231.06
625.019	227.06
625.226	250.06
625.433	256.06
625.639	258.06
625.846	211.06
626.053	237.06
626.259	237.06
626.466	239.06
626.673	230.06
626.879	246.06
627.086	234.06
627.293	207.06
627.499	201.06
627.706	213.06
627.912	221.06
628.119	222.06
628.325	246.06
628.532	224.06
628.738	248.06
628.945	218.06
629.151	237.06
629.357	219.06
629.564	207.06
629.77	222.06
629.976	230.06
630.183	227.06
630.389	219.06
630.595	215.06
630.802	216.06
631.008	223.06
631.214	210.06
631.42	231.06
631.627	203.06
631.833	219.06
632.039	227.06
632.245	196.06
632.451	218.06
632.657	222.06
632.863	194.06
633.069	192.06
633.275	206.06
633.481	203.06
633.688	186.06
633.893	206.06
634.099	219.06
634.305	200.06
634.511	207.06
634.717	211.06
634.923	206.06
635.129	206.06
635.335	208.06
635.541	203.06
635.747	214.06
635.952	194.06
636.158	210.06
636.364	208.06
636.57	216.06
636.775	184.06
636.981	209.06
637.187	208.06
637.392	200.06
637.598	196.06
637.804	200.06
638.009	176.06
638.215	198.06
638.421	198.06
638.626	191.06
638.832	187.06
639.037	192.06
639.243	195.06
639.448	189.06
639.654	205.06
639.859	181.06
640.065	182.06
640.27	192.06
640.475	180.06
640.681	197.06
640.886	192.06
641.091	196.06
641.297	188.06
641.502	174.06
641.707	186.06
641.913	187.06
642.118	186.06
642.323	193.06
642.528	178.06
642.733	191.06
642.939	174.06
643.144	182.06
643.349	192.06
643.554	187.06
643.759	171.06
643.964	185.06
644.169	194.06
644.374	194.06
644.579	189.06
644.784	175.06
644.989	179.06
645.194	172.06
645.399	184.06
645.604	188.06
645.809	174.06
646.014	206.06
646.219	184.06
646.423	179.06
646.628	192.06
646.833	171.06
647.038	189.06
647.243	179.06
647.447	170.06
647.652	187.06
647.857	166.06
648.062	186.06
648.266	194.06
648.471	174.06
648.676	174.06
648.88	185.06
649.085	182.06
649.289	183.06
649.494	178.06
649.698	196.06
649.903	194.06
650.107	170.06
650.312	168.06
650.516	163.06
650.721	181.06
650.925	162.06
651.13	181.06
651.334	164.06
651.539	146.06
651.743	171.06
651.947	166.06
652.152	152.06
652.356	170.06
652.56	160.06
652.764	155.06
652.969	150.06
653.173	148.06
653.377	146.06
653.581	162.06
653.785	137.06
653.99	154.06
654.194	144.06
654.398	136.06
654.602	140.06
654.806	136.06
655.01	149.06
655.214	144.06
655.418	134.06
655.622	141.06
655.826	143.06
656.03	154.06
656.234	132.06
656.438	141.06
656.642	153.06
656.846	137.06
657.049	144.06
657.253	137.06
657.457	126.06
657.661	125.06
657.865	126.06
658.068	128.06
658.272	102.06
658.476	118.06
658.68	121.06
658.883	107.06
659.087	97.06
659.291	99.06
659.494	113.06
659.698	110.06
659.901	105.06
660.105	94.06
660.309	91.06
660.512	91.06
660.716	104.06
660.919	85.06
661.123	101.06
661.326	86.06
661.53	83.06
661.733	89.06
661.936	86.06
662.14	71.06
662.343	80.06
662.546	92.06
662.75	98.06
662.953	88.06
663.156	86.06
663.36	83.06
663.563	86.06
663.766	73.06
663.969	76.06
664.173	77.06
664.376	70.06
664.579	77.06
664.782	88.06
664.985	82.06
665.188	86.06
665.391	79.06
665.594	61.06
665.797	92.06
666	71.06
666.203	84.06
666.406	82.06
666.609	68.06
666.812	80.06
667.015	88.06
667.218	77.06
667.421	71.06
667.624	86.06
667.827	70.06
668.03	68.06
668.232	72.06
668.435	77.06
668.638	77.06
668.841	80.06
669.043	85.06
669.246	91.06
669.449	79.06
669.651	87.06
669.854	86.06
670.057	92.06
670.259	86.06
670.462	90.06
670.665	71.06
670.867	77.06
671.07	82.06
671.272	92.06
671.475	74.06
671.677	74.06
671.88	74.06
672.082	79.06
672.284	82.06
672.487	76.06
672.689	81.06
672.892	86.06
