Data from 1966.PennyLincolnUp.Lamp.En5.5.200Scan.071719.P1.Scan2.head_HRD10591_14-18-04-158.txt Node
Date: Thu Jul 18 14:18:04 EDT 2019
User: cochatt
Spectrometer: HR+D1059
Trigger mode: 1
Integration Time (sec): 1.000000E-1
Scans to average: 1
Electric dark correction enabled: true
Nonlinearity correction enabled: false
Boxcar width: 0
XAxis mode: Wavelengths
Number of Pixels in Spectrum: 2048
>>>>>Begin Spectral Data<<<<<
223.165	-14.25
223.4	-14.25
223.635	-14.25
223.869	-24.25
224.104	-29.25
224.338	-9.25
224.573	-7.25
224.808	-2.25
225.042	-13.25
225.277	-8.25
225.511	-4.25
225.746	0.75
225.98	24.75
226.215	3.75
226.449	14.75
226.683	14.75
226.918	24.75
227.152	28.75
227.387	29.75
227.621	33.75
227.856	37.75
228.09	38.75
228.324	59.75
228.559	60.75
228.793	55.75
229.027	93.75
229.262	101.75
229.496	111.75
229.73	141.75
229.964	158.75
230.199	111.75
230.433	107.75
230.667	111.75
230.901	113.75
231.136	122.75
231.37	119.75
231.604	114.75
231.838	111.75
232.072	115.75
232.306	122.75
232.541	118.75
232.775	120.75
233.009	110.75
233.243	104.75
233.477	123.75
233.711	110.75
233.945	101.75
234.179	115.75
234.413	119.75
234.647	125.75
234.881	146.75
235.115	134.75
235.349	107.75
235.583	119.75
235.817	113.75
236.051	134.75
236.285	102.75
236.519	118.75
236.753	127.75
236.987	142.75
237.221	186.75
237.455	234.75
237.689	185.75
237.922	150.75
238.156	139.75
238.39	134.75
238.624	132.75
238.858	111.75
239.091	130.75
239.325	116.75
239.559	127.75
239.793	134.75
240.027	135.75
240.26	133.75
240.494	141.75
240.728	164.75
240.961	152.75
241.195	149.75
241.429	162.75
241.662	146.75
241.896	142.75
242.13	135.75
242.363	127.75
242.597	138.75
242.83	133.75
243.064	134.75
243.298	139.75
243.531	140.75
243.765	148.75
243.998	142.75
244.232	137.75
244.465	134.75
244.699	125.75
244.932	136.75
245.166	158.75
245.399	156.75
245.633	154.75
245.866	160.75
246.099	154.75
246.333	150.75
246.566	150.75
246.8	154.75
247.033	147.75
247.266	151.75
247.5	171.75
247.733	160.75
247.966	171.75
248.2	163.75
248.433	175.75
248.666	181.75
248.899	190.75
249.133	202.75
249.366	199.75
249.599	184.75
249.832	182.75
250.066	182.75
250.299	182.75
250.532	186.75
250.765	204.75
250.998	209.75
251.231	208.75
251.465	215.75
251.698	206.75
251.931	210.75
252.164	180.75
252.397	194.75
252.63	209.75
252.863	198.75
253.096	201.75
253.329	230.75
253.562	211.75
253.795	206.75
254.028	215.75
254.261	201.75
254.494	200.75
254.727	260.75
254.96	269.75
255.193	259.75
255.426	246.75
255.659	236.75
255.892	238.75
256.124	226.75
256.357	237.75
256.59	214.75
256.823	216.75
257.056	214.75
257.289	228.75
257.521	203.75
257.754	196.75
257.987	190.75
258.22	207.75
258.452	212.75
258.685	204.75
258.918	207.75
259.151	215.75
259.383	216.75
259.616	220.75
259.849	214.75
260.081	213.75
260.314	246.75
260.547	226.75
260.779	232.75
261.012	226.75
261.244	220.75
261.477	243.75
261.71	218.75
261.942	216.75
262.175	229.75
262.407	220.75
262.64	222.75
262.872	211.75
263.105	208.75
263.337	213.75
263.57	211.75
263.802	197.75
264.035	212.75
264.267	214.75
264.499	200.75
264.732	211.75
264.964	214.75
265.197	217.75
265.429	215.75
265.661	197.75
265.894	242.75
266.126	219.75
266.358	209.75
266.591	221.75
266.823	241.75
267.055	220.75
267.287	201.75
267.52	216.75
267.752	227.75
267.984	222.75
268.216	222.75
268.448	224.75
268.681	220.75
268.913	231.75
269.145	249.75
269.377	262.75
269.609	264.75
269.841	247.75
270.073	266.75
270.306	276.75
270.538	295.75
270.77	306.75
271.002	296.75
271.234	292.75
271.466	271.75
271.698	294.75
271.93	303.75
272.162	320.75
272.394	300.75
272.626	290.75
272.858	284.75
273.09	274.75
273.322	265.75
273.553	246.75
273.785	255.75
274.017	252.75
274.249	272.75
274.481	262.75
274.713	254.75
274.945	253.75
275.176	276.75
275.408	256.75
275.64	262.75
275.872	248.75
276.104	263.75
276.335	259.75
276.567	277.75
276.799	278.75
277.031	284.75
277.262	306.75
277.494	309.75
277.726	301.75
277.957	278.75
278.189	256.75
278.421	268.75
278.652	271.75
278.884	252.75
279.115	269.75
279.347	267.75
279.579	265.75
279.81	269.75
280.042	277.75
280.273	262.75
280.505	263.75
280.736	269.75
280.968	237.75
281.199	272.75
281.431	258.75
281.662	266.75
281.894	257.75
282.125	262.75
282.356	281.75
282.588	287.75
282.819	284.75
283.051	272.75
283.282	269.75
283.513	267.75
283.745	282.75
283.976	287.75
284.207	270.75
284.439	268.75
284.67	271.75
284.901	275.75
285.132	267.75
285.364	286.75
285.595	268.75
285.826	270.75
286.057	270.75
286.288	263.75
286.52	265.75
286.751	290.75
286.982	267.75
287.213	254.75
287.444	267.75
287.675	280.75
287.906	283.75
288.138	285.75
288.369	289.75
288.6	298.75
288.831	298.75
289.062	273.75
289.293	303.75
289.524	285.75
289.755	286.75
289.986	263.75
290.217	272.75
290.448	293.75
290.679	284.75
290.91	282.75
291.141	278.75
291.371	300.75
291.602	269.75
291.833	292.75
292.064	295.75
292.295	309.75
292.526	303.75
292.757	281.75
292.987	269.75
293.218	280.75
293.449	298.75
293.68	292.75
293.91	283.75
294.141	282.75
294.372	299.75
294.603	288.75
294.833	291.75
295.064	273.75
295.295	300.75
295.525	270.75
295.756	304.75
295.987	310.75
296.217	304.75
296.448	326.75
296.679	304.75
296.909	292.75
297.14	299.75
297.37	292.75
297.601	281.75
297.831	302.75
298.062	317.75
298.292	314.75
298.523	307.75
298.753	302.75
298.984	292.75
299.214	305.75
299.445	292.75
299.675	314.75
299.905	314.75
300.136	298.75
300.366	308.75
300.597	312.75
300.827	326.75
301.057	313.75
301.288	321.75
301.518	322.75
301.748	310.75
301.979	322.75
302.209	330.75
302.439	324.75
302.669	308.75
302.9	320.75
303.13	318.75
303.36	326.75
303.59	319.75
303.82	333.75
304.051	346.75
304.281	332.75
304.511	334.75
304.741	325.75
304.971	319.75
305.201	330.75
305.431	317.75
305.661	321.75
305.891	318.75
306.121	333.75
306.352	333.75
306.582	331.75
306.812	331.75
307.042	338.75
307.272	310.75
307.502	330.75
307.731	312.75
307.961	305.75
308.191	329.75
308.421	319.75
308.651	324.75
308.881	331.75
309.111	334.75
309.341	335.75
309.571	359.75
309.8	346.75
310.03	368.75
310.26	361.75
310.49	350.75
310.72	374.75
310.949	360.75
311.179	404.75
311.409	394.75
311.639	363.75
311.868	361.75
312.098	373.75
312.328	383.75
312.557	400.75
312.787	407.75
313.017	392.75
313.246	380.75
313.476	348.75
313.706	350.75
313.935	374.75
314.165	402.75
314.394	389.75
314.624	389.75
314.853	400.75
315.083	383.75
315.312	377.75
315.542	361.75
315.771	364.75
316.001	357.75
316.23	375.75
316.46	367.75
316.689	352.75
316.919	383.75
317.148	372.75
317.377	376.75
317.607	392.75
317.836	381.75
318.065	378.75
318.295	362.75
318.524	360.75
318.753	351.75
318.983	385.75
319.212	382.75
319.441	393.75
319.67	381.75
319.9	370.75
320.129	376.75
320.358	371.75
320.587	369.75
320.816	359.75
321.046	384.75
321.275	394.75
321.504	406.75
321.733	405.75
321.962	406.75
322.191	414.75
322.42	414.75
322.649	421.75
322.878	436.75
323.108	455.75
323.337	456.75
323.566	484.75
323.795	487.75
324.024	530.75
324.253	644.75
324.482	918.75
324.71	1412.75
324.939	2116.75
325.168	1833.75
325.397	902.75
325.626	613.75
325.855	524.75
326.084	481.75
326.313	470.75
326.542	490.75
326.77	516.75
326.999	621.75
327.228	844.75
327.457	1277.75
327.686	1630.75
327.914	1066.75
328.143	663.75
328.372	617.75
328.6	582.75
328.829	539.75
329.058	522.75
329.287	537.75
329.515	534.75
329.744	489.75
329.972	500.75
330.201	520.75
330.43	546.75
330.658	557.75
330.887	608.75
331.115	584.75
331.344	509.75
331.572	512.75
331.801	485.75
332.03	486.75
332.258	470.75
332.486	461.75
332.715	447.75
332.943	434.75
333.172	438.75
333.4	455.75
333.629	462.75
333.857	455.75
334.085	479.75
334.314	483.75
334.542	534.75
334.771	542.75
334.999	515.75
335.227	494.75
335.455	468.75
335.684	458.75
335.912	457.75
336.14	420.75
336.369	436.75
336.597	450.75
336.825	457.75
337.053	447.75
337.281	434.75
337.51	442.75
337.738	446.75
337.966	427.75
338.194	444.75
338.422	441.75
338.65	434.75
338.878	436.75
339.106	419.75
339.334	426.75
339.562	417.75
339.79	412.75
340.018	444.75
340.246	432.75
340.474	435.75
340.702	434.75
340.93	431.75
341.158	446.75
341.386	421.75
341.614	423.75
341.842	439.75
342.07	440.75
342.298	434.75
342.526	414.75
342.754	424.75
342.981	420.75
343.209	414.75
343.437	426.75
343.665	444.75
343.893	448.75
344.12	452.75
344.348	435.75
344.576	437.75
344.804	450.75
345.031	430.75
345.259	454.75
345.487	460.75
345.714	427.75
345.942	438.75
346.17	400.75
346.397	412.75
346.625	409.75
346.853	400.75
347.08	404.75
347.308	420.75
347.535	426.75
347.763	440.75
347.99	424.75
348.218	415.75
348.445	427.75
348.673	440.75
348.9	406.75
349.128	436.75
349.355	409.75
349.583	423.75
349.81	408.75
350.037	398.75
350.265	415.75
350.492	421.75
350.72	396.75
350.947	434.75
351.174	408.75
351.402	425.75
351.629	436.75
351.856	422.75
352.083	426.75
352.311	453.75
352.538	430.75
352.765	414.75
352.992	428.75
353.22	440.75
353.447	404.75
353.674	407.75
353.901	406.75
354.128	388.75
354.355	404.75
354.583	409.75
354.81	407.75
355.037	407.75
355.264	391.75
355.491	400.75
355.718	380.75
355.945	413.75
356.172	391.75
356.399	394.75
356.626	372.75
356.853	408.75
357.08	381.75
357.307	388.75
357.534	404.75
357.761	399.75
357.988	398.75
358.215	397.75
358.441	392.75
358.668	410.75
358.895	398.75
359.122	414.75
359.349	423.75
359.576	427.75
359.802	441.75
360.029	446.75
360.256	466.75
360.483	458.75
360.709	423.75
360.936	426.75
361.163	417.75
361.39	435.75
361.616	444.75
361.843	411.75
362.07	411.75
362.296	441.75
362.523	430.75
362.749	404.75
362.976	410.75
363.203	417.75
363.429	406.75
363.656	427.75
363.882	426.75
364.109	419.75
364.335	421.75
364.562	404.75
364.788	418.75
365.015	432.75
365.241	404.75
365.468	415.75
365.694	414.75
365.92	420.75
366.147	416.75
366.373	401.75
366.599	396.75
366.826	411.75
367.052	387.75
367.278	400.75
367.505	418.75
367.731	407.75
367.957	408.75
368.184	413.75
368.41	408.75
368.636	421.75
368.862	445.75
369.089	425.75
369.315	399.75
369.541	398.75
369.767	427.75
369.993	418.75
370.219	406.75
370.445	419.75
370.672	417.75
370.898	416.75
371.124	415.75
371.35	410.75
371.576	410.75
371.802	400.75
372.028	419.75
372.254	418.75
372.48	419.75
372.706	415.75
372.932	422.75
373.158	418.75
373.384	413.75
373.61	413.75
373.835	434.75
374.061	448.75
374.287	423.75
374.513	423.75
374.739	411.75
374.965	410.75
375.191	412.75
375.416	432.75
375.642	417.75
375.868	439.75
376.094	424.75
376.319	405.75
376.545	416.75
376.771	428.75
376.997	425.75
377.222	399.75
377.448	394.75
377.674	421.75
377.899	412.75
378.125	395.75
378.35	404.75
378.576	411.75
378.802	426.75
379.027	405.75
379.253	418.75
379.478	410.75
379.704	414.75
379.929	426.75
380.155	434.75
380.38	412.75
380.606	418.75
380.831	413.75
381.057	428.75
381.282	436.75
381.507	413.75
381.733	419.75
381.958	423.75
382.184	417.75
382.409	422.75
382.634	416.75
382.86	422.75
383.085	441.75
383.31	424.75
383.535	434.75
383.761	420.75
383.986	428.75
384.211	455.75
384.436	424.75
384.662	451.75
384.887	434.75
385.112	447.75
385.337	442.75
385.562	455.75
385.787	464.75
386.013	460.75
386.238	456.75
386.463	459.75
386.688	460.75
386.913	441.75
387.138	472.75
387.363	440.75
387.588	461.75
387.813	464.75
388.038	454.75
388.263	473.75
388.488	460.75
388.713	449.75
388.938	429.75
389.163	461.75
389.387	473.75
389.612	476.75
389.837	458.75
390.062	443.75
390.287	464.75
390.512	441.75
390.736	454.75
390.961	498.75
391.186	440.75
391.411	458.75
391.636	474.75
391.86	485.75
392.085	474.75
392.31	466.75
392.534	461.75
392.759	487.75
392.984	477.75
393.208	478.75
393.433	515.75
393.658	485.75
393.882	471.75
394.107	470.75
394.331	481.75
394.556	483.75
394.78	473.75
395.005	488.75
395.229	499.75
395.454	482.75
395.678	505.75
395.903	492.75
396.127	529.75
396.352	548.75
396.576	518.75
396.801	496.75
397.025	473.75
397.249	483.75
397.474	501.75
397.698	500.75
397.922	531.75
398.147	535.75
398.371	549.75
398.595	526.75
398.82	530.75
399.044	545.75
399.268	567.75
399.492	615.75
399.717	643.75
399.941	644.75
400.165	679.75
400.389	675.75
400.613	619.75
400.837	603.75
401.062	543.75
401.286	549.75
401.51	549.75
401.734	547.75
401.958	525.75
402.182	546.75
402.406	559.75
402.63	574.75
402.854	539.75
403.078	556.75
403.302	563.75
403.526	570.75
403.75	558.75
403.974	565.75
404.198	564.75
404.422	553.75
404.645	554.75
404.869	580.75
405.093	593.75
405.317	644.75
405.541	678.75
405.765	624.75
405.988	613.75
406.212	599.75
406.436	616.75
406.66	628.75
406.883	612.75
407.107	648.75
407.331	697.75
407.555	738.75
407.778	745.75
408.002	704.75
408.226	630.75
408.449	616.75
408.673	619.75
408.896	659.75
409.12	700.75
409.344	645.75
409.567	587.75
409.791	582.75
410.014	589.75
410.238	558.75
410.461	570.75
410.685	592.75
410.908	584.75
411.132	615.75
411.355	642.75
411.578	634.75
411.802	570.75
412.025	581.75
412.249	564.75
412.472	601.75
412.695	638.75
412.919	646.75
413.142	593.75
413.365	548.75
413.589	551.75
413.812	541.75
414.035	545.75
414.258	549.75
414.482	555.75
414.705	556.75
414.928	563.75
415.151	550.75
415.374	528.75
415.597	546.75
415.821	523.75
416.044	538.75
416.267	540.75
416.49	537.75
416.713	534.75
416.936	550.75
417.159	532.75
417.382	514.75
417.605	553.75
417.828	551.75
418.051	574.75
418.274	549.75
418.497	540.75
418.72	546.75
418.943	538.75
419.166	562.75
419.389	575.75
419.611	580.75
419.834	581.75
420.057	563.75
420.28	568.75
420.503	567.75
420.726	542.75
420.948	585.75
421.171	614.75
421.394	630.75
421.617	589.75
421.839	553.75
422.062	557.75
422.285	575.75
422.507	627.75
422.73	716.75
422.953	708.75
423.175	640.75
423.398	585.75
423.621	592.75
423.843	583.75
424.066	584.75
424.288	579.75
424.511	607.75
424.733	676.75
424.956	762.75
425.178	712.75
425.401	719.75
425.623	761.75
425.846	657.75
426.068	618.75
426.291	627.75
426.513	580.75
426.735	587.75
426.958	669.75
427.18	723.75
427.402	861.75
427.625	973.75
427.847	829.75
428.069	720.75
428.292	633.75
428.514	591.75
428.736	562.75
428.958	541.75
429.181	564.75
429.403	560.75
429.625	558.75
429.847	574.75
430.069	648.75
430.292	653.75
430.514	586.75
430.736	559.75
430.958	534.75
431.18	546.75
431.402	559.75
431.624	537.75
431.846	520.75
432.068	488.75
432.29	526.75
432.512	519.75
432.734	558.75
432.956	534.75
433.178	549.75
433.4	546.75
433.622	526.75
433.844	544.75
434.066	531.75
434.287	539.75
434.509	533.75
434.731	535.75
434.953	516.75
435.175	566.75
435.397	608.75
435.618	611.75
435.84	628.75
436.062	736.75
436.284	815.75
436.505	702.75
436.727	617.75
436.949	582.75
437.17	542.75
437.392	559.75
437.614	544.75
437.835	596.75
438.057	686.75
438.278	811.75
438.5	776.75
438.721	894.75
438.943	845.75
439.165	644.75
439.386	628.75
439.608	613.75
439.829	615.75
440.05	647.75
440.272	679.75
440.493	618.75
440.715	615.75
440.936	585.75
441.158	589.75
441.379	547.75
441.6	567.75
441.822	598.75
442.043	628.75
442.264	737.75
442.486	756.75
442.707	652.75
442.928	624.75
443.149	611.75
443.371	657.75
443.592	700.75
443.813	811.75
444.034	869.75
444.255	716.75
444.476	632.75
444.698	611.75
444.919	636.75
445.14	756.75
445.361	692.75
445.582	629.75
445.803	717.75
446.024	834.75
446.245	851.75
446.466	777.75
446.687	648.75
446.908	595.75
447.129	562.75
447.35	543.75
447.571	548.75
447.792	547.75
448.013	563.75
448.234	558.75
448.455	605.75
448.675	734.75
448.896	902.75
449.117	735.75
449.338	680.75
449.559	810.75
449.779	899.75
450	726.75
450.221	619.75
450.442	545.75
450.662	522.75
450.883	566.75
451.104	557.75
451.324	542.75
451.545	524.75
451.766	512.75
451.986	501.75
452.207	479.75
452.428	485.75
452.648	516.75
452.869	518.75
453.089	513.75
453.31	532.75
453.53	506.75
453.751	489.75
453.971	499.75
454.192	518.75
454.412	487.75
454.633	492.75
454.853	487.75
455.073	477.75
455.294	522.75
455.514	578.75
455.734	580.75
455.955	494.75
456.175	478.75
456.395	461.75
456.616	472.75
456.836	456.75
457.056	479.75
457.276	443.75
457.497	478.75
457.717	476.75
457.937	471.75
458.157	484.75
458.377	484.75
458.598	491.75
458.818	555.75
459.038	616.75
459.258	685.75
459.478	580.75
459.698	558.75
459.918	542.75
460.138	534.75
460.358	534.75
460.578	564.75
460.798	552.75
461.018	529.75
461.238	535.75
461.458	544.75
461.678	567.75
461.898	549.75
462.118	558.75
462.338	528.75
462.558	555.75
462.777	587.75
462.997	554.75
463.217	597.75
463.437	610.75
463.657	585.75
463.876	586.75
464.096	589.75
464.316	564.75
464.536	570.75
464.755	592.75
464.975	580.75
465.195	618.75
465.414	659.75
465.634	612.75
465.854	572.75
466.073	548.75
466.293	534.75
466.512	498.75
466.732	507.75
466.951	514.75
467.171	497.75
467.391	526.75
467.61	506.75
467.829	551.75
468.049	534.75
468.268	535.75
468.488	499.75
468.707	493.75
468.927	496.75
469.146	494.75
469.365	509.75
469.585	504.75
469.804	517.75
470.023	510.75
470.243	528.75
470.462	501.75
470.681	530.75
470.901	538.75
471.12	500.75
471.339	515.75
471.558	520.75
471.777	528.75
471.997	526.75
472.216	521.75
472.435	539.75
472.654	558.75
472.873	517.75
473.092	509.75
473.311	510.75
473.53	523.75
473.749	523.75
473.968	549.75
474.187	668.75
474.406	684.75
474.625	572.75
474.844	542.75
475.063	530.75
475.282	518.75
475.501	522.75
475.72	498.75
475.939	527.75
476.158	546.75
476.377	528.75
476.596	546.75
476.814	534.75
477.033	554.75
477.252	551.75
477.471	552.75
477.69	563.75
477.908	560.75
478.127	574.75
478.346	550.75
478.564	580.75
478.783	572.75
479.002	588.75
479.22	608.75
479.439	621.75
479.658	614.75
479.876	629.75
480.095	642.75
480.313	668.75
480.532	644.75
480.751	629.75
480.969	648.75
481.188	693.75
481.406	720.75
481.624	664.75
481.843	652.75
482.061	633.75
482.28	629.75
482.498	634.75
482.717	591.75
482.935	584.75
483.153	607.75
483.372	598.75
483.59	608.75
483.808	608.75
484.027	606.75
484.245	632.75
484.463	625.75
484.681	640.75
484.9	622.75
485.118	596.75
485.336	619.75
485.554	632.75
485.772	645.75
485.99	642.75
486.209	648.75
486.427	626.75
486.645	633.75
486.863	669.75
487.081	649.75
487.299	656.75
487.517	659.75
487.735	646.75
487.953	648.75
488.171	680.75
488.389	655.75
488.607	643.75
488.825	670.75
489.043	676.75
489.261	629.75
489.479	653.75
489.696	673.75
489.914	668.75
490.132	663.75
490.35	700.75
490.568	692.75
490.786	698.75
491.003	711.75
491.221	722.75
491.439	745.75
491.657	723.75
491.874	740.75
492.092	736.75
492.31	760.75
492.527	751.75
492.745	772.75
492.963	776.75
493.18	772.75
493.398	778.75
493.615	779.75
493.833	781.75
494.05	792.75
494.268	791.75
494.485	759.75
494.703	770.75
494.92	779.75
495.138	781.75
495.355	794.75
495.573	793.75
495.79	771.75
496.008	776.75
496.225	758.75
496.442	788.75
496.66	760.75
496.877	794.75
497.094	805.75
497.312	803.75
497.529	811.75
497.746	787.75
497.963	820.75
498.181	847.75
498.398	849.75
498.615	871.75
498.832	905.75
499.049	906.75
499.267	925.75
499.484	947.75
499.701	991.75
499.918	1035.75
500.135	1048.75
500.352	1131.75
500.569	1139.75
500.786	1150.75
501.003	1119.75
501.22	1083.75
501.437	1055.75
501.654	993.75
501.871	1004.75
502.088	968.75
502.305	938.75
502.522	900.75
502.739	907.75
502.956	861.75
503.172	820.75
503.389	829.75
503.606	845.75
503.823	824.75
504.04	797.75
504.256	807.75
504.473	782.75
504.69	788.75
504.907	788.75
505.123	797.75
505.34	780.75
505.557	767.75
505.773	772.75
505.99	774.75
506.207	733.75
506.423	750.75
506.64	738.75
506.856	728.75
507.073	715.75
507.289	725.75
507.506	730.75
507.722	739.75
507.939	757.75
508.155	706.75
508.372	694.75
508.588	678.75
508.805	718.75
509.021	724.75
509.238	714.75
509.454	698.75
509.67	719.75
509.887	697.75
510.103	695.75
510.319	675.75
510.536	776.75
510.752	1204.75
510.968	1022.75
511.184	722.75
511.401	690.75
511.617	678.75
511.833	664.75
512.049	661.75
512.265	653.75
512.481	660.75
512.698	660.75
512.914	643.75
513.13	651.75
513.346	655.75
513.562	650.75
513.778	648.75
513.994	675.75
514.21	671.75
514.426	714.75
514.642	716.75
514.858	725.75
515.074	770.75
515.29	895.75
515.506	1261.75
515.721	1055.75
515.937	770.75
516.153	717.75
516.369	722.75
516.585	683.75
516.801	694.75
517.016	694.75
517.232	670.75
517.448	696.75
517.664	693.75
517.879	691.75
518.095	670.75
518.311	710.75
518.527	687.75
518.742	687.75
518.958	680.75
519.173	657.75
519.389	650.75
519.605	659.75
519.82	656.75
520.036	711.75
520.251	703.75
520.467	728.75
520.682	702.75
520.898	727.75
521.113	725.75
521.329	742.75
521.544	822.75
521.76	998.75
521.975	1623.75
522.19	1572.75
522.406	927.75
522.621	730.75
522.836	704.75
523.052	650.75
523.267	626.75
523.482	626.75
523.698	592.75
523.913	623.75
524.128	618.75
524.343	629.75
524.559	615.75
524.774	607.75
524.989	580.75
525.204	598.75
525.419	567.75
525.634	574.75
525.849	554.75
526.064	578.75
526.28	563.75
526.495	545.75
526.71	519.75
526.925	563.75
527.14	537.75
527.355	552.75
527.57	535.75
527.785	540.75
527.999	526.75
528.214	521.75
528.429	542.75
528.644	544.75
528.859	541.75
529.074	532.75
529.289	556.75
529.503	653.75
529.718	629.75
529.933	589.75
530.148	570.75
530.363	565.75
530.577	544.75
530.792	528.75
531.007	542.75
531.221	513.75
531.436	524.75
531.651	535.75
531.865	533.75
532.08	526.75
532.295	540.75
532.509	529.75
532.724	539.75
532.938	529.75
533.153	530.75
533.367	542.75
533.582	535.75
533.796	528.75
534.011	522.75
534.225	495.75
534.44	519.75
534.654	523.75
534.868	506.75
535.083	514.75
535.297	526.75
535.511	535.75
535.726	532.75
535.94	538.75
536.154	541.75
536.369	521.75
536.583	498.75
536.797	508.75
537.011	481.75
537.225	510.75
537.44	520.75
537.654	504.75
537.868	492.75
538.082	489.75
538.296	506.75
538.51	511.75
538.724	527.75
538.938	498.75
539.153	495.75
539.367	500.75
539.581	514.75
539.795	518.75
540.009	480.75
540.222	510.75
540.436	512.75
540.65	479.75
540.864	512.75
541.078	498.75
541.292	488.75
541.506	500.75
541.72	492.75
541.934	492.75
542.147	502.75
542.361	518.75
542.575	493.75
542.789	502.75
543.002	499.75
543.216	523.75
543.43	492.75
543.644	492.75
543.857	496.75
544.071	491.75
544.285	486.75
544.498	495.75
544.712	504.75
544.925	510.75
545.139	495.75
545.352	504.75
545.566	491.75
545.779	492.75
545.993	482.75
546.206	468.75
546.42	489.75
546.633	497.75
546.847	504.75
547.06	484.75
547.274	477.75
547.487	487.75
547.7	491.75
547.914	479.75
548.127	504.75
548.34	471.75
548.554	498.75
548.767	477.75
548.98	484.75
549.193	484.75
549.407	485.75
549.62	480.75
549.833	492.75
550.046	487.75
550.259	481.75
550.473	470.75
550.686	476.75
550.899	483.75
551.112	492.75
551.325	470.75
551.538	484.75
551.751	488.75
551.964	472.75
552.177	490.75
552.39	483.75
552.603	485.75
552.816	471.75
553.029	486.75
553.242	475.75
553.455	494.75
553.667	518.75
553.88	515.75
554.093	476.75
554.306	493.75
554.519	492.75
554.732	485.75
554.944	479.75
555.157	455.75
555.37	461.75
555.583	470.75
555.795	467.75
556.008	449.75
556.221	450.75
556.433	422.75
556.646	452.75
556.859	435.75
557.071	428.75
557.284	430.75
557.496	431.75
557.709	448.75
557.921	429.75
558.134	431.75
558.346	436.75
558.559	421.75
558.771	425.75
558.984	423.75
559.196	426.75
559.409	427.75
559.621	421.75
559.833	417.75
560.046	436.75
560.258	436.75
560.47	414.75
560.683	436.75
560.895	417.75
561.107	421.75
561.32	439.75
561.532	435.75
561.744	415.75
561.956	423.75
562.168	418.75
562.381	420.75
562.593	438.75
562.805	422.75
563.017	433.75
563.229	432.75
563.441	436.75
563.653	431.75
563.865	434.75
564.077	420.75
564.289	448.75
564.501	444.75
564.713	454.75
564.925	464.75
565.137	469.75
565.349	464.75
565.561	479.75
565.773	481.75
565.985	468.75
566.197	493.75
566.408	486.75
566.62	493.75
566.832	531.75
567.044	536.75
567.255	539.75
567.467	534.75
567.679	550.75
567.891	535.75
568.102	572.75
568.314	541.75
568.526	518.75
568.737	502.75
568.949	460.75
569.161	491.75
569.372	477.75
569.584	459.75
569.795	424.75
570.007	444.75
570.218	467.75
570.43	452.75
570.641	440.75
570.853	419.75
571.064	411.75
571.276	427.75
571.487	411.75
571.698	421.75
571.91	392.75
572.121	416.75
572.333	410.75
572.544	394.75
572.755	386.75
572.966	396.75
573.178	381.75
573.389	394.75
573.6	356.75
573.811	386.75
574.023	386.75
574.234	369.75
574.445	371.75
574.656	367.75
574.867	388.75
575.078	367.75
575.289	372.75
575.501	368.75
575.712	358.75
575.923	354.75
576.134	355.75
576.345	351.75
576.556	363.75
576.767	360.75
576.978	355.75
577.188	370.75
577.399	365.75
577.61	333.75
577.821	349.75
578.032	350.75
578.243	380.75
578.454	578.75
578.665	441.75
578.875	352.75
579.086	342.75
579.297	355.75
579.508	350.75
579.718	349.75
579.929	350.75
580.14	349.75
580.35	341.75
580.561	321.75
580.772	327.75
580.982	327.75
581.193	331.75
581.403	342.75
581.614	341.75
581.825	339.75
582.035	333.75
582.246	314.75
582.456	342.75
582.667	320.75
582.877	346.75
583.087	332.75
583.298	319.75
583.508	345.75
583.719	364.75
583.929	344.75
584.139	325.75
584.35	322.75
584.56	342.75
584.77	338.75
584.981	346.75
585.191	342.75
585.401	327.75
585.611	327.75
585.821	322.75
586.032	330.75
586.242	341.75
586.452	340.75
586.662	324.75
586.872	341.75
587.082	314.75
587.292	332.75
587.502	318.75
587.713	312.75
587.923	307.75
588.133	333.75
588.343	336.75
588.553	337.75
588.762	342.75
588.972	309.75
589.182	331.75
589.392	346.75
589.602	317.75
589.812	335.75
590.022	316.75
590.232	322.75
590.441	330.75
590.651	302.75
590.861	316.75
591.071	340.75
591.281	333.75
591.49	344.75
591.7	334.75
591.91	328.75
592.119	327.75
592.329	331.75
592.539	328.75
592.748	334.75
592.958	342.75
593.167	342.75
593.377	334.75
593.587	355.75
593.796	339.75
594.006	350.75
594.215	348.75
594.424	330.75
594.634	322.75
594.843	342.75
595.053	358.75
595.262	323.75
595.472	331.75
595.681	333.75
595.89	336.75
596.1	311.75
596.309	298.75
596.518	319.75
596.727	298.75
596.937	308.75
597.146	328.75
597.355	307.75
597.564	309.75
597.774	303.75
597.983	296.75
598.192	295.75
598.401	268.75
598.61	298.75
598.819	301.75
599.028	287.75
599.237	284.75
599.446	288.75
599.655	289.75
599.864	294.75
600.073	299.75
600.282	273.75
600.491	287.75
600.7	293.75
600.909	266.75
601.118	265.75
601.327	267.75
601.536	281.75
601.745	298.75
601.953	280.75
602.162	278.75
602.371	275.75
602.58	288.75
602.789	288.75
602.997	296.75
603.206	277.75
603.415	284.75
603.623	273.75
603.832	277.75
604.041	284.75
604.249	271.75
604.458	272.75
604.666	260.75
604.875	270.75
605.084	269.75
605.292	266.75
605.501	264.75
605.709	265.75
605.918	252.75
606.126	266.75
606.334	277.75
606.543	277.75
606.751	288.75
606.96	267.75
607.168	259.75
607.376	271.75
607.585	275.75
607.793	271.75
608.001	255.75
608.21	262.75
608.418	285.75
608.626	271.75
608.834	243.75
609.043	266.75
609.251	271.75
609.459	261.75
609.667	269.75
609.875	268.75
610.083	273.75
610.291	266.75
610.499	262.75
610.707	267.75
610.916	269.75
611.124	289.75
611.332	290.75
611.54	275.75
611.748	271.75
611.955	255.75
612.163	250.75
612.371	255.75
612.579	243.75
612.787	252.75
612.995	258.75
613.203	254.75
613.411	268.75
613.618	259.75
613.826	258.75
614.034	264.75
614.242	262.75
614.449	255.75
614.657	249.75
614.865	259.75
615.072	264.75
615.28	271.75
615.488	242.75
615.695	257.75
615.903	250.75
616.111	248.75
616.318	266.75
616.526	276.75
616.733	259.75
616.941	260.75
617.148	250.75
617.356	260.75
617.563	261.75
617.771	268.75
617.978	261.75
618.185	273.75
618.393	251.75
618.6	252.75
618.807	251.75
619.015	238.75
619.222	257.75
619.429	251.75
619.637	247.75
619.844	242.75
620.051	242.75
620.258	245.75
620.466	233.75
620.673	220.75
620.88	235.75
621.087	245.75
621.294	230.75
621.501	242.75
621.708	246.75
621.915	223.75
622.122	225.75
622.329	234.75
622.536	250.75
622.743	261.75
622.95	250.75
623.157	247.75
623.364	218.75
623.571	233.75
623.778	231.75
623.985	232.75
624.192	218.75
624.399	227.75
624.606	232.75
624.812	230.75
625.019	226.75
625.226	227.75
625.433	229.75
625.639	224.75
625.846	223.75
626.053	236.75
626.259	216.75
626.466	228.75
626.673	229.75
626.879	215.75
627.086	216.75
627.293	231.75
627.499	219.75
627.706	237.75
627.912	204.75
628.119	216.75
628.325	227.75
628.532	222.75
628.738	230.75
628.945	221.75
629.151	233.75
629.357	214.75
629.564	208.75
629.77	223.75
629.976	212.75
630.183	219.75
630.389	224.75
630.595	219.75
630.802	198.75
631.008	202.75
631.214	222.75
631.42	227.75
631.627	212.75
631.833	214.75
632.039	207.75
632.245	206.75
632.451	213.75
632.657	194.75
632.863	190.75
633.069	192.75
633.275	211.75
633.481	195.75
633.688	200.75
633.893	207.75
634.099	211.75
634.305	185.75
634.511	207.75
634.717	203.75
634.923	212.75
635.129	216.75
635.335	202.75
635.541	188.75
635.747	210.75
635.952	190.75
636.158	201.75
636.364	187.75
636.57	181.75
636.775	191.75
636.981	202.75
637.187	212.75
637.392	197.75
637.598	201.75
637.804	191.75
638.009	191.75
638.215	206.75
638.421	198.75
638.626	198.75
638.832	190.75
639.037	189.75
639.243	185.75
639.448	184.75
639.654	185.75
639.859	200.75
640.065	196.75
640.27	171.75
640.475	188.75
640.681	192.75
640.886	195.75
641.091	180.75
641.297	191.75
641.502	182.75
641.707	178.75
641.913	203.75
642.118	186.75
642.323	178.75
642.528	171.75
642.733	189.75
642.939	172.75
643.144	155.75
643.349	165.75
643.554	194.75
643.759	184.75
643.964	174.75
644.169	183.75
644.374	172.75
644.579	186.75
644.784	190.75
644.989	195.75
645.194	176.75
645.399	182.75
645.604	162.75
645.809	167.75
646.014	163.75
646.219	162.75
646.423	166.75
646.628	160.75
646.833	172.75
647.038	173.75
647.243	202.75
647.447	170.75
647.652	168.75
647.857	172.75
648.062	163.75
648.266	180.75
648.471	174.75
648.676	173.75
648.88	169.75
649.085	170.75
649.289	177.75
649.494	196.75
649.698	195.75
649.903	184.75
650.107	188.75
650.312	182.75
650.516	151.75
650.721	164.75
650.925	163.75
651.13	148.75
651.334	155.75
651.539	152.75
651.743	164.75
651.947	153.75
652.152	158.75
652.356	165.75
652.56	164.75
652.764	152.75
652.969	155.75
653.173	146.75
653.377	150.75
653.581	149.75
653.785	135.75
653.99	144.75
654.194	147.75
654.398	143.75
654.602	143.75
654.806	145.75
655.01	147.75
655.214	151.75
655.418	132.75
655.622	145.75
655.826	143.75
656.03	122.75
656.234	133.75
656.438	139.75
656.642	130.75
656.846	137.75
657.049	144.75
657.253	132.75
657.457	138.75
657.661	101.75
657.865	117.75
658.068	130.75
658.272	114.75
658.476	107.75
658.68	108.75
658.883	102.75
659.087	99.75
659.291	103.75
659.494	103.75
659.698	103.75
659.901	97.75
660.105	114.75
660.309	107.75
660.512	104.75
660.716	103.75
660.919	88.75
661.123	97.75
661.326	78.75
661.53	93.75
661.733	92.75
661.936	95.75
662.14	96.75
662.343	101.75
662.546	90.75
662.75	93.75
662.953	94.75
663.156	88.75
663.36	80.75
663.563	76.75
663.766	88.75
663.969	91.75
664.173	84.75
664.376	81.75
664.579	78.75
664.782	80.75
664.985	80.75
665.188	84.75
665.391	74.75
665.594	82.75
665.797	84.75
666	90.75
666.203	96.75
666.406	77.75
666.609	87.75
666.812	83.75
667.015	71.75
667.218	68.75
667.421	89.75
667.624	89.75
667.827	70.75
668.03	82.75
668.232	83.75
668.435	75.75
668.638	93.75
668.841	88.75
669.043	94.75
669.246	81.75
669.449	71.75
669.651	97.75
669.854	83.75
670.057	91.75
670.259	75.75
670.462	88.75
670.665	78.75
670.867	98.75
671.07	88.75
671.272	80.75
671.475	99.75
671.677	87.75
671.88	86.75
672.082	70.75
672.284	85.75
672.487	84.75
672.689	90.75
672.892	82.75
