Data from 1966.PennyLincolnUp.Lamp.En5.5.200Scan.071719.P1.Scan2.head_HRD10591_14-18-10-167.txt Node
Date: Thu Jul 18 14:18:10 EDT 2019
User: cochatt
Spectrometer: HR+D1059
Trigger mode: 1
Integration Time (sec): 1.000000E-1
Scans to average: 1
Electric dark correction enabled: true
Nonlinearity correction enabled: false
Boxcar width: 0
XAxis mode: Wavelengths
Number of Pixels in Spectrum: 2048
>>>>>Begin Spectral Data<<<<<
223.165	-17.31
223.4	-17.31
223.635	-17.31
223.869	-23.31
224.104	-29.31
224.338	-20.31
224.573	-16.31
224.808	-17.31
225.042	-2.31
225.277	-6.31
225.511	-5.31
225.746	4.69
225.98	4.69
226.215	22.69
226.449	21.69
226.683	29.69
226.918	22.69
227.152	31.69
227.387	26.69
227.621	35.69
227.856	41.69
228.09	39.69
228.324	48.69
228.559	60.69
228.793	68.69
229.027	95.69
229.262	120.69
229.496	125.69
229.73	160.69
229.964	150.69
230.199	139.69
230.433	114.69
230.667	117.69
230.901	111.69
231.136	109.69
231.37	109.69
231.604	111.69
231.838	122.69
232.072	96.69
232.306	129.69
232.541	112.69
232.775	112.69
233.009	106.69
233.243	106.69
233.477	97.69
233.711	104.69
233.945	109.69
234.179	127.69
234.413	127.69
234.647	104.69
234.881	117.69
235.115	119.69
235.349	133.69
235.583	119.69
235.817	114.69
236.051	119.69
236.285	132.69
236.519	147.69
236.753	127.69
236.987	135.69
237.221	179.69
237.455	235.69
237.689	189.69
237.922	150.69
238.156	131.69
238.39	134.69
238.624	139.69
238.858	132.69
239.091	133.69
239.325	121.69
239.559	107.69
239.793	133.69
240.027	127.69
240.26	133.69
240.494	161.69
240.728	156.69
240.961	171.69
241.195	135.69
241.429	148.69
241.662	142.69
241.896	131.69
242.13	124.69
242.363	132.69
242.597	131.69
242.83	132.69
243.064	131.69
243.298	140.69
243.531	147.69
243.765	143.69
243.998	154.69
244.232	143.69
244.465	148.69
244.699	155.69
244.932	161.69
245.166	149.69
245.399	150.69
245.633	155.69
245.866	151.69
246.099	156.69
246.333	141.69
246.566	161.69
246.8	156.69
247.033	162.69
247.266	161.69
247.5	149.69
247.733	164.69
247.966	155.69
248.2	170.69
248.433	189.69
248.666	180.69
248.899	174.69
249.133	203.69
249.366	225.69
249.599	193.69
249.832	189.69
250.066	177.69
250.299	181.69
250.532	200.69
250.765	207.69
250.998	229.69
251.231	250.69
251.465	206.69
251.698	213.69
251.931	207.69
252.164	204.69
252.397	212.69
252.63	204.69
252.863	220.69
253.096	238.69
253.329	233.69
253.562	211.69
253.795	227.69
254.028	227.69
254.261	229.69
254.494	234.69
254.727	259.69
254.96	305.69
255.193	290.69
255.426	271.69
255.659	246.69
255.892	235.69
256.124	255.69
256.357	234.69
256.59	223.69
256.823	212.69
257.056	222.69
257.289	209.69
257.521	218.69
257.754	207.69
257.987	219.69
258.22	228.69
258.452	226.69
258.685	213.69
258.918	222.69
259.151	219.69
259.383	216.69
259.616	225.69
259.849	211.69
260.081	241.69
260.314	246.69
260.547	258.69
260.779	255.69
261.012	245.69
261.244	257.69
261.477	245.69
261.71	233.69
261.942	234.69
262.175	230.69
262.407	224.69
262.64	219.69
262.872	204.69
263.105	205.69
263.337	225.69
263.57	214.69
263.802	205.69
264.035	223.69
264.267	217.69
264.499	213.69
264.732	220.69
264.964	207.69
265.197	217.69
265.429	210.69
265.661	217.69
265.894	214.69
266.126	225.69
266.358	227.69
266.591	244.69
266.823	221.69
267.055	222.69
267.287	224.69
267.52	236.69
267.752	237.69
267.984	239.69
268.216	233.69
268.448	240.69
268.681	248.69
268.913	264.69
269.145	259.69
269.377	291.69
269.609	271.69
269.841	274.69
270.073	290.69
270.306	309.69
270.538	312.69
270.77	324.69
271.002	296.69
271.234	292.69
271.466	298.69
271.698	339.69
271.93	330.69
272.162	311.69
272.394	307.69
272.626	306.69
272.858	282.69
273.09	294.69
273.322	280.69
273.553	254.69
273.785	261.69
274.017	265.69
274.249	281.69
274.481	261.69
274.713	278.69
274.945	269.69
275.176	257.69
275.408	277.69
275.64	273.69
275.872	258.69
276.104	278.69
276.335	265.69
276.567	273.69
276.799	273.69
277.031	322.69
277.262	323.69
277.494	341.69
277.726	300.69
277.957	301.69
278.189	293.69
278.421	286.69
278.652	286.69
278.884	290.69
279.115	269.69
279.347	281.69
279.579	281.69
279.81	275.69
280.042	272.69
280.273	258.69
280.505	263.69
280.736	278.69
280.968	278.69
281.199	278.69
281.431	280.69
281.662	262.69
281.894	280.69
282.125	277.69
282.356	293.69
282.588	318.69
282.819	329.69
283.051	284.69
283.282	279.69
283.513	277.69
283.745	297.69
283.976	300.69
284.207	295.69
284.439	296.69
284.67	279.69
284.901	284.69
285.132	301.69
285.364	290.69
285.595	278.69
285.826	294.69
286.057	276.69
286.288	277.69
286.52	287.69
286.751	306.69
286.982	293.69
287.213	290.69
287.444	307.69
287.675	306.69
287.906	305.69
288.138	309.69
288.369	309.69
288.6	302.69
288.831	306.69
289.062	301.69
289.293	303.69
289.524	318.69
289.755	302.69
289.986	323.69
290.217	298.69
290.448	293.69
290.679	296.69
290.91	282.69
291.141	332.69
291.371	290.69
291.602	300.69
291.833	293.69
292.064	316.69
292.295	297.69
292.526	311.69
292.757	305.69
292.987	300.69
293.218	303.69
293.449	338.69
293.68	313.69
293.91	298.69
294.141	312.69
294.372	299.69
294.603	302.69
294.833	310.69
295.064	296.69
295.295	313.69
295.525	292.69
295.756	298.69
295.987	309.69
296.217	339.69
296.448	346.69
296.679	323.69
296.909	305.69
297.14	323.69
297.37	297.69
297.601	317.69
297.831	304.69
298.062	329.69
298.292	317.69
298.523	331.69
298.753	325.69
298.984	319.69
299.214	330.69
299.445	326.69
299.675	321.69
299.905	328.69
300.136	322.69
300.366	337.69
300.597	324.69
300.827	344.69
301.057	337.69
301.288	329.69
301.518	353.69
301.748	345.69
301.979	341.69
302.209	345.69
302.439	357.69
302.669	352.69
302.9	350.69
303.13	349.69
303.36	344.69
303.59	357.69
303.82	371.69
304.051	353.69
304.281	346.69
304.511	330.69
304.741	326.69
304.971	329.69
305.201	349.69
305.431	334.69
305.661	334.69
305.891	327.69
306.121	348.69
306.352	331.69
306.582	341.69
306.812	318.69
307.042	341.69
307.272	365.69
307.502	341.69
307.731	334.69
307.961	344.69
308.191	348.69
308.421	353.69
308.651	346.69
308.881	338.69
309.111	346.69
309.341	343.69
309.571	355.69
309.8	372.69
310.03	369.69
310.26	378.69
310.49	391.69
310.72	381.69
310.949	394.69
311.179	421.69
311.409	410.69
311.639	378.69
311.868	362.69
312.098	398.69
312.328	414.69
312.557	419.69
312.787	430.69
313.017	426.69
313.246	425.69
313.476	370.69
313.706	395.69
313.935	417.69
314.165	388.69
314.394	408.69
314.624	395.69
314.853	380.69
315.083	409.69
315.312	402.69
315.542	377.69
315.771	375.69
316.001	383.69
316.23	387.69
316.46	408.69
316.689	389.69
316.919	408.69
317.148	422.69
317.377	404.69
317.607	403.69
317.836	404.69
318.065	412.69
318.295	396.69
318.524	394.69
318.753	391.69
318.983	390.69
319.212	382.69
319.441	400.69
319.67	425.69
319.9	396.69
320.129	386.69
320.358	400.69
320.587	419.69
320.816	405.69
321.046	407.69
321.275	418.69
321.504	399.69
321.733	403.69
321.962	435.69
322.191	425.69
322.42	437.69
322.649	458.69
322.878	452.69
323.108	483.69
323.337	483.69
323.566	519.69
323.795	526.69
324.024	570.69
324.253	654.69
324.482	961.69
324.71	1483.69
324.939	2224.69
325.168	1916.69
325.397	974.69
325.626	653.69
325.855	566.69
326.084	505.69
326.313	503.69
326.542	474.69
326.77	557.69
326.999	648.69
327.228	879.69
327.457	1345.69
327.686	1683.69
327.914	1096.69
328.143	741.69
328.372	623.69
328.6	603.69
328.829	591.69
329.058	595.69
329.287	585.69
329.515	556.69
329.744	548.69
329.972	545.69
330.201	554.69
330.43	569.69
330.658	602.69
330.887	618.69
331.115	606.69
331.344	528.69
331.572	510.69
331.801	504.69
332.03	533.69
332.258	493.69
332.486	497.69
332.715	485.69
332.943	493.69
333.172	481.69
333.4	479.69
333.629	489.69
333.857	512.69
334.085	516.69
334.314	520.69
334.542	577.69
334.771	564.69
334.999	535.69
335.227	514.69
335.455	479.69
335.684	513.69
335.912	477.69
336.14	456.69
336.369	482.69
336.597	488.69
336.825	488.69
337.053	493.69
337.281	446.69
337.51	475.69
337.738	474.69
337.966	462.69
338.194	473.69
338.422	462.69
338.65	458.69
338.878	478.69
339.106	451.69
339.334	455.69
339.562	470.69
339.79	454.69
340.018	460.69
340.246	444.69
340.474	467.69
340.702	476.69
340.93	450.69
341.158	459.69
341.386	443.69
341.614	450.69
341.842	454.69
342.07	452.69
342.298	442.69
342.526	439.69
342.754	446.69
342.981	440.69
343.209	458.69
343.437	434.69
343.665	446.69
343.893	474.69
344.12	496.69
344.348	481.69
344.576	465.69
344.804	445.69
345.031	474.69
345.259	479.69
345.487	468.69
345.714	471.69
345.942	456.69
346.17	464.69
346.397	439.69
346.625	452.69
346.853	448.69
347.08	442.69
347.308	433.69
347.535	431.69
347.763	457.69
347.99	453.69
348.218	452.69
348.445	460.69
348.673	453.69
348.9	443.69
349.128	429.69
349.355	438.69
349.583	443.69
349.81	447.69
350.037	418.69
350.265	433.69
350.492	448.69
350.72	428.69
350.947	459.69
351.174	430.69
351.402	435.69
351.629	450.69
351.856	460.69
352.083	424.69
352.311	460.69
352.538	468.69
352.765	455.69
352.992	445.69
353.22	457.69
353.447	441.69
353.674	450.69
353.901	429.69
354.128	406.69
354.355	430.69
354.583	434.69
354.81	455.69
355.037	422.69
355.264	420.69
355.491	415.69
355.718	418.69
355.945	417.69
356.172	410.69
356.399	411.69
356.626	416.69
356.853	420.69
357.08	420.69
357.307	420.69
357.534	423.69
357.761	425.69
357.988	439.69
358.215	435.69
358.441	425.69
358.668	397.69
358.895	434.69
359.122	417.69
359.349	437.69
359.576	444.69
359.802	466.69
360.029	501.69
360.256	517.69
360.483	471.69
360.709	455.69
360.936	464.69
361.163	446.69
361.39	450.69
361.616	455.69
361.843	450.69
362.07	444.69
362.296	450.69
362.523	455.69
362.749	438.69
362.976	434.69
363.203	428.69
363.429	439.69
363.656	426.69
363.882	443.69
364.109	455.69
364.335	416.69
364.562	443.69
364.788	423.69
365.015	429.69
365.241	410.69
365.468	442.69
365.694	436.69
365.92	454.69
366.147	440.69
366.373	440.69
366.599	430.69
366.826	421.69
367.052	423.69
367.278	439.69
367.505	449.69
367.731	418.69
367.957	434.69
368.184	436.69
368.41	443.69
368.636	464.69
368.862	454.69
369.089	442.69
369.315	446.69
369.541	430.69
369.767	414.69
369.993	433.69
370.219	436.69
370.445	453.69
370.672	430.69
370.898	432.69
371.124	432.69
371.35	450.69
371.576	425.69
371.802	461.69
372.028	451.69
372.254	407.69
372.48	430.69
372.706	458.69
372.932	427.69
373.158	439.69
373.384	441.69
373.61	447.69
373.835	453.69
374.061	456.69
374.287	448.69
374.513	460.69
374.739	433.69
374.965	429.69
375.191	473.69
375.416	444.69
375.642	445.69
375.868	461.69
376.094	466.69
376.319	439.69
376.545	431.69
376.771	443.69
376.997	447.69
377.222	444.69
377.448	453.69
377.674	443.69
377.899	448.69
378.125	435.69
378.35	445.69
378.576	442.69
378.802	446.69
379.027	459.69
379.253	448.69
379.478	446.69
379.704	443.69
379.929	453.69
380.155	425.69
380.38	448.69
380.606	431.69
380.831	465.69
381.057	445.69
381.282	438.69
381.507	440.69
381.733	450.69
381.958	464.69
382.184	449.69
382.409	467.69
382.634	455.69
382.86	463.69
383.085	457.69
383.31	443.69
383.535	468.69
383.761	465.69
383.986	452.69
384.211	468.69
384.436	487.69
384.662	498.69
384.887	478.69
385.112	481.69
385.337	478.69
385.562	487.69
385.787	486.69
386.013	510.69
386.238	497.69
386.463	482.69
386.688	493.69
386.913	517.69
387.138	487.69
387.363	499.69
387.588	498.69
387.813	503.69
388.038	488.69
388.263	492.69
388.488	490.69
388.713	505.69
388.938	497.69
389.163	505.69
389.387	489.69
389.612	479.69
389.837	498.69
390.062	496.69
390.287	484.69
390.512	478.69
390.736	489.69
390.961	506.69
391.186	475.69
391.411	486.69
391.636	515.69
391.86	503.69
392.085	515.69
392.31	533.69
392.534	505.69
392.759	500.69
392.984	501.69
393.208	500.69
393.433	495.69
393.658	526.69
393.882	521.69
394.107	518.69
394.331	505.69
394.556	507.69
394.78	490.69
395.005	513.69
395.229	515.69
395.454	526.69
395.678	522.69
395.903	533.69
396.127	527.69
396.352	557.69
396.576	527.69
396.801	523.69
397.025	526.69
397.249	542.69
397.474	531.69
397.698	527.69
397.922	565.69
398.147	550.69
398.371	567.69
398.595	566.69
398.82	568.69
399.044	606.69
399.268	619.69
399.492	627.69
399.717	663.69
399.941	684.69
400.165	716.69
400.389	709.69
400.613	668.69
400.837	619.69
401.062	595.69
401.286	579.69
401.51	597.69
401.734	595.69
401.958	565.69
402.182	566.69
402.406	591.69
402.63	586.69
402.854	588.69
403.078	602.69
403.302	605.69
403.526	612.69
403.75	585.69
403.974	595.69
404.198	586.69
404.422	586.69
404.645	630.69
404.869	637.69
405.093	637.69
405.317	694.69
405.541	741.69
405.765	669.69
405.988	633.69
406.212	641.69
406.436	648.69
406.66	665.69
406.883	630.69
407.107	697.69
407.331	717.69
407.555	798.69
407.778	766.69
408.002	705.69
408.226	681.69
408.449	665.69
408.673	660.69
408.896	696.69
409.12	745.69
409.344	713.69
409.567	627.69
409.791	616.69
410.014	595.69
410.238	600.69
410.461	597.69
410.685	611.69
410.908	625.69
411.132	659.69
411.355	692.69
411.578	676.69
411.802	607.69
412.025	594.69
412.249	601.69
412.472	623.69
412.695	684.69
412.919	665.69
413.142	642.69
413.365	595.69
413.589	574.69
413.812	590.69
414.035	565.69
414.258	563.69
414.482	575.69
414.705	601.69
414.928	573.69
415.151	564.69
415.374	567.69
415.597	554.69
415.821	575.69
416.044	574.69
416.267	575.69
416.49	563.69
416.713	546.69
416.936	582.69
417.159	567.69
417.382	579.69
417.605	580.69
417.828	602.69
418.051	595.69
418.274	591.69
418.497	567.69
418.72	572.69
418.943	561.69
419.166	596.69
419.389	625.69
419.611	628.69
419.834	592.69
420.057	600.69
420.28	626.69
420.503	595.69
420.726	579.69
420.948	617.69
421.171	664.69
421.394	710.69
421.617	613.69
421.839	581.69
422.062	595.69
422.285	631.69
422.507	666.69
422.73	743.69
422.953	722.69
423.175	640.69
423.398	622.69
423.621	620.69
423.843	630.69
424.066	638.69
424.288	614.69
424.511	653.69
424.733	716.69
424.956	814.69
425.178	757.69
425.401	759.69
425.623	772.69
425.846	714.69
426.068	652.69
426.291	624.69
426.513	611.69
426.735	650.69
426.958	701.69
427.18	776.69
427.402	941.69
427.625	1005.69
427.847	883.69
428.069	759.69
428.292	685.69
428.514	639.69
428.736	611.69
428.958	608.69
429.181	582.69
429.403	594.69
429.625	588.69
429.847	634.69
430.069	685.69
430.292	705.69
430.514	596.69
430.736	593.69
430.958	570.69
431.18	555.69
431.402	578.69
431.624	563.69
431.846	530.69
432.068	550.69
432.29	566.69
432.512	561.69
432.734	548.69
432.956	546.69
433.178	575.69
433.4	598.69
433.622	551.69
433.844	561.69
434.066	543.69
434.287	571.69
434.509	570.69
434.731	591.69
434.953	592.69
435.175	586.69
435.397	651.69
435.618	639.69
435.84	699.69
436.062	784.69
436.284	859.69
436.505	720.69
436.727	647.69
436.949	620.69
437.17	614.69
437.392	595.69
437.614	598.69
437.835	617.69
438.057	743.69
438.278	860.69
438.5	862.69
438.721	928.69
438.943	897.69
439.165	705.69
439.386	661.69
439.608	660.69
439.829	641.69
440.05	657.69
440.272	723.69
440.493	684.69
440.715	614.69
440.936	606.69
441.158	594.69
441.379	598.69
441.6	626.69
441.822	625.69
442.043	664.69
442.264	762.69
442.486	812.69
442.707	694.69
442.928	667.69
443.149	650.69
443.371	662.69
443.592	722.69
443.813	819.69
444.034	915.69
444.255	722.69
444.476	669.69
444.698	647.69
444.919	641.69
445.14	773.69
445.361	706.69
445.582	664.69
445.803	751.69
446.024	866.69
446.245	867.69
446.466	824.69
446.687	673.69
446.908	637.69
447.129	607.69
447.35	610.69
447.571	580.69
447.792	587.69
448.013	594.69
448.234	606.69
448.455	647.69
448.675	781.69
448.896	937.69
449.117	790.69
449.338	733.69
449.559	858.69
449.779	987.69
450	739.69
450.221	644.69
450.442	584.69
450.662	579.69
450.883	554.69
451.104	580.69
451.324	599.69
451.545	553.69
451.766	548.69
451.986	531.69
452.207	531.69
452.428	489.69
452.648	545.69
452.869	533.69
453.089	525.69
453.31	534.69
453.53	518.69
453.751	502.69
453.971	534.69
454.192	557.69
454.412	551.69
454.633	529.69
454.853	505.69
455.073	511.69
455.294	553.69
455.514	618.69
455.734	615.69
455.955	529.69
456.175	485.69
456.395	491.69
456.616	493.69
456.836	517.69
457.056	495.69
457.276	492.69
457.497	479.69
457.717	492.69
457.937	483.69
458.157	499.69
458.377	531.69
458.598	562.69
458.818	607.69
459.038	680.69
459.258	711.69
459.478	601.69
459.698	579.69
459.918	557.69
460.138	582.69
460.358	559.69
460.578	566.69
460.798	577.69
461.018	602.69
461.238	579.69
461.458	586.69
461.678	553.69
461.898	590.69
462.118	574.69
462.338	594.69
462.558	595.69
462.777	595.69
462.997	617.69
463.217	638.69
463.437	659.69
463.657	610.69
463.876	631.69
464.096	603.69
464.316	620.69
464.536	597.69
464.755	613.69
464.975	615.69
465.195	654.69
465.414	728.69
465.634	642.69
465.854	602.69
466.073	596.69
466.293	588.69
466.512	578.69
466.732	527.69
466.951	554.69
467.171	537.69
467.391	549.69
467.61	546.69
467.829	544.69
468.049	548.69
468.268	532.69
468.488	545.69
468.707	551.69
468.927	522.69
469.146	542.69
469.365	552.69
469.585	522.69
469.804	540.69
470.023	561.69
470.243	563.69
470.462	567.69
470.681	556.69
470.901	567.69
471.12	538.69
471.339	563.69
471.558	546.69
471.777	569.69
471.997	543.69
472.216	535.69
472.435	580.69
472.654	592.69
472.873	572.69
473.092	550.69
473.311	559.69
473.53	554.69
473.749	581.69
473.968	609.69
474.187	706.69
474.406	729.69
474.625	618.69
474.844	571.69
475.063	558.69
475.282	568.69
475.501	544.69
475.72	557.69
475.939	557.69
476.158	578.69
476.377	595.69
476.596	541.69
476.814	591.69
477.033	581.69
477.252	589.69
477.471	594.69
477.69	605.69
477.908	622.69
478.127	606.69
478.346	600.69
478.564	638.69
478.783	610.69
479.002	617.69
479.22	644.69
479.439	650.69
479.658	651.69
479.876	653.69
480.095	684.69
480.313	721.69
480.532	699.69
480.751	690.69
480.969	671.69
481.188	739.69
481.406	783.69
481.624	710.69
481.843	683.69
482.061	659.69
482.28	660.69
482.498	647.69
482.717	630.69
482.935	646.69
483.153	659.69
483.372	637.69
483.59	639.69
483.808	650.69
484.027	650.69
484.245	649.69
484.463	659.69
484.681	681.69
484.9	658.69
485.118	681.69
485.336	649.69
485.554	672.69
485.772	694.69
485.99	681.69
486.209	674.69
486.427	671.69
486.645	663.69
486.863	700.69
487.081	696.69
487.299	703.69
487.517	723.69
487.735	698.69
487.953	670.69
488.171	681.69
488.389	716.69
488.607	701.69
488.825	687.69
489.043	713.69
489.261	708.69
489.479	720.69
489.696	731.69
489.914	726.69
490.132	726.69
490.35	730.69
490.568	738.69
490.786	739.69
491.003	744.69
491.221	774.69
491.439	761.69
491.657	781.69
491.874	802.69
492.092	810.69
492.31	784.69
492.527	820.69
492.745	809.69
492.963	809.69
493.18	832.69
493.398	802.69
493.615	815.69
493.833	827.69
494.05	831.69
494.268	814.69
494.485	804.69
494.703	836.69
494.92	838.69
495.138	800.69
495.355	819.69
495.573	810.69
495.79	827.69
496.008	822.69
496.225	822.69
496.442	823.69
496.66	857.69
496.877	817.69
497.094	833.69
497.312	863.69
497.529	836.69
497.746	839.69
497.963	883.69
498.181	892.69
498.398	948.69
498.615	954.69
498.832	959.69
499.049	954.69
499.267	978.69
499.484	997.69
499.701	1062.69
499.918	1095.69
500.135	1165.69
500.352	1171.69
500.569	1249.69
500.786	1203.69
501.003	1209.69
501.22	1169.69
501.437	1127.69
501.654	1099.69
501.871	1085.69
502.088	1064.69
502.305	999.69
502.522	943.69
502.739	948.69
502.956	922.69
503.172	881.69
503.389	897.69
503.606	869.69
503.823	885.69
504.04	861.69
504.256	853.69
504.473	831.69
504.69	831.69
504.907	830.69
505.123	826.69
505.34	808.69
505.557	812.69
505.773	790.69
505.99	795.69
506.207	798.69
506.423	818.69
506.64	767.69
506.856	777.69
507.073	796.69
507.289	789.69
507.506	761.69
507.722	783.69
507.939	796.69
508.155	775.69
508.372	758.69
508.588	738.69
508.805	732.69
509.021	759.69
509.238	762.69
509.454	769.69
509.67	756.69
509.887	710.69
510.103	720.69
510.319	747.69
510.536	844.69
510.752	1298.69
510.968	1097.69
511.184	750.69
511.401	719.69
511.617	707.69
511.833	729.69
512.049	693.69
512.265	673.69
512.481	685.69
512.698	682.69
512.914	700.69
513.13	697.69
513.346	692.69
513.562	696.69
513.778	698.69
513.994	709.69
514.21	694.69
514.426	744.69
514.642	789.69
514.858	818.69
515.074	821.69
515.29	959.69
515.506	1343.69
515.721	1132.69
515.937	827.69
516.153	760.69
516.369	736.69
516.585	738.69
516.801	746.69
517.016	736.69
517.232	692.69
517.448	755.69
517.664	728.69
517.879	746.69
518.095	741.69
518.311	735.69
518.527	734.69
518.742	736.69
518.958	721.69
519.173	705.69
519.389	691.69
519.605	690.69
519.82	690.69
520.036	715.69
520.251	718.69
520.467	754.69
520.682	746.69
520.898	734.69
521.113	769.69
521.329	823.69
521.544	861.69
521.76	1058.69
521.975	1667.69
522.19	1602.69
522.406	977.69
522.621	756.69
522.836	712.69
523.052	669.69
523.267	653.69
523.482	683.69
523.698	645.69
523.913	667.69
524.128	625.69
524.343	601.69
524.559	627.69
524.774	612.69
524.989	625.69
525.204	617.69
525.419	612.69
525.634	597.69
525.849	591.69
526.064	577.69
526.28	598.69
526.495	619.69
526.71	584.69
526.925	572.69
527.14	565.69
527.355	574.69
527.57	585.69
527.785	573.69
527.999	580.69
528.214	580.69
528.429	602.69
528.644	583.69
528.859	590.69
529.074	593.69
529.289	607.69
529.503	687.69
529.718	637.69
529.933	619.69
530.148	594.69
530.363	599.69
530.577	598.69
530.792	574.69
531.007	567.69
531.221	584.69
531.436	565.69
531.651	548.69
531.865	569.69
532.08	575.69
532.295	553.69
532.509	537.69
532.724	549.69
532.938	539.69
533.153	555.69
533.367	527.69
533.582	537.69
533.796	545.69
534.011	553.69
534.225	559.69
534.44	577.69
534.654	546.69
534.868	561.69
535.083	550.69
535.297	550.69
535.511	542.69
535.726	586.69
535.94	555.69
536.154	543.69
536.369	541.69
536.583	542.69
536.797	540.69
537.011	541.69
537.225	547.69
537.44	518.69
537.654	531.69
537.868	535.69
538.082	540.69
538.296	556.69
538.51	554.69
538.724	561.69
538.938	543.69
539.153	531.69
539.367	546.69
539.581	545.69
539.795	536.69
540.009	536.69
540.222	541.69
540.436	521.69
540.65	521.69
540.864	531.69
541.078	555.69
541.292	538.69
541.506	535.69
541.72	531.69
541.934	507.69
542.147	517.69
542.361	537.69
542.575	516.69
542.789	526.69
543.002	520.69
543.216	543.69
543.43	537.69
543.644	514.69
543.857	531.69
544.071	525.69
544.285	549.69
544.498	539.69
544.712	516.69
544.925	521.69
545.139	516.69
545.352	521.69
545.566	500.69
545.779	504.69
545.993	530.69
546.206	522.69
546.42	525.69
546.633	489.69
546.847	535.69
547.06	523.69
547.274	514.69
547.487	501.69
547.7	507.69
547.914	497.69
548.127	510.69
548.34	524.69
548.554	485.69
548.767	521.69
548.98	513.69
549.193	501.69
549.407	513.69
549.62	515.69
549.833	514.69
550.046	507.69
550.259	492.69
550.473	523.69
550.686	497.69
550.899	497.69
551.112	486.69
551.325	505.69
551.538	509.69
551.751	501.69
551.964	524.69
552.177	515.69
552.39	526.69
552.603	524.69
552.816	507.69
553.029	506.69
553.242	523.69
553.455	538.69
553.667	517.69
553.88	529.69
554.093	518.69
554.306	521.69
554.519	519.69
554.732	504.69
554.944	526.69
555.157	481.69
555.37	488.69
555.583	485.69
555.795	508.69
556.008	475.69
556.221	486.69
556.433	458.69
556.646	462.69
556.859	476.69
557.071	447.69
557.284	474.69
557.496	441.69
557.709	452.69
557.921	455.69
558.134	472.69
558.346	455.69
558.559	444.69
558.771	457.69
558.984	452.69
559.196	425.69
559.409	445.69
559.621	441.69
559.833	458.69
560.046	446.69
560.258	443.69
560.47	449.69
560.683	453.69
560.895	435.69
561.107	439.69
561.32	458.69
561.532	452.69
561.744	454.69
561.956	462.69
562.168	438.69
562.381	456.69
562.593	429.69
562.805	462.69
563.017	473.69
563.229	468.69
563.441	465.69
563.653	458.69
563.865	440.69
564.077	456.69
564.289	468.69
564.501	455.69
564.713	461.69
564.925	484.69
565.137	501.69
565.349	501.69
565.561	523.69
565.773	501.69
565.985	518.69
566.197	524.69
566.408	533.69
566.62	539.69
566.832	562.69
567.044	575.69
567.255	581.69
567.467	591.69
567.679	586.69
567.891	603.69
568.102	606.69
568.314	597.69
568.526	564.69
568.737	551.69
568.949	539.69
569.161	517.69
569.372	494.69
569.584	477.69
569.795	491.69
570.007	482.69
570.218	516.69
570.43	492.69
570.641	464.69
570.853	460.69
571.064	460.69
571.276	436.69
571.487	431.69
571.698	447.69
571.91	434.69
572.121	417.69
572.333	414.69
572.544	418.69
572.755	411.69
572.966	416.69
573.178	407.69
573.389	403.69
573.6	398.69
573.811	415.69
574.023	394.69
574.234	405.69
574.445	404.69
574.656	391.69
574.867	404.69
575.078	401.69
575.289	391.69
575.501	387.69
575.712	383.69
575.923	386.69
576.134	372.69
576.345	388.69
576.556	369.69
576.767	375.69
576.978	385.69
577.188	391.69
577.399	369.69
577.61	373.69
577.821	388.69
578.032	374.69
578.243	407.69
578.454	604.69
578.665	477.69
578.875	382.69
579.086	357.69
579.297	373.69
579.508	356.69
579.718	373.69
579.929	359.69
580.14	369.69
580.35	373.69
580.561	360.69
580.772	346.69
580.982	377.69
581.193	357.69
581.403	355.69
581.614	354.69
581.825	368.69
582.035	347.69
582.246	359.69
582.456	337.69
582.667	365.69
582.877	335.69
583.087	337.69
583.298	348.69
583.508	349.69
583.719	349.69
583.929	353.69
584.139	345.69
584.35	357.69
584.56	378.69
584.77	334.69
584.981	354.69
585.191	339.69
585.401	352.69
585.611	346.69
585.821	356.69
586.032	343.69
586.242	348.69
586.452	341.69
586.662	331.69
586.872	338.69
587.082	354.69
587.292	350.69
587.502	336.69
587.713	341.69
587.923	345.69
588.133	344.69
588.343	339.69
588.553	340.69
588.762	332.69
588.972	338.69
589.182	353.69
589.392	358.69
589.602	340.69
589.812	338.69
590.022	346.69
590.232	312.69
590.441	331.69
590.651	323.69
590.861	343.69
591.071	352.69
591.281	340.69
591.49	333.69
591.7	345.69
591.91	345.69
592.119	350.69
592.329	363.69
592.539	375.69
592.748	379.69
592.958	366.69
593.167	369.69
593.377	369.69
593.587	375.69
593.796	362.69
594.006	349.69
594.215	360.69
594.424	345.69
594.634	355.69
594.843	363.69
595.053	354.69
595.262	342.69
595.472	337.69
595.681	335.69
595.89	334.69
596.1	342.69
596.309	318.69
596.518	348.69
596.727	328.69
596.937	341.69
597.146	328.69
597.355	325.69
597.564	332.69
597.774	323.69
597.983	319.69
598.192	311.69
598.401	315.69
598.61	317.69
598.819	302.69
599.028	293.69
599.237	297.69
599.446	294.69
599.655	293.69
599.864	316.69
600.073	294.69
600.282	323.69
600.491	307.69
600.7	296.69
600.909	297.69
601.118	305.69
601.327	311.69
601.536	309.69
601.745	294.69
601.953	295.69
602.162	299.69
602.371	302.69
602.58	301.69
602.789	289.69
602.997	299.69
603.206	290.69
603.415	294.69
603.623	277.69
603.832	283.69
604.041	286.69
604.249	281.69
604.458	298.69
604.666	265.69
604.875	282.69
605.084	283.69
605.292	277.69
605.501	281.69
605.709	295.69
605.918	275.69
606.126	259.69
606.334	285.69
606.543	279.69
606.751	285.69
606.96	286.69
607.168	276.69
607.376	284.69
607.585	282.69
607.793	270.69
608.001	279.69
608.21	268.69
608.418	277.69
608.626	278.69
608.834	246.69
609.043	274.69
609.251	292.69
609.459	275.69
609.667	277.69
609.875	274.69
610.083	250.69
610.291	299.69
610.499	292.69
610.707	252.69
610.916	259.69
611.124	283.69
611.332	295.69
611.54	281.69
611.748	265.69
611.955	278.69
612.163	269.69
612.371	283.69
612.579	275.69
612.787	261.69
612.995	261.69
613.203	293.69
613.411	252.69
613.618	272.69
613.826	245.69
614.034	265.69
614.242	270.69
614.449	265.69
614.657	288.69
614.865	274.69
615.072	265.69
615.28	274.69
615.488	245.69
615.695	259.69
615.903	258.69
616.111	251.69
616.318	288.69
616.526	267.69
616.733	248.69
616.941	284.69
617.148	258.69
617.356	259.69
617.563	275.69
617.771	254.69
617.978	267.69
618.185	259.69
618.393	269.69
618.6	247.69
618.807	285.69
619.015	257.69
619.222	248.69
619.429	250.69
619.637	262.69
619.844	265.69
620.051	260.69
620.258	274.69
620.466	248.69
620.673	236.69
620.88	248.69
621.087	253.69
621.294	239.69
621.501	241.69
621.708	251.69
621.915	247.69
622.122	247.69
622.329	241.69
622.536	251.69
622.743	275.69
622.95	245.69
623.157	232.69
623.364	252.69
623.571	242.69
623.778	245.69
623.985	240.69
624.192	244.69
624.399	237.69
624.606	263.69
624.812	237.69
625.019	236.69
625.226	245.69
625.433	249.69
625.639	254.69
625.846	230.69
626.053	228.69
626.259	242.69
626.466	253.69
626.673	238.69
626.879	212.69
627.086	241.69
627.293	236.69
627.499	233.69
627.706	232.69
627.912	233.69
628.119	230.69
628.325	221.69
628.532	227.69
628.738	223.69
628.945	238.69
629.151	234.69
629.357	238.69
629.564	231.69
629.77	229.69
629.976	228.69
630.183	242.69
630.389	231.69
630.595	231.69
630.802	213.69
631.008	203.69
631.214	214.69
631.42	197.69
631.627	223.69
631.833	206.69
632.039	225.69
632.245	225.69
632.451	200.69
632.657	205.69
632.863	215.69
633.069	228.69
633.275	215.69
633.481	222.69
633.688	196.69
633.893	220.69
634.099	214.69
634.305	196.69
634.511	206.69
634.717	216.69
634.923	198.69
635.129	199.69
635.335	215.69
635.541	198.69
635.747	215.69
635.952	205.69
636.158	203.69
636.364	196.69
636.57	209.69
636.775	207.69
636.981	186.69
637.187	198.69
637.392	211.69
637.598	206.69
637.804	218.69
638.009	202.69
638.215	182.69
638.421	206.69
638.626	192.69
638.832	198.69
639.037	203.69
639.243	177.69
639.448	191.69
639.654	204.69
639.859	194.69
640.065	193.69
640.27	184.69
640.475	183.69
640.681	191.69
640.886	206.69
641.091	204.69
641.297	194.69
641.502	189.69
641.707	187.69
641.913	204.69
642.118	197.69
642.323	180.69
642.528	183.69
642.733	180.69
642.939	199.69
643.144	183.69
643.349	198.69
643.554	188.69
643.759	185.69
643.964	181.69
644.169	187.69
644.374	184.69
644.579	177.69
644.784	182.69
644.989	195.69
645.194	181.69
645.399	195.69
645.604	177.69
645.809	190.69
646.014	183.69
646.219	188.69
646.423	186.69
646.628	206.69
646.833	181.69
647.038	184.69
647.243	174.69
647.447	176.69
647.652	183.69
647.857	187.69
648.062	178.69
648.266	171.69
648.471	184.69
648.676	193.69
648.88	189.69
649.085	185.69
649.289	178.69
649.494	190.69
649.698	194.69
649.903	193.69
650.107	194.69
650.312	196.69
650.516	165.69
650.721	174.69
650.925	165.69
651.13	165.69
651.334	166.69
651.539	181.69
651.743	168.69
651.947	161.69
652.152	166.69
652.356	153.69
652.56	161.69
652.764	153.69
652.969	153.69
653.173	156.69
653.377	148.69
653.581	150.69
653.785	162.69
653.99	162.69
654.194	144.69
654.398	139.69
654.602	139.69
654.806	143.69
655.01	170.69
655.214	145.69
655.418	151.69
655.622	153.69
655.826	130.69
656.03	142.69
656.234	155.69
656.438	132.69
656.642	145.69
656.846	131.69
657.049	151.69
657.253	147.69
657.457	132.69
657.661	120.69
657.865	121.69
658.068	125.69
658.272	120.69
658.476	123.69
658.68	113.69
658.883	115.69
659.087	109.69
659.291	102.69
659.494	99.69
659.698	97.69
659.901	100.69
660.105	101.69
660.309	87.69
660.512	89.69
660.716	96.69
660.919	86.69
661.123	98.69
661.326	97.69
661.53	92.69
661.733	74.69
661.936	114.69
662.14	94.69
662.343	82.69
662.546	88.69
662.75	81.69
662.953	81.69
663.156	82.69
663.36	91.69
663.563	81.69
663.766	74.69
663.969	85.69
664.173	81.69
664.376	97.69
664.579	87.69
664.782	73.69
664.985	86.69
665.188	69.69
665.391	81.69
665.594	88.69
665.797	77.69
666	79.69
666.203	87.69
666.406	77.69
666.609	89.69
666.812	78.69
667.015	89.69
667.218	88.69
667.421	85.69
667.624	85.69
667.827	83.69
668.03	84.69
668.232	93.69
668.435	85.69
668.638	79.69
668.841	74.69
669.043	88.69
669.246	73.69
669.449	84.69
669.651	70.69
669.854	84.69
670.057	77.69
670.259	79.69
670.462	85.69
670.665	91.69
670.867	87.69
671.07	80.69
671.272	98.69
671.475	72.69
671.677	87.69
671.88	82.69
672.082	77.69
672.284	80.69
672.487	92.69
672.689	77.69
672.892	93.69
