Data from 1966.PennyLincolnUp.Lamp.En5.5.200Scan.071719.P1.Scan2.head_HRD10591_14-19-06-242.txt Node
Date: Thu Jul 18 14:19:06 EDT 2019
User: cochatt
Spectrometer: HR+D1059
Trigger mode: 1
Integration Time (sec): 1.000000E-1
Scans to average: 1
Electric dark correction enabled: true
Nonlinearity correction enabled: false
Boxcar width: 0
XAxis mode: Wavelengths
Number of Pixels in Spectrum: 2048
>>>>>Begin Spectral Data<<<<<
223.165	-12.19
223.4	-12.19
223.635	-12.19
223.869	-18.19
224.104	-24.19
224.338	-13.19
224.573	-9.19
224.808	-13.19
225.042	-9.19
225.277	0.81
225.511	-11.19
225.746	-6.19
225.98	11.81
226.215	5.81
226.449	19.81
226.683	18.81
226.918	12.81
227.152	46.81
227.387	36.81
227.621	27.81
227.856	44.81
228.09	41.81
228.324	56.81
228.559	51.81
228.793	74.81
229.027	90.81
229.262	116.81
229.496	113.81
229.73	136.81
229.964	149.81
230.199	131.81
230.433	120.81
230.667	120.81
230.901	122.81
231.136	117.81
231.37	118.81
231.604	114.81
231.838	124.81
232.072	126.81
232.306	130.81
232.541	126.81
232.775	109.81
233.009	112.81
233.243	119.81
233.477	143.81
233.711	124.81
233.945	127.81
234.179	122.81
234.413	102.81
234.647	126.81
234.881	115.81
235.115	127.81
235.349	127.81
235.583	138.81
235.817	123.81
236.051	141.81
236.285	139.81
236.519	124.81
236.753	145.81
236.987	154.81
237.221	189.81
237.455	264.81
237.689	202.81
237.922	142.81
238.156	138.81
238.39	122.81
238.624	133.81
238.858	131.81
239.091	134.81
239.325	136.81
239.559	134.81
239.793	127.81
240.027	144.81
240.26	156.81
240.494	162.81
240.728	169.81
240.961	157.81
241.195	134.81
241.429	122.81
241.662	134.81
241.896	141.81
242.13	147.81
242.363	129.81
242.597	137.81
242.83	138.81
243.064	143.81
243.298	139.81
243.531	151.81
243.765	156.81
243.998	137.81
244.232	127.81
244.465	138.81
244.699	139.81
244.932	144.81
245.166	149.81
245.399	147.81
245.633	161.81
245.866	154.81
246.099	160.81
246.333	162.81
246.566	151.81
246.8	147.81
247.033	163.81
247.266	164.81
247.5	182.81
247.733	166.81
247.966	182.81
248.2	189.81
248.433	180.81
248.666	182.81
248.899	193.81
249.133	195.81
249.366	220.81
249.599	221.81
249.832	193.81
250.066	185.81
250.299	196.81
250.532	189.81
250.765	196.81
250.998	235.81
251.231	218.81
251.465	231.81
251.698	205.81
251.931	206.81
252.164	211.81
252.397	198.81
252.63	201.81
252.863	213.81
253.096	225.81
253.329	250.81
253.562	230.81
253.795	229.81
254.028	220.81
254.261	230.81
254.494	237.81
254.727	258.81
254.96	287.81
255.193	292.81
255.426	259.81
255.659	259.81
255.892	242.81
256.124	242.81
256.357	235.81
256.59	251.81
256.823	229.81
257.056	226.81
257.289	218.81
257.521	217.81
257.754	223.81
257.987	211.81
258.22	212.81
258.452	230.81
258.685	217.81
258.918	207.81
259.151	228.81
259.383	229.81
259.616	222.81
259.849	221.81
260.081	241.81
260.314	265.81
260.547	279.81
260.779	261.81
261.012	243.81
261.244	252.81
261.477	239.81
261.71	232.81
261.942	237.81
262.175	233.81
262.407	247.81
262.64	226.81
262.872	219.81
263.105	222.81
263.337	223.81
263.57	225.81
263.802	215.81
264.035	222.81
264.267	215.81
264.499	212.81
264.732	232.81
264.964	227.81
265.197	202.81
265.429	229.81
265.661	221.81
265.894	214.81
266.126	225.81
266.358	229.81
266.591	224.81
266.823	245.81
267.055	241.81
267.287	239.81
267.52	238.81
267.752	235.81
267.984	231.81
268.216	247.81
268.448	245.81
268.681	232.81
268.913	249.81
269.145	271.81
269.377	294.81
269.609	282.81
269.841	279.81
270.073	275.81
270.306	306.81
270.538	327.81
270.77	319.81
271.002	328.81
271.234	320.81
271.466	329.81
271.698	308.81
271.93	308.81
272.162	343.81
272.394	326.81
272.626	303.81
272.858	318.81
273.09	296.81
273.322	263.81
273.553	282.81
273.785	277.81
274.017	295.81
274.249	264.81
274.481	277.81
274.713	270.81
274.945	280.81
275.176	277.81
275.408	285.81
275.64	270.81
275.872	270.81
276.104	283.81
276.335	263.81
276.567	280.81
276.799	298.81
277.031	322.81
277.262	326.81
277.494	343.81
277.726	331.81
277.957	309.81
278.189	311.81
278.421	290.81
278.652	315.81
278.884	288.81
279.115	279.81
279.347	288.81
279.579	278.81
279.81	292.81
280.042	280.81
280.273	275.81
280.505	271.81
280.736	268.81
280.968	272.81
281.199	277.81
281.431	281.81
281.662	282.81
281.894	282.81
282.125	287.81
282.356	309.81
282.588	332.81
282.819	332.81
283.051	296.81
283.282	289.81
283.513	280.81
283.745	284.81
283.976	298.81
284.207	298.81
284.439	280.81
284.67	297.81
284.901	295.81
285.132	294.81
285.364	290.81
285.595	292.81
285.826	281.81
286.057	299.81
286.288	305.81
286.52	302.81
286.751	294.81
286.982	291.81
287.213	295.81
287.444	299.81
287.675	295.81
287.906	322.81
288.138	310.81
288.369	310.81
288.6	327.81
288.831	310.81
289.062	300.81
289.293	315.81
289.524	309.81
289.755	305.81
289.986	307.81
290.217	290.81
290.448	294.81
290.679	317.81
290.91	303.81
291.141	311.81
291.371	294.81
291.602	310.81
291.833	296.81
292.064	305.81
292.295	309.81
292.526	314.81
292.757	291.81
292.987	300.81
293.218	302.81
293.449	323.81
293.68	313.81
293.91	317.81
294.141	306.81
294.372	306.81
294.603	322.81
294.833	316.81
295.064	322.81
295.295	325.81
295.525	300.81
295.756	333.81
295.987	331.81
296.217	351.81
296.448	326.81
296.679	343.81
296.909	325.81
297.14	311.81
297.37	299.81
297.601	325.81
297.831	316.81
298.062	322.81
298.292	310.81
298.523	324.81
298.753	326.81
298.984	327.81
299.214	325.81
299.445	322.81
299.675	323.81
299.905	316.81
300.136	325.81
300.366	334.81
300.597	346.81
300.827	335.81
301.057	327.81
301.288	371.81
301.518	354.81
301.748	348.81
301.979	333.81
302.209	346.81
302.439	350.81
302.669	337.81
302.9	357.81
303.13	336.81
303.36	323.81
303.59	351.81
303.82	347.81
304.051	364.81
304.281	347.81
304.511	357.81
304.741	352.81
304.971	346.81
305.201	333.81
305.431	341.81
305.661	342.81
305.891	356.81
306.121	355.81
306.352	352.81
306.582	349.81
306.812	329.81
307.042	359.81
307.272	363.81
307.502	335.81
307.731	364.81
307.961	371.81
308.191	357.81
308.421	373.81
308.651	349.81
308.881	354.81
309.111	356.81
309.341	386.81
309.571	365.81
309.8	380.81
310.03	409.81
310.26	398.81
310.49	363.81
310.72	398.81
310.949	416.81
311.179	424.81
311.409	399.81
311.639	396.81
311.868	392.81
312.098	395.81
312.328	403.81
312.557	418.81
312.787	408.81
313.017	425.81
313.246	406.81
313.476	410.81
313.706	388.81
313.935	393.81
314.165	415.81
314.394	428.81
314.624	413.81
314.853	409.81
315.083	426.81
315.312	398.81
315.542	371.81
315.771	381.81
316.001	378.81
316.23	419.81
316.46	408.81
316.689	401.81
316.919	396.81
317.148	398.81
317.377	420.81
317.607	402.81
317.836	427.81
318.065	393.81
318.295	408.81
318.524	397.81
318.753	388.81
318.983	397.81
319.212	379.81
319.441	392.81
319.67	401.81
319.9	410.81
320.129	404.81
320.358	417.81
320.587	389.81
320.816	411.81
321.046	418.81
321.275	422.81
321.504	395.81
321.733	427.81
321.962	419.81
322.191	449.81
322.42	473.81
322.649	486.81
322.878	458.81
323.108	486.81
323.337	515.81
323.566	533.81
323.795	556.81
324.024	609.81
324.253	709.81
324.482	1021.81
324.71	1585.81
324.939	2319.81
325.168	2065.81
325.397	995.81
325.626	679.81
325.855	555.81
326.084	518.81
326.313	535.81
326.542	531.81
326.77	587.81
326.999	673.81
327.228	926.81
327.457	1428.81
327.686	1755.81
327.914	1148.81
328.143	723.81
328.372	662.81
328.6	619.81
328.829	574.81
329.058	585.81
329.287	600.81
329.515	574.81
329.744	531.81
329.972	556.81
330.201	569.81
330.43	599.81
330.658	650.81
330.887	633.81
331.115	630.81
331.344	550.81
331.572	523.81
331.801	522.81
332.03	518.81
332.258	505.81
332.486	499.81
332.715	502.81
332.943	491.81
333.172	492.81
333.4	488.81
333.629	502.81
333.857	512.81
334.085	545.81
334.314	545.81
334.542	592.81
334.771	591.81
334.999	547.81
335.227	514.81
335.455	502.81
335.684	499.81
335.912	506.81
336.14	476.81
336.369	489.81
336.597	488.81
336.825	489.81
337.053	491.81
337.281	478.81
337.51	466.81
337.738	483.81
337.966	466.81
338.194	480.81
338.422	487.81
338.65	465.81
338.878	470.81
339.106	462.81
339.334	478.81
339.562	475.81
339.79	446.81
340.018	469.81
340.246	467.81
340.474	481.81
340.702	468.81
340.93	456.81
341.158	458.81
341.386	453.81
341.614	471.81
341.842	452.81
342.07	468.81
342.298	466.81
342.526	439.81
342.754	449.81
342.981	417.81
343.209	443.81
343.437	462.81
343.665	463.81
343.893	470.81
344.12	486.81
344.348	491.81
344.576	463.81
344.804	498.81
345.031	504.81
345.259	499.81
345.487	467.81
345.714	478.81
345.942	462.81
346.17	471.81
346.397	458.81
346.625	449.81
346.853	426.81
347.08	438.81
347.308	476.81
347.535	463.81
347.763	470.81
347.99	470.81
348.218	459.81
348.445	467.81
348.673	469.81
348.9	429.81
349.128	418.81
349.355	425.81
349.583	453.81
349.81	422.81
350.037	443.81
350.265	439.81
350.492	426.81
350.72	439.81
350.947	442.81
351.174	465.81
351.402	459.81
351.629	451.81
351.856	475.81
352.083	463.81
352.311	466.81
352.538	472.81
352.765	459.81
352.992	454.81
353.22	453.81
353.447	458.81
353.674	434.81
353.901	443.81
354.128	419.81
354.355	422.81
354.583	434.81
354.81	438.81
355.037	424.81
355.264	427.81
355.491	418.81
355.718	405.81
355.945	405.81
356.172	421.81
356.399	448.81
356.626	419.81
356.853	435.81
357.08	425.81
357.307	419.81
357.534	440.81
357.761	449.81
357.988	415.81
358.215	412.81
358.441	435.81
358.668	418.81
358.895	439.81
359.122	437.81
359.349	450.81
359.576	475.81
359.802	464.81
360.029	533.81
360.256	502.81
360.483	487.81
360.709	455.81
360.936	447.81
361.163	450.81
361.39	463.81
361.616	466.81
361.843	457.81
362.07	469.81
362.296	465.81
362.523	457.81
362.749	457.81
362.976	458.81
363.203	439.81
363.429	437.81
363.656	457.81
363.882	427.81
364.109	423.81
364.335	433.81
364.562	453.81
364.788	419.81
365.015	458.81
365.241	407.81
365.468	451.81
365.694	441.81
365.92	459.81
366.147	440.81
366.373	453.81
366.599	418.81
366.826	430.81
367.052	419.81
367.278	453.81
367.505	426.81
367.731	439.81
367.957	428.81
368.184	442.81
368.41	443.81
368.636	447.81
368.862	462.81
369.089	490.81
369.315	459.81
369.541	453.81
369.767	435.81
369.993	450.81
370.219	436.81
370.445	434.81
370.672	449.81
370.898	439.81
371.124	447.81
371.35	421.81
371.576	451.81
371.802	454.81
372.028	446.81
372.254	454.81
372.48	447.81
372.706	454.81
372.932	455.81
373.158	426.81
373.384	455.81
373.61	463.81
373.835	460.81
374.061	451.81
374.287	453.81
374.513	455.81
374.739	454.81
374.965	467.81
375.191	455.81
375.416	479.81
375.642	468.81
375.868	466.81
376.094	445.81
376.319	436.81
376.545	431.81
376.771	441.81
376.997	439.81
377.222	435.81
377.448	435.81
377.674	453.81
377.899	453.81
378.125	448.81
378.35	437.81
378.576	423.81
378.802	448.81
379.027	433.81
379.253	438.81
379.478	447.81
379.704	458.81
379.929	456.81
380.155	445.81
380.38	451.81
380.606	455.81
380.831	441.81
381.057	435.81
381.282	451.81
381.507	473.81
381.733	439.81
381.958	456.81
382.184	458.81
382.409	452.81
382.634	448.81
382.86	455.81
383.085	477.81
383.31	451.81
383.535	459.81
383.761	470.81
383.986	471.81
384.211	473.81
384.436	471.81
384.662	502.81
384.887	499.81
385.112	474.81
385.337	481.81
385.562	482.81
385.787	491.81
386.013	517.81
386.238	499.81
386.463	478.81
386.688	499.81
386.913	502.81
387.138	501.81
387.363	498.81
387.588	501.81
387.813	501.81
388.038	494.81
388.263	492.81
388.488	508.81
388.713	490.81
388.938	498.81
389.163	485.81
389.387	501.81
389.612	515.81
389.837	476.81
390.062	476.81
390.287	507.81
390.512	489.81
390.736	505.81
390.961	502.81
391.186	519.81
391.411	507.81
391.636	523.81
391.86	514.81
392.085	528.81
392.31	514.81
392.534	527.81
392.759	513.81
392.984	485.81
393.208	499.81
393.433	522.81
393.658	506.81
393.882	514.81
394.107	505.81
394.331	500.81
394.556	528.81
394.78	508.81
395.005	521.81
395.229	521.81
395.454	518.81
395.678	527.81
395.903	538.81
396.127	548.81
396.352	556.81
396.576	531.81
396.801	535.81
397.025	526.81
397.249	554.81
397.474	525.81
397.698	553.81
397.922	555.81
398.147	576.81
398.371	576.81
398.595	561.81
398.82	555.81
399.044	583.81
399.268	599.81
399.492	645.81
399.717	677.81
399.941	695.81
400.165	719.81
400.389	738.81
400.613	662.81
400.837	609.81
401.062	609.81
401.286	588.81
401.51	581.81
401.734	591.81
401.958	582.81
402.182	611.81
402.406	585.81
402.63	600.81
402.854	611.81
403.078	605.81
403.302	603.81
403.526	608.81
403.75	604.81
403.974	606.81
404.198	586.81
404.422	603.81
404.645	640.81
404.869	623.81
405.093	645.81
405.317	684.81
405.541	734.81
405.765	660.81
405.988	634.81
406.212	656.81
406.436	678.81
406.66	675.81
406.883	667.81
407.107	695.81
407.331	746.81
407.555	821.81
407.778	794.81
408.002	735.81
408.226	691.81
408.449	680.81
408.673	667.81
408.896	696.81
409.12	732.81
409.344	715.81
409.567	626.81
409.791	638.81
410.014	621.81
410.238	621.81
410.461	598.81
410.685	617.81
410.908	635.81
411.132	676.81
411.355	707.81
411.578	659.81
411.802	636.81
412.025	605.81
412.249	608.81
412.472	635.81
412.695	723.81
412.919	683.81
413.142	616.81
413.365	604.81
413.589	606.81
413.812	594.81
414.035	565.81
414.258	559.81
414.482	561.81
414.705	572.81
414.928	569.81
415.151	580.81
415.374	569.81
415.597	567.81
415.821	579.81
416.044	560.81
416.267	570.81
416.49	574.81
416.713	551.81
416.936	563.81
417.159	571.81
417.382	594.81
417.605	566.81
417.828	591.81
418.051	606.81
418.274	595.81
418.497	575.81
418.72	599.81
418.943	573.81
419.166	605.81
419.389	618.81
419.611	601.81
419.834	606.81
420.057	628.81
420.28	603.81
420.503	594.81
420.726	622.81
420.948	621.81
421.171	663.81
421.394	687.81
421.617	631.81
421.839	589.81
422.062	590.81
422.285	615.81
422.507	686.81
422.73	745.81
422.953	748.81
423.175	654.81
423.398	621.81
423.621	625.81
423.843	659.81
424.066	672.81
424.288	655.81
424.511	659.81
424.733	717.81
424.956	830.81
425.178	762.81
425.401	789.81
425.623	799.81
425.846	706.81
426.068	643.81
426.291	653.81
426.513	654.81
426.735	641.81
426.958	710.81
427.18	801.81
427.402	940.81
427.625	1054.81
427.847	918.81
428.069	792.81
428.292	700.81
428.514	639.81
428.736	625.81
428.958	625.81
429.181	610.81
429.403	579.81
429.625	589.81
429.847	632.81
430.069	704.81
430.292	706.81
430.514	627.81
430.736	603.81
430.958	595.81
431.18	589.81
431.402	557.81
431.624	545.81
431.846	567.81
432.068	577.81
432.29	582.81
432.512	563.81
432.734	572.81
432.956	571.81
433.178	595.81
433.4	586.81
433.622	549.81
433.844	561.81
434.066	565.81
434.287	568.81
434.509	563.81
434.731	567.81
434.953	575.81
435.175	598.81
435.397	648.81
435.618	649.81
435.84	700.81
436.062	829.81
436.284	899.81
436.505	731.81
436.727	649.81
436.949	621.81
437.17	583.81
437.392	602.81
437.614	629.81
437.835	641.81
438.057	748.81
438.278	868.81
438.5	849.81
438.721	931.81
438.943	906.81
439.165	713.81
439.386	673.81
439.608	673.81
439.829	644.81
440.05	675.81
440.272	750.81
440.493	697.81
440.715	635.81
440.936	621.81
441.158	615.81
441.379	606.81
441.6	635.81
441.822	643.81
442.043	665.81
442.264	803.81
442.486	844.81
442.707	716.81
442.928	666.81
443.149	693.81
443.371	689.81
443.592	724.81
443.813	848.81
444.034	910.81
444.255	769.81
444.476	697.81
444.698	676.81
444.919	676.81
445.14	764.81
445.361	707.81
445.582	710.81
445.803	766.81
446.024	901.81
446.245	918.81
446.466	815.81
446.687	680.81
446.908	652.81
447.129	620.81
447.35	607.81
447.571	591.81
447.792	582.81
448.013	591.81
448.234	614.81
448.455	667.81
448.675	804.81
448.896	937.81
449.117	769.81
449.338	748.81
449.559	906.81
449.779	983.81
450	796.81
450.221	664.81
450.442	599.81
450.662	587.81
450.883	598.81
451.104	585.81
451.324	609.81
451.545	555.81
451.766	562.81
451.986	525.81
452.207	514.81
452.428	545.81
452.648	535.81
452.869	517.81
453.089	543.81
453.31	522.81
453.53	548.81
453.751	503.81
453.971	542.81
454.192	556.81
454.412	545.81
454.633	529.81
454.853	523.81
455.073	509.81
455.294	555.81
455.514	649.81
455.734	599.81
455.955	542.81
456.175	517.81
456.395	473.81
456.616	515.81
456.836	513.81
457.056	517.81
457.276	492.81
457.497	517.81
457.717	528.81
457.937	514.81
458.157	517.81
458.377	545.81
458.598	550.81
458.818	598.81
459.038	683.81
459.258	710.81
459.478	612.81
459.698	592.81
459.918	555.81
460.138	585.81
460.358	579.81
460.578	558.81
460.798	569.81
461.018	581.81
461.238	572.81
461.458	586.81
461.678	602.81
461.898	590.81
462.118	584.81
462.338	586.81
462.558	597.81
462.777	603.81
462.997	637.81
463.217	653.81
463.437	667.81
463.657	634.81
463.876	610.81
464.096	614.81
464.316	612.81
464.536	651.81
464.755	635.81
464.975	620.81
465.195	667.81
465.414	734.81
465.634	660.81
465.854	613.81
466.073	583.81
466.293	573.81
466.512	546.81
466.732	527.81
466.951	574.81
467.171	555.81
467.391	546.81
467.61	561.81
467.829	555.81
468.049	565.81
468.268	547.81
468.488	545.81
468.707	513.81
468.927	525.81
469.146	527.81
469.365	543.81
469.585	526.81
469.804	548.81
470.023	580.81
470.243	553.81
470.462	563.81
470.681	580.81
470.901	586.81
471.12	563.81
471.339	554.81
471.558	577.81
471.777	555.81
471.997	554.81
472.216	562.81
472.435	591.81
472.654	605.81
472.873	581.81
473.092	574.81
473.311	559.81
473.53	566.81
473.749	577.81
473.968	607.81
474.187	721.81
474.406	760.81
474.625	612.81
474.844	572.81
475.063	572.81
475.282	565.81
475.501	551.81
475.72	574.81
475.939	573.81
476.158	572.81
476.377	568.81
476.596	569.81
476.814	600.81
477.033	616.81
477.252	594.81
477.471	588.81
477.69	591.81
477.908	621.81
478.127	602.81
478.346	614.81
478.564	600.81
478.783	620.81
479.002	637.81
479.22	637.81
479.439	673.81
479.658	689.81
479.876	673.81
480.095	651.81
480.313	714.81
480.532	710.81
480.751	674.81
480.969	688.81
481.188	783.81
481.406	783.81
481.624	743.81
481.843	692.81
482.061	681.81
482.28	691.81
482.498	664.81
482.717	659.81
482.935	679.81
483.153	652.81
483.372	702.81
483.59	660.81
483.808	648.81
484.027	657.81
484.245	659.81
484.463	661.81
484.681	675.81
484.9	684.81
485.118	669.81
485.336	672.81
485.554	679.81
485.772	714.81
485.99	668.81
486.209	680.81
486.427	697.81
486.645	692.81
486.863	728.81
487.081	718.81
487.299	720.81
487.517	699.81
487.735	695.81
487.953	711.81
488.171	711.81
488.389	709.81
488.607	712.81
488.825	728.81
489.043	707.81
489.261	731.81
489.479	719.81
489.696	716.81
489.914	730.81
490.132	748.81
490.35	751.81
490.568	746.81
490.786	752.81
491.003	739.81
491.221	782.81
491.439	784.81
491.657	799.81
491.874	790.81
492.092	801.81
492.31	839.81
492.527	828.81
492.745	833.81
492.963	823.81
493.18	838.81
493.398	838.81
493.615	862.81
493.833	856.81
494.05	855.81
494.268	854.81
494.485	854.81
494.703	826.81
494.92	852.81
495.138	850.81
495.355	865.81
495.573	844.81
495.79	862.81
496.008	862.81
496.225	866.81
496.442	841.81
496.66	840.81
496.877	838.81
497.094	850.81
497.312	868.81
497.529	854.81
497.746	866.81
497.963	891.81
498.181	923.81
498.398	958.81
498.615	950.81
498.832	969.81
499.049	1012.81
499.267	1011.81
499.484	1030.81
499.701	1090.81
499.918	1110.81
500.135	1149.81
500.352	1190.81
500.569	1245.81
500.786	1227.81
501.003	1223.81
501.22	1195.81
501.437	1153.81
501.654	1103.81
501.871	1097.81
502.088	1034.81
502.305	995.81
502.522	1010.81
502.739	938.81
502.956	917.81
503.172	893.81
503.389	869.81
503.606	873.81
503.823	886.81
504.04	877.81
504.256	842.81
504.473	870.81
504.69	883.81
504.907	855.81
505.123	822.81
505.34	813.81
505.557	817.81
505.773	811.81
505.99	808.81
506.207	804.81
506.423	821.81
506.64	823.81
506.856	798.81
507.073	809.81
507.289	781.81
507.506	782.81
507.722	772.81
507.939	801.81
508.155	791.81
508.372	763.81
508.588	756.81
508.805	759.81
509.021	757.81
509.238	790.81
509.454	769.81
509.67	774.81
509.887	759.81
510.103	764.81
510.319	759.81
510.536	838.81
510.752	1342.81
510.968	1089.81
511.184	780.81
511.401	721.81
511.617	726.81
511.833	712.81
512.049	697.81
512.265	708.81
512.481	694.81
512.698	700.81
512.914	700.81
513.13	728.81
513.346	709.81
513.562	713.81
513.778	722.81
513.994	728.81
514.21	735.81
514.426	753.81
514.642	787.81
514.858	814.81
515.074	851.81
515.29	984.81
515.506	1379.81
515.721	1182.81
515.937	863.81
516.153	793.81
516.369	757.81
516.585	749.81
516.801	753.81
517.016	750.81
517.232	771.81
517.448	745.81
517.664	778.81
517.879	739.81
518.095	729.81
518.311	749.81
518.527	750.81
518.742	761.81
518.958	714.81
519.173	724.81
519.389	730.81
519.605	701.81
519.82	698.81
520.036	719.81
520.251	726.81
520.467	777.81
520.682	779.81
520.898	759.81
521.113	774.81
521.329	811.81
521.544	908.81
521.76	1111.81
521.975	1751.81
522.19	1765.81
522.406	991.81
522.621	819.81
522.836	730.81
523.052	682.81
523.267	690.81
523.482	656.81
523.698	682.81
523.913	641.81
524.128	668.81
524.343	626.81
524.559	609.81
524.774	627.81
524.989	652.81
525.204	647.81
525.419	636.81
525.634	617.81
525.849	643.81
526.064	605.81
526.28	604.81
526.495	573.81
526.71	595.81
526.925	587.81
527.14	587.81
527.355	579.81
527.57	579.81
527.785	605.81
527.999	564.81
528.214	568.81
528.429	586.81
528.644	598.81
528.859	575.81
529.074	584.81
529.289	602.81
529.503	705.81
529.718	668.81
529.933	619.81
530.148	612.81
530.363	601.81
530.577	615.81
530.792	600.81
531.007	572.81
531.221	594.81
531.436	588.81
531.651	558.81
531.865	572.81
532.08	574.81
532.295	564.81
532.509	550.81
532.724	582.81
532.938	579.81
533.153	578.81
533.367	563.81
533.582	547.81
533.796	550.81
534.011	561.81
534.225	553.81
534.44	551.81
534.654	587.81
534.868	533.81
535.083	545.81
535.297	551.81
535.511	562.81
535.726	558.81
535.94	572.81
536.154	531.81
536.369	531.81
536.583	536.81
536.797	572.81
537.011	572.81
537.225	538.81
537.44	531.81
537.654	514.81
537.868	538.81
538.082	564.81
538.296	541.81
538.51	542.81
538.724	563.81
538.938	538.81
539.153	548.81
539.367	549.81
539.581	545.81
539.795	531.81
540.009	542.81
540.222	537.81
540.436	555.81
540.65	557.81
540.864	532.81
541.078	548.81
541.292	529.81
541.506	545.81
541.72	510.81
541.934	526.81
542.147	529.81
542.361	529.81
542.575	542.81
542.789	530.81
543.002	513.81
543.216	539.81
543.43	549.81
543.644	507.81
543.857	534.81
544.071	511.81
544.285	523.81
544.498	514.81
544.712	550.81
544.925	529.81
545.139	523.81
545.352	518.81
545.566	521.81
545.779	522.81
545.993	524.81
546.206	535.81
546.42	529.81
546.633	516.81
546.847	533.81
547.06	512.81
547.274	511.81
547.487	515.81
547.7	531.81
547.914	512.81
548.127	502.81
548.34	500.81
548.554	504.81
548.767	499.81
548.98	542.81
549.193	520.81
549.407	505.81
549.62	532.81
549.833	523.81
550.046	518.81
550.259	498.81
550.473	492.81
550.686	499.81
550.899	527.81
551.112	498.81
551.325	519.81
551.538	497.81
551.751	483.81
551.964	487.81
552.177	522.81
552.39	517.81
552.603	495.81
552.816	537.81
553.029	531.81
553.242	533.81
553.455	540.81
553.667	564.81
553.88	542.81
554.093	538.81
554.306	521.81
554.519	518.81
554.732	514.81
554.944	494.81
555.157	490.81
555.37	468.81
555.583	482.81
555.795	492.81
556.008	500.81
556.221	469.81
556.433	459.81
556.646	482.81
556.859	453.81
557.071	470.81
557.284	449.81
557.496	462.81
557.709	469.81
557.921	487.81
558.134	473.81
558.346	453.81
558.559	437.81
558.771	442.81
558.984	443.81
559.196	458.81
559.409	458.81
559.621	449.81
559.833	443.81
560.046	435.81
560.258	453.81
560.47	448.81
560.683	455.81
560.895	456.81
561.107	426.81
561.32	461.81
561.532	449.81
561.744	455.81
561.956	452.81
562.168	472.81
562.381	457.81
562.593	443.81
562.805	445.81
563.017	461.81
563.229	470.81
563.441	451.81
563.653	455.81
563.865	463.81
564.077	461.81
564.289	470.81
564.501	478.81
564.713	459.81
564.925	516.81
565.137	513.81
565.349	483.81
565.561	511.81
565.773	516.81
565.985	523.81
566.197	544.81
566.408	549.81
566.62	570.81
566.832	560.81
567.044	564.81
567.255	557.81
567.467	573.81
567.679	575.81
567.891	575.81
568.102	595.81
568.314	594.81
568.526	562.81
568.737	550.81
568.949	500.81
569.161	489.81
569.372	468.81
569.584	472.81
569.795	477.81
570.007	456.81
570.218	510.81
570.43	499.81
570.641	454.81
570.853	437.81
571.064	452.81
571.276	432.81
571.487	421.81
571.698	431.81
571.91	413.81
572.121	419.81
572.333	410.81
572.544	428.81
572.755	428.81
572.966	426.81
573.178	409.81
573.389	400.81
573.6	414.81
573.811	387.81
574.023	400.81
574.234	405.81
574.445	388.81
574.656	397.81
574.867	407.81
575.078	388.81
575.289	389.81
575.501	404.81
575.712	383.81
575.923	399.81
576.134	404.81
576.345	396.81
576.556	375.81
576.767	385.81
576.978	386.81
577.188	385.81
577.399	401.81
577.61	377.81
577.821	383.81
578.032	377.81
578.243	405.81
578.454	637.81
578.665	475.81
578.875	377.81
579.086	379.81
579.297	370.81
579.508	363.81
579.718	378.81
579.929	345.81
580.14	359.81
580.35	380.81
580.561	355.81
580.772	366.81
580.982	374.81
581.193	358.81
581.403	351.81
581.614	356.81
581.825	362.81
582.035	359.81
582.246	360.81
582.456	350.81
582.667	366.81
582.877	347.81
583.087	354.81
583.298	360.81
583.508	342.81
583.719	333.81
583.929	359.81
584.139	364.81
584.35	340.81
584.56	334.81
584.77	343.81
584.981	346.81
585.191	350.81
585.401	339.81
585.611	343.81
585.821	334.81
586.032	358.81
586.242	356.81
586.452	350.81
586.662	333.81
586.872	342.81
587.082	353.81
587.292	350.81
587.502	350.81
587.713	353.81
587.923	349.81
588.133	323.81
588.343	337.81
588.553	335.81
588.762	314.81
588.972	356.81
589.182	372.81
589.392	354.81
589.602	337.81
589.812	332.81
590.022	357.81
590.232	345.81
590.441	346.81
590.651	346.81
590.861	343.81
591.071	366.81
591.281	345.81
591.49	348.81
591.7	334.81
591.91	333.81
592.119	349.81
592.329	361.81
592.539	369.81
592.748	376.81
592.958	365.81
593.167	343.81
593.377	364.81
593.587	381.81
593.796	377.81
594.006	370.81
594.215	373.81
594.424	360.81
594.634	363.81
594.843	341.81
595.053	345.81
595.262	347.81
595.472	348.81
595.681	338.81
595.89	346.81
596.1	339.81
596.309	341.81
596.518	335.81
596.727	325.81
596.937	316.81
597.146	301.81
597.355	323.81
597.564	339.81
597.774	332.81
597.983	315.81
598.192	302.81
598.401	302.81
598.61	292.81
598.819	314.81
599.028	313.81
599.237	296.81
599.446	325.81
599.655	308.81
599.864	306.81
600.073	314.81
600.282	314.81
600.491	294.81
600.7	291.81
600.909	310.81
601.118	299.81
601.327	293.81
601.536	307.81
601.745	299.81
601.953	310.81
602.162	305.81
602.371	300.81
602.58	299.81
602.789	279.81
602.997	294.81
603.206	307.81
603.415	290.81
603.623	281.81
603.832	299.81
604.041	299.81
604.249	287.81
604.458	306.81
604.666	289.81
604.875	269.81
605.084	269.81
605.292	279.81
605.501	294.81
605.709	270.81
605.918	283.81
606.126	278.81
606.334	282.81
606.543	283.81
606.751	287.81
606.96	267.81
607.168	266.81
607.376	292.81
607.585	263.81
607.793	288.81
608.001	277.81
608.21	279.81
608.418	283.81
608.626	262.81
608.834	277.81
609.043	295.81
609.251	287.81
609.459	271.81
609.667	274.81
609.875	283.81
610.083	257.81
610.291	269.81
610.499	292.81
610.707	279.81
610.916	286.81
611.124	272.81
611.332	285.81
611.54	288.81
611.748	283.81
611.955	267.81
612.163	268.81
612.371	272.81
612.579	275.81
612.787	241.81
612.995	263.81
613.203	269.81
613.411	257.81
613.618	263.81
613.826	279.81
614.034	275.81
614.242	284.81
614.449	280.81
614.657	270.81
614.865	251.81
615.072	271.81
615.28	261.81
615.488	283.81
615.695	275.81
615.903	250.81
616.111	262.81
616.318	278.81
616.526	268.81
616.733	269.81
616.941	274.81
617.148	263.81
617.356	264.81
617.563	284.81
617.771	265.81
617.978	268.81
618.185	269.81
618.393	244.81
618.6	263.81
618.807	255.81
619.015	271.81
619.222	242.81
619.429	233.81
619.637	250.81
619.844	237.81
620.051	265.81
620.258	271.81
620.466	235.81
620.673	247.81
620.88	257.81
621.087	256.81
621.294	259.81
621.501	255.81
621.708	261.81
621.915	254.81
622.122	245.81
622.329	249.81
622.536	253.81
622.743	248.81
622.95	246.81
623.157	256.81
623.364	237.81
623.571	259.81
623.778	241.81
623.985	249.81
624.192	242.81
624.399	229.81
624.606	251.81
624.812	237.81
625.019	231.81
625.226	242.81
625.433	237.81
625.639	235.81
625.846	241.81
626.053	243.81
626.259	241.81
626.466	234.81
626.673	221.81
626.879	234.81
627.086	214.81
627.293	223.81
627.499	229.81
627.706	245.81
627.912	234.81
628.119	239.81
628.325	222.81
628.532	238.81
628.738	229.81
628.945	243.81
629.151	225.81
629.357	234.81
629.564	214.81
629.77	233.81
629.976	242.81
630.183	220.81
630.389	212.81
630.595	221.81
630.802	215.81
631.008	218.81
631.214	194.81
631.42	203.81
631.627	221.81
631.833	229.81
632.039	210.81
632.245	238.81
632.451	226.81
632.657	204.81
632.863	227.81
633.069	202.81
633.275	207.81
633.481	218.81
633.688	211.81
633.893	212.81
634.099	208.81
634.305	201.81
634.511	210.81
634.717	196.81
634.923	203.81
635.129	183.81
635.335	198.81
635.541	212.81
635.747	192.81
635.952	190.81
636.158	215.81
636.364	215.81
636.57	208.81
636.775	212.81
636.981	205.81
637.187	202.81
637.392	202.81
637.598	200.81
637.804	203.81
638.009	193.81
638.215	199.81
638.421	193.81
638.626	212.81
638.832	200.81
639.037	197.81
639.243	202.81
639.448	189.81
639.654	191.81
639.859	190.81
640.065	195.81
640.27	198.81
640.475	207.81
640.681	189.81
640.886	210.81
641.091	200.81
641.297	199.81
641.502	199.81
641.707	193.81
641.913	203.81
642.118	199.81
642.323	194.81
642.528	171.81
642.733	169.81
642.939	189.81
643.144	170.81
643.349	185.81
643.554	190.81
643.759	178.81
643.964	196.81
644.169	180.81
644.374	192.81
644.579	192.81
644.784	188.81
644.989	191.81
645.194	187.81
645.399	182.81
645.604	180.81
645.809	185.81
646.014	188.81
646.219	169.81
646.423	172.81
646.628	188.81
646.833	180.81
647.038	188.81
647.243	198.81
647.447	179.81
647.652	188.81
647.857	191.81
648.062	191.81
648.266	181.81
648.471	189.81
648.676	192.81
648.88	183.81
649.085	185.81
649.289	181.81
649.494	194.81
649.698	206.81
649.903	215.81
650.107	193.81
650.312	171.81
650.516	181.81
650.721	185.81
650.925	172.81
651.13	170.81
651.334	166.81
651.539	174.81
651.743	180.81
651.947	172.81
652.152	171.81
652.356	154.81
652.56	148.81
652.764	161.81
652.969	165.81
653.173	170.81
653.377	155.81
653.581	157.81
653.785	155.81
653.99	139.81
654.194	140.81
654.398	153.81
654.602	158.81
654.806	151.81
655.01	155.81
655.214	150.81
655.418	145.81
655.622	165.81
655.826	153.81
656.03	145.81
656.234	151.81
656.438	164.81
656.642	146.81
656.846	139.81
657.049	145.81
657.253	131.81
657.457	123.81
657.661	127.81
657.865	123.81
658.068	111.81
658.272	111.81
658.476	117.81
658.68	101.81
658.883	102.81
659.087	117.81
659.291	106.81
659.494	95.81
659.698	99.81
659.901	121.81
660.105	101.81
660.309	76.81
660.512	83.81
660.716	91.81
660.919	98.81
661.123	86.81
661.326	101.81
661.53	93.81
661.733	85.81
661.936	87.81
662.14	82.81
662.343	76.81
662.546	89.81
662.75	81.81
662.953	82.81
663.156	85.81
663.36	79.81
663.563	97.81
663.766	90.81
663.969	88.81
664.173	81.81
664.376	86.81
664.579	91.81
664.782	94.81
664.985	69.81
665.188	83.81
665.391	86.81
665.594	89.81
665.797	86.81
666	89.81
666.203	94.81
666.406	86.81
666.609	76.81
666.812	88.81
667.015	86.81
667.218	85.81
667.421	86.81
667.624	59.81
667.827	79.81
668.03	75.81
668.232	88.81
668.435	74.81
668.638	82.81
668.841	72.81
669.043	85.81
669.246	93.81
669.449	82.81
669.651	83.81
669.854	94.81
670.057	71.81
670.259	86.81
670.462	94.81
670.665	86.81
670.867	78.81
671.07	89.81
671.272	89.81
671.475	96.81
671.677	79.81
671.88	85.81
672.082	84.81
672.284	77.81
672.487	88.81
672.689	86.81
672.892	89.81
