Data from 1966.PennyLincolnUp.Lamp.En5.5.200Scan.071719.P1.Scan2.head_HRD10591_14-19-16-254.txt Node
Date: Thu Jul 18 14:19:16 EDT 2019
User: cochatt
Spectrometer: HR+D1059
Trigger mode: 1
Integration Time (sec): 1.000000E-1
Scans to average: 1
Electric dark correction enabled: true
Nonlinearity correction enabled: false
Boxcar width: 0
XAxis mode: Wavelengths
Number of Pixels in Spectrum: 2048
>>>>>Begin Spectral Data<<<<<
223.165	-16.25
223.4	-16.25
223.635	-16.25
223.869	-18.25
224.104	-3.25
224.338	-13.25
224.573	-12.25
224.808	-16.25
225.042	4.75
225.277	-7.25
225.511	-3.25
225.746	-7.25
225.98	-8.25
226.215	18.75
226.449	20.75
226.683	6.75
226.918	27.75
227.152	26.75
227.387	30.75
227.621	42.75
227.856	31.75
228.09	37.75
228.324	31.75
228.559	37.75
228.793	58.75
229.027	108.75
229.262	113.75
229.496	118.75
229.73	130.75
229.964	162.75
230.199	137.75
230.433	97.75
230.667	122.75
230.901	111.75
231.136	120.75
231.37	124.75
231.604	126.75
231.838	118.75
232.072	121.75
232.306	116.75
232.541	125.75
232.775	107.75
233.009	122.75
233.243	124.75
233.477	117.75
233.711	116.75
233.945	119.75
234.179	120.75
234.413	117.75
234.647	123.75
234.881	124.75
235.115	118.75
235.349	107.75
235.583	109.75
235.817	125.75
236.051	123.75
236.285	124.75
236.519	127.75
236.753	119.75
236.987	147.75
237.221	192.75
237.455	237.75
237.689	185.75
237.922	151.75
238.156	132.75
238.39	123.75
238.624	132.75
238.858	129.75
239.091	134.75
239.325	134.75
239.559	130.75
239.793	135.75
240.027	139.75
240.26	135.75
240.494	155.75
240.728	160.75
240.961	170.75
241.195	157.75
241.429	149.75
241.662	133.75
241.896	149.75
242.13	132.75
242.363	133.75
242.597	136.75
242.83	151.75
243.064	148.75
243.298	137.75
243.531	129.75
243.765	146.75
243.998	150.75
244.232	127.75
244.465	146.75
244.699	145.75
244.932	157.75
245.166	166.75
245.399	162.75
245.633	156.75
245.866	150.75
246.099	136.75
246.333	144.75
246.566	149.75
246.8	151.75
247.033	154.75
247.266	178.75
247.5	164.75
247.733	182.75
247.966	184.75
248.2	182.75
248.433	174.75
248.666	191.75
248.899	194.75
249.133	187.75
249.366	228.75
249.599	198.75
249.832	175.75
250.066	186.75
250.299	184.75
250.532	212.75
250.765	215.75
250.998	228.75
251.231	246.75
251.465	235.75
251.698	224.75
251.931	198.75
252.164	201.75
252.397	202.75
252.63	221.75
252.863	212.75
253.096	236.75
253.329	246.75
253.562	220.75
253.795	236.75
254.028	211.75
254.261	222.75
254.494	225.75
254.727	259.75
254.96	297.75
255.193	285.75
255.426	263.75
255.659	246.75
255.892	238.75
256.124	242.75
256.357	229.75
256.59	233.75
256.823	218.75
257.056	219.75
257.289	222.75
257.521	220.75
257.754	226.75
257.987	227.75
258.22	230.75
258.452	227.75
258.685	218.75
258.918	216.75
259.151	223.75
259.383	243.75
259.616	222.75
259.849	232.75
260.081	240.75
260.314	257.75
260.547	268.75
260.779	269.75
261.012	238.75
261.244	252.75
261.477	256.75
261.71	237.75
261.942	231.75
262.175	239.75
262.407	250.75
262.64	244.75
262.872	221.75
263.105	208.75
263.337	223.75
263.57	216.75
263.802	223.75
264.035	249.75
264.267	251.75
264.499	234.75
264.732	230.75
264.964	228.75
265.197	220.75
265.429	219.75
265.661	217.75
265.894	243.75
266.126	221.75
266.358	230.75
266.591	237.75
266.823	245.75
267.055	239.75
267.287	262.75
267.52	252.75
267.752	248.75
267.984	239.75
268.216	225.75
268.448	255.75
268.681	251.75
268.913	258.75
269.145	267.75
269.377	291.75
269.609	279.75
269.841	287.75
270.073	281.75
270.306	313.75
270.538	327.75
270.77	333.75
271.002	319.75
271.234	329.75
271.466	321.75
271.698	319.75
271.93	334.75
272.162	333.75
272.394	331.75
272.626	322.75
272.858	304.75
273.09	298.75
273.322	282.75
273.553	286.75
273.785	277.75
274.017	279.75
274.249	296.75
274.481	268.75
274.713	280.75
274.945	301.75
275.176	294.75
275.408	271.75
275.64	289.75
275.872	276.75
276.104	282.75
276.335	260.75
276.567	289.75
276.799	299.75
277.031	310.75
277.262	336.75
277.494	334.75
277.726	327.75
277.957	303.75
278.189	284.75
278.421	293.75
278.652	303.75
278.884	293.75
279.115	279.75
279.347	285.75
279.579	300.75
279.81	274.75
280.042	277.75
280.273	286.75
280.505	276.75
280.736	282.75
280.968	283.75
281.199	265.75
281.431	293.75
281.662	282.75
281.894	294.75
282.125	271.75
282.356	310.75
282.588	319.75
282.819	333.75
283.051	299.75
283.282	282.75
283.513	300.75
283.745	285.75
283.976	303.75
284.207	300.75
284.439	314.75
284.67	299.75
284.901	287.75
285.132	291.75
285.364	284.75
285.595	280.75
285.826	277.75
286.057	298.75
286.288	300.75
286.52	314.75
286.751	299.75
286.982	294.75
287.213	294.75
287.444	304.75
287.675	313.75
287.906	306.75
288.138	336.75
288.369	331.75
288.6	302.75
288.831	311.75
289.062	306.75
289.293	301.75
289.524	298.75
289.755	307.75
289.986	318.75
290.217	308.75
290.448	296.75
290.679	306.75
290.91	303.75
291.141	318.75
291.371	296.75
291.602	293.75
291.833	302.75
292.064	306.75
292.295	307.75
292.526	299.75
292.757	290.75
292.987	287.75
293.218	309.75
293.449	332.75
293.68	308.75
293.91	310.75
294.141	312.75
294.372	305.75
294.603	300.75
294.833	302.75
295.064	317.75
295.295	312.75
295.525	304.75
295.756	317.75
295.987	333.75
296.217	340.75
296.448	346.75
296.679	324.75
296.909	317.75
297.14	327.75
297.37	312.75
297.601	325.75
297.831	317.75
298.062	321.75
298.292	306.75
298.523	329.75
298.753	318.75
298.984	344.75
299.214	332.75
299.445	336.75
299.675	333.75
299.905	344.75
300.136	318.75
300.366	323.75
300.597	320.75
300.827	316.75
301.057	343.75
301.288	329.75
301.518	339.75
301.748	342.75
301.979	342.75
302.209	334.75
302.439	348.75
302.669	357.75
302.9	348.75
303.13	332.75
303.36	320.75
303.59	333.75
303.82	382.75
304.051	369.75
304.281	345.75
304.511	352.75
304.741	336.75
304.971	355.75
305.201	360.75
305.431	350.75
305.661	336.75
305.891	348.75
306.121	335.75
306.352	348.75
306.582	358.75
306.812	354.75
307.042	356.75
307.272	370.75
307.502	366.75
307.731	365.75
307.961	347.75
308.191	351.75
308.421	347.75
308.651	358.75
308.881	344.75
309.111	356.75
309.341	355.75
309.571	360.75
309.8	379.75
310.03	386.75
310.26	402.75
310.49	392.75
310.72	416.75
310.949	412.75
311.179	423.75
311.409	406.75
311.639	422.75
311.868	400.75
312.098	394.75
312.328	401.75
312.557	430.75
312.787	408.75
313.017	422.75
313.246	409.75
313.476	384.75
313.706	386.75
313.935	396.75
314.165	404.75
314.394	428.75
314.624	424.75
314.853	411.75
315.083	402.75
315.312	412.75
315.542	398.75
315.771	387.75
316.001	390.75
316.23	393.75
316.46	398.75
316.689	405.75
316.919	411.75
317.148	411.75
317.377	415.75
317.607	414.75
317.836	393.75
318.065	408.75
318.295	404.75
318.524	418.75
318.753	380.75
318.983	388.75
319.212	406.75
319.441	420.75
319.67	418.75
319.9	408.75
320.129	411.75
320.358	393.75
320.587	401.75
320.816	419.75
321.046	431.75
321.275	421.75
321.504	419.75
321.733	440.75
321.962	424.75
322.191	450.75
322.42	469.75
322.649	446.75
322.878	464.75
323.108	471.75
323.337	500.75
323.566	532.75
323.795	536.75
324.024	587.75
324.253	700.75
324.482	1014.75
324.71	1555.75
324.939	2340.75
325.168	2012.75
325.397	1011.75
325.626	660.75
325.855	584.75
326.084	535.75
326.313	534.75
326.542	534.75
326.77	590.75
326.999	672.75
327.228	914.75
327.457	1405.75
327.686	1709.75
327.914	1114.75
328.143	730.75
328.372	652.75
328.6	595.75
328.829	574.75
329.058	595.75
329.287	608.75
329.515	603.75
329.744	552.75
329.972	547.75
330.201	565.75
330.43	598.75
330.658	624.75
330.887	637.75
331.115	650.75
331.344	556.75
331.572	512.75
331.801	512.75
332.03	526.75
332.258	502.75
332.486	491.75
332.715	480.75
332.943	473.75
333.172	486.75
333.4	482.75
333.629	521.75
333.857	544.75
334.085	550.75
334.314	548.75
334.542	606.75
334.771	597.75
334.999	578.75
335.227	527.75
335.455	523.75
335.684	502.75
335.912	482.75
336.14	488.75
336.369	479.75
336.597	486.75
336.825	467.75
337.053	475.75
337.281	460.75
337.51	486.75
337.738	465.75
337.966	469.75
338.194	487.75
338.422	478.75
338.65	510.75
338.878	466.75
339.106	471.75
339.334	460.75
339.562	463.75
339.79	450.75
340.018	463.75
340.246	483.75
340.474	470.75
340.702	471.75
340.93	464.75
341.158	493.75
341.386	463.75
341.614	487.75
341.842	467.75
342.07	442.75
342.298	440.75
342.526	463.75
342.754	434.75
342.981	464.75
343.209	444.75
343.437	463.75
343.665	462.75
343.893	483.75
344.12	486.75
344.348	472.75
344.576	480.75
344.804	487.75
345.031	502.75
345.259	480.75
345.487	474.75
345.714	474.75
345.942	468.75
346.17	463.75
346.397	459.75
346.625	473.75
346.853	464.75
347.08	453.75
347.308	472.75
347.535	466.75
347.763	482.75
347.99	457.75
348.218	464.75
348.445	468.75
348.673	476.75
348.9	441.75
349.128	442.75
349.355	432.75
349.583	430.75
349.81	435.75
350.037	438.75
350.265	441.75
350.492	453.75
350.72	434.75
350.947	470.75
351.174	450.75
351.402	454.75
351.629	452.75
351.856	477.75
352.083	463.75
352.311	469.75
352.538	476.75
352.765	456.75
352.992	470.75
353.22	458.75
353.447	451.75
353.674	428.75
353.901	438.75
354.128	430.75
354.355	438.75
354.583	439.75
354.81	431.75
355.037	450.75
355.264	414.75
355.491	428.75
355.718	429.75
355.945	429.75
356.172	417.75
356.399	424.75
356.626	405.75
356.853	428.75
357.08	430.75
357.307	422.75
357.534	427.75
357.761	404.75
357.988	432.75
358.215	411.75
358.441	434.75
358.668	422.75
358.895	419.75
359.122	446.75
359.349	453.75
359.576	441.75
359.802	491.75
360.029	475.75
360.256	500.75
360.483	507.75
360.709	463.75
360.936	445.75
361.163	464.75
361.39	462.75
361.616	457.75
361.843	450.75
362.07	463.75
362.296	475.75
362.523	478.75
362.749	453.75
362.976	448.75
363.203	443.75
363.429	440.75
363.656	445.75
363.882	445.75
364.109	443.75
364.335	436.75
364.562	439.75
364.788	452.75
365.015	446.75
365.241	460.75
365.468	451.75
365.694	460.75
365.92	460.75
366.147	434.75
366.373	440.75
366.599	469.75
366.826	448.75
367.052	443.75
367.278	446.75
367.505	438.75
367.731	439.75
367.957	433.75
368.184	440.75
368.41	441.75
368.636	456.75
368.862	453.75
369.089	456.75
369.315	453.75
369.541	440.75
369.767	461.75
369.993	452.75
370.219	424.75
370.445	460.75
370.672	456.75
370.898	454.75
371.124	428.75
371.35	432.75
371.576	458.75
371.802	453.75
372.028	448.75
372.254	428.75
372.48	454.75
372.706	448.75
372.932	443.75
373.158	452.75
373.384	452.75
373.61	463.75
373.835	455.75
374.061	453.75
374.287	458.75
374.513	453.75
374.739	466.75
374.965	470.75
375.191	467.75
375.416	463.75
375.642	451.75
375.868	460.75
376.094	464.75
376.319	454.75
376.545	458.75
376.771	464.75
376.997	453.75
377.222	441.75
377.448	442.75
377.674	466.75
377.899	444.75
378.125	459.75
378.35	430.75
378.576	448.75
378.802	453.75
379.027	454.75
379.253	453.75
379.478	435.75
379.704	446.75
379.929	446.75
380.155	430.75
380.38	470.75
380.606	438.75
380.831	448.75
381.057	465.75
381.282	434.75
381.507	449.75
381.733	477.75
381.958	454.75
382.184	466.75
382.409	464.75
382.634	470.75
382.86	462.75
383.085	447.75
383.31	453.75
383.535	483.75
383.761	478.75
383.986	475.75
384.211	470.75
384.436	460.75
384.662	484.75
384.887	466.75
385.112	506.75
385.337	499.75
385.562	484.75
385.787	496.75
386.013	509.75
386.238	504.75
386.463	489.75
386.688	492.75
386.913	474.75
387.138	489.75
387.363	518.75
387.588	518.75
387.813	495.75
388.038	479.75
388.263	498.75
388.488	502.75
388.713	484.75
388.938	500.75
389.163	504.75
389.387	520.75
389.612	502.75
389.837	487.75
390.062	526.75
390.287	508.75
390.512	521.75
390.736	494.75
390.961	481.75
391.186	502.75
391.411	503.75
391.636	490.75
391.86	523.75
392.085	552.75
392.31	534.75
392.534	522.75
392.759	500.75
392.984	496.75
393.208	539.75
393.433	514.75
393.658	503.75
393.882	524.75
394.107	517.75
394.331	527.75
394.556	527.75
394.78	520.75
395.005	554.75
395.229	515.75
395.454	524.75
395.678	531.75
395.903	556.75
396.127	572.75
396.352	584.75
396.576	520.75
396.801	531.75
397.025	536.75
397.249	541.75
397.474	528.75
397.698	554.75
397.922	574.75
398.147	538.75
398.371	575.75
398.595	574.75
398.82	587.75
399.044	589.75
399.268	585.75
399.492	658.75
399.717	662.75
399.941	717.75
400.165	733.75
400.389	732.75
400.613	672.75
400.837	637.75
401.062	606.75
401.286	611.75
401.51	606.75
401.734	586.75
401.958	587.75
402.182	592.75
402.406	598.75
402.63	602.75
402.854	581.75
403.078	582.75
403.302	596.75
403.526	588.75
403.75	606.75
403.974	621.75
404.198	591.75
404.422	640.75
404.645	619.75
404.869	597.75
405.093	677.75
405.317	723.75
405.541	761.75
405.765	672.75
405.988	641.75
406.212	664.75
406.436	658.75
406.66	696.75
406.883	674.75
407.107	724.75
407.331	724.75
407.555	811.75
407.778	830.75
408.002	736.75
408.226	686.75
408.449	702.75
408.673	662.75
408.896	713.75
409.12	765.75
409.344	721.75
409.567	632.75
409.791	642.75
410.014	609.75
410.238	596.75
410.461	640.75
410.685	635.75
410.908	621.75
411.132	658.75
411.355	710.75
411.578	676.75
411.802	623.75
412.025	619.75
412.249	634.75
412.472	635.75
412.695	680.75
412.919	682.75
413.142	652.75
413.365	614.75
413.589	592.75
413.812	590.75
414.035	588.75
414.258	562.75
414.482	554.75
414.705	564.75
414.928	584.75
415.151	566.75
415.374	572.75
415.597	603.75
415.821	582.75
416.044	575.75
416.267	571.75
416.49	576.75
416.713	555.75
416.936	581.75
417.159	580.75
417.382	566.75
417.605	596.75
417.828	617.75
418.051	616.75
418.274	598.75
418.497	589.75
418.72	561.75
418.943	572.75
419.166	604.75
419.389	628.75
419.611	630.75
419.834	608.75
420.057	626.75
420.28	628.75
420.503	596.75
420.726	588.75
420.948	616.75
421.171	674.75
421.394	720.75
421.617	639.75
421.839	597.75
422.062	598.75
422.285	642.75
422.507	703.75
422.73	784.75
422.953	764.75
423.175	686.75
423.398	642.75
423.621	638.75
423.843	660.75
424.066	646.75
424.288	650.75
424.511	677.75
424.733	756.75
424.956	851.75
425.178	794.75
425.401	770.75
425.623	811.75
425.846	688.75
426.068	668.75
426.291	646.75
426.513	644.75
426.735	675.75
426.958	714.75
427.18	790.75
427.402	934.75
427.625	1034.75
427.847	889.75
428.069	782.75
428.292	730.75
428.514	652.75
428.736	660.75
428.958	608.75
429.181	610.75
429.403	601.75
429.625	606.75
429.847	641.75
430.069	696.75
430.292	731.75
430.514	623.75
430.736	611.75
430.958	595.75
431.18	573.75
431.402	586.75
431.624	575.75
431.846	573.75
432.068	558.75
432.29	550.75
432.512	581.75
432.734	591.75
432.956	572.75
433.178	586.75
433.4	583.75
433.622	589.75
433.844	580.75
434.066	581.75
434.287	575.75
434.509	559.75
434.731	600.75
434.953	598.75
435.175	636.75
435.397	646.75
435.618	667.75
435.84	710.75
436.062	822.75
436.284	906.75
436.505	728.75
436.727	670.75
436.949	607.75
437.17	601.75
437.392	611.75
437.614	622.75
437.835	654.75
438.057	780.75
438.278	896.75
438.5	848.75
438.721	971.75
438.943	926.75
439.165	744.75
439.386	668.75
439.608	652.75
439.829	662.75
440.05	711.75
440.272	733.75
440.493	702.75
440.715	640.75
440.936	618.75
441.158	600.75
441.379	600.75
441.6	621.75
441.822	642.75
442.043	694.75
442.264	778.75
442.486	824.75
442.707	710.75
442.928	666.75
443.149	673.75
443.371	709.75
443.592	734.75
443.813	842.75
444.034	911.75
444.255	765.75
444.476	695.75
444.698	676.75
444.919	672.75
445.14	759.75
445.361	706.75
445.582	701.75
445.803	778.75
446.024	932.75
446.245	891.75
446.466	825.75
446.687	678.75
446.908	662.75
447.129	641.75
447.35	608.75
447.571	614.75
447.792	599.75
448.013	624.75
448.234	614.75
448.455	683.75
448.675	824.75
448.896	941.75
449.117	812.75
449.338	752.75
449.559	871.75
449.779	980.75
450	791.75
450.221	662.75
450.442	606.75
450.662	562.75
450.883	583.75
451.104	617.75
451.324	588.75
451.545	552.75
451.766	554.75
451.986	545.75
452.207	514.75
452.428	537.75
452.648	525.75
452.869	516.75
453.089	546.75
453.31	537.75
453.53	559.75
453.751	530.75
453.971	537.75
454.192	543.75
454.412	534.75
454.633	531.75
454.853	549.75
455.073	528.75
455.294	574.75
455.514	643.75
455.734	635.75
455.955	523.75
456.175	518.75
456.395	504.75
456.616	526.75
456.836	518.75
457.056	528.75
457.276	496.75
457.497	477.75
457.717	502.75
457.937	518.75
458.157	517.75
458.377	518.75
458.598	566.75
458.818	620.75
459.038	710.75
459.258	722.75
459.478	621.75
459.698	572.75
459.918	584.75
460.138	583.75
460.358	575.75
460.578	590.75
460.798	596.75
461.018	570.75
461.238	562.75
461.458	573.75
461.678	568.75
461.898	605.75
462.118	591.75
462.338	601.75
462.558	629.75
462.777	652.75
462.997	630.75
463.217	645.75
463.437	683.75
463.657	635.75
463.876	636.75
464.096	639.75
464.316	620.75
464.536	631.75
464.755	631.75
464.975	631.75
465.195	653.75
465.414	722.75
465.634	660.75
465.854	611.75
466.073	600.75
466.293	580.75
466.512	564.75
466.732	548.75
466.951	554.75
467.171	526.75
467.391	554.75
467.61	552.75
467.829	563.75
468.049	547.75
468.268	570.75
468.488	549.75
468.707	532.75
468.927	543.75
469.146	542.75
469.365	543.75
469.585	554.75
469.804	538.75
470.023	568.75
470.243	555.75
470.462	539.75
470.681	564.75
470.901	587.75
471.12	562.75
471.339	564.75
471.558	567.75
471.777	559.75
471.997	544.75
472.216	580.75
472.435	594.75
472.654	600.75
472.873	566.75
473.092	548.75
473.311	558.75
473.53	555.75
473.749	566.75
473.968	619.75
474.187	732.75
474.406	756.75
474.625	645.75
474.844	598.75
475.063	544.75
475.282	551.75
475.501	556.75
475.72	575.75
475.939	586.75
476.158	583.75
476.377	576.75
476.596	579.75
476.814	590.75
477.033	596.75
477.252	588.75
477.471	619.75
477.69	599.75
477.908	605.75
478.127	605.75
478.346	607.75
478.564	603.75
478.783	624.75
479.002	649.75
479.22	635.75
479.439	649.75
479.658	680.75
479.876	700.75
480.095	667.75
480.313	715.75
480.532	703.75
480.751	665.75
480.969	702.75
481.188	767.75
481.406	811.75
481.624	726.75
481.843	714.75
482.061	690.75
482.28	696.75
482.498	674.75
482.717	637.75
482.935	646.75
483.153	680.75
483.372	670.75
483.59	643.75
483.808	653.75
484.027	660.75
484.245	678.75
484.463	661.75
484.681	674.75
484.9	684.75
485.118	688.75
485.336	667.75
485.554	716.75
485.772	684.75
485.99	713.75
486.209	692.75
486.427	693.75
486.645	696.75
486.863	711.75
487.081	698.75
487.299	718.75
487.517	703.75
487.735	726.75
487.953	716.75
488.171	722.75
488.389	716.75
488.607	717.75
488.825	713.75
489.043	722.75
489.261	707.75
489.479	738.75
489.696	710.75
489.914	709.75
490.132	724.75
490.35	748.75
490.568	731.75
490.786	734.75
491.003	788.75
491.221	804.75
491.439	790.75
491.657	822.75
491.874	811.75
492.092	828.75
492.31	846.75
492.527	847.75
492.745	847.75
492.963	852.75
493.18	826.75
493.398	832.75
493.615	859.75
493.833	817.75
494.05	839.75
494.268	845.75
494.485	856.75
494.703	831.75
494.92	843.75
495.138	831.75
495.355	822.75
495.573	853.75
495.79	855.75
496.008	868.75
496.225	841.75
496.442	868.75
496.66	864.75
496.877	860.75
497.094	875.75
497.312	891.75
497.529	877.75
497.746	884.75
497.963	918.75
498.181	950.75
498.398	956.75
498.615	942.75
498.832	975.75
499.049	992.75
499.267	1017.75
499.484	1034.75
499.701	1077.75
499.918	1106.75
500.135	1145.75
500.352	1208.75
500.569	1221.75
500.786	1225.75
501.003	1205.75
501.22	1206.75
501.437	1142.75
501.654	1094.75
501.871	1074.75
502.088	1062.75
502.305	1019.75
502.522	958.75
502.739	952.75
502.956	923.75
503.172	896.75
503.389	916.75
503.606	886.75
503.823	886.75
504.04	891.75
504.256	882.75
504.473	868.75
504.69	846.75
504.907	850.75
505.123	838.75
505.34	843.75
505.557	816.75
505.773	859.75
505.99	822.75
506.207	790.75
506.423	820.75
506.64	805.75
506.856	804.75
507.073	811.75
507.289	773.75
507.506	765.75
507.722	787.75
507.939	809.75
508.155	773.75
508.372	746.75
508.588	754.75
508.805	759.75
509.021	770.75
509.238	769.75
509.454	763.75
509.67	776.75
509.887	755.75
510.103	755.75
510.319	804.75
510.536	871.75
510.752	1304.75
510.968	1074.75
511.184	791.75
511.401	734.75
511.617	755.75
511.833	717.75
512.049	738.75
512.265	726.75
512.481	738.75
512.698	734.75
512.914	713.75
513.13	707.75
513.346	736.75
513.562	713.75
513.778	710.75
513.994	734.75
514.21	754.75
514.426	768.75
514.642	785.75
514.858	808.75
515.074	840.75
515.29	1001.75
515.506	1356.75
515.721	1106.75
515.937	846.75
516.153	776.75
516.369	749.75
516.585	769.75
516.801	737.75
517.016	766.75
517.232	757.75
517.448	751.75
517.664	740.75
517.879	743.75
518.095	736.75
518.311	748.75
518.527	740.75
518.742	754.75
518.958	720.75
519.173	719.75
519.389	720.75
519.605	729.75
519.82	722.75
520.036	722.75
520.251	758.75
520.467	760.75
520.682	739.75
520.898	768.75
521.113	794.75
521.329	837.75
521.544	900.75
521.76	1099.75
521.975	1703.75
522.19	1678.75
522.406	972.75
522.621	786.75
522.836	731.75
523.052	717.75
523.267	692.75
523.482	654.75
523.698	660.75
523.913	657.75
524.128	645.75
524.343	629.75
524.559	647.75
524.774	616.75
524.989	632.75
525.204	610.75
525.419	619.75
525.634	611.75
525.849	614.75
526.064	611.75
526.28	619.75
526.495	580.75
526.71	590.75
526.925	595.75
527.14	580.75
527.355	588.75
527.57	600.75
527.785	587.75
527.999	588.75
528.214	611.75
528.429	590.75
528.644	580.75
528.859	583.75
529.074	593.75
529.289	622.75
529.503	676.75
529.718	672.75
529.933	622.75
530.148	624.75
530.363	607.75
530.577	599.75
530.792	605.75
531.007	564.75
531.221	587.75
531.436	558.75
531.651	577.75
531.865	565.75
532.08	569.75
532.295	563.75
532.509	575.75
532.724	576.75
532.938	569.75
533.153	565.75
533.367	596.75
533.582	571.75
533.796	584.75
534.011	573.75
534.225	551.75
534.44	527.75
534.654	587.75
534.868	564.75
535.083	564.75
535.297	566.75
535.511	571.75
535.726	583.75
535.94	568.75
536.154	563.75
536.369	555.75
536.583	560.75
536.797	562.75
537.011	558.75
537.225	534.75
537.44	554.75
537.654	532.75
537.868	557.75
538.082	549.75
538.296	533.75
538.51	564.75
538.724	543.75
538.938	528.75
539.153	559.75
539.367	552.75
539.581	568.75
539.795	546.75
540.009	540.75
540.222	553.75
540.436	541.75
540.65	532.75
540.864	545.75
541.078	560.75
541.292	560.75
541.506	523.75
541.72	522.75
541.934	522.75
542.147	541.75
542.361	542.75
542.575	516.75
542.789	513.75
543.002	538.75
543.216	536.75
543.43	553.75
543.644	548.75
543.857	539.75
544.071	534.75
544.285	545.75
544.498	528.75
544.712	536.75
544.925	528.75
545.139	498.75
545.352	518.75
545.566	538.75
545.779	525.75
545.993	519.75
546.206	536.75
546.42	547.75
546.633	523.75
546.847	535.75
547.06	504.75
547.274	500.75
547.487	489.75
547.7	496.75
547.914	529.75
548.127	522.75
548.34	498.75
548.554	510.75
548.767	516.75
548.98	514.75
549.193	508.75
549.407	520.75
549.62	529.75
549.833	532.75
550.046	517.75
550.259	516.75
550.473	502.75
550.686	487.75
550.899	500.75
551.112	505.75
551.325	499.75
551.538	501.75
551.751	506.75
551.964	518.75
552.177	514.75
552.39	496.75
552.603	518.75
552.816	512.75
553.029	518.75
553.242	512.75
553.455	525.75
553.667	555.75
553.88	553.75
554.093	537.75
554.306	537.75
554.519	517.75
554.732	501.75
554.944	510.75
555.157	517.75
555.37	493.75
555.583	484.75
555.795	500.75
556.008	483.75
556.221	479.75
556.433	469.75
556.646	474.75
556.859	483.75
557.071	457.75
557.284	460.75
557.496	449.75
557.709	472.75
557.921	474.75
558.134	472.75
558.346	452.75
558.559	467.75
558.771	448.75
558.984	465.75
559.196	465.75
559.409	452.75
559.621	479.75
559.833	466.75
560.046	472.75
560.258	459.75
560.47	445.75
560.683	457.75
560.895	460.75
561.107	467.75
561.32	462.75
561.532	440.75
561.744	471.75
561.956	461.75
562.168	467.75
562.381	470.75
562.593	456.75
562.805	461.75
563.017	463.75
563.229	483.75
563.441	454.75
563.653	459.75
563.865	472.75
564.077	471.75
564.289	471.75
564.501	476.75
564.713	474.75
564.925	482.75
565.137	502.75
565.349	494.75
565.561	487.75
565.773	507.75
565.985	546.75
566.197	539.75
566.408	556.75
566.62	574.75
566.832	580.75
567.044	581.75
567.255	584.75
567.467	574.75
567.679	591.75
567.891	603.75
568.102	602.75
568.314	588.75
568.526	561.75
568.737	540.75
568.949	518.75
569.161	518.75
569.372	475.75
569.584	500.75
569.795	489.75
570.007	485.75
570.218	516.75
570.43	494.75
570.641	464.75
570.853	457.75
571.064	436.75
571.276	454.75
571.487	444.75
571.698	448.75
571.91	410.75
572.121	431.75
572.333	438.75
572.544	420.75
572.755	419.75
572.966	422.75
573.178	408.75
573.389	415.75
573.6	406.75
573.811	400.75
574.023	422.75
574.234	401.75
574.445	378.75
574.656	390.75
574.867	409.75
575.078	394.75
575.289	397.75
575.501	389.75
575.712	390.75
575.923	391.75
576.134	374.75
576.345	388.75
576.556	387.75
576.767	388.75
576.978	382.75
577.188	380.75
577.399	372.75
577.61	386.75
577.821	382.75
578.032	375.75
578.243	408.75
578.454	607.75
578.665	475.75
578.875	392.75
579.086	375.75
579.297	359.75
579.508	358.75
579.718	387.75
579.929	368.75
580.14	360.75
580.35	360.75
580.561	364.75
580.772	359.75
580.982	344.75
581.193	365.75
581.403	380.75
581.614	354.75
581.825	343.75
582.035	347.75
582.246	358.75
582.456	371.75
582.667	359.75
582.877	349.75
583.087	352.75
583.298	355.75
583.508	361.75
583.719	375.75
583.929	370.75
584.139	344.75
584.35	343.75
584.56	343.75
584.77	348.75
584.981	370.75
585.191	356.75
585.401	367.75
585.611	346.75
585.821	328.75
586.032	372.75
586.242	360.75
586.452	349.75
586.662	370.75
586.872	336.75
587.082	354.75
587.292	358.75
587.502	350.75
587.713	336.75
587.923	336.75
588.133	338.75
588.343	354.75
588.553	328.75
588.762	346.75
588.972	331.75
589.182	348.75
589.392	358.75
589.602	356.75
589.812	350.75
590.022	344.75
590.232	351.75
590.441	334.75
590.651	351.75
590.861	331.75
591.071	352.75
591.281	343.75
591.49	363.75
591.7	352.75
591.91	378.75
592.119	342.75
592.329	358.75
592.539	351.75
592.748	372.75
592.958	363.75
593.167	370.75
593.377	367.75
593.587	375.75
593.796	382.75
594.006	380.75
594.215	365.75
594.424	376.75
594.634	342.75
594.843	349.75
595.053	366.75
595.262	345.75
595.472	360.75
595.681	338.75
595.89	332.75
596.1	328.75
596.309	347.75
596.518	327.75
596.727	344.75
596.937	316.75
597.146	314.75
597.355	324.75
597.564	330.75
597.774	313.75
597.983	317.75
598.192	309.75
598.401	312.75
598.61	326.75
598.819	303.75
599.028	308.75
599.237	314.75
599.446	296.75
599.655	296.75
599.864	307.75
600.073	299.75
600.282	302.75
600.491	303.75
600.7	300.75
600.909	295.75
601.118	320.75
601.327	303.75
601.536	299.75
601.745	299.75
601.953	293.75
602.162	288.75
602.371	294.75
602.58	295.75
602.789	301.75
602.997	298.75
603.206	294.75
603.415	278.75
603.623	290.75
603.832	285.75
604.041	289.75
604.249	284.75
604.458	293.75
604.666	272.75
604.875	288.75
605.084	306.75
605.292	308.75
605.501	279.75
605.709	286.75
605.918	270.75
606.126	276.75
606.334	285.75
606.543	268.75
606.751	268.75
606.96	283.75
607.168	278.75
607.376	274.75
607.585	268.75
607.793	295.75
608.001	274.75
608.21	265.75
608.418	287.75
608.626	291.75
608.834	290.75
609.043	282.75
609.251	267.75
609.459	278.75
609.667	275.75
609.875	284.75
610.083	287.75
610.291	284.75
610.499	292.75
610.707	304.75
610.916	286.75
611.124	269.75
611.332	269.75
611.54	275.75
611.748	291.75
611.955	286.75
612.163	279.75
612.371	271.75
612.579	272.75
612.787	276.75
612.995	285.75
613.203	290.75
613.411	278.75
613.618	264.75
613.826	277.75
614.034	266.75
614.242	260.75
614.449	268.75
614.657	271.75
614.865	262.75
615.072	272.75
615.28	264.75
615.488	281.75
615.695	272.75
615.903	274.75
616.111	276.75
616.318	295.75
616.526	279.75
616.733	287.75
616.941	279.75
617.148	260.75
617.356	266.75
617.563	251.75
617.771	268.75
617.978	266.75
618.185	268.75
618.393	275.75
618.6	253.75
618.807	267.75
619.015	244.75
619.222	240.75
619.429	254.75
619.637	256.75
619.844	286.75
620.051	270.75
620.258	262.75
620.466	268.75
620.673	251.75
620.88	260.75
621.087	228.75
621.294	248.75
621.501	250.75
621.708	247.75
621.915	260.75
622.122	254.75
622.329	234.75
622.536	258.75
622.743	247.75
622.95	255.75
623.157	246.75
623.364	239.75
623.571	246.75
623.778	242.75
623.985	244.75
624.192	247.75
624.399	234.75
624.606	242.75
624.812	214.75
625.019	249.75
625.226	256.75
625.433	262.75
625.639	223.75
625.846	228.75
626.053	231.75
626.259	226.75
626.466	258.75
626.673	231.75
626.879	234.75
627.086	255.75
627.293	242.75
627.499	230.75
627.706	238.75
627.912	227.75
628.119	235.75
628.325	233.75
628.532	231.75
628.738	236.75
628.945	250.75
629.151	212.75
629.357	213.75
629.564	227.75
629.77	239.75
629.976	224.75
630.183	234.75
630.389	236.75
630.595	235.75
630.802	218.75
631.008	231.75
631.214	200.75
631.42	227.75
631.627	222.75
631.833	203.75
632.039	220.75
632.245	202.75
632.451	212.75
632.657	231.75
632.863	202.75
633.069	206.75
633.275	222.75
633.481	207.75
633.688	216.75
633.893	208.75
634.099	223.75
634.305	239.75
634.511	209.75
634.717	208.75
634.923	209.75
635.129	192.75
635.335	221.75
635.541	198.75
635.747	198.75
635.952	200.75
636.158	218.75
636.364	197.75
636.57	210.75
636.775	194.75
636.981	211.75
637.187	199.75
637.392	213.75
637.598	202.75
637.804	201.75
638.009	191.75
638.215	198.75
638.421	211.75
638.626	191.75
638.832	205.75
639.037	203.75
639.243	204.75
639.448	204.75
639.654	213.75
639.859	212.75
640.065	202.75
640.27	207.75
640.475	200.75
640.681	196.75
640.886	196.75
641.091	203.75
641.297	180.75
641.502	186.75
641.707	195.75
641.913	188.75
642.118	191.75
642.323	196.75
642.528	187.75
642.733	174.75
642.939	200.75
643.144	182.75
643.349	205.75
643.554	188.75
643.759	167.75
643.964	181.75
644.169	173.75
644.374	191.75
644.579	192.75
644.784	181.75
644.989	199.75
645.194	193.75
645.399	190.75
645.604	188.75
645.809	191.75
646.014	179.75
646.219	175.75
646.423	182.75
646.628	194.75
646.833	195.75
647.038	187.75
647.243	175.75
647.447	183.75
647.652	184.75
647.857	171.75
648.062	176.75
648.266	191.75
648.471	186.75
648.676	195.75
648.88	175.75
649.085	181.75
649.289	178.75
649.494	187.75
649.698	211.75
649.903	189.75
650.107	194.75
650.312	181.75
650.516	180.75
650.721	177.75
650.925	184.75
651.13	186.75
651.334	165.75
651.539	158.75
651.743	159.75
651.947	169.75
652.152	166.75
652.356	154.75
652.56	162.75
652.764	155.75
652.969	151.75
653.173	155.75
653.377	171.75
653.581	162.75
653.785	151.75
653.99	157.75
654.194	142.75
654.398	136.75
654.602	145.75
654.806	150.75
655.01	157.75
655.214	155.75
655.418	142.75
655.622	142.75
655.826	158.75
656.03	139.75
656.234	149.75
656.438	138.75
656.642	151.75
656.846	143.75
657.049	130.75
657.253	132.75
657.457	141.75
657.661	117.75
657.865	121.75
658.068	124.75
658.272	110.75
658.476	118.75
658.68	106.75
658.883	122.75
659.087	104.75
659.291	108.75
659.494	97.75
659.698	103.75
659.901	104.75
660.105	103.75
660.309	106.75
660.512	91.75
660.716	110.75
660.919	84.75
661.123	89.75
661.326	92.75
661.53	73.75
661.733	99.75
661.936	83.75
662.14	92.75
662.343	79.75
662.546	95.75
662.75	88.75
662.953	98.75
663.156	90.75
663.36	95.75
663.563	83.75
663.766	87.75
663.969	79.75
664.173	83.75
664.376	87.75
664.579	87.75
664.782	83.75
664.985	79.75
665.188	96.75
665.391	81.75
665.594	80.75
665.797	64.75
666	84.75
666.203	90.75
666.406	92.75
666.609	86.75
666.812	96.75
667.015	82.75
667.218	72.75
667.421	92.75
667.624	73.75
667.827	77.75
668.03	80.75
668.232	79.75
668.435	85.75
668.638	81.75
668.841	88.75
669.043	85.75
669.246	77.75
669.449	80.75
669.651	91.75
669.854	83.75
670.057	87.75
670.259	88.75
670.462	83.75
670.665	83.75
670.867	71.75
671.07	88.75
671.272	77.75
671.475	78.75
671.677	84.75
671.88	81.75
672.082	93.75
672.284	73.75
672.487	102.75
672.689	80.75
672.892	90.75
