Data from 1966.PennyLincolnUp.Lamp.En5.5.200Scan.071719.P1._HRD10591_14-12-48-913.txt Node
Date: Thu Jul 18 14:12:48 EDT 2019
User: cochatt
Spectrometer: HR+D1059
Trigger mode: 1
Integration Time (sec): 1.000000E-1
Scans to average: 1
Electric dark correction enabled: true
Nonlinearity correction enabled: false
Boxcar width: 0
XAxis mode: Wavelengths
Number of Pixels in Spectrum: 2048
>>>>>Begin Spectral Data<<<<<
223.165	-6.12
223.4	-6.12
223.635	-6.12
223.869	-6.12
224.104	-23.12
224.338	-16.12
224.573	-16.12
224.808	-6.12
225.042	-10.12
225.277	-20.12
225.511	-8.12
225.746	3.88
225.98	6.88
226.215	20.88
226.449	17.88
226.683	12.88
226.918	23.88
227.152	25.88
227.387	33.88
227.621	26.88
227.856	29.88
228.09	54.88
228.324	55.88
228.559	46.88
228.793	67.88
229.027	90.88
229.262	85.88
229.496	87.88
229.73	86.88
229.964	120.88
230.199	90.88
230.433	90.88
230.667	87.88
230.901	78.88
231.136	89.88
231.37	83.88
231.604	113.88
231.838	89.88
232.072	92.88
232.306	95.88
232.541	91.88
232.775	93.88
233.009	98.88
233.243	91.88
233.477	80.88
233.711	92.88
233.945	89.88
234.179	85.88
234.413	100.88
234.647	102.88
234.881	86.88
235.115	106.88
235.349	81.88
235.583	86.88
235.817	92.88
236.051	102.88
236.285	93.88
236.519	102.88
236.753	78.88
236.987	92.88
237.221	123.88
237.455	136.88
237.689	119.88
237.922	95.88
238.156	83.88
238.39	90.88
238.624	79.88
238.858	92.88
239.091	98.88
239.325	86.88
239.559	86.88
239.793	102.88
240.027	95.88
240.26	105.88
240.494	107.88
240.728	105.88
240.961	98.88
241.195	97.88
241.429	93.88
241.662	96.88
241.896	107.88
242.13	84.88
242.363	92.88
242.597	88.88
242.83	105.88
243.064	106.88
243.298	103.88
243.531	118.88
243.765	96.88
243.998	79.88
244.232	104.88
244.465	102.88
244.699	104.88
244.932	91.88
245.166	123.88
245.399	108.88
245.633	92.88
245.866	102.88
246.099	111.88
246.333	89.88
246.566	105.88
246.8	101.88
247.033	106.88
247.266	113.88
247.5	105.88
247.733	113.88
247.966	129.88
248.2	116.88
248.433	115.88
248.666	95.88
248.899	124.88
249.133	123.88
249.366	125.88
249.599	129.88
249.832	102.88
250.066	138.88
250.299	109.88
250.532	126.88
250.765	136.88
250.998	120.88
251.231	133.88
251.465	141.88
251.698	133.88
251.931	117.88
252.164	136.88
252.397	125.88
252.63	125.88
252.863	114.88
253.096	121.88
253.329	139.88
253.562	132.88
253.795	131.88
254.028	139.88
254.261	129.88
254.494	128.88
254.727	144.88
254.96	171.88
255.193	151.88
255.426	131.88
255.659	135.88
255.892	121.88
256.124	129.88
256.357	127.88
256.59	133.88
256.823	138.88
257.056	119.88
257.289	127.88
257.521	126.88
257.754	116.88
257.987	137.88
258.22	127.88
258.452	112.88
258.685	117.88
258.918	111.88
259.151	115.88
259.383	147.88
259.616	120.88
259.849	143.88
260.081	124.88
260.314	138.88
260.547	142.88
260.779	133.88
261.012	142.88
261.244	140.88
261.477	139.88
261.71	133.88
261.942	125.88
262.175	146.88
262.407	147.88
262.64	129.88
262.872	119.88
263.105	129.88
263.337	144.88
263.57	128.88
263.802	142.88
264.035	140.88
264.267	124.88
264.499	126.88
264.732	126.88
264.964	131.88
265.197	129.88
265.429	133.88
265.661	125.88
265.894	143.88
266.126	133.88
266.358	123.88
266.591	125.88
266.823	137.88
267.055	127.88
267.287	140.88
267.52	140.88
267.752	133.88
267.984	123.88
268.216	135.88
268.448	135.88
268.681	139.88
268.913	157.88
269.145	147.88
269.377	149.88
269.609	153.88
269.841	157.88
270.073	167.88
270.306	160.88
270.538	185.88
270.77	167.88
271.002	169.88
271.234	160.88
271.466	162.88
271.698	171.88
271.93	187.88
272.162	171.88
272.394	165.88
272.626	169.88
272.858	162.88
273.09	160.88
273.322	161.88
273.553	145.88
273.785	149.88
274.017	143.88
274.249	151.88
274.481	180.88
274.713	151.88
274.945	141.88
275.176	151.88
275.408	133.88
275.64	149.88
275.872	129.88
276.104	145.88
276.335	148.88
276.567	138.88
276.799	150.88
277.031	168.88
277.262	179.88
277.494	183.88
277.726	159.88
277.957	151.88
278.189	157.88
278.421	149.88
278.652	167.88
278.884	144.88
279.115	144.88
279.347	146.88
279.579	151.88
279.81	141.88
280.042	154.88
280.273	142.88
280.505	155.88
280.736	169.88
280.968	143.88
281.199	159.88
281.431	144.88
281.662	147.88
281.894	154.88
282.125	169.88
282.356	167.88
282.588	177.88
282.819	170.88
283.051	158.88
283.282	147.88
283.513	178.88
283.745	167.88
283.976	164.88
284.207	150.88
284.439	152.88
284.67	159.88
284.901	157.88
285.132	141.88
285.364	156.88
285.595	157.88
285.826	144.88
286.057	149.88
286.288	166.88
286.52	160.88
286.751	151.88
286.982	160.88
287.213	164.88
287.444	162.88
287.675	148.88
287.906	163.88
288.138	166.88
288.369	165.88
288.6	165.88
288.831	158.88
289.062	153.88
289.293	151.88
289.524	149.88
289.755	144.88
289.986	169.88
290.217	163.88
290.448	153.88
290.679	163.88
290.91	166.88
291.141	156.88
291.371	148.88
291.602	166.88
291.833	170.88
292.064	159.88
292.295	170.88
292.526	168.88
292.757	158.88
292.987	161.88
293.218	150.88
293.449	166.88
293.68	168.88
293.91	178.88
294.141	164.88
294.372	163.88
294.603	163.88
294.833	142.88
295.064	160.88
295.295	157.88
295.525	166.88
295.756	177.88
295.987	171.88
296.217	167.88
296.448	173.88
296.679	167.88
296.909	158.88
297.14	187.88
297.37	172.88
297.601	170.88
297.831	163.88
298.062	164.88
298.292	169.88
298.523	174.88
298.753	159.88
298.984	165.88
299.214	159.88
299.445	171.88
299.675	182.88
299.905	170.88
300.136	179.88
300.366	169.88
300.597	167.88
300.827	161.88
301.057	194.88
301.288	179.88
301.518	161.88
301.748	160.88
301.979	166.88
302.209	181.88
302.439	173.88
302.669	190.88
302.9	171.88
303.13	188.88
303.36	161.88
303.59	168.88
303.82	188.88
304.051	164.88
304.281	186.88
304.511	171.88
304.741	179.88
304.971	164.88
305.201	187.88
305.431	183.88
305.661	184.88
305.891	172.88
306.121	178.88
306.352	183.88
306.582	167.88
306.812	178.88
307.042	165.88
307.272	168.88
307.502	179.88
307.731	184.88
307.961	179.88
308.191	185.88
308.421	176.88
308.651	159.88
308.881	185.88
309.111	177.88
309.341	174.88
309.571	190.88
309.8	185.88
310.03	189.88
310.26	195.88
310.49	189.88
310.72	199.88
310.949	188.88
311.179	198.88
311.409	190.88
311.639	197.88
311.868	187.88
312.098	201.88
312.328	203.88
312.557	204.88
312.787	227.88
313.017	207.88
313.246	210.88
313.476	199.88
313.706	207.88
313.935	199.88
314.165	202.88
314.394	215.88
314.624	195.88
314.853	203.88
315.083	183.88
315.312	209.88
315.542	197.88
315.771	191.88
316.001	199.88
316.23	174.88
316.46	193.88
316.689	195.88
316.919	191.88
317.148	194.88
317.377	196.88
317.607	183.88
317.836	187.88
318.065	206.88
318.295	199.88
318.524	186.88
318.753	191.88
318.983	200.88
319.212	196.88
319.441	188.88
319.67	201.88
319.9	185.88
320.129	196.88
320.358	191.88
320.587	200.88
320.816	197.88
321.046	201.88
321.275	199.88
321.504	195.88
321.733	205.88
321.962	200.88
322.191	202.88
322.42	211.88
322.649	223.88
322.878	221.88
323.108	223.88
323.337	238.88
323.566	244.88
323.795	253.88
324.024	265.88
324.253	326.88
324.482	469.88
324.71	699.88
324.939	935.88
325.168	743.88
325.397	398.88
325.626	283.88
325.855	238.88
326.084	238.88
326.313	245.88
326.542	231.88
326.77	253.88
326.999	306.88
327.228	422.88
327.457	636.88
327.686	701.88
327.914	464.88
328.143	315.88
328.372	283.88
328.6	281.88
328.829	267.88
329.058	286.88
329.287	280.88
329.515	268.88
329.744	250.88
329.972	240.88
330.201	250.88
330.43	281.88
330.658	286.88
330.887	302.88
331.115	316.88
331.344	253.88
331.572	215.88
331.801	237.88
332.03	230.88
332.258	225.88
332.486	237.88
332.715	205.88
332.943	232.88
333.172	228.88
333.4	227.88
333.629	235.88
333.857	235.88
334.085	252.88
334.314	255.88
334.542	287.88
334.771	292.88
334.999	266.88
335.227	252.88
335.455	231.88
335.684	241.88
335.912	217.88
336.14	222.88
336.369	239.88
336.597	218.88
336.825	216.88
337.053	219.88
337.281	224.88
337.51	209.88
337.738	208.88
337.966	229.88
338.194	217.88
338.422	237.88
338.65	230.88
338.878	231.88
339.106	222.88
339.334	219.88
339.562	198.88
339.79	195.88
340.018	194.88
340.246	225.88
340.474	214.88
340.702	227.88
340.93	212.88
341.158	207.88
341.386	209.88
341.614	213.88
341.842	204.88
342.07	205.88
342.298	201.88
342.526	203.88
342.754	193.88
342.981	200.88
343.209	207.88
343.437	193.88
343.665	213.88
343.893	211.88
344.12	218.88
344.348	217.88
344.576	210.88
344.804	214.88
345.031	222.88
345.259	221.88
345.487	209.88
345.714	207.88
345.942	202.88
346.17	209.88
346.397	210.88
346.625	194.88
346.853	193.88
347.08	192.88
347.308	227.88
347.535	218.88
347.763	205.88
347.99	220.88
348.218	215.88
348.445	220.88
348.673	216.88
348.9	188.88
349.128	193.88
349.355	209.88
349.583	209.88
349.81	198.88
350.037	188.88
350.265	193.88
350.492	197.88
350.72	210.88
350.947	197.88
351.174	219.88
351.402	206.88
351.629	216.88
351.856	206.88
352.083	219.88
352.311	203.88
352.538	225.88
352.765	211.88
352.992	227.88
353.22	220.88
353.447	212.88
353.674	196.88
353.901	192.88
354.128	208.88
354.355	196.88
354.583	191.88
354.81	199.88
355.037	192.88
355.264	190.88
355.491	188.88
355.718	191.88
355.945	192.88
356.172	181.88
356.399	187.88
356.626	200.88
356.853	187.88
357.08	205.88
357.307	205.88
357.534	185.88
357.761	202.88
357.988	192.88
358.215	208.88
358.441	206.88
358.668	195.88
358.895	196.88
359.122	196.88
359.349	191.88
359.576	198.88
359.802	231.88
360.029	234.88
360.256	235.88
360.483	232.88
360.709	215.88
360.936	206.88
361.163	213.88
361.39	223.88
361.616	193.88
361.843	192.88
362.07	192.88
362.296	202.88
362.523	205.88
362.749	198.88
362.976	191.88
363.203	188.88
363.429	204.88
363.656	212.88
363.882	198.88
364.109	191.88
364.335	194.88
364.562	191.88
364.788	202.88
365.015	199.88
365.241	197.88
365.468	206.88
365.694	192.88
365.92	204.88
366.147	207.88
366.373	214.88
366.599	199.88
366.826	178.88
367.052	174.88
367.278	195.88
367.505	195.88
367.731	176.88
367.957	187.88
368.184	192.88
368.41	200.88
368.636	175.88
368.862	196.88
369.089	207.88
369.315	207.88
369.541	194.88
369.767	177.88
369.993	198.88
370.219	207.88
370.445	192.88
370.672	189.88
370.898	192.88
371.124	205.88
371.35	204.88
371.576	199.88
371.802	196.88
372.028	214.88
372.254	191.88
372.48	201.88
372.706	183.88
372.932	191.88
373.158	191.88
373.384	204.88
373.61	190.88
373.835	204.88
374.061	188.88
374.287	183.88
374.513	205.88
374.739	207.88
374.965	211.88
375.191	209.88
375.416	214.88
375.642	195.88
375.868	210.88
376.094	213.88
376.319	191.88
376.545	191.88
376.771	203.88
376.997	183.88
377.222	211.88
377.448	196.88
377.674	185.88
377.899	199.88
378.125	192.88
378.35	214.88
378.576	207.88
378.802	195.88
379.027	213.88
379.253	211.88
379.478	184.88
379.704	199.88
379.929	205.88
380.155	199.88
380.38	201.88
380.606	196.88
380.831	203.88
381.057	197.88
381.282	201.88
381.507	185.88
381.733	199.88
381.958	199.88
382.184	201.88
382.409	187.88
382.634	186.88
382.86	192.88
383.085	190.88
383.31	199.88
383.535	188.88
383.761	196.88
383.986	214.88
384.211	203.88
384.436	197.88
384.662	211.88
384.887	208.88
385.112	222.88
385.337	216.88
385.562	219.88
385.787	221.88
386.013	209.88
386.238	218.88
386.463	215.88
386.688	213.88
386.913	200.88
387.138	205.88
387.363	199.88
387.588	209.88
387.813	192.88
388.038	208.88
388.263	208.88
388.488	193.88
388.713	202.88
388.938	222.88
389.163	211.88
389.387	213.88
389.612	206.88
389.837	211.88
390.062	218.88
390.287	220.88
390.512	196.88
390.736	197.88
390.961	206.88
391.186	197.88
391.411	203.88
391.636	212.88
391.86	196.88
392.085	220.88
392.31	220.88
392.534	225.88
392.759	215.88
392.984	213.88
393.208	205.88
393.433	233.88
393.658	226.88
393.882	207.88
394.107	219.88
394.331	205.88
394.556	205.88
394.78	225.88
395.005	207.88
395.229	231.88
395.454	225.88
395.678	224.88
395.903	216.88
396.127	209.88
396.352	226.88
396.576	234.88
396.801	222.88
397.025	220.88
397.249	208.88
397.474	228.88
397.698	205.88
397.922	223.88
398.147	243.88
398.371	240.88
398.595	237.88
398.82	236.88
399.044	234.88
399.268	228.88
399.492	249.88
399.717	279.88
399.941	284.88
400.165	289.88
400.389	294.88
400.613	245.88
400.837	230.88
401.062	243.88
401.286	237.88
401.51	230.88
401.734	239.88
401.958	232.88
402.182	239.88
402.406	238.88
402.63	247.88
402.854	248.88
403.078	231.88
403.302	243.88
403.526	234.88
403.75	252.88
403.974	243.88
404.198	237.88
404.422	249.88
404.645	235.88
404.869	252.88
405.093	246.88
405.317	284.88
405.541	300.88
405.765	263.88
405.988	251.88
406.212	261.88
406.436	291.88
406.66	288.88
406.883	277.88
407.107	274.88
407.331	285.88
407.555	292.88
407.778	317.88
408.002	272.88
408.226	271.88
408.449	268.88
408.673	265.88
408.896	273.88
409.12	276.88
409.344	277.88
409.567	250.88
409.791	250.88
410.014	263.88
410.238	244.88
410.461	236.88
410.685	235.88
410.908	248.88
411.132	247.88
411.355	294.88
411.578	278.88
411.802	236.88
412.025	222.88
412.249	261.88
412.472	247.88
412.695	278.88
412.919	269.88
413.142	254.88
413.365	247.88
413.589	234.88
413.812	219.88
414.035	225.88
414.258	250.88
414.482	249.88
414.705	263.88
414.928	232.88
415.151	224.88
415.374	234.88
415.597	222.88
415.821	239.88
416.044	239.88
416.267	240.88
416.49	237.88
416.713	232.88
416.936	230.88
417.159	228.88
417.382	240.88
417.605	240.88
417.828	243.88
418.051	247.88
418.274	267.88
418.497	240.88
418.72	249.88
418.943	247.88
419.166	231.88
419.389	246.88
419.611	248.88
419.834	271.88
420.057	237.88
420.28	244.88
420.503	243.88
420.726	243.88
420.948	252.88
421.171	282.88
421.394	259.88
421.617	246.88
421.839	252.88
422.062	247.88
422.285	238.88
422.507	261.88
422.73	291.88
422.953	293.88
423.175	251.88
423.398	245.88
423.621	259.88
423.843	258.88
424.066	249.88
424.288	263.88
424.511	273.88
424.733	282.88
424.956	312.88
425.178	313.88
425.401	300.88
425.623	311.88
425.846	261.88
426.068	249.88
426.291	261.88
426.513	263.88
426.735	261.88
426.958	279.88
427.18	315.88
427.402	334.88
427.625	405.88
427.847	347.88
428.069	312.88
428.292	254.88
428.514	234.88
428.736	243.88
428.958	260.88
429.181	234.88
429.403	247.88
429.625	237.88
429.847	275.88
430.069	283.88
430.292	283.88
430.514	253.88
430.736	239.88
430.958	230.88
431.18	238.88
431.402	216.88
431.624	229.88
431.846	241.88
432.068	214.88
432.29	226.88
432.512	231.88
432.734	255.88
432.956	237.88
433.178	254.88
433.4	251.88
433.622	254.88
433.844	240.88
434.066	244.88
434.287	216.88
434.509	233.88
434.731	245.88
434.953	232.88
435.175	235.88
435.397	261.88
435.618	257.88
435.84	279.88
436.062	311.88
436.284	325.88
436.505	287.88
436.727	263.88
436.949	249.88
437.17	238.88
437.392	236.88
437.614	244.88
437.835	263.88
438.057	311.88
438.278	321.88
438.5	344.88
438.721	357.88
438.943	348.88
439.165	288.88
439.386	259.88
439.608	264.88
439.829	260.88
440.05	257.88
440.272	301.88
440.493	266.88
440.715	257.88
440.936	258.88
441.158	249.88
441.379	243.88
441.6	265.88
441.822	277.88
442.043	275.88
442.264	332.88
442.486	332.88
442.707	279.88
442.928	272.88
443.149	249.88
443.371	288.88
443.592	318.88
443.813	332.88
444.034	369.88
444.255	295.88
444.476	262.88
444.698	274.88
444.919	269.88
445.14	349.88
445.361	310.88
445.582	310.88
445.803	319.88
446.024	358.88
446.245	348.88
446.466	311.88
446.687	268.88
446.908	243.88
447.129	247.88
447.35	248.88
447.571	240.88
447.792	226.88
448.013	251.88
448.234	246.88
448.455	285.88
448.675	331.88
448.896	361.88
449.117	310.88
449.338	286.88
449.559	330.88
449.779	363.88
450	291.88
450.221	267.88
450.442	246.88
450.662	237.88
450.883	239.88
451.104	245.88
451.324	244.88
451.545	216.88
451.766	233.88
451.986	236.88
452.207	223.88
452.428	229.88
452.648	240.88
452.869	220.88
453.089	204.88
453.31	235.88
453.53	228.88
453.751	222.88
453.971	236.88
454.192	233.88
454.412	227.88
454.633	215.88
454.853	211.88
455.073	216.88
455.294	247.88
455.514	261.88
455.734	258.88
455.955	217.88
456.175	223.88
456.395	209.88
456.616	214.88
456.836	199.88
457.056	210.88
457.276	205.88
457.497	207.88
457.717	221.88
457.937	225.88
458.157	209.88
458.377	217.88
458.598	222.88
458.818	257.88
459.038	292.88
459.258	300.88
459.478	237.88
459.698	227.88
459.918	239.88
460.138	227.88
460.358	236.88
460.578	235.88
460.798	243.88
461.018	231.88
461.238	217.88
461.458	221.88
461.678	237.88
461.898	229.88
462.118	228.88
462.338	226.88
462.558	231.88
462.777	245.88
462.997	232.88
463.217	245.88
463.437	257.88
463.657	264.88
463.876	226.88
464.096	259.88
464.316	231.88
464.536	262.88
464.755	254.88
464.975	241.88
465.195	273.88
465.414	328.88
465.634	273.88
465.854	245.88
466.073	231.88
466.293	228.88
466.512	230.88
466.732	215.88
466.951	216.88
467.171	231.88
467.391	225.88
467.61	228.88
467.829	244.88
468.049	219.88
468.268	229.88
468.488	240.88
468.707	215.88
468.927	208.88
469.146	220.88
469.365	204.88
469.585	213.88
469.804	234.88
470.023	247.88
470.243	231.88
470.462	229.88
470.681	233.88
470.901	234.88
471.12	215.88
471.339	221.88
471.558	232.88
471.777	222.88
471.997	219.88
472.216	224.88
472.435	263.88
472.654	251.88
472.873	206.88
473.092	240.88
473.311	226.88
473.53	221.88
473.749	237.88
473.968	259.88
474.187	295.88
474.406	306.88
474.625	249.88
474.844	223.88
475.063	224.88
475.282	214.88
475.501	231.88
475.72	236.88
475.939	206.88
476.158	225.88
476.377	221.88
476.596	230.88
476.814	247.88
477.033	231.88
477.252	244.88
477.471	243.88
477.69	239.88
477.908	239.88
478.127	245.88
478.346	249.88
478.564	240.88
478.783	260.88
479.002	261.88
479.22	264.88
479.439	268.88
479.658	271.88
479.876	269.88
480.095	284.88
480.313	290.88
480.532	271.88
480.751	263.88
480.969	274.88
481.188	312.88
481.406	348.88
481.624	311.88
481.843	278.88
482.061	245.88
482.28	254.88
482.498	250.88
482.717	258.88
482.935	251.88
483.153	261.88
483.372	245.88
483.59	265.88
483.808	265.88
484.027	248.88
484.245	270.88
484.463	270.88
484.681	274.88
484.9	263.88
485.118	263.88
485.336	276.88
485.554	285.88
485.772	277.88
485.99	268.88
486.209	271.88
486.427	259.88
486.645	293.88
486.863	304.88
487.081	278.88
487.299	282.88
487.517	271.88
487.735	267.88
487.953	292.88
488.171	268.88
488.389	268.88
488.607	297.88
488.825	289.88
489.043	288.88
489.261	266.88
489.479	279.88
489.696	291.88
489.914	270.88
490.132	292.88
490.35	302.88
490.568	308.88
490.786	287.88
491.003	294.88
491.221	291.88
491.439	310.88
491.657	318.88
491.874	321.88
492.092	327.88
492.31	341.88
492.527	323.88
492.745	337.88
492.963	321.88
493.18	318.88
493.398	312.88
493.615	345.88
493.833	329.88
494.05	340.88
494.268	317.88
494.485	295.88
494.703	308.88
494.92	333.88
495.138	344.88
495.355	332.88
495.573	312.88
495.79	319.88
496.008	328.88
496.225	319.88
496.442	333.88
496.66	328.88
496.877	327.88
497.094	305.88
497.312	325.88
497.529	357.88
497.746	328.88
497.963	321.88
498.181	348.88
498.398	354.88
498.615	353.88
498.832	351.88
499.049	364.88
499.267	373.88
499.484	373.88
499.701	384.88
499.918	406.88
500.135	399.88
500.352	431.88
500.569	439.88
500.786	451.88
501.003	418.88
501.22	396.88
501.437	409.88
501.654	402.88
501.871	397.88
502.088	389.88
502.305	349.88
502.522	361.88
502.739	369.88
502.956	334.88
503.172	337.88
503.389	319.88
503.606	331.88
503.823	318.88
504.04	323.88
504.256	328.88
504.473	309.88
504.69	314.88
504.907	308.88
505.123	311.88
505.34	310.88
505.557	313.88
505.773	319.88
505.99	320.88
506.207	280.88
506.423	299.88
506.64	295.88
506.856	301.88
507.073	309.88
507.289	289.88
507.506	295.88
507.722	299.88
507.939	295.88
508.155	305.88
508.372	295.88
508.588	286.88
508.805	309.88
509.021	284.88
509.238	279.88
509.454	286.88
509.67	300.88
509.887	309.88
510.103	288.88
510.319	312.88
510.536	362.88
510.752	661.88
510.968	486.88
511.184	300.88
511.401	291.88
511.617	289.88
511.833	299.88
512.049	280.88
512.265	264.88
512.481	274.88
512.698	295.88
512.914	275.88
513.13	281.88
513.346	280.88
513.562	285.88
513.778	278.88
513.994	278.88
514.21	294.88
514.426	325.88
514.642	326.88
514.858	327.88
515.074	343.88
515.29	435.88
515.506	743.88
515.721	562.88
515.937	345.88
516.153	324.88
516.369	279.88
516.585	299.88
516.801	285.88
517.016	282.88
517.232	291.88
517.448	287.88
517.664	294.88
517.879	279.88
518.095	267.88
518.311	277.88
518.527	281.88
518.742	266.88
518.958	273.88
519.173	287.88
519.389	286.88
519.605	284.88
519.82	275.88
520.036	289.88
520.251	291.88
520.467	305.88
520.682	310.88
520.898	318.88
521.113	302.88
521.329	356.88
521.544	394.88
521.76	520.88
521.975	933.88
522.19	929.88
522.406	456.88
522.621	327.88
522.836	287.88
523.052	279.88
523.267	271.88
523.482	262.88
523.698	253.88
523.913	277.88
524.128	272.88
524.343	260.88
524.559	230.88
524.774	255.88
524.989	263.88
525.204	261.88
525.419	249.88
525.634	236.88
525.849	232.88
526.064	247.88
526.28	247.88
526.495	228.88
526.71	209.88
526.925	225.88
527.14	229.88
527.355	219.88
527.57	220.88
527.785	229.88
527.999	214.88
528.214	236.88
528.429	257.88
528.644	233.88
528.859	235.88
529.074	232.88
529.289	239.88
529.503	304.88
529.718	298.88
529.933	230.88
530.148	233.88
530.363	227.88
530.577	231.88
530.792	216.88
531.007	227.88
531.221	221.88
531.436	215.88
531.651	215.88
531.865	227.88
532.08	224.88
532.295	241.88
532.509	216.88
532.724	221.88
532.938	225.88
533.153	225.88
533.367	226.88
533.582	213.88
533.796	219.88
534.011	222.88
534.225	211.88
534.44	221.88
534.654	222.88
534.868	224.88
535.083	245.88
535.297	216.88
535.511	218.88
535.726	219.88
535.94	216.88
536.154	227.88
536.369	218.88
536.583	216.88
536.797	225.88
537.011	227.88
537.225	196.88
537.44	217.88
537.654	214.88
537.868	227.88
538.082	199.88
538.296	208.88
538.51	222.88
538.724	231.88
538.938	216.88
539.153	207.88
539.367	230.88
539.581	231.88
539.795	209.88
540.009	196.88
540.222	217.88
540.436	218.88
540.65	225.88
540.864	216.88
541.078	213.88
541.292	215.88
541.506	221.88
541.72	228.88
541.934	220.88
542.147	224.88
542.361	213.88
542.575	212.88
542.789	226.88
543.002	211.88
543.216	219.88
543.43	211.88
543.644	227.88
543.857	216.88
544.071	213.88
544.285	221.88
544.498	219.88
544.712	234.88
544.925	223.88
545.139	228.88
545.352	213.88
545.566	227.88
545.779	222.88
545.993	215.88
546.206	234.88
546.42	224.88
546.633	211.88
546.847	230.88
547.06	228.88
547.274	224.88
547.487	210.88
547.7	204.88
547.914	225.88
548.127	214.88
548.34	196.88
548.554	224.88
548.767	227.88
548.98	224.88
549.193	207.88
549.407	230.88
549.62	200.88
549.833	205.88
550.046	205.88
550.259	201.88
550.473	207.88
550.686	213.88
550.899	217.88
551.112	219.88
551.325	201.88
551.538	215.88
551.751	197.88
551.964	191.88
552.177	214.88
552.39	229.88
552.603	201.88
552.816	216.88
553.029	203.88
553.242	209.88
553.455	213.88
553.667	230.88
553.88	224.88
554.093	224.88
554.306	217.88
554.519	208.88
554.732	209.88
554.944	205.88
555.157	203.88
555.37	208.88
555.583	195.88
555.795	209.88
556.008	214.88
556.221	208.88
556.433	203.88
556.646	199.88
556.859	178.88
557.071	221.88
557.284	198.88
557.496	190.88
557.709	205.88
557.921	205.88
558.134	185.88
558.346	193.88
558.559	208.88
558.771	178.88
558.984	179.88
559.196	180.88
559.409	180.88
559.621	179.88
559.833	195.88
560.046	201.88
560.258	193.88
560.47	192.88
560.683	190.88
560.895	184.88
561.107	203.88
561.32	183.88
561.532	204.88
561.744	188.88
561.956	189.88
562.168	197.88
562.381	201.88
562.593	175.88
562.805	192.88
563.017	195.88
563.229	185.88
563.441	203.88
563.653	195.88
563.865	203.88
564.077	201.88
564.289	198.88
564.501	204.88
564.713	187.88
564.925	202.88
565.137	204.88
565.349	197.88
565.561	203.88
565.773	202.88
565.985	215.88
566.197	202.88
566.408	224.88
566.62	210.88
566.832	233.88
567.044	238.88
567.255	217.88
567.467	227.88
567.679	229.88
567.891	216.88
568.102	243.88
568.314	225.88
568.526	215.88
568.737	201.88
568.949	216.88
569.161	220.88
569.372	201.88
569.584	189.88
569.795	188.88
570.007	193.88
570.218	234.88
570.43	219.88
570.641	181.88
570.853	170.88
571.064	183.88
571.276	201.88
571.487	171.88
571.698	174.88
571.91	179.88
572.121	181.88
572.333	185.88
572.544	183.88
572.755	163.88
572.966	173.88
573.178	163.88
573.389	168.88
573.6	165.88
573.811	168.88
574.023	172.88
574.234	167.88
574.445	182.88
574.656	173.88
574.867	169.88
575.078	152.88
575.289	168.88
575.501	161.88
575.712	158.88
575.923	166.88
576.134	175.88
576.345	157.88
576.556	160.88
576.767	155.88
576.978	164.88
577.188	181.88
577.399	165.88
577.61	163.88
577.821	165.88
578.032	182.88
578.243	192.88
578.454	329.88
578.665	250.88
578.875	182.88
579.086	159.88
579.297	145.88
579.508	160.88
579.718	167.88
579.929	151.88
580.14	176.88
580.35	159.88
580.561	155.88
580.772	154.88
580.982	165.88
581.193	163.88
581.403	159.88
581.614	154.88
581.825	163.88
582.035	160.88
582.246	179.88
582.456	141.88
582.667	160.88
582.877	156.88
583.087	167.88
583.298	170.88
583.508	145.88
583.719	152.88
583.929	158.88
584.139	153.88
584.35	158.88
584.56	155.88
584.77	149.88
584.981	151.88
585.191	171.88
585.401	147.88
585.611	151.88
585.821	157.88
586.032	129.88
586.242	135.88
586.452	141.88
586.662	155.88
586.872	163.88
587.082	167.88
587.292	153.88
587.502	135.88
587.713	147.88
587.923	154.88
588.133	150.88
588.343	155.88
588.553	168.88
588.762	143.88
588.972	150.88
589.182	193.88
589.392	181.88
589.602	160.88
589.812	167.88
590.022	158.88
590.232	149.88
590.441	151.88
590.651	149.88
590.861	142.88
591.071	163.88
591.281	165.88
591.49	155.88
591.7	163.88
591.91	155.88
592.119	162.88
592.329	160.88
592.539	149.88
592.748	153.88
592.958	169.88
593.167	160.88
593.377	165.88
593.587	169.88
593.796	166.88
594.006	161.88
594.215	175.88
594.424	170.88
594.634	147.88
594.843	170.88
595.053	149.88
595.262	150.88
595.472	133.88
595.681	137.88
595.89	152.88
596.1	136.88
596.309	148.88
596.518	153.88
596.727	144.88
596.937	159.88
597.146	155.88
597.355	153.88
597.564	139.88
597.774	145.88
597.983	143.88
598.192	135.88
598.401	149.88
598.61	136.88
598.819	157.88
599.028	143.88
599.237	144.88
599.446	137.88
599.655	129.88
599.864	139.88
600.073	123.88
600.282	155.88
600.491	137.88
600.7	139.88
600.909	142.88
601.118	153.88
601.327	136.88
601.536	163.88
601.745	141.88
601.953	131.88
602.162	138.88
602.371	145.88
602.58	123.88
602.789	143.88
602.997	139.88
603.206	148.88
603.415	129.88
603.623	140.88
603.832	151.88
604.041	129.88
604.249	133.88
604.458	144.88
604.666	130.88
604.875	159.88
605.084	135.88
605.292	152.88
605.501	146.88
605.709	138.88
605.918	123.88
606.126	131.88
606.334	138.88
606.543	142.88
606.751	137.88
606.96	143.88
607.168	156.88
607.376	127.88
607.585	132.88
607.793	141.88
608.001	145.88
608.21	125.88
608.418	125.88
608.626	125.88
608.834	147.88
609.043	144.88
609.251	149.88
609.459	137.88
609.667	142.88
609.875	144.88
610.083	133.88
610.291	143.88
610.499	141.88
610.707	141.88
610.916	139.88
611.124	139.88
611.332	136.88
611.54	151.88
611.748	139.88
611.955	141.88
612.163	139.88
612.371	154.88
612.579	147.88
612.787	141.88
612.995	146.88
613.203	132.88
613.411	147.88
613.618	133.88
613.826	144.88
614.034	124.88
614.242	127.88
614.449	152.88
614.657	144.88
614.865	132.88
615.072	133.88
615.28	140.88
615.488	141.88
615.695	136.88
615.903	131.88
616.111	139.88
616.318	129.88
616.526	123.88
616.733	129.88
616.941	152.88
617.148	134.88
617.356	135.88
617.563	132.88
617.771	125.88
617.978	133.88
618.185	140.88
618.393	143.88
618.6	140.88
618.807	139.88
619.015	134.88
619.222	135.88
619.429	121.88
619.637	142.88
619.844	139.88
620.051	133.88
620.258	129.88
620.466	136.88
620.673	121.88
620.88	116.88
621.087	128.88
621.294	138.88
621.501	127.88
621.708	127.88
621.915	159.88
622.122	148.88
622.329	125.88
622.536	128.88
622.743	126.88
622.95	134.88
623.157	136.88
623.364	133.88
623.571	119.88
623.778	113.88
623.985	132.88
624.192	113.88
624.399	131.88
624.606	141.88
624.812	130.88
625.019	133.88
625.226	138.88
625.433	122.88
625.639	127.88
625.846	139.88
626.053	125.88
626.259	107.88
626.466	116.88
626.673	120.88
626.879	125.88
627.086	141.88
627.293	116.88
627.499	137.88
627.706	135.88
627.912	128.88
628.119	127.88
628.325	129.88
628.532	127.88
628.738	129.88
628.945	115.88
629.151	135.88
629.357	118.88
629.564	126.88
629.77	125.88
629.976	129.88
630.183	112.88
630.389	120.88
630.595	110.88
630.802	110.88
631.008	127.88
631.214	112.88
631.42	120.88
631.627	129.88
631.833	134.88
632.039	112.88
632.245	128.88
632.451	118.88
632.657	104.88
632.863	112.88
633.069	126.88
633.275	107.88
633.481	131.88
633.688	127.88
633.893	125.88
634.099	134.88
634.305	127.88
634.511	132.88
634.717	125.88
634.923	111.88
635.129	129.88
635.335	115.88
635.541	112.88
635.747	119.88
635.952	126.88
636.158	120.88
636.364	128.88
636.57	126.88
636.775	118.88
636.981	115.88
637.187	119.88
637.392	119.88
637.598	123.88
637.804	120.88
638.009	119.88
638.215	124.88
638.421	111.88
638.626	115.88
638.832	116.88
639.037	98.88
639.243	121.88
639.448	119.88
639.654	129.88
639.859	116.88
640.065	116.88
640.27	116.88
640.475	124.88
640.681	115.88
640.886	101.88
641.091	119.88
641.297	124.88
641.502	116.88
641.707	110.88
641.913	119.88
642.118	108.88
642.323	107.88
642.528	131.88
642.733	109.88
642.939	117.88
643.144	117.88
643.349	119.88
643.554	103.88
643.759	111.88
643.964	123.88
644.169	121.88
644.374	111.88
644.579	122.88
644.784	106.88
644.989	111.88
645.194	116.88
645.399	107.88
645.604	112.88
645.809	113.88
646.014	102.88
646.219	115.88
646.423	125.88
646.628	118.88
646.833	105.88
647.038	123.88
647.243	121.88
647.447	123.88
647.652	114.88
647.857	108.88
648.062	111.88
648.266	111.88
648.471	132.88
648.676	98.88
648.88	105.88
649.085	112.88
649.289	111.88
649.494	118.88
649.698	128.88
649.903	134.88
650.107	113.88
650.312	115.88
650.516	121.88
650.721	100.88
650.925	108.88
651.13	105.88
651.334	102.88
651.539	113.88
651.743	110.88
651.947	104.88
652.152	108.88
652.356	92.88
652.56	109.88
652.764	92.88
652.969	108.88
653.173	92.88
653.377	106.88
653.581	100.88
653.785	104.88
653.99	118.88
654.194	101.88
654.398	95.88
654.602	106.88
654.806	112.88
655.01	104.88
655.214	88.88
655.418	108.88
655.622	103.88
655.826	99.88
656.03	107.88
656.234	126.88
656.438	109.88
656.642	94.88
656.846	105.88
657.049	117.88
657.253	104.88
657.457	88.88
657.661	96.88
657.865	90.88
658.068	103.88
658.272	89.88
658.476	101.88
658.68	84.88
658.883	87.88
659.087	109.88
659.291	101.88
659.494	90.88
659.698	87.88
659.901	86.88
660.105	78.88
660.309	100.88
660.512	86.88
660.716	92.88
660.919	90.88
661.123	76.88
661.326	80.88
661.53	82.88
661.733	100.88
661.936	96.88
662.14	93.88
662.343	80.88
662.546	77.88
662.75	83.88
662.953	67.88
663.156	68.88
663.36	75.88
663.563	81.88
663.766	80.88
663.969	87.88
664.173	87.88
664.376	90.88
664.579	101.88
664.782	80.88
664.985	77.88
665.188	87.88
665.391	87.88
665.594	93.88
665.797	88.88
666	86.88
666.203	91.88
666.406	75.88
666.609	80.88
666.812	95.88
667.015	87.88
667.218	81.88
667.421	83.88
667.624	84.88
667.827	75.88
668.03	88.88
668.232	74.88
668.435	76.88
668.638	70.88
668.841	91.88
669.043	79.88
669.246	89.88
669.449	76.88
669.651	81.88
669.854	74.88
670.057	69.88
670.259	95.88
670.462	95.88
670.665	91.88
670.867	83.88
671.07	75.88
671.272	89.88
671.475	83.88
671.677	81.88
671.88	85.88
672.082	87.88
672.284	91.88
672.487	82.88
672.689	81.88
672.892	66.88
