Data from 1966.PennyLincolnUp.Lamp.En5.5.200Scan.071719.P1._HRD10591_14-12-15-912.txt Node
Date: Thu Jul 18 14:12:15 EDT 2019
User: cochatt
Spectrometer: HR+D1059
Trigger mode: 1
Integration Time (sec): 1.000000E-1
Scans to average: 1
Electric dark correction enabled: true
Nonlinearity correction enabled: false
Boxcar width: 0
XAxis mode: Wavelengths
Number of Pixels in Spectrum: 2048
>>>>>Begin Spectral Data<<<<<
223.165	-9.62
223.4	-9.62
223.635	-9.62
223.869	-19.62
224.104	-19.62
224.338	-14.62
224.573	-18.62
224.808	-20.62
225.042	-10.62
225.277	6.38
225.511	-12.62
225.746	10.38
225.98	8.38
226.215	16.38
226.449	20.38
226.683	17.38
226.918	26.38
227.152	20.38
227.387	37.38
227.621	34.38
227.856	40.38
228.09	38.38
228.324	52.38
228.559	61.38
228.793	47.38
229.027	74.38
229.262	89.38
229.496	91.38
229.73	104.38
229.964	100.38
230.199	95.38
230.433	90.38
230.667	81.38
230.901	73.38
231.136	96.38
231.37	91.38
231.604	93.38
231.838	93.38
232.072	102.38
232.306	102.38
232.541	93.38
232.775	89.38
233.009	78.38
233.243	75.38
233.477	93.38
233.711	86.38
233.945	90.38
234.179	87.38
234.413	90.38
234.647	91.38
234.881	101.38
235.115	103.38
235.349	99.38
235.583	97.38
235.817	80.38
236.051	87.38
236.285	96.38
236.519	97.38
236.753	103.38
236.987	96.38
237.221	125.38
237.455	137.38
237.689	115.38
237.922	103.38
238.156	102.38
238.39	98.38
238.624	93.38
238.858	91.38
239.091	105.38
239.325	94.38
239.559	95.38
239.793	97.38
240.027	102.38
240.26	117.38
240.494	106.38
240.728	112.38
240.961	116.38
241.195	115.38
241.429	103.38
241.662	91.38
241.896	92.38
242.13	111.38
242.363	89.38
242.597	83.38
242.83	107.38
243.064	91.38
243.298	99.38
243.531	89.38
243.765	88.38
243.998	110.38
244.232	102.38
244.465	108.38
244.699	97.38
244.932	110.38
245.166	104.38
245.399	95.38
245.633	97.38
245.866	94.38
246.099	95.38
246.333	99.38
246.566	112.38
246.8	116.38
247.033	111.38
247.266	91.38
247.5	120.38
247.733	105.38
247.966	122.38
248.2	117.38
248.433	123.38
248.666	102.38
248.899	114.38
249.133	112.38
249.366	133.38
249.599	94.38
249.832	113.38
250.066	130.38
250.299	123.38
250.532	127.38
250.765	129.38
250.998	109.38
251.231	136.38
251.465	148.38
251.698	122.38
251.931	118.38
252.164	127.38
252.397	114.38
252.63	128.38
252.863	131.38
253.096	121.38
253.329	131.38
253.562	131.38
253.795	144.38
254.028	145.38
254.261	126.38
254.494	133.38
254.727	149.38
254.96	160.38
255.193	132.38
255.426	137.38
255.659	135.38
255.892	134.38
256.124	143.38
256.357	126.38
256.59	123.38
256.823	129.38
257.056	123.38
257.289	117.38
257.521	137.38
257.754	117.38
257.987	127.38
258.22	124.38
258.452	130.38
258.685	109.38
258.918	120.38
259.151	128.38
259.383	120.38
259.616	122.38
259.849	144.38
260.081	149.38
260.314	134.38
260.547	155.38
260.779	163.38
261.012	146.38
261.244	126.38
261.477	131.38
261.71	127.38
261.942	133.38
262.175	140.38
262.407	145.38
262.64	128.38
262.872	133.38
263.105	130.38
263.337	127.38
263.57	123.38
263.802	118.38
264.035	136.38
264.267	142.38
264.499	135.38
264.732	135.38
264.964	126.38
265.197	128.38
265.429	128.38
265.661	123.38
265.894	134.38
266.126	133.38
266.358	130.38
266.591	125.38
266.823	132.38
267.055	145.38
267.287	128.38
267.52	129.38
267.752	127.38
267.984	124.38
268.216	118.38
268.448	125.38
268.681	133.38
268.913	142.38
269.145	147.38
269.377	150.38
269.609	154.38
269.841	148.38
270.073	150.38
270.306	173.38
270.538	156.38
270.77	170.38
271.002	160.38
271.234	151.38
271.466	152.38
271.698	162.38
271.93	167.38
272.162	155.38
272.394	163.38
272.626	163.38
272.858	152.38
273.09	162.38
273.322	142.38
273.553	144.38
273.785	140.38
274.017	149.38
274.249	140.38
274.481	155.38
274.713	160.38
274.945	156.38
275.176	156.38
275.408	151.38
275.64	155.38
275.872	156.38
276.104	154.38
276.335	144.38
276.567	142.38
276.799	165.38
277.031	187.38
277.262	176.38
277.494	188.38
277.726	180.38
277.957	170.38
278.189	161.38
278.421	141.38
278.652	155.38
278.884	151.38
279.115	140.38
279.347	168.38
279.579	150.38
279.81	166.38
280.042	158.38
280.273	156.38
280.505	152.38
280.736	152.38
280.968	169.38
281.199	136.38
281.431	157.38
281.662	158.38
281.894	149.38
282.125	164.38
282.356	173.38
282.588	171.38
282.819	171.38
283.051	164.38
283.282	158.38
283.513	159.38
283.745	149.38
283.976	153.38
284.207	163.38
284.439	151.38
284.67	150.38
284.901	163.38
285.132	145.38
285.364	157.38
285.595	158.38
285.826	147.38
286.057	164.38
286.288	167.38
286.52	149.38
286.751	154.38
286.982	135.38
287.213	144.38
287.444	163.38
287.675	166.38
287.906	157.38
288.138	167.38
288.369	157.38
288.6	168.38
288.831	163.38
289.062	175.38
289.293	149.38
289.524	164.38
289.755	165.38
289.986	181.38
290.217	158.38
290.448	160.38
290.679	168.38
290.91	155.38
291.141	169.38
291.371	173.38
291.602	161.38
291.833	148.38
292.064	169.38
292.295	165.38
292.526	176.38
292.757	156.38
292.987	157.38
293.218	151.38
293.449	164.38
293.68	160.38
293.91	149.38
294.141	165.38
294.372	151.38
294.603	157.38
294.833	157.38
295.064	176.38
295.295	157.38
295.525	151.38
295.756	167.38
295.987	181.38
296.217	188.38
296.448	201.38
296.679	193.38
296.909	177.38
297.14	155.38
297.37	165.38
297.601	164.38
297.831	168.38
298.062	155.38
298.292	163.38
298.523	158.38
298.753	181.38
298.984	191.38
299.214	171.38
299.445	176.38
299.675	165.38
299.905	173.38
300.136	167.38
300.366	161.38
300.597	172.38
300.827	176.38
301.057	176.38
301.288	174.38
301.518	175.38
301.748	175.38
301.979	195.38
302.209	201.38
302.439	168.38
302.669	179.38
302.9	172.38
303.13	166.38
303.36	169.38
303.59	185.38
303.82	183.38
304.051	170.38
304.281	180.38
304.511	183.38
304.741	169.38
304.971	176.38
305.201	181.38
305.431	179.38
305.661	188.38
305.891	174.38
306.121	181.38
306.352	179.38
306.582	179.38
306.812	188.38
307.042	173.38
307.272	176.38
307.502	186.38
307.731	171.38
307.961	177.38
308.191	196.38
308.421	173.38
308.651	195.38
308.881	179.38
309.111	160.38
309.341	210.38
309.571	186.38
309.8	199.38
310.03	190.38
310.26	199.38
310.49	190.38
310.72	207.38
310.949	220.38
311.179	208.38
311.409	196.38
311.639	212.38
311.868	211.38
312.098	180.38
312.328	197.38
312.557	207.38
312.787	217.38
313.017	210.38
313.246	214.38
313.476	207.38
313.706	195.38
313.935	197.38
314.165	201.38
314.394	219.38
314.624	217.38
314.853	201.38
315.083	209.38
315.312	195.38
315.542	172.38
315.771	181.38
316.001	198.38
316.23	192.38
316.46	189.38
316.689	205.38
316.919	209.38
317.148	211.38
317.377	197.38
317.607	187.38
317.836	196.38
318.065	189.38
318.295	220.38
318.524	185.38
318.753	203.38
318.983	206.38
319.212	203.38
319.441	199.38
319.67	176.38
319.9	207.38
320.129	200.38
320.358	182.38
320.587	202.38
320.816	211.38
321.046	204.38
321.275	209.38
321.504	207.38
321.733	206.38
321.962	216.38
322.191	229.38
322.42	227.38
322.649	231.38
322.878	234.38
323.108	247.38
323.337	242.38
323.566	281.38
323.795	287.38
324.024	310.38
324.253	400.38
324.482	626.38
324.71	1001.38
324.939	1385.38
325.168	1103.38
325.397	492.38
325.626	319.38
325.855	265.38
326.084	243.38
326.313	254.38
326.542	260.38
326.77	291.38
326.999	392.38
327.228	546.38
327.457	869.38
327.686	1005.38
327.914	597.38
328.143	395.38
328.372	350.38
328.6	330.38
328.829	292.38
329.058	328.38
329.287	296.38
329.515	312.38
329.744	269.38
329.972	252.38
330.201	280.38
330.43	336.38
330.658	337.38
330.887	357.38
331.115	328.38
331.344	259.38
331.572	245.38
331.801	245.38
332.03	261.38
332.258	259.38
332.486	226.38
332.715	201.38
332.943	233.38
333.172	233.38
333.4	238.38
333.629	247.38
333.857	255.38
334.085	247.38
334.314	277.38
334.542	336.38
334.771	341.38
334.999	280.38
335.227	239.38
335.455	236.38
335.684	230.38
335.912	201.38
336.14	225.38
336.369	238.38
336.597	234.38
336.825	224.38
337.053	205.38
337.281	212.38
337.51	212.38
337.738	234.38
337.966	215.38
338.194	236.38
338.422	209.38
338.65	227.38
338.878	217.38
339.106	219.38
339.334	232.38
339.562	221.38
339.79	214.38
340.018	218.38
340.246	215.38
340.474	230.38
340.702	205.38
340.93	218.38
341.158	222.38
341.386	209.38
341.614	233.38
341.842	225.38
342.07	207.38
342.298	230.38
342.526	210.38
342.754	221.38
342.981	199.38
343.209	208.38
343.437	221.38
343.665	210.38
343.893	208.38
344.12	220.38
344.348	227.38
344.576	227.38
344.804	231.38
345.031	231.38
345.259	236.38
345.487	221.38
345.714	228.38
345.942	211.38
346.17	198.38
346.397	211.38
346.625	225.38
346.853	203.38
347.08	190.38
347.308	227.38
347.535	210.38
347.763	223.38
347.99	221.38
348.218	227.38
348.445	225.38
348.673	220.38
348.9	228.38
349.128	214.38
349.355	202.38
349.583	179.38
349.81	208.38
350.037	197.38
350.265	202.38
350.492	220.38
350.72	211.38
350.947	211.38
351.174	203.38
351.402	223.38
351.629	233.38
351.856	223.38
352.083	212.38
352.311	245.38
352.538	220.38
352.765	213.38
352.992	208.38
353.22	216.38
353.447	205.38
353.674	200.38
353.901	211.38
354.128	192.38
354.355	193.38
354.583	198.38
354.81	199.38
355.037	188.38
355.264	193.38
355.491	195.38
355.718	206.38
355.945	190.38
356.172	195.38
356.399	211.38
356.626	202.38
356.853	215.38
357.08	195.38
357.307	189.38
357.534	185.38
357.761	197.38
357.988	199.38
358.215	199.38
358.441	219.38
358.668	195.38
358.895	191.38
359.122	209.38
359.349	213.38
359.576	219.38
359.802	232.38
360.029	277.38
360.256	276.38
360.483	237.38
360.709	215.38
360.936	211.38
361.163	217.38
361.39	211.38
361.616	226.38
361.843	207.38
362.07	214.38
362.296	209.38
362.523	225.38
362.749	226.38
362.976	215.38
363.203	214.38
363.429	197.38
363.656	208.38
363.882	201.38
364.109	209.38
364.335	218.38
364.562	213.38
364.788	203.38
365.015	201.38
365.241	189.38
365.468	225.38
365.694	212.38
365.92	224.38
366.147	208.38
366.373	199.38
366.599	182.38
366.826	200.38
367.052	201.38
367.278	205.38
367.505	201.38
367.731	214.38
367.957	193.38
368.184	187.38
368.41	218.38
368.636	224.38
368.862	207.38
369.089	215.38
369.315	217.38
369.541	208.38
369.767	200.38
369.993	189.38
370.219	219.38
370.445	196.38
370.672	180.38
370.898	194.38
371.124	219.38
371.35	191.38
371.576	213.38
371.802	192.38
372.028	207.38
372.254	203.38
372.48	194.38
372.706	187.38
372.932	193.38
373.158	197.38
373.384	203.38
373.61	214.38
373.835	191.38
374.061	211.38
374.287	223.38
374.513	197.38
374.739	207.38
374.965	201.38
375.191	205.38
375.416	200.38
375.642	221.38
375.868	218.38
376.094	200.38
376.319	202.38
376.545	195.38
376.771	209.38
376.997	183.38
377.222	216.38
377.448	194.38
377.674	193.38
377.899	187.38
378.125	202.38
378.35	204.38
378.576	186.38
378.802	191.38
379.027	199.38
379.253	212.38
379.478	201.38
379.704	196.38
379.929	205.38
380.155	208.38
380.38	216.38
380.606	210.38
380.831	187.38
381.057	218.38
381.282	215.38
381.507	199.38
381.733	216.38
381.958	208.38
382.184	188.38
382.409	207.38
382.634	198.38
382.86	198.38
383.085	200.38
383.31	211.38
383.535	203.38
383.761	225.38
383.986	217.38
384.211	211.38
384.436	204.38
384.662	220.38
384.887	203.38
385.112	212.38
385.337	220.38
385.562	231.38
385.787	231.38
386.013	229.38
386.238	228.38
386.463	227.38
386.688	229.38
386.913	221.38
387.138	222.38
387.363	219.38
387.588	215.38
387.813	214.38
388.038	203.38
388.263	230.38
388.488	219.38
388.713	214.38
388.938	219.38
389.163	196.38
389.387	227.38
389.612	216.38
389.837	207.38
390.062	217.38
390.287	197.38
390.512	205.38
390.736	206.38
390.961	211.38
391.186	201.38
391.411	214.38
391.636	213.38
391.86	231.38
392.085	221.38
392.31	228.38
392.534	212.38
392.759	222.38
392.984	219.38
393.208	279.38
393.433	347.38
393.658	353.38
393.882	245.38
394.107	222.38
394.331	226.38
394.556	235.38
394.78	214.38
395.005	221.38
395.229	215.38
395.454	222.38
395.678	216.38
395.903	237.38
396.127	248.38
396.352	247.38
396.576	239.38
396.801	263.38
397.025	296.38
397.249	283.38
397.474	246.38
397.698	233.38
397.922	234.38
398.147	230.38
398.371	236.38
398.595	223.38
398.82	223.38
399.044	256.38
399.268	251.38
399.492	267.38
399.717	261.38
399.941	286.38
400.165	275.38
400.389	270.38
400.613	266.38
400.837	236.38
401.062	261.38
401.286	246.38
401.51	222.38
401.734	233.38
401.958	236.38
402.182	262.38
402.406	272.38
402.63	259.38
402.854	239.38
403.078	263.38
403.302	245.38
403.526	246.38
403.75	253.38
403.974	253.38
404.198	245.38
404.422	273.38
404.645	237.38
404.869	257.38
405.093	275.38
405.317	285.38
405.541	290.38
405.765	290.38
405.988	265.38
406.212	282.38
406.436	308.38
406.66	304.38
406.883	293.38
407.107	284.38
407.331	318.38
407.555	319.38
407.778	320.38
408.002	267.38
408.226	260.38
408.449	270.38
408.673	269.38
408.896	285.38
409.12	308.38
409.344	283.38
409.567	274.38
409.791	256.38
410.014	261.38
410.238	221.38
410.461	237.38
410.685	248.38
410.908	259.38
411.132	278.38
411.355	276.38
411.578	270.38
411.802	236.38
412.025	257.38
412.249	263.38
412.472	274.38
412.695	279.38
412.919	287.38
413.142	251.38
413.365	274.38
413.589	249.38
413.812	248.38
414.035	255.38
414.258	236.38
414.482	228.38
414.705	239.38
414.928	233.38
415.151	240.38
415.374	268.38
415.597	239.38
415.821	239.38
416.044	241.38
416.267	246.38
416.49	222.38
416.713	239.38
416.936	226.38
417.159	221.38
417.382	240.38
417.605	254.38
417.828	244.38
418.051	253.38
418.274	253.38
418.497	238.38
418.72	228.38
418.943	239.38
419.166	245.38
419.389	259.38
419.611	259.38
419.834	251.38
420.057	260.38
420.28	261.38
420.503	236.38
420.726	250.38
420.948	262.38
421.171	282.38
421.394	294.38
421.617	250.38
421.839	239.38
422.062	251.38
422.285	275.38
422.507	289.38
422.73	335.38
422.953	312.38
423.175	270.38
423.398	240.38
423.621	260.38
423.843	267.38
424.066	260.38
424.288	271.38
424.511	251.38
424.733	281.38
424.956	328.38
425.178	332.38
425.401	318.38
425.623	319.38
425.846	278.38
426.068	257.38
426.291	270.38
426.513	245.38
426.735	262.38
426.958	285.38
427.18	319.38
427.402	375.38
427.625	411.38
427.847	382.38
428.069	312.38
428.292	295.38
428.514	252.38
428.736	256.38
428.958	237.38
429.181	250.38
429.403	240.38
429.625	259.38
429.847	253.38
430.069	295.38
430.292	284.38
430.514	248.38
430.736	237.38
430.958	247.38
431.18	228.38
431.402	270.38
431.624	225.38
431.846	227.38
432.068	221.38
432.29	220.38
432.512	240.38
432.734	256.38
432.956	260.38
433.178	244.38
433.4	244.38
433.622	245.38
433.844	240.38
434.066	230.38
434.287	256.38
434.509	234.38
434.731	224.38
434.953	261.38
435.175	247.38
435.397	265.38
435.618	281.38
435.84	297.38
436.062	311.38
436.284	331.38
436.505	288.38
436.727	248.38
436.949	247.38
437.17	231.38
437.392	262.38
437.614	238.38
437.835	265.38
438.057	324.38
438.278	344.38
438.5	342.38
438.721	353.38
438.943	351.38
439.165	273.38
439.386	260.38
439.608	274.38
439.829	282.38
440.05	288.38
440.272	324.38
440.493	295.38
440.715	255.38
440.936	243.38
441.158	261.38
441.379	225.38
441.6	248.38
441.822	273.38
442.043	315.38
442.264	312.38
442.486	331.38
442.707	302.38
442.928	268.38
443.149	275.38
443.371	314.38
443.592	298.38
443.813	326.38
444.034	345.38
444.255	292.38
444.476	277.38
444.698	285.38
444.919	282.38
445.14	383.38
445.361	319.38
445.582	288.38
445.803	330.38
446.024	379.38
446.245	367.38
446.466	336.38
446.687	307.38
446.908	243.38
447.129	245.38
447.35	251.38
447.571	244.38
447.792	263.38
448.013	234.38
448.234	255.38
448.455	284.38
448.675	316.38
448.896	355.38
449.117	291.38
449.338	288.38
449.559	344.38
449.779	384.38
450	298.38
450.221	261.38
450.442	235.38
450.662	245.38
450.883	267.38
451.104	274.38
451.324	270.38
451.545	249.38
451.766	237.38
451.986	223.38
452.207	225.38
452.428	231.38
452.648	212.38
452.869	245.38
453.089	240.38
453.31	253.38
453.53	235.38
453.751	236.38
453.971	235.38
454.192	261.38
454.412	252.38
454.633	233.38
454.853	225.38
455.073	229.38
455.294	221.38
455.514	259.38
455.734	246.38
455.955	218.38
456.175	220.38
456.395	203.38
456.616	205.38
456.836	209.38
457.056	223.38
457.276	213.38
457.497	215.38
457.717	214.38
457.937	218.38
458.157	212.38
458.377	218.38
458.598	254.38
458.818	292.38
459.038	337.38
459.258	320.38
459.478	264.38
459.698	237.38
459.918	261.38
460.138	234.38
460.358	235.38
460.578	232.38
460.798	245.38
461.018	234.38
461.238	226.38
461.458	237.38
461.678	228.38
461.898	238.38
462.118	238.38
462.338	257.38
462.558	248.38
462.777	229.38
462.997	245.38
463.217	257.38
463.437	264.38
463.657	262.38
463.876	253.38
464.096	253.38
464.316	258.38
464.536	239.38
464.755	268.38
464.975	273.38
465.195	334.38
465.414	372.38
465.634	295.38
465.854	265.38
466.073	252.38
466.293	215.38
466.512	234.38
466.732	240.38
466.951	228.38
467.171	218.38
467.391	230.38
467.61	227.38
467.829	236.38
468.049	259.38
468.268	272.38
468.488	243.38
468.707	224.38
468.927	235.38
469.146	233.38
469.365	233.38
469.585	239.38
469.804	221.38
470.023	255.38
470.243	255.38
470.462	234.38
470.681	257.38
470.901	249.38
471.12	247.38
471.339	230.38
471.558	228.38
471.777	246.38
471.997	258.38
472.216	247.38
472.435	319.38
472.654	264.38
472.873	240.38
473.092	230.38
473.311	220.38
473.53	219.38
473.749	233.38
473.968	267.38
474.187	311.38
474.406	311.38
474.625	247.38
474.844	231.38
475.063	227.38
475.282	208.38
475.501	211.38
475.72	243.38
475.939	223.38
476.158	227.38
476.377	230.38
476.596	223.38
476.814	236.38
477.033	243.38
477.252	259.38
477.471	257.38
477.69	236.38
477.908	255.38
478.127	252.38
478.346	241.38
478.564	245.38
478.783	248.38
479.002	260.38
479.22	279.38
479.439	277.38
479.658	293.38
479.876	294.38
480.095	287.38
480.313	283.38
480.532	301.38
480.751	273.38
480.969	295.38
481.188	387.38
481.406	454.38
481.624	317.38
481.843	294.38
482.061	279.38
482.28	280.38
482.498	266.38
482.717	289.38
482.935	273.38
483.153	268.38
483.372	284.38
483.59	274.38
483.808	279.38
484.027	252.38
484.245	272.38
484.463	295.38
484.681	276.38
484.9	265.38
485.118	270.38
485.336	265.38
485.554	274.38
485.772	281.38
485.99	274.38
486.209	279.38
486.427	290.38
486.645	285.38
486.863	305.38
487.081	300.38
487.299	299.38
487.517	310.38
487.735	287.38
487.953	285.38
488.171	289.38
488.389	280.38
488.607	298.38
488.825	296.38
489.043	283.38
489.261	281.38
489.479	288.38
489.696	287.38
489.914	300.38
490.132	296.38
490.35	308.38
490.568	303.38
490.786	300.38
491.003	311.38
491.221	323.38
491.439	321.38
491.657	317.38
491.874	334.38
492.092	331.38
492.31	343.38
492.527	329.38
492.745	342.38
492.963	317.38
493.18	330.38
493.398	321.38
493.615	331.38
493.833	333.38
494.05	341.38
494.268	335.38
494.485	321.38
494.703	333.38
494.92	333.38
495.138	328.38
495.355	316.38
495.573	331.38
495.79	328.38
496.008	325.38
496.225	314.38
496.442	333.38
496.66	330.38
496.877	307.38
497.094	320.38
497.312	326.38
497.529	319.38
497.746	329.38
497.963	327.38
498.181	352.38
498.398	348.38
498.615	336.38
498.832	355.38
499.049	377.38
499.267	360.38
499.484	382.38
499.701	390.38
499.918	408.38
500.135	396.38
500.352	441.38
500.569	425.38
500.786	439.38
501.003	430.38
501.22	425.38
501.437	401.38
501.654	403.38
501.871	400.38
502.088	373.38
502.305	364.38
502.522	366.38
502.739	376.38
502.956	335.38
503.172	339.38
503.389	349.38
503.606	330.38
503.823	332.38
504.04	329.38
504.256	328.38
504.473	324.38
504.69	319.38
504.907	328.38
505.123	343.38
505.34	315.38
505.557	309.38
505.773	332.38
505.99	328.38
506.207	312.38
506.423	314.38
506.64	304.38
506.856	320.38
507.073	298.38
507.289	292.38
507.506	312.38
507.722	305.38
507.939	324.38
508.155	316.38
508.372	284.38
508.588	319.38
508.805	288.38
509.021	284.38
509.238	304.38
509.454	309.38
509.67	310.38
509.887	293.38
510.103	299.38
510.319	323.38
510.536	441.38
510.752	957.38
510.968	672.38
511.184	337.38
511.401	293.38
511.617	307.38
511.833	279.38
512.049	281.38
512.265	281.38
512.481	286.38
512.698	280.38
512.914	281.38
513.13	287.38
513.346	277.38
513.562	288.38
513.778	297.38
513.994	288.38
514.21	299.38
514.426	348.38
514.642	363.38
514.858	377.38
515.074	412.38
515.29	588.38
515.506	1102.38
515.721	809.38
515.937	405.38
516.153	337.38
516.369	315.38
516.585	296.38
516.801	311.38
517.016	295.38
517.232	287.38
517.448	310.38
517.664	288.38
517.879	289.38
518.095	288.38
518.311	299.38
518.527	275.38
518.742	283.38
518.958	280.38
519.173	289.38
519.389	280.38
519.605	291.38
519.82	299.38
520.036	307.38
520.251	307.38
520.467	337.38
520.682	340.38
520.898	361.38
521.113	363.38
521.329	403.38
521.544	465.38
521.76	760.38
521.975	1543.38
522.19	1513.38
522.406	653.38
522.621	395.38
522.836	335.38
523.052	307.38
523.267	273.38
523.482	276.38
523.698	273.38
523.913	265.38
524.128	294.38
524.343	273.38
524.559	258.38
524.774	239.38
524.989	240.38
525.204	265.38
525.419	259.38
525.634	248.38
525.849	243.38
526.064	251.38
526.28	259.38
526.495	232.38
526.71	247.38
526.925	248.38
527.14	223.38
527.355	235.38
527.57	236.38
527.785	219.38
527.999	227.38
528.214	255.38
528.429	230.38
528.644	249.38
528.859	227.38
529.074	259.38
529.289	286.38
529.503	360.38
529.718	319.38
529.933	257.38
530.148	238.38
530.363	235.38
530.577	221.38
530.792	224.38
531.007	248.38
531.221	247.38
531.436	213.38
531.651	241.38
531.865	236.38
532.08	226.38
532.295	223.38
532.509	216.38
532.724	216.38
532.938	230.38
533.153	243.38
533.367	213.38
533.582	224.38
533.796	238.38
534.011	230.38
534.225	226.38
534.44	225.38
534.654	226.38
534.868	212.38
535.083	217.38
535.297	223.38
535.511	246.38
535.726	219.38
535.94	229.38
536.154	232.38
536.369	229.38
536.583	231.38
536.797	223.38
537.011	237.38
537.225	228.38
537.44	230.38
537.654	208.38
537.868	223.38
538.082	233.38
538.296	223.38
538.51	224.38
538.724	233.38
538.938	221.38
539.153	225.38
539.367	244.38
539.581	240.38
539.795	234.38
540.009	209.38
540.222	218.38
540.436	222.38
540.65	222.38
540.864	232.38
541.078	223.38
541.292	221.38
541.506	222.38
541.72	217.38
541.934	232.38
542.147	224.38
542.361	216.38
542.575	224.38
542.789	225.38
543.002	218.38
543.216	231.38
543.43	242.38
543.644	238.38
543.857	230.38
544.071	206.38
544.285	221.38
544.498	234.38
544.712	235.38
544.925	206.38
545.139	235.38
545.352	217.38
545.566	221.38
545.779	217.38
545.993	228.38
546.206	223.38
546.42	238.38
546.633	209.38
546.847	232.38
547.06	227.38
547.274	222.38
547.487	226.38
547.7	221.38
547.914	210.38
548.127	223.38
548.34	219.38
548.554	199.38
548.767	218.38
548.98	208.38
549.193	203.38
549.407	181.38
549.62	215.38
549.833	210.38
550.046	209.38
550.259	213.38
550.473	206.38
550.686	209.38
550.899	203.38
551.112	216.38
551.325	211.38
551.538	196.38
551.751	216.38
551.964	204.38
552.177	217.38
552.39	205.38
552.603	200.38
552.816	203.38
553.029	216.38
553.242	225.38
553.455	222.38
553.667	234.38
553.88	220.38
554.093	230.38
554.306	224.38
554.519	214.38
554.732	208.38
554.944	199.38
555.157	215.38
555.37	187.38
555.583	206.38
555.795	200.38
556.008	220.38
556.221	197.38
556.433	193.38
556.646	207.38
556.859	200.38
557.071	190.38
557.284	198.38
557.496	196.38
557.709	194.38
557.921	203.38
558.134	192.38
558.346	191.38
558.559	207.38
558.771	195.38
558.984	184.38
559.196	187.38
559.409	208.38
559.621	185.38
559.833	196.38
560.046	191.38
560.258	204.38
560.47	207.38
560.683	208.38
560.895	192.38
561.107	196.38
561.32	181.38
561.532	183.38
561.744	198.38
561.956	205.38
562.168	200.38
562.381	207.38
562.593	197.38
562.805	208.38
563.017	190.38
563.229	201.38
563.441	217.38
563.653	191.38
563.865	191.38
564.077	193.38
564.289	199.38
564.501	202.38
564.713	208.38
564.925	197.38
565.137	199.38
565.349	207.38
565.561	188.38
565.773	215.38
565.985	212.38
566.197	210.38
566.408	216.38
566.62	230.38
566.832	224.38
567.044	238.38
567.255	225.38
567.467	240.38
567.679	223.38
567.891	240.38
568.102	238.38
568.314	212.38
568.526	225.38
568.737	220.38
568.949	207.38
569.161	207.38
569.372	193.38
569.584	210.38
569.795	207.38
570.007	194.38
570.218	281.38
570.43	236.38
570.641	192.38
570.853	191.38
571.064	190.38
571.276	186.38
571.487	185.38
571.698	175.38
571.91	191.38
572.121	173.38
572.333	187.38
572.544	188.38
572.755	177.38
572.966	166.38
573.178	160.38
573.389	175.38
573.6	183.38
573.811	188.38
574.023	167.38
574.234	181.38
574.445	177.38
574.656	174.38
574.867	167.38
575.078	185.38
575.289	161.38
575.501	183.38
575.712	172.38
575.923	194.38
576.134	167.38
576.345	175.38
576.556	168.38
576.767	168.38
576.978	175.38
577.188	169.38
577.399	191.38
577.61	166.38
577.821	180.38
578.032	178.38
578.243	215.38
578.454	500.38
578.665	307.38
578.875	163.38
579.086	167.38
579.297	149.38
579.508	164.38
579.718	180.38
579.929	164.38
580.14	147.38
580.35	153.38
580.561	173.38
580.772	162.38
580.982	172.38
581.193	158.38
581.403	156.38
581.614	176.38
581.825	164.38
582.035	159.38
582.246	164.38
582.456	169.38
582.667	161.38
582.877	162.38
583.087	169.38
583.298	150.38
583.508	158.38
583.719	155.38
583.929	169.38
584.139	161.38
584.35	161.38
584.56	170.38
584.77	156.38
584.981	162.38
585.191	171.38
585.401	164.38
585.611	160.38
585.821	155.38
586.032	165.38
586.242	161.38
586.452	146.38
586.662	155.38
586.872	151.38
587.082	140.38
587.292	160.38
587.502	167.38
587.713	157.38
587.923	173.38
588.133	162.38
588.343	152.38
588.553	160.38
588.762	171.38
588.972	188.38
589.182	334.38
589.392	325.38
589.602	201.38
589.812	301.38
590.022	249.38
590.232	181.38
590.441	153.38
590.651	162.38
590.861	170.38
591.071	160.38
591.281	153.38
591.49	145.38
591.7	153.38
591.91	147.38
592.119	152.38
592.329	150.38
592.539	163.38
592.748	164.38
592.958	177.38
593.167	167.38
593.377	171.38
593.587	169.38
593.796	153.38
594.006	152.38
594.215	164.38
594.424	166.38
594.634	155.38
594.843	167.38
595.053	159.38
595.262	152.38
595.472	151.38
595.681	160.38
595.89	139.38
596.1	146.38
596.309	163.38
596.518	140.38
596.727	155.38
596.937	157.38
597.146	165.38
597.355	149.38
597.564	147.38
597.774	153.38
597.983	142.38
598.192	152.38
598.401	164.38
598.61	153.38
598.819	144.38
599.028	149.38
599.237	151.38
599.446	153.38
599.655	146.38
599.864	169.38
600.073	154.38
600.282	149.38
600.491	139.38
600.7	145.38
600.909	143.38
601.118	149.38
601.327	159.38
601.536	153.38
601.745	145.38
601.953	148.38
602.162	147.38
602.371	143.38
602.58	138.38
602.789	140.38
602.997	149.38
603.206	139.38
603.415	143.38
603.623	144.38
603.832	149.38
604.041	151.38
604.249	140.38
604.458	139.38
604.666	134.38
604.875	143.38
605.084	150.38
605.292	140.38
605.501	139.38
605.709	144.38
605.918	145.38
606.126	139.38
606.334	147.38
606.543	146.38
606.751	153.38
606.96	143.38
607.168	152.38
607.376	150.38
607.585	156.38
607.793	145.38
608.001	155.38
608.21	135.38
608.418	142.38
608.626	132.38
608.834	143.38
609.043	137.38
609.251	153.38
609.459	139.38
609.667	141.38
609.875	149.38
610.083	141.38
610.291	150.38
610.499	133.38
610.707	150.38
610.916	141.38
611.124	151.38
611.332	135.38
611.54	139.38
611.748	147.38
611.955	148.38
612.163	143.38
612.371	133.38
612.579	137.38
612.787	148.38
612.995	159.38
613.203	149.38
613.411	135.38
613.618	141.38
613.826	145.38
614.034	146.38
614.242	149.38
614.449	131.38
614.657	146.38
614.865	135.38
615.072	141.38
615.28	139.38
615.488	132.38
615.695	133.38
615.903	133.38
616.111	133.38
616.318	135.38
616.526	132.38
616.733	137.38
616.941	146.38
617.148	136.38
617.356	129.38
617.563	143.38
617.771	147.38
617.978	123.38
618.185	157.38
618.393	133.38
618.6	158.38
618.807	134.38
619.015	131.38
619.222	141.38
619.429	129.38
619.637	150.38
619.844	141.38
620.051	132.38
620.258	148.38
620.466	139.38
620.673	138.38
620.88	134.38
621.087	135.38
621.294	140.38
621.501	134.38
621.708	135.38
621.915	149.38
622.122	148.38
622.329	137.38
622.536	147.38
622.743	124.38
622.95	129.38
623.157	140.38
623.364	138.38
623.571	138.38
623.778	127.38
623.985	139.38
624.192	130.38
624.399	126.38
624.606	126.38
624.812	121.38
625.019	127.38
625.226	140.38
625.433	133.38
625.639	125.38
625.846	129.38
626.053	127.38
626.259	145.38
626.466	135.38
626.673	123.38
626.879	127.38
627.086	132.38
627.293	142.38
627.499	125.38
627.706	125.38
627.912	119.38
628.119	145.38
628.325	142.38
628.532	129.38
628.738	135.38
628.945	131.38
629.151	137.38
629.357	122.38
629.564	131.38
629.77	122.38
629.976	132.38
630.183	127.38
630.389	117.38
630.595	125.38
630.802	134.38
631.008	136.38
631.214	120.38
631.42	140.38
631.627	128.38
631.833	121.38
632.039	107.38
632.245	119.38
632.451	117.38
632.657	129.38
632.863	127.38
633.069	123.38
633.275	134.38
633.481	120.38
633.688	126.38
633.893	118.38
634.099	131.38
634.305	131.38
634.511	125.38
634.717	133.38
634.923	136.38
635.129	120.38
635.335	119.38
635.541	136.38
635.747	127.38
635.952	133.38
636.158	131.38
636.364	129.38
636.57	126.38
636.775	116.38
636.981	129.38
637.187	127.38
637.392	126.38
637.598	112.38
637.804	124.38
638.009	122.38
638.215	134.38
638.421	120.38
638.626	119.38
638.832	110.38
639.037	120.38
639.243	110.38
639.448	117.38
639.654	124.38
639.859	118.38
640.065	120.38
640.27	116.38
640.475	125.38
640.681	118.38
640.886	143.38
641.091	109.38
641.297	125.38
641.502	117.38
641.707	109.38
641.913	123.38
642.118	124.38
642.323	115.38
642.528	124.38
642.733	113.38
642.939	121.38
643.144	116.38
643.349	129.38
643.554	120.38
643.759	117.38
643.964	104.38
644.169	110.38
644.374	119.38
644.579	117.38
644.784	111.38
644.989	121.38
645.194	117.38
645.399	118.38
645.604	131.38
645.809	104.38
646.014	125.38
646.219	127.38
646.423	121.38
646.628	121.38
646.833	129.38
647.038	125.38
647.243	113.38
647.447	121.38
647.652	120.38
647.857	139.38
648.062	123.38
648.266	118.38
648.471	122.38
648.676	110.38
648.88	128.38
649.085	133.38
649.289	131.38
649.494	132.38
649.698	153.38
649.903	137.38
650.107	111.38
650.312	107.38
650.516	113.38
650.721	128.38
650.925	137.38
651.13	116.38
651.334	122.38
651.539	125.38
651.743	109.38
651.947	127.38
652.152	125.38
652.356	112.38
652.56	109.38
652.764	112.38
652.969	112.38
653.173	110.38
653.377	102.38
653.581	104.38
653.785	103.38
653.99	109.38
654.194	112.38
654.398	118.38
654.602	109.38
654.806	117.38
655.01	121.38
655.214	117.38
655.418	108.38
655.622	111.38
655.826	96.38
656.03	132.38
656.234	127.38
656.438	121.38
656.642	139.38
656.846	124.38
657.049	124.38
657.253	135.38
657.457	117.38
657.661	111.38
657.865	109.38
658.068	109.38
658.272	116.38
658.476	104.38
658.68	99.38
658.883	108.38
659.087	96.38
659.291	116.38
659.494	105.38
659.698	101.38
659.901	94.38
660.105	94.38
660.309	80.38
660.512	80.38
660.716	96.38
660.919	90.38
661.123	82.38
661.326	97.38
661.53	88.38
661.733	84.38
661.936	88.38
662.14	95.38
662.343	78.38
662.546	96.38
662.75	79.38
662.953	94.38
663.156	93.38
663.36	66.38
663.563	88.38
663.766	82.38
663.969	76.38
664.173	92.38
664.376	85.38
664.579	98.38
664.782	84.38
664.985	89.38
665.188	84.38
665.391	87.38
665.594	87.38
665.797	92.38
666	82.38
666.203	76.38
666.406	96.38
666.609	93.38
666.812	84.38
667.015	77.38
667.218	99.38
667.421	87.38
667.624	80.38
667.827	69.38
668.03	78.38
668.232	88.38
668.435	85.38
668.638	84.38
668.841	97.38
669.043	102.38
669.246	92.38
669.449	89.38
669.651	96.38
669.854	74.38
670.057	83.38
670.259	80.38
670.462	78.38
670.665	101.38
670.867	89.38
671.07	88.38
671.272	91.38
671.475	77.38
671.677	89.38
671.88	78.38
672.082	68.38
672.284	75.38
672.487	93.38
672.689	79.38
672.892	80.38
