Data from 1966.PennyLincolnUp.Lamp.En5.5.200Scan.071719.P1._HRD10591_14-13-48-914.txt Node
Date: Thu Jul 18 14:13:48 EDT 2019
User: cochatt
Spectrometer: HR+D1059
Trigger mode: 1
Integration Time (sec): 1.000000E-1
Scans to average: 1
Electric dark correction enabled: true
Nonlinearity correction enabled: false
Boxcar width: 0
XAxis mode: Wavelengths
Number of Pixels in Spectrum: 2048
>>>>>Begin Spectral Data<<<<<
223.165	-15.94
223.4	-15.94
223.635	-15.94
223.869	-20.94
224.104	-28.94
224.338	-14.94
224.573	-9.94
224.808	-15.94
225.042	8.06
225.277	-17.94
225.511	-8.94
225.746	1.06
225.98	9.06
226.215	23.06
226.449	16.06
226.683	13.06
226.918	32.06
227.152	31.06
227.387	46.06
227.621	36.06
227.856	51.06
228.09	55.06
228.324	48.06
228.559	63.06
228.793	47.06
229.027	74.06
229.262	85.06
229.496	95.06
229.73	89.06
229.964	103.06
230.199	93.06
230.433	96.06
230.667	100.06
230.901	88.06
231.136	92.06
231.37	96.06
231.604	93.06
231.838	85.06
232.072	87.06
232.306	87.06
232.541	92.06
232.775	87.06
233.009	99.06
233.243	87.06
233.477	105.06
233.711	92.06
233.945	100.06
234.179	93.06
234.413	92.06
234.647	94.06
234.881	87.06
235.115	91.06
235.349	95.06
235.583	80.06
235.817	102.06
236.051	94.06
236.285	94.06
236.519	105.06
236.753	100.06
236.987	123.06
237.221	117.06
237.455	150.06
237.689	107.06
237.922	105.06
238.156	97.06
238.39	81.06
238.624	111.06
238.858	79.06
239.091	96.06
239.325	98.06
239.559	91.06
239.793	107.06
240.027	102.06
240.26	120.06
240.494	112.06
240.728	118.06
240.961	112.06
241.195	87.06
241.429	109.06
241.662	99.06
241.896	104.06
242.13	98.06
242.363	100.06
242.597	99.06
242.83	101.06
243.064	96.06
243.298	102.06
243.531	98.06
243.765	100.06
243.998	90.06
244.232	104.06
244.465	107.06
244.699	96.06
244.932	110.06
245.166	112.06
245.399	113.06
245.633	112.06
245.866	88.06
246.099	108.06
246.333	109.06
246.566	105.06
246.8	107.06
247.033	108.06
247.266	117.06
247.5	110.06
247.733	125.06
247.966	122.06
248.2	117.06
248.433	106.06
248.666	123.06
248.899	120.06
249.133	122.06
249.366	120.06
249.599	124.06
249.832	125.06
250.066	105.06
250.299	117.06
250.532	124.06
250.765	132.06
250.998	126.06
251.231	139.06
251.465	144.06
251.698	135.06
251.931	130.06
252.164	123.06
252.397	138.06
252.63	113.06
252.863	136.06
253.096	149.06
253.329	145.06
253.562	126.06
253.795	146.06
254.028	135.06
254.261	144.06
254.494	141.06
254.727	145.06
254.96	172.06
255.193	162.06
255.426	154.06
255.659	146.06
255.892	153.06
256.124	135.06
256.357	146.06
256.59	132.06
256.823	131.06
257.056	119.06
257.289	127.06
257.521	140.06
257.754	127.06
257.987	143.06
258.22	138.06
258.452	142.06
258.685	131.06
258.918	133.06
259.151	139.06
259.383	127.06
259.616	125.06
259.849	136.06
260.081	153.06
260.314	161.06
260.547	165.06
260.779	155.06
261.012	132.06
261.244	146.06
261.477	131.06
261.71	131.06
261.942	139.06
262.175	141.06
262.407	143.06
262.64	146.06
262.872	135.06
263.105	121.06
263.337	133.06
263.57	132.06
263.802	127.06
264.035	140.06
264.267	124.06
264.499	121.06
264.732	133.06
264.964	122.06
265.197	131.06
265.429	138.06
265.661	141.06
265.894	143.06
266.126	133.06
266.358	136.06
266.591	128.06
266.823	149.06
267.055	135.06
267.287	136.06
267.52	145.06
267.752	130.06
267.984	130.06
268.216	144.06
268.448	129.06
268.681	136.06
268.913	135.06
269.145	152.06
269.377	156.06
269.609	153.06
269.841	174.06
270.073	176.06
270.306	181.06
270.538	175.06
270.77	188.06
271.002	180.06
271.234	183.06
271.466	178.06
271.698	187.06
271.93	195.06
272.162	191.06
272.394	197.06
272.626	173.06
272.858	170.06
273.09	169.06
273.322	154.06
273.553	156.06
273.785	153.06
274.017	159.06
274.249	157.06
274.481	157.06
274.713	145.06
274.945	151.06
275.176	145.06
275.408	139.06
275.64	163.06
275.872	160.06
276.104	154.06
276.335	172.06
276.567	168.06
276.799	158.06
277.031	184.06
277.262	203.06
277.494	191.06
277.726	176.06
277.957	169.06
278.189	156.06
278.421	170.06
278.652	158.06
278.884	157.06
279.115	166.06
279.347	158.06
279.579	177.06
279.81	148.06
280.042	164.06
280.273	161.06
280.505	152.06
280.736	159.06
280.968	152.06
281.199	166.06
281.431	161.06
281.662	145.06
281.894	155.06
282.125	151.06
282.356	170.06
282.588	169.06
282.819	172.06
283.051	175.06
283.282	174.06
283.513	157.06
283.745	153.06
283.976	168.06
284.207	161.06
284.439	164.06
284.67	156.06
284.901	173.06
285.132	164.06
285.364	155.06
285.595	176.06
285.826	148.06
286.057	158.06
286.288	175.06
286.52	157.06
286.751	167.06
286.982	169.06
287.213	166.06
287.444	165.06
287.675	173.06
287.906	155.06
288.138	184.06
288.369	184.06
288.6	194.06
288.831	172.06
289.062	170.06
289.293	166.06
289.524	163.06
289.755	172.06
289.986	177.06
290.217	165.06
290.448	164.06
290.679	169.06
290.91	180.06
291.141	180.06
291.371	168.06
291.602	176.06
291.833	171.06
292.064	174.06
292.295	154.06
292.526	168.06
292.757	167.06
292.987	173.06
293.218	147.06
293.449	181.06
293.68	170.06
293.91	187.06
294.141	165.06
294.372	181.06
294.603	173.06
294.833	173.06
295.064	167.06
295.295	177.06
295.525	181.06
295.756	177.06
295.987	177.06
296.217	194.06
296.448	192.06
296.679	168.06
296.909	196.06
297.14	181.06
297.37	180.06
297.601	180.06
297.831	179.06
298.062	173.06
298.292	180.06
298.523	181.06
298.753	168.06
298.984	175.06
299.214	159.06
299.445	199.06
299.675	176.06
299.905	209.06
300.136	192.06
300.366	189.06
300.597	180.06
300.827	187.06
301.057	183.06
301.288	184.06
301.518	186.06
301.748	195.06
301.979	189.06
302.209	188.06
302.439	187.06
302.669	181.06
302.9	181.06
303.13	185.06
303.36	182.06
303.59	183.06
303.82	184.06
304.051	203.06
304.281	199.06
304.511	178.06
304.741	185.06
304.971	185.06
305.201	194.06
305.431	188.06
305.661	196.06
305.891	179.06
306.121	193.06
306.352	192.06
306.582	192.06
306.812	200.06
307.042	192.06
307.272	193.06
307.502	188.06
307.731	182.06
307.961	172.06
308.191	183.06
308.421	189.06
308.651	189.06
308.881	200.06
309.111	176.06
309.341	186.06
309.571	207.06
309.8	195.06
310.03	222.06
310.26	190.06
310.49	203.06
310.72	211.06
310.949	213.06
311.179	221.06
311.409	217.06
311.639	181.06
311.868	218.06
312.098	206.06
312.328	204.06
312.557	207.06
312.787	236.06
313.017	222.06
313.246	217.06
313.476	205.06
313.706	211.06
313.935	213.06
314.165	229.06
314.394	223.06
314.624	225.06
314.853	221.06
315.083	229.06
315.312	213.06
315.542	198.06
315.771	204.06
316.001	218.06
316.23	192.06
316.46	215.06
316.689	201.06
316.919	207.06
317.148	228.06
317.377	213.06
317.607	227.06
317.836	206.06
318.065	214.06
318.295	230.06
318.524	203.06
318.753	205.06
318.983	211.06
319.212	211.06
319.441	218.06
319.67	224.06
319.9	211.06
320.129	204.06
320.358	200.06
320.587	224.06
320.816	209.06
321.046	205.06
321.275	226.06
321.504	213.06
321.733	205.06
321.962	201.06
322.191	227.06
322.42	229.06
322.649	256.06
322.878	249.06
323.108	231.06
323.337	262.06
323.566	262.06
323.795	287.06
324.024	288.06
324.253	372.06
324.482	503.06
324.71	766.06
324.939	1023.06
325.168	836.06
325.397	445.06
325.626	312.06
325.855	286.06
326.084	247.06
326.313	257.06
326.542	271.06
326.77	291.06
326.999	325.06
327.228	459.06
327.457	661.06
327.686	776.06
327.914	520.06
328.143	353.06
328.372	319.06
328.6	314.06
328.829	272.06
329.058	322.06
329.287	319.06
329.515	295.06
329.744	263.06
329.972	261.06
330.201	297.06
330.43	308.06
330.658	313.06
330.887	341.06
331.115	303.06
331.344	263.06
331.572	272.06
331.801	273.06
332.03	262.06
332.258	244.06
332.486	250.06
332.715	229.06
332.943	228.06
333.172	238.06
333.4	245.06
333.629	261.06
333.857	262.06
334.085	275.06
334.314	274.06
334.542	315.06
334.771	318.06
334.999	279.06
335.227	245.06
335.455	249.06
335.684	227.06
335.912	243.06
336.14	233.06
336.369	255.06
336.597	242.06
336.825	232.06
337.053	215.06
337.281	232.06
337.51	223.06
337.738	234.06
337.966	237.06
338.194	232.06
338.422	245.06
338.65	236.06
338.878	227.06
339.106	233.06
339.334	234.06
339.562	236.06
339.79	223.06
340.018	215.06
340.246	225.06
340.474	236.06
340.702	221.06
340.93	220.06
341.158	235.06
341.386	209.06
341.614	223.06
341.842	224.06
342.07	223.06
342.298	220.06
342.526	207.06
342.754	219.06
342.981	203.06
343.209	217.06
343.437	230.06
343.665	212.06
343.893	221.06
344.12	241.06
344.348	234.06
344.576	229.06
344.804	233.06
345.031	239.06
345.259	248.06
345.487	235.06
345.714	215.06
345.942	211.06
346.17	207.06
346.397	208.06
346.625	223.06
346.853	236.06
347.08	223.06
347.308	229.06
347.535	250.06
347.763	222.06
347.99	232.06
348.218	218.06
348.445	223.06
348.673	237.06
348.9	211.06
349.128	234.06
349.355	210.06
349.583	216.06
349.81	204.06
350.037	204.06
350.265	203.06
350.492	205.06
350.72	207.06
350.947	209.06
351.174	231.06
351.402	221.06
351.629	225.06
351.856	227.06
352.083	217.06
352.311	239.06
352.538	233.06
352.765	237.06
352.992	228.06
353.22	232.06
353.447	229.06
353.674	235.06
353.901	214.06
354.128	211.06
354.355	217.06
354.583	217.06
354.81	216.06
355.037	182.06
355.264	200.06
355.491	189.06
355.718	215.06
355.945	224.06
356.172	213.06
356.399	193.06
356.626	212.06
356.853	204.06
357.08	211.06
357.307	215.06
357.534	190.06
357.761	215.06
357.988	201.06
358.215	202.06
358.441	202.06
358.668	205.06
358.895	219.06
359.122	221.06
359.349	221.06
359.576	202.06
359.802	243.06
360.029	249.06
360.256	242.06
360.483	260.06
360.709	230.06
360.936	238.06
361.163	236.06
361.39	223.06
361.616	220.06
361.843	227.06
362.07	208.06
362.296	211.06
362.523	208.06
362.749	230.06
362.976	210.06
363.203	212.06
363.429	210.06
363.656	224.06
363.882	217.06
364.109	212.06
364.335	213.06
364.562	217.06
364.788	217.06
365.015	208.06
365.241	199.06
365.468	211.06
365.694	227.06
365.92	210.06
366.147	216.06
366.373	196.06
366.599	199.06
366.826	207.06
367.052	195.06
367.278	199.06
367.505	217.06
367.731	212.06
367.957	208.06
368.184	209.06
368.41	216.06
368.636	223.06
368.862	229.06
369.089	213.06
369.315	195.06
369.541	202.06
369.767	213.06
369.993	219.06
370.219	202.06
370.445	209.06
370.672	233.06
370.898	205.06
371.124	211.06
371.35	201.06
371.576	212.06
371.802	221.06
372.028	199.06
372.254	221.06
372.48	202.06
372.706	209.06
372.932	195.06
373.158	195.06
373.384	207.06
373.61	200.06
373.835	204.06
374.061	215.06
374.287	221.06
374.513	209.06
374.739	207.06
374.965	220.06
375.191	207.06
375.416	213.06
375.642	201.06
375.868	199.06
376.094	199.06
376.319	209.06
376.545	204.06
376.771	209.06
376.997	182.06
377.222	205.06
377.448	201.06
377.674	199.06
377.899	197.06
378.125	199.06
378.35	191.06
378.576	208.06
378.802	214.06
379.027	211.06
379.253	183.06
379.478	191.06
379.704	201.06
379.929	212.06
380.155	209.06
380.38	228.06
380.606	204.06
380.831	195.06
381.057	196.06
381.282	209.06
381.507	208.06
381.733	214.06
381.958	214.06
382.184	204.06
382.409	218.06
382.634	201.06
382.86	212.06
383.085	215.06
383.31	211.06
383.535	205.06
383.761	206.06
383.986	207.06
384.211	214.06
384.436	196.06
384.662	221.06
384.887	215.06
385.112	211.06
385.337	215.06
385.562	225.06
385.787	229.06
386.013	237.06
386.238	233.06
386.463	240.06
386.688	219.06
386.913	224.06
387.138	223.06
387.363	229.06
387.588	215.06
387.813	216.06
388.038	227.06
388.263	215.06
388.488	234.06
388.713	209.06
388.938	219.06
389.163	223.06
389.387	210.06
389.612	209.06
389.837	225.06
390.062	214.06
390.287	216.06
390.512	214.06
390.736	220.06
390.961	234.06
391.186	219.06
391.411	202.06
391.636	206.06
391.86	229.06
392.085	212.06
392.31	207.06
392.534	218.06
392.759	217.06
392.984	220.06
393.208	226.06
393.433	229.06
393.658	227.06
393.882	223.06
394.107	217.06
394.331	231.06
394.556	216.06
394.78	217.06
395.005	226.06
395.229	227.06
395.454	227.06
395.678	220.06
395.903	243.06
396.127	240.06
396.352	239.06
396.576	227.06
396.801	224.06
397.025	227.06
397.249	213.06
397.474	234.06
397.698	234.06
397.922	231.06
398.147	241.06
398.371	234.06
398.595	261.06
398.82	250.06
399.044	267.06
399.268	266.06
399.492	265.06
399.717	295.06
399.941	302.06
400.165	269.06
400.389	292.06
400.613	274.06
400.837	266.06
401.062	250.06
401.286	244.06
401.51	245.06
401.734	239.06
401.958	248.06
402.182	254.06
402.406	251.06
402.63	257.06
402.854	270.06
403.078	252.06
403.302	269.06
403.526	259.06
403.75	274.06
403.974	270.06
404.198	267.06
404.422	243.06
404.645	278.06
404.869	272.06
405.093	275.06
405.317	284.06
405.541	317.06
405.765	283.06
405.988	268.06
406.212	273.06
406.436	300.06
406.66	304.06
406.883	290.06
407.107	298.06
407.331	324.06
407.555	320.06
407.778	325.06
408.002	310.06
408.226	282.06
408.449	292.06
408.673	277.06
408.896	302.06
409.12	316.06
409.344	283.06
409.567	263.06
409.791	265.06
410.014	272.06
410.238	264.06
410.461	252.06
410.685	264.06
410.908	259.06
411.132	279.06
411.355	295.06
411.578	280.06
411.802	267.06
412.025	268.06
412.249	275.06
412.472	269.06
412.695	297.06
412.919	282.06
413.142	264.06
413.365	266.06
413.589	255.06
413.812	248.06
414.035	249.06
414.258	247.06
414.482	254.06
414.705	252.06
414.928	252.06
415.151	245.06
415.374	242.06
415.597	255.06
415.821	243.06
416.044	252.06
416.267	246.06
416.49	235.06
416.713	247.06
416.936	246.06
417.159	230.06
417.382	245.06
417.605	248.06
417.828	251.06
418.051	249.06
418.274	246.06
418.497	245.06
418.72	247.06
418.943	261.06
419.166	237.06
419.389	266.06
419.611	271.06
419.834	255.06
420.057	262.06
420.28	275.06
420.503	265.06
420.726	268.06
420.948	276.06
421.171	296.06
421.394	297.06
421.617	279.06
421.839	259.06
422.062	270.06
422.285	293.06
422.507	289.06
422.73	329.06
422.953	311.06
423.175	260.06
423.398	266.06
423.621	263.06
423.843	294.06
424.066	283.06
424.288	257.06
424.511	284.06
424.733	316.06
424.956	324.06
425.178	319.06
425.401	341.06
425.623	325.06
425.846	278.06
426.068	279.06
426.291	271.06
426.513	275.06
426.735	279.06
426.958	301.06
427.18	336.06
427.402	395.06
427.625	428.06
427.847	391.06
428.069	332.06
428.292	281.06
428.514	260.06
428.736	273.06
428.958	250.06
429.181	261.06
429.403	235.06
429.625	269.06
429.847	269.06
430.069	305.06
430.292	297.06
430.514	262.06
430.736	252.06
430.958	274.06
431.18	237.06
431.402	242.06
431.624	243.06
431.846	245.06
432.068	238.06
432.29	249.06
432.512	254.06
432.734	236.06
432.956	241.06
433.178	233.06
433.4	246.06
433.622	239.06
433.844	235.06
434.066	250.06
434.287	230.06
434.509	234.06
434.731	260.06
434.953	262.06
435.175	269.06
435.397	263.06
435.618	272.06
435.84	296.06
436.062	337.06
436.284	344.06
436.505	320.06
436.727	279.06
436.949	253.06
437.17	247.06
437.392	236.06
437.614	265.06
437.835	294.06
438.057	316.06
438.278	342.06
438.5	331.06
438.721	369.06
438.943	344.06
439.165	312.06
439.386	277.06
439.608	292.06
439.829	280.06
440.05	307.06
440.272	316.06
440.493	286.06
440.715	260.06
440.936	275.06
441.158	261.06
441.379	264.06
441.6	268.06
441.822	271.06
442.043	291.06
442.264	323.06
442.486	333.06
442.707	307.06
442.928	284.06
443.149	304.06
443.371	311.06
443.592	311.06
443.813	346.06
444.034	356.06
444.255	305.06
444.476	283.06
444.698	264.06
444.919	267.06
445.14	366.06
445.361	345.06
445.582	297.06
445.803	324.06
446.024	382.06
446.245	368.06
446.466	331.06
446.687	276.06
446.908	276.06
447.129	272.06
447.35	259.06
447.571	263.06
447.792	265.06
448.013	268.06
448.234	267.06
448.455	301.06
448.675	349.06
448.896	385.06
449.117	307.06
449.338	309.06
449.559	378.06
449.779	375.06
450	310.06
450.221	252.06
450.442	252.06
450.662	244.06
450.883	248.06
451.104	270.06
451.324	271.06
451.545	244.06
451.766	242.06
451.986	227.06
452.207	246.06
452.428	223.06
452.648	236.06
452.869	227.06
453.089	251.06
453.31	247.06
453.53	233.06
453.751	223.06
453.971	232.06
454.192	244.06
454.412	243.06
454.633	227.06
454.853	215.06
455.073	225.06
455.294	228.06
455.514	285.06
455.734	266.06
455.955	227.06
456.175	223.06
456.395	225.06
456.616	228.06
456.836	219.06
457.056	222.06
457.276	213.06
457.497	225.06
457.717	231.06
457.937	217.06
458.157	222.06
458.377	224.06
458.598	224.06
458.818	276.06
459.038	306.06
459.258	315.06
459.478	259.06
459.698	261.06
459.918	240.06
460.138	249.06
460.358	236.06
460.578	264.06
460.798	246.06
461.018	235.06
461.238	255.06
461.458	245.06
461.678	248.06
461.898	241.06
462.118	235.06
462.338	249.06
462.558	258.06
462.777	250.06
462.997	238.06
463.217	255.06
463.437	273.06
463.657	264.06
463.876	260.06
464.096	263.06
464.316	271.06
464.536	277.06
464.755	278.06
464.975	277.06
465.195	294.06
465.414	339.06
465.634	302.06
465.854	266.06
466.073	231.06
466.293	243.06
466.512	244.06
466.732	243.06
466.951	255.06
467.171	229.06
467.391	232.06
467.61	240.06
467.829	236.06
468.049	253.06
468.268	254.06
468.488	257.06
468.707	238.06
468.927	230.06
469.146	227.06
469.365	247.06
469.585	229.06
469.804	244.06
470.023	242.06
470.243	236.06
470.462	236.06
470.681	262.06
470.901	251.06
471.12	247.06
471.339	213.06
471.558	242.06
471.777	232.06
471.997	231.06
472.216	248.06
472.435	272.06
472.654	269.06
472.873	247.06
473.092	234.06
473.311	241.06
473.53	236.06
473.749	240.06
473.968	269.06
474.187	325.06
474.406	317.06
474.625	259.06
474.844	256.06
475.063	224.06
475.282	256.06
475.501	243.06
475.72	263.06
475.939	235.06
476.158	244.06
476.377	253.06
476.596	249.06
476.814	248.06
477.033	253.06
477.252	253.06
477.471	248.06
477.69	261.06
477.908	247.06
478.127	259.06
478.346	261.06
478.564	262.06
478.783	270.06
479.002	244.06
479.22	260.06
479.439	279.06
479.658	280.06
479.876	297.06
480.095	296.06
480.313	325.06
480.532	297.06
480.751	283.06
480.969	281.06
481.188	360.06
481.406	381.06
481.624	307.06
481.843	288.06
482.061	273.06
482.28	260.06
482.498	268.06
482.717	263.06
482.935	265.06
483.153	283.06
483.372	291.06
483.59	279.06
483.808	272.06
484.027	263.06
484.245	266.06
484.463	270.06
484.681	282.06
484.9	284.06
485.118	286.06
485.336	284.06
485.554	276.06
485.772	281.06
485.99	292.06
486.209	292.06
486.427	285.06
486.645	286.06
486.863	303.06
487.081	293.06
487.299	297.06
487.517	285.06
487.735	277.06
487.953	284.06
488.171	294.06
488.389	296.06
488.607	296.06
488.825	300.06
489.043	305.06
489.261	287.06
489.479	294.06
489.696	305.06
489.914	309.06
490.132	317.06
490.35	311.06
490.568	314.06
490.786	324.06
491.003	334.06
491.221	336.06
491.439	345.06
491.657	350.06
491.874	361.06
492.092	334.06
492.31	347.06
492.527	346.06
492.745	360.06
492.963	352.06
493.18	366.06
493.398	361.06
493.615	360.06
493.833	341.06
494.05	328.06
494.268	343.06
494.485	331.06
494.703	346.06
494.92	355.06
495.138	358.06
495.355	357.06
495.573	358.06
495.79	332.06
496.008	346.06
496.225	346.06
496.442	340.06
496.66	356.06
496.877	341.06
497.094	348.06
497.312	366.06
497.529	324.06
497.746	347.06
497.963	348.06
498.181	364.06
498.398	366.06
498.615	383.06
498.832	379.06
499.049	380.06
499.267	375.06
499.484	381.06
499.701	399.06
499.918	432.06
500.135	430.06
500.352	438.06
500.569	459.06
500.786	437.06
501.003	465.06
501.22	444.06
501.437	443.06
501.654	429.06
501.871	447.06
502.088	404.06
502.305	367.06
502.522	359.06
502.739	360.06
502.956	368.06
503.172	332.06
503.389	345.06
503.606	361.06
503.823	355.06
504.04	367.06
504.256	333.06
504.473	365.06
504.69	332.06
504.907	349.06
505.123	341.06
505.34	323.06
505.557	323.06
505.773	323.06
505.99	312.06
506.207	306.06
506.423	320.06
506.64	326.06
506.856	335.06
507.073	330.06
507.289	324.06
507.506	341.06
507.722	329.06
507.939	344.06
508.155	323.06
508.372	316.06
508.588	307.06
508.805	317.06
509.021	305.06
509.238	323.06
509.454	315.06
509.67	320.06
509.887	301.06
510.103	315.06
510.319	330.06
510.536	377.06
510.752	732.06
510.968	549.06
511.184	335.06
511.401	323.06
511.617	291.06
511.833	300.06
512.049	294.06
512.265	303.06
512.481	283.06
512.698	286.06
512.914	292.06
513.13	287.06
513.346	289.06
513.562	307.06
513.778	294.06
513.994	293.06
514.21	309.06
514.426	332.06
514.642	329.06
514.858	353.06
515.074	402.06
515.29	481.06
515.506	809.06
515.721	632.06
515.937	398.06
516.153	352.06
516.369	319.06
516.585	297.06
516.801	296.06
517.016	297.06
517.232	300.06
517.448	306.06
517.664	311.06
517.879	302.06
518.095	319.06
518.311	311.06
518.527	303.06
518.742	289.06
518.958	280.06
519.173	292.06
519.389	293.06
519.605	298.06
519.82	307.06
520.036	303.06
520.251	335.06
520.467	328.06
520.682	326.06
520.898	328.06
521.113	355.06
521.329	354.06
521.544	414.06
521.76	588.06
521.975	1127.06
522.19	1066.06
522.406	525.06
522.621	352.06
522.836	316.06
523.052	321.06
523.267	299.06
523.482	272.06
523.698	263.06
523.913	267.06
524.128	278.06
524.343	257.06
524.559	254.06
524.774	270.06
524.989	256.06
525.204	270.06
525.419	261.06
525.634	268.06
525.849	254.06
526.064	248.06
526.28	243.06
526.495	246.06
526.71	245.06
526.925	231.06
527.14	255.06
527.355	236.06
527.57	238.06
527.785	239.06
527.999	234.06
528.214	248.06
528.429	246.06
528.644	239.06
528.859	246.06
529.074	251.06
529.289	274.06
529.503	319.06
529.718	301.06
529.933	270.06
530.148	255.06
530.363	260.06
530.577	248.06
530.792	239.06
531.007	234.06
531.221	239.06
531.436	218.06
531.651	220.06
531.865	236.06
532.08	231.06
532.295	224.06
532.509	234.06
532.724	253.06
532.938	241.06
533.153	211.06
533.367	235.06
533.582	240.06
533.796	236.06
534.011	233.06
534.225	232.06
534.44	232.06
534.654	225.06
534.868	241.06
535.083	228.06
535.297	232.06
535.511	250.06
535.726	236.06
535.94	256.06
536.154	256.06
536.369	244.06
536.583	232.06
536.797	223.06
537.011	224.06
537.225	223.06
537.44	224.06
537.654	224.06
537.868	222.06
538.082	232.06
538.296	231.06
538.51	220.06
538.724	235.06
538.938	234.06
539.153	233.06
539.367	227.06
539.581	220.06
539.795	216.06
540.009	222.06
540.222	219.06
540.436	227.06
540.65	239.06
540.864	227.06
541.078	231.06
541.292	236.06
541.506	226.06
541.72	219.06
541.934	263.06
542.147	251.06
542.361	225.06
542.575	228.06
542.789	240.06
543.002	222.06
543.216	249.06
543.43	243.06
543.644	217.06
543.857	244.06
544.071	223.06
544.285	220.06
544.498	225.06
544.712	228.06
544.925	230.06
545.139	228.06
545.352	228.06
545.566	231.06
545.779	232.06
545.993	227.06
546.206	219.06
546.42	233.06
546.633	235.06
546.847	220.06
547.06	221.06
547.274	224.06
547.487	238.06
547.7	215.06
547.914	221.06
548.127	227.06
548.34	231.06
548.554	223.06
548.767	225.06
548.98	208.06
549.193	214.06
549.407	203.06
549.62	222.06
549.833	209.06
550.046	198.06
550.259	228.06
550.473	219.06
550.686	217.06
550.899	219.06
551.112	221.06
551.325	237.06
551.538	229.06
551.751	208.06
551.964	212.06
552.177	213.06
552.39	229.06
552.603	219.06
552.816	226.06
553.029	218.06
553.242	216.06
553.455	227.06
553.667	229.06
553.88	262.06
554.093	228.06
554.306	221.06
554.519	219.06
554.732	216.06
554.944	211.06
555.157	219.06
555.37	226.06
555.583	210.06
555.795	217.06
556.008	186.06
556.221	207.06
556.433	204.06
556.646	208.06
556.859	210.06
557.071	192.06
557.284	201.06
557.496	213.06
557.709	187.06
557.921	199.06
558.134	183.06
558.346	215.06
558.559	213.06
558.771	197.06
558.984	196.06
559.196	201.06
559.409	208.06
559.621	203.06
559.833	207.06
560.046	198.06
560.258	204.06
560.47	194.06
560.683	198.06
560.895	189.06
561.107	189.06
561.32	199.06
561.532	194.06
561.744	189.06
561.956	202.06
562.168	188.06
562.381	206.06
562.593	192.06
562.805	208.06
563.017	206.06
563.229	193.06
563.441	212.06
563.653	193.06
563.865	200.06
564.077	200.06
564.289	218.06
564.501	195.06
564.713	208.06
564.925	203.06
565.137	213.06
565.349	208.06
565.561	190.06
565.773	218.06
565.985	221.06
566.197	235.06
566.408	232.06
566.62	223.06
566.832	231.06
567.044	236.06
567.255	226.06
567.467	225.06
567.679	219.06
567.891	236.06
568.102	241.06
568.314	234.06
568.526	232.06
568.737	223.06
568.949	206.06
569.161	213.06
569.372	214.06
569.584	204.06
569.795	206.06
570.007	206.06
570.218	249.06
570.43	231.06
570.641	197.06
570.853	197.06
571.064	205.06
571.276	175.06
571.487	201.06
571.698	196.06
571.91	198.06
572.121	195.06
572.333	193.06
572.544	176.06
572.755	171.06
572.966	185.06
573.178	197.06
573.389	175.06
573.6	179.06
573.811	186.06
574.023	175.06
574.234	181.06
574.445	179.06
574.656	177.06
574.867	181.06
575.078	180.06
575.289	187.06
575.501	164.06
575.712	153.06
575.923	191.06
576.134	182.06
576.345	182.06
576.556	170.06
576.767	180.06
576.978	183.06
577.188	180.06
577.399	178.06
577.61	170.06
577.821	170.06
578.032	174.06
578.243	201.06
578.454	368.06
578.665	264.06
578.875	174.06
579.086	170.06
579.297	186.06
579.508	169.06
579.718	171.06
579.929	177.06
580.14	175.06
580.35	161.06
580.561	175.06
580.772	164.06
580.982	166.06
581.193	178.06
581.403	167.06
581.614	180.06
581.825	153.06
582.035	167.06
582.246	154.06
582.456	162.06
582.667	164.06
582.877	151.06
583.087	157.06
583.298	174.06
583.508	171.06
583.719	159.06
583.929	175.06
584.139	175.06
584.35	161.06
584.56	163.06
584.77	180.06
584.981	167.06
585.191	151.06
585.401	175.06
585.611	161.06
585.821	154.06
586.032	165.06
586.242	176.06
586.452	158.06
586.662	167.06
586.872	148.06
587.082	180.06
587.292	172.06
587.502	164.06
587.713	140.06
587.923	167.06
588.133	158.06
588.343	167.06
588.553	159.06
588.762	146.06
588.972	157.06
589.182	179.06
589.392	171.06
589.602	155.06
589.812	168.06
590.022	158.06
590.232	172.06
590.441	177.06
590.651	170.06
590.861	161.06
591.071	147.06
591.281	158.06
591.49	162.06
591.7	176.06
591.91	169.06
592.119	180.06
592.329	159.06
592.539	167.06
592.748	172.06
592.958	160.06
593.167	157.06
593.377	163.06
593.587	174.06
593.796	174.06
594.006	161.06
594.215	167.06
594.424	174.06
594.634	150.06
594.843	166.06
595.053	175.06
595.262	167.06
595.472	166.06
595.681	167.06
595.89	172.06
596.1	177.06
596.309	157.06
596.518	169.06
596.727	143.06
596.937	145.06
597.146	159.06
597.355	151.06
597.564	156.06
597.774	167.06
597.983	145.06
598.192	146.06
598.401	152.06
598.61	156.06
598.819	161.06
599.028	151.06
599.237	129.06
599.446	146.06
599.655	153.06
599.864	159.06
600.073	140.06
600.282	137.06
600.491	149.06
600.7	160.06
600.909	153.06
601.118	152.06
601.327	148.06
601.536	155.06
601.745	162.06
601.953	155.06
602.162	141.06
602.371	156.06
602.58	156.06
602.789	143.06
602.997	155.06
603.206	151.06
603.415	148.06
603.623	140.06
603.832	136.06
604.041	154.06
604.249	144.06
604.458	131.06
604.666	153.06
604.875	139.06
605.084	132.06
605.292	142.06
605.501	167.06
605.709	152.06
605.918	137.06
606.126	147.06
606.334	151.06
606.543	132.06
606.751	153.06
606.96	141.06
607.168	139.06
607.376	137.06
607.585	150.06
607.793	135.06
608.001	156.06
608.21	143.06
608.418	139.06
608.626	149.06
608.834	153.06
609.043	136.06
609.251	153.06
609.459	151.06
609.667	148.06
609.875	153.06
610.083	151.06
610.291	153.06
610.499	141.06
610.707	154.06
610.916	156.06
611.124	130.06
611.332	131.06
611.54	146.06
611.748	147.06
611.955	150.06
612.163	136.06
612.371	140.06
612.579	136.06
612.787	144.06
612.995	154.06
613.203	148.06
613.411	152.06
613.618	140.06
613.826	141.06
614.034	139.06
614.242	149.06
614.449	135.06
614.657	156.06
614.865	157.06
615.072	129.06
615.28	145.06
615.488	153.06
615.695	132.06
615.903	139.06
616.111	140.06
616.318	151.06
616.526	147.06
616.733	157.06
616.941	141.06
617.148	135.06
617.356	153.06
617.563	137.06
617.771	149.06
617.978	139.06
618.185	151.06
618.393	135.06
618.6	144.06
618.807	158.06
619.015	150.06
619.222	148.06
619.429	136.06
619.637	154.06
619.844	132.06
620.051	143.06
620.258	154.06
620.466	126.06
620.673	131.06
620.88	143.06
621.087	128.06
621.294	145.06
621.501	136.06
621.708	130.06
621.915	148.06
622.122	141.06
622.329	123.06
622.536	133.06
622.743	129.06
622.95	140.06
623.157	137.06
623.364	133.06
623.571	118.06
623.778	138.06
623.985	151.06
624.192	128.06
624.399	131.06
624.606	139.06
624.812	131.06
625.019	135.06
625.226	135.06
625.433	131.06
625.639	130.06
625.846	136.06
626.053	129.06
626.259	131.06
626.466	122.06
626.673	125.06
626.879	112.06
627.086	131.06
627.293	133.06
627.499	133.06
627.706	133.06
627.912	132.06
628.119	126.06
628.325	136.06
628.532	124.06
628.738	121.06
628.945	125.06
629.151	133.06
629.357	124.06
629.564	132.06
629.77	130.06
629.976	128.06
630.183	127.06
630.389	133.06
630.595	112.06
630.802	133.06
631.008	133.06
631.214	119.06
631.42	125.06
631.627	131.06
631.833	123.06
632.039	116.06
632.245	129.06
632.451	123.06
632.657	120.06
632.863	128.06
633.069	110.06
633.275	125.06
633.481	120.06
633.688	109.06
633.893	127.06
634.099	121.06
634.305	119.06
634.511	112.06
634.717	131.06
634.923	137.06
635.129	134.06
635.335	140.06
635.541	132.06
635.747	121.06
635.952	117.06
636.158	106.06
636.364	131.06
636.57	130.06
636.775	131.06
636.981	130.06
637.187	119.06
637.392	137.06
637.598	117.06
637.804	111.06
638.009	121.06
638.215	137.06
638.421	128.06
638.626	134.06
638.832	119.06
639.037	116.06
639.243	104.06
639.448	124.06
639.654	126.06
639.859	124.06
640.065	123.06
640.27	117.06
640.475	109.06
640.681	119.06
640.886	131.06
641.091	120.06
641.297	121.06
641.502	128.06
641.707	127.06
641.913	119.06
642.118	114.06
642.323	102.06
642.528	131.06
642.733	123.06
642.939	110.06
643.144	127.06
643.349	121.06
643.554	118.06
643.759	104.06
643.964	120.06
644.169	127.06
644.374	116.06
644.579	114.06
644.784	116.06
644.989	118.06
645.194	121.06
645.399	123.06
645.604	108.06
645.809	107.06
646.014	101.06
646.219	117.06
646.423	127.06
646.628	119.06
646.833	117.06
647.038	126.06
647.243	117.06
647.447	110.06
647.652	103.06
647.857	121.06
648.062	107.06
648.266	95.06
648.471	123.06
648.676	110.06
648.88	121.06
649.085	119.06
649.289	122.06
649.494	133.06
649.698	131.06
649.903	125.06
650.107	116.06
650.312	129.06
650.516	125.06
650.721	123.06
650.925	103.06
651.13	117.06
651.334	115.06
651.539	106.06
651.743	99.06
651.947	117.06
652.152	112.06
652.356	102.06
652.56	106.06
652.764	102.06
652.969	116.06
653.173	111.06
653.377	122.06
653.581	122.06
653.785	118.06
653.99	117.06
654.194	105.06
654.398	103.06
654.602	106.06
654.806	95.06
655.01	108.06
655.214	97.06
655.418	101.06
655.622	115.06
655.826	117.06
656.03	114.06
656.234	112.06
656.438	106.06
656.642	114.06
656.846	111.06
657.049	105.06
657.253	105.06
657.457	108.06
657.661	115.06
657.865	96.06
658.068	99.06
658.272	112.06
658.476	107.06
658.68	122.06
658.883	73.06
659.087	99.06
659.291	115.06
659.494	94.06
659.698	97.06
659.901	84.06
660.105	93.06
660.309	94.06
660.512	89.06
660.716	84.06
660.919	102.06
661.123	81.06
661.326	101.06
661.53	95.06
661.733	87.06
661.936	92.06
662.14	85.06
662.343	63.06
662.546	92.06
662.75	93.06
662.953	95.06
663.156	92.06
663.36	93.06
663.563	94.06
663.766	85.06
663.969	82.06
664.173	80.06
664.376	91.06
664.579	71.06
664.782	80.06
664.985	84.06
665.188	86.06
665.391	104.06
665.594	82.06
665.797	82.06
666	95.06
666.203	94.06
666.406	91.06
666.609	88.06
666.812	71.06
667.015	74.06
667.218	91.06
667.421	78.06
667.624	90.06
667.827	87.06
668.03	87.06
668.232	84.06
668.435	91.06
668.638	78.06
668.841	92.06
669.043	92.06
669.246	83.06
669.449	82.06
669.651	77.06
669.854	94.06
670.057	79.06
670.259	82.06
670.462	65.06
670.665	95.06
670.867	83.06
671.07	79.06
671.272	81.06
671.475	68.06
671.677	73.06
671.88	93.06
672.082	82.06
672.284	75.06
672.487	68.06
672.689	70.06
672.892	84.06
