Data from 1966.PennyLincolnUp.Lamp.En5.5.200Scan.071719.P1.Scan2.head_HRD10591_14-18-59-232.txt Node
Date: Thu Jul 18 14:18:59 EDT 2019
User: cochatt
Spectrometer: HR+D1059
Trigger mode: 1
Integration Time (sec): 1.000000E-1
Scans to average: 1
Electric dark correction enabled: true
Nonlinearity correction enabled: false
Boxcar width: 0
XAxis mode: Wavelengths
Number of Pixels in Spectrum: 2048
>>>>>Begin Spectral Data<<<<<
223.165	-6.94
223.4	-6.94
223.635	-6.94
223.869	-20.94
224.104	-23.94
224.338	-9.94
224.573	-14.94
224.808	0.06
225.042	-1.94
225.277	-5.94
225.511	-14.94
225.746	-2.94
225.98	9.06
226.215	9.06
226.449	10.06
226.683	22.06
226.918	28.06
227.152	24.06
227.387	34.06
227.621	42.06
227.856	42.06
228.09	40.06
228.324	45.06
228.559	52.06
228.793	69.06
229.027	101.06
229.262	107.06
229.496	115.06
229.73	136.06
229.964	157.06
230.199	131.06
230.433	109.06
230.667	98.06
230.901	111.06
231.136	117.06
231.37	115.06
231.604	107.06
231.838	107.06
232.072	119.06
232.306	106.06
232.541	123.06
232.775	124.06
233.009	126.06
233.243	99.06
233.477	110.06
233.711	120.06
233.945	98.06
234.179	112.06
234.413	120.06
234.647	123.06
234.881	104.06
235.115	130.06
235.349	125.06
235.583	121.06
235.817	114.06
236.051	134.06
236.285	134.06
236.519	135.06
236.753	151.06
236.987	155.06
237.221	186.06
237.455	240.06
237.689	194.06
237.922	137.06
238.156	132.06
238.39	130.06
238.624	121.06
238.858	127.06
239.091	128.06
239.325	121.06
239.559	118.06
239.793	113.06
240.027	125.06
240.26	138.06
240.494	151.06
240.728	154.06
240.961	158.06
241.195	145.06
241.429	137.06
241.662	122.06
241.896	130.06
242.13	137.06
242.363	121.06
242.597	140.06
242.83	146.06
243.064	147.06
243.298	157.06
243.531	139.06
243.765	152.06
243.998	138.06
244.232	146.06
244.465	153.06
244.699	141.06
244.932	153.06
245.166	161.06
245.399	157.06
245.633	145.06
245.866	151.06
246.099	135.06
246.333	163.06
246.566	159.06
246.8	154.06
247.033	160.06
247.266	166.06
247.5	166.06
247.733	171.06
247.966	171.06
248.2	176.06
248.433	165.06
248.666	168.06
248.899	199.06
249.133	199.06
249.366	222.06
249.599	197.06
249.832	200.06
250.066	188.06
250.299	176.06
250.532	196.06
250.765	199.06
250.998	210.06
251.231	219.06
251.465	232.06
251.698	211.06
251.931	205.06
252.164	206.06
252.397	195.06
252.63	180.06
252.863	208.06
253.096	208.06
253.329	231.06
253.562	224.06
253.795	219.06
254.028	207.06
254.261	216.06
254.494	243.06
254.727	275.06
254.96	286.06
255.193	288.06
255.426	252.06
255.659	232.06
255.892	234.06
256.124	234.06
256.357	253.06
256.59	262.06
256.823	208.06
257.056	224.06
257.289	217.06
257.521	216.06
257.754	218.06
257.987	217.06
258.22	229.06
258.452	223.06
258.685	212.06
258.918	201.06
259.151	223.06
259.383	232.06
259.616	222.06
259.849	233.06
260.081	243.06
260.314	257.06
260.547	243.06
260.779	254.06
261.012	253.06
261.244	214.06
261.477	218.06
261.71	237.06
261.942	229.06
262.175	241.06
262.407	241.06
262.64	222.06
262.872	216.06
263.105	213.06
263.337	237.06
263.57	215.06
263.802	219.06
264.035	226.06
264.267	211.06
264.499	210.06
264.732	223.06
264.964	228.06
265.197	232.06
265.429	216.06
265.661	215.06
265.894	220.06
266.126	205.06
266.358	236.06
266.591	238.06
266.823	221.06
267.055	228.06
267.287	241.06
267.52	235.06
267.752	242.06
267.984	229.06
268.216	226.06
268.448	244.06
268.681	243.06
268.913	255.06
269.145	272.06
269.377	282.06
269.609	256.06
269.841	288.06
270.073	276.06
270.306	301.06
270.538	322.06
270.77	294.06
271.002	311.06
271.234	298.06
271.466	312.06
271.698	316.06
271.93	324.06
272.162	303.06
272.394	328.06
272.626	322.06
272.858	306.06
273.09	279.06
273.322	270.06
273.553	256.06
273.785	261.06
274.017	261.06
274.249	264.06
274.481	288.06
274.713	289.06
274.945	266.06
275.176	275.06
275.408	289.06
275.64	274.06
275.872	281.06
276.104	270.06
276.335	273.06
276.567	273.06
276.799	275.06
277.031	310.06
277.262	339.06
277.494	321.06
277.726	314.06
277.957	300.06
278.189	272.06
278.421	290.06
278.652	295.06
278.884	271.06
279.115	261.06
279.347	276.06
279.579	266.06
279.81	282.06
280.042	263.06
280.273	276.06
280.505	273.06
280.736	270.06
280.968	274.06
281.199	281.06
281.431	276.06
281.662	288.06
281.894	266.06
282.125	280.06
282.356	297.06
282.588	340.06
282.819	277.06
283.051	281.06
283.282	266.06
283.513	280.06
283.745	287.06
283.976	293.06
284.207	291.06
284.439	272.06
284.67	280.06
284.901	293.06
285.132	288.06
285.364	277.06
285.595	286.06
285.826	292.06
286.057	299.06
286.288	304.06
286.52	314.06
286.751	299.06
286.982	299.06
287.213	291.06
287.444	290.06
287.675	296.06
287.906	278.06
288.138	313.06
288.369	323.06
288.6	314.06
288.831	321.06
289.062	318.06
289.293	293.06
289.524	283.06
289.755	316.06
289.986	317.06
290.217	277.06
290.448	293.06
290.679	293.06
290.91	322.06
291.141	304.06
291.371	313.06
291.602	288.06
291.833	300.06
292.064	288.06
292.295	291.06
292.526	294.06
292.757	289.06
292.987	272.06
293.218	293.06
293.449	293.06
293.68	310.06
293.91	308.06
294.141	309.06
294.372	295.06
294.603	309.06
294.833	299.06
295.064	289.06
295.295	288.06
295.525	278.06
295.756	318.06
295.987	285.06
296.217	334.06
296.448	341.06
296.679	323.06
296.909	294.06
297.14	300.06
297.37	310.06
297.601	314.06
297.831	293.06
298.062	315.06
298.292	301.06
298.523	314.06
298.753	323.06
298.984	320.06
299.214	318.06
299.445	328.06
299.675	323.06
299.905	316.06
300.136	341.06
300.366	312.06
300.597	312.06
300.827	329.06
301.057	347.06
301.288	343.06
301.518	333.06
301.748	344.06
301.979	325.06
302.209	335.06
302.439	344.06
302.669	353.06
302.9	350.06
303.13	333.06
303.36	343.06
303.59	337.06
303.82	339.06
304.051	326.06
304.281	327.06
304.511	337.06
304.741	341.06
304.971	331.06
305.201	350.06
305.431	344.06
305.661	327.06
305.891	338.06
306.121	354.06
306.352	338.06
306.582	338.06
306.812	357.06
307.042	332.06
307.272	346.06
307.502	353.06
307.731	351.06
307.961	344.06
308.191	338.06
308.421	352.06
308.651	332.06
308.881	357.06
309.111	333.06
309.341	350.06
309.571	373.06
309.8	370.06
310.03	373.06
310.26	397.06
310.49	387.06
310.72	405.06
310.949	409.06
311.179	401.06
311.409	397.06
311.639	393.06
311.868	392.06
312.098	387.06
312.328	384.06
312.557	408.06
312.787	423.06
313.017	393.06
313.246	399.06
313.476	382.06
313.706	379.06
313.935	398.06
314.165	417.06
314.394	424.06
314.624	406.06
314.853	397.06
315.083	389.06
315.312	389.06
315.542	394.06
315.771	367.06
316.001	382.06
316.23	402.06
316.46	391.06
316.689	389.06
316.919	398.06
317.148	398.06
317.377	382.06
317.607	388.06
317.836	396.06
318.065	394.06
318.295	394.06
318.524	397.06
318.753	371.06
318.983	411.06
319.212	402.06
319.441	413.06
319.67	408.06
319.9	394.06
320.129	390.06
320.358	378.06
320.587	385.06
320.816	412.06
321.046	424.06
321.275	422.06
321.504	401.06
321.733	418.06
321.962	420.06
322.191	421.06
322.42	438.06
322.649	437.06
322.878	450.06
323.108	465.06
323.337	492.06
323.566	527.06
323.795	527.06
324.024	548.06
324.253	690.06
324.482	974.06
324.71	1530.06
324.939	2288.06
325.168	1970.06
325.397	978.06
325.626	646.06
325.855	547.06
326.084	515.06
326.313	511.06
326.542	508.06
326.77	566.06
326.999	646.06
327.228	909.06
327.457	1343.06
327.686	1700.06
327.914	1116.06
328.143	730.06
328.372	642.06
328.6	623.06
328.829	576.06
329.058	605.06
329.287	579.06
329.515	551.06
329.744	518.06
329.972	535.06
330.201	552.06
330.43	614.06
330.658	597.06
330.887	635.06
331.115	634.06
331.344	533.06
331.572	499.06
331.801	499.06
332.03	489.06
332.258	506.06
332.486	484.06
332.715	496.06
332.943	477.06
333.172	498.06
333.4	474.06
333.629	499.06
333.857	493.06
334.085	526.06
334.314	526.06
334.542	568.06
334.771	589.06
334.999	549.06
335.227	478.06
335.455	483.06
335.684	478.06
335.912	483.06
336.14	463.06
336.369	464.06
336.597	476.06
336.825	484.06
337.053	464.06
337.281	455.06
337.51	459.06
337.738	468.06
337.966	462.06
338.194	485.06
338.422	457.06
338.65	448.06
338.878	453.06
339.106	437.06
339.334	450.06
339.562	463.06
339.79	451.06
340.018	434.06
340.246	468.06
340.474	446.06
340.702	448.06
340.93	448.06
341.158	453.06
341.386	433.06
341.614	477.06
341.842	469.06
342.07	461.06
342.298	449.06
342.526	448.06
342.754	450.06
342.981	428.06
343.209	440.06
343.437	451.06
343.665	460.06
343.893	463.06
344.12	462.06
344.348	469.06
344.576	463.06
344.804	472.06
345.031	483.06
345.259	476.06
345.487	457.06
345.714	453.06
345.942	457.06
346.17	463.06
346.397	468.06
346.625	463.06
346.853	468.06
347.08	427.06
347.308	438.06
347.535	465.06
347.763	446.06
347.99	453.06
348.218	451.06
348.445	465.06
348.673	449.06
348.9	448.06
349.128	435.06
349.355	435.06
349.583	420.06
349.81	414.06
350.037	448.06
350.265	441.06
350.492	439.06
350.72	429.06
350.947	439.06
351.174	456.06
351.402	455.06
351.629	442.06
351.856	450.06
352.083	445.06
352.311	465.06
352.538	470.06
352.765	455.06
352.992	439.06
353.22	441.06
353.447	449.06
353.674	457.06
353.901	416.06
354.128	413.06
354.355	419.06
354.583	446.06
354.81	443.06
355.037	422.06
355.264	400.06
355.491	429.06
355.718	427.06
355.945	416.06
356.172	415.06
356.399	411.06
356.626	407.06
356.853	425.06
357.08	404.06
357.307	414.06
357.534	399.06
357.761	422.06
357.988	423.06
358.215	417.06
358.441	408.06
358.668	434.06
358.895	414.06
359.122	420.06
359.349	432.06
359.576	434.06
359.802	452.06
360.029	507.06
360.256	500.06
360.483	466.06
360.709	460.06
360.936	453.06
361.163	445.06
361.39	450.06
361.616	449.06
361.843	460.06
362.07	456.06
362.296	442.06
362.523	437.06
362.749	458.06
362.976	463.06
363.203	474.06
363.429	419.06
363.656	424.06
363.882	427.06
364.109	450.06
364.335	437.06
364.562	423.06
364.788	442.06
365.015	424.06
365.241	444.06
365.468	411.06
365.694	425.06
365.92	439.06
366.147	438.06
366.373	423.06
366.599	427.06
366.826	422.06
367.052	452.06
367.278	422.06
367.505	435.06
367.731	434.06
367.957	426.06
368.184	440.06
368.41	453.06
368.636	472.06
368.862	438.06
369.089	435.06
369.315	424.06
369.541	442.06
369.767	432.06
369.993	460.06
370.219	432.06
370.445	425.06
370.672	441.06
370.898	434.06
371.124	435.06
371.35	447.06
371.576	449.06
371.802	441.06
372.028	457.06
372.254	426.06
372.48	443.06
372.706	454.06
372.932	420.06
373.158	438.06
373.384	440.06
373.61	450.06
373.835	451.06
374.061	430.06
374.287	437.06
374.513	450.06
374.739	442.06
374.965	445.06
375.191	441.06
375.416	435.06
375.642	430.06
375.868	451.06
376.094	440.06
376.319	443.06
376.545	438.06
376.771	454.06
376.997	443.06
377.222	432.06
377.448	426.06
377.674	451.06
377.899	436.06
378.125	431.06
378.35	435.06
378.576	435.06
378.802	431.06
379.027	432.06
379.253	438.06
379.478	427.06
379.704	430.06
379.929	444.06
380.155	432.06
380.38	457.06
380.606	468.06
380.831	447.06
381.057	451.06
381.282	460.06
381.507	437.06
381.733	449.06
381.958	451.06
382.184	448.06
382.409	436.06
382.634	462.06
382.86	449.06
383.085	449.06
383.31	446.06
383.535	463.06
383.761	464.06
383.986	465.06
384.211	449.06
384.436	485.06
384.662	475.06
384.887	467.06
385.112	458.06
385.337	476.06
385.562	474.06
385.787	481.06
386.013	513.06
386.238	510.06
386.463	490.06
386.688	500.06
386.913	477.06
387.138	496.06
387.363	502.06
387.588	493.06
387.813	491.06
388.038	471.06
388.263	497.06
388.488	507.06
388.713	496.06
388.938	506.06
389.163	470.06
389.387	485.06
389.612	496.06
389.837	488.06
390.062	466.06
390.287	485.06
390.512	488.06
390.736	482.06
390.961	497.06
391.186	498.06
391.411	486.06
391.636	508.06
391.86	514.06
392.085	509.06
392.31	520.06
392.534	506.06
392.759	504.06
392.984	491.06
393.208	498.06
393.433	506.06
393.658	502.06
393.882	499.06
394.107	480.06
394.331	498.06
394.556	498.06
394.78	504.06
395.005	493.06
395.229	488.06
395.454	514.06
395.678	506.06
395.903	532.06
396.127	560.06
396.352	558.06
396.576	526.06
396.801	537.06
397.025	517.06
397.249	533.06
397.474	539.06
397.698	536.06
397.922	548.06
398.147	566.06
398.371	554.06
398.595	538.06
398.82	561.06
399.044	585.06
399.268	604.06
399.492	629.06
399.717	652.06
399.941	689.06
400.165	721.06
400.389	716.06
400.613	656.06
400.837	606.06
401.062	596.06
401.286	572.06
401.51	550.06
401.734	565.06
401.958	583.06
402.182	580.06
402.406	603.06
402.63	585.06
402.854	601.06
403.078	582.06
403.302	603.06
403.526	588.06
403.75	585.06
403.974	590.06
404.198	588.06
404.422	615.06
404.645	604.06
404.869	604.06
405.093	671.06
405.317	673.06
405.541	724.06
405.765	676.06
405.988	633.06
406.212	621.06
406.436	642.06
406.66	651.06
406.883	648.06
407.107	708.06
407.331	693.06
407.555	801.06
407.778	786.06
408.002	731.06
408.226	642.06
408.449	637.06
408.673	650.06
408.896	688.06
409.12	728.06
409.344	701.06
409.567	617.06
409.791	603.06
410.014	601.06
410.238	594.06
410.461	586.06
410.685	602.06
410.908	643.06
411.132	658.06
411.355	698.06
411.578	662.06
411.802	596.06
412.025	598.06
412.249	611.06
412.472	636.06
412.695	675.06
412.919	666.06
413.142	610.06
413.365	583.06
413.589	589.06
413.812	581.06
414.035	549.06
414.258	582.06
414.482	550.06
414.705	574.06
414.928	565.06
415.151	549.06
415.374	576.06
415.597	554.06
415.821	563.06
416.044	567.06
416.267	593.06
416.49	549.06
416.713	554.06
416.936	556.06
417.159	553.06
417.382	557.06
417.605	556.06
417.828	562.06
418.051	617.06
418.274	571.06
418.497	585.06
418.72	573.06
418.943	549.06
419.166	572.06
419.389	605.06
419.611	628.06
419.834	622.06
420.057	581.06
420.28	618.06
420.503	602.06
420.726	590.06
420.948	597.06
421.171	644.06
421.394	677.06
421.617	632.06
421.839	602.06
422.062	613.06
422.285	605.06
422.507	666.06
422.73	768.06
422.953	734.06
423.175	674.06
423.398	620.06
423.621	599.06
423.843	644.06
424.066	638.06
424.288	617.06
424.511	658.06
424.733	719.06
424.956	829.06
425.178	788.06
425.401	772.06
425.623	771.06
425.846	708.06
426.068	626.06
426.291	635.06
426.513	618.06
426.735	626.06
426.958	680.06
427.18	778.06
427.402	925.06
427.625	1022.06
427.847	885.06
428.069	782.06
428.292	681.06
428.514	638.06
428.736	614.06
428.958	595.06
429.181	582.06
429.403	582.06
429.625	591.06
429.847	641.06
430.069	702.06
430.292	696.06
430.514	624.06
430.736	601.06
430.958	584.06
431.18	586.06
431.402	542.06
431.624	542.06
431.846	550.06
432.068	566.06
432.29	568.06
432.512	569.06
432.734	574.06
432.956	576.06
433.178	563.06
433.4	583.06
433.622	576.06
433.844	571.06
434.066	555.06
434.287	557.06
434.509	564.06
434.731	586.06
434.953	571.06
435.175	614.06
435.397	625.06
435.618	648.06
435.84	670.06
436.062	797.06
436.284	871.06
436.505	730.06
436.727	651.06
436.949	618.06
437.17	598.06
437.392	597.06
437.614	594.06
437.835	646.06
438.057	753.06
438.278	896.06
438.5	873.06
438.721	913.06
438.943	903.06
439.165	717.06
439.386	668.06
439.608	659.06
439.829	645.06
440.05	676.06
440.272	728.06
440.493	678.06
440.715	634.06
440.936	608.06
441.158	610.06
441.379	602.06
441.6	603.06
441.822	617.06
442.043	670.06
442.264	779.06
442.486	817.06
442.707	708.06
442.928	662.06
443.149	651.06
443.371	684.06
443.592	734.06
443.813	846.06
444.034	911.06
444.255	740.06
444.476	674.06
444.698	661.06
444.919	654.06
445.14	728.06
445.361	671.06
445.582	705.06
445.803	772.06
446.024	882.06
446.245	881.06
446.466	797.06
446.687	681.06
446.908	644.06
447.129	615.06
447.35	572.06
447.571	554.06
447.792	572.06
448.013	589.06
448.234	601.06
448.455	666.06
448.675	800.06
448.896	935.06
449.117	750.06
449.338	717.06
449.559	851.06
449.779	975.06
450	757.06
450.221	646.06
450.442	608.06
450.662	558.06
450.883	579.06
451.104	608.06
451.324	578.06
451.545	548.06
451.766	543.06
451.986	512.06
452.207	540.06
452.428	504.06
452.648	539.06
452.869	532.06
453.089	542.06
453.31	563.06
453.53	536.06
453.751	544.06
453.971	518.06
454.192	519.06
454.412	529.06
454.633	516.06
454.853	521.06
455.073	515.06
455.294	552.06
455.514	635.06
455.734	634.06
455.955	536.06
456.175	519.06
456.395	502.06
456.616	491.06
456.836	475.06
457.056	505.06
457.276	477.06
457.497	482.06
457.717	491.06
457.937	513.06
458.157	500.06
458.377	503.06
458.598	541.06
458.818	587.06
459.038	662.06
459.258	700.06
459.478	600.06
459.698	556.06
459.918	560.06
460.138	541.06
460.358	548.06
460.578	573.06
460.798	585.06
461.018	588.06
461.238	592.06
461.458	571.06
461.678	565.06
461.898	567.06
462.118	572.06
462.338	583.06
462.558	595.06
462.777	578.06
462.997	616.06
463.217	645.06
463.437	656.06
463.657	628.06
463.876	606.06
464.096	634.06
464.316	632.06
464.536	617.06
464.755	607.06
464.975	617.06
465.195	614.06
465.414	710.06
465.634	636.06
465.854	597.06
466.073	584.06
466.293	556.06
466.512	556.06
466.732	551.06
466.951	531.06
467.171	528.06
467.391	552.06
467.61	548.06
467.829	564.06
468.049	549.06
468.268	569.06
468.488	522.06
468.707	527.06
468.927	532.06
469.146	504.06
469.365	542.06
469.585	540.06
469.804	538.06
470.023	551.06
470.243	564.06
470.462	560.06
470.681	568.06
470.901	554.06
471.12	550.06
471.339	529.06
471.558	558.06
471.777	545.06
471.997	555.06
472.216	564.06
472.435	600.06
472.654	597.06
472.873	557.06
473.092	569.06
473.311	548.06
473.53	546.06
473.749	540.06
473.968	620.06
474.187	713.06
474.406	739.06
474.625	611.06
474.844	549.06
475.063	568.06
475.282	551.06
475.501	550.06
475.72	564.06
475.939	563.06
476.158	568.06
476.377	583.06
476.596	550.06
476.814	626.06
477.033	572.06
477.252	576.06
477.471	596.06
477.69	578.06
477.908	609.06
478.127	594.06
478.346	606.06
478.564	614.06
478.783	616.06
479.002	633.06
479.22	628.06
479.439	655.06
479.658	643.06
479.876	668.06
480.095	678.06
480.313	663.06
480.532	685.06
480.751	690.06
480.969	679.06
481.188	745.06
481.406	801.06
481.624	736.06
481.843	688.06
482.061	651.06
482.28	652.06
482.498	655.06
482.717	663.06
482.935	655.06
483.153	650.06
483.372	633.06
483.59	653.06
483.808	640.06
484.027	646.06
484.245	642.06
484.463	649.06
484.681	665.06
484.9	665.06
485.118	672.06
485.336	663.06
485.554	677.06
485.772	660.06
485.99	676.06
486.209	692.06
486.427	665.06
486.645	698.06
486.863	709.06
487.081	701.06
487.299	716.06
487.517	725.06
487.735	706.06
487.953	682.06
488.171	689.06
488.389	708.06
488.607	700.06
488.825	694.06
489.043	705.06
489.261	709.06
489.479	702.06
489.696	689.06
489.914	724.06
490.132	707.06
490.35	724.06
490.568	704.06
490.786	744.06
491.003	748.06
491.221	781.06
491.439	783.06
491.657	790.06
491.874	794.06
492.092	804.06
492.31	792.06
492.527	809.06
492.745	819.06
492.963	793.06
493.18	816.06
493.398	811.06
493.615	832.06
493.833	822.06
494.05	818.06
494.268	816.06
494.485	837.06
494.703	845.06
494.92	841.06
495.138	833.06
495.355	805.06
495.573	827.06
495.79	801.06
496.008	820.06
496.225	843.06
496.442	808.06
496.66	842.06
496.877	826.06
497.094	860.06
497.312	852.06
497.529	854.06
497.746	866.06
497.963	898.06
498.181	898.06
498.398	908.06
498.615	920.06
498.832	929.06
499.049	957.06
499.267	986.06
499.484	989.06
499.701	1068.06
499.918	1112.06
500.135	1149.06
500.352	1217.06
500.569	1204.06
500.786	1204.06
501.003	1184.06
501.22	1173.06
501.437	1124.06
501.654	1113.06
501.871	1056.06
502.088	1022.06
502.305	974.06
502.522	952.06
502.739	929.06
502.956	930.06
503.172	901.06
503.389	893.06
503.606	885.06
503.823	866.06
504.04	864.06
504.256	833.06
504.473	832.06
504.69	818.06
504.907	854.06
505.123	840.06
505.34	832.06
505.557	790.06
505.773	815.06
505.99	802.06
506.207	790.06
506.423	818.06
506.64	746.06
506.856	748.06
507.073	769.06
507.289	774.06
507.506	756.06
507.722	766.06
507.939	768.06
508.155	776.06
508.372	724.06
508.588	742.06
508.805	744.06
509.021	718.06
509.238	740.06
509.454	761.06
509.67	770.06
509.887	721.06
510.103	758.06
510.319	741.06
510.536	820.06
510.752	1302.06
510.968	1080.06
511.184	773.06
511.401	724.06
511.617	736.06
511.833	693.06
512.049	708.06
512.265	714.06
512.481	699.06
512.698	723.06
512.914	709.06
513.13	708.06
513.346	712.06
513.562	698.06
513.778	713.06
513.994	692.06
514.21	708.06
514.426	753.06
514.642	765.06
514.858	792.06
515.074	832.06
515.29	961.06
515.506	1365.06
515.721	1147.06
515.937	829.06
516.153	779.06
516.369	762.06
516.585	734.06
516.801	727.06
517.016	732.06
517.232	713.06
517.448	735.06
517.664	746.06
517.879	744.06
518.095	749.06
518.311	724.06
518.527	735.06
518.742	732.06
518.958	687.06
519.173	704.06
519.389	698.06
519.605	689.06
519.82	700.06
520.036	713.06
520.251	729.06
520.467	782.06
520.682	748.06
520.898	749.06
521.113	767.06
521.329	794.06
521.544	890.06
521.76	1102.06
521.975	1720.06
522.19	1679.06
522.406	981.06
522.621	766.06
522.836	718.06
523.052	684.06
523.267	657.06
523.482	642.06
523.698	664.06
523.913	624.06
524.128	640.06
524.343	588.06
524.559	612.06
524.774	582.06
524.989	620.06
525.204	618.06
525.419	618.06
525.634	609.06
525.849	585.06
526.064	579.06
526.28	578.06
526.495	569.06
526.71	595.06
526.925	576.06
527.14	573.06
527.355	591.06
527.57	578.06
527.785	584.06
527.999	566.06
528.214	575.06
528.429	584.06
528.644	589.06
528.859	586.06
529.074	598.06
529.289	576.06
529.503	672.06
529.718	631.06
529.933	593.06
530.148	603.06
530.363	592.06
530.577	589.06
530.792	604.06
531.007	572.06
531.221	572.06
531.436	556.06
531.651	555.06
531.865	556.06
532.08	542.06
532.295	548.06
532.509	557.06
532.724	539.06
532.938	562.06
533.153	549.06
533.367	565.06
533.582	562.06
533.796	537.06
534.011	565.06
534.225	561.06
534.44	560.06
534.654	518.06
534.868	545.06
535.083	527.06
535.297	521.06
535.511	564.06
535.726	549.06
535.94	562.06
536.154	543.06
536.369	512.06
536.583	552.06
536.797	539.06
537.011	527.06
537.225	535.06
537.44	530.06
537.654	526.06
537.868	543.06
538.082	532.06
538.296	555.06
538.51	536.06
538.724	520.06
538.938	525.06
539.153	528.06
539.367	539.06
539.581	527.06
539.795	553.06
540.009	533.06
540.222	526.06
540.436	530.06
540.65	500.06
540.864	528.06
541.078	566.06
541.292	533.06
541.506	540.06
541.72	516.06
541.934	526.06
542.147	535.06
542.361	519.06
542.575	478.06
542.789	502.06
543.002	514.06
543.216	512.06
543.43	515.06
543.644	529.06
543.857	519.06
544.071	541.06
544.285	524.06
544.498	530.06
544.712	510.06
544.925	513.06
545.139	522.06
545.352	525.06
545.566	522.06
545.779	518.06
545.993	520.06
546.206	542.06
546.42	513.06
546.633	482.06
546.847	498.06
547.06	499.06
547.274	521.06
547.487	493.06
547.7	518.06
547.914	510.06
548.127	490.06
548.34	498.06
548.554	502.06
548.767	520.06
548.98	502.06
549.193	504.06
549.407	519.06
549.62	488.06
549.833	504.06
550.046	508.06
550.259	483.06
550.473	497.06
550.686	494.06
550.899	504.06
551.112	487.06
551.325	522.06
551.538	499.06
551.751	470.06
551.964	520.06
552.177	493.06
552.39	495.06
552.603	514.06
552.816	504.06
553.029	501.06
553.242	502.06
553.455	502.06
553.667	533.06
553.88	505.06
554.093	506.06
554.306	510.06
554.519	512.06
554.732	517.06
554.944	500.06
555.157	473.06
555.37	489.06
555.583	478.06
555.795	482.06
556.008	474.06
556.221	473.06
556.433	464.06
556.646	478.06
556.859	445.06
557.071	435.06
557.284	449.06
557.496	452.06
557.709	465.06
557.921	441.06
558.134	435.06
558.346	463.06
558.559	454.06
558.771	441.06
558.984	429.06
559.196	436.06
559.409	445.06
559.621	435.06
559.833	456.06
560.046	433.06
560.258	432.06
560.47	434.06
560.683	455.06
560.895	454.06
561.107	461.06
561.32	442.06
561.532	426.06
561.744	438.06
561.956	447.06
562.168	457.06
562.381	457.06
562.593	462.06
562.805	444.06
563.017	453.06
563.229	446.06
563.441	437.06
563.653	439.06
563.865	450.06
564.077	461.06
564.289	470.06
564.501	452.06
564.713	454.06
564.925	488.06
565.137	480.06
565.349	457.06
565.561	492.06
565.773	503.06
565.985	500.06
566.197	516.06
566.408	519.06
566.62	547.06
566.832	545.06
567.044	557.06
567.255	555.06
567.467	561.06
567.679	572.06
567.891	579.06
568.102	573.06
568.314	569.06
568.526	561.06
568.737	552.06
568.949	525.06
569.161	509.06
569.372	466.06
569.584	469.06
569.795	458.06
570.007	463.06
570.218	507.06
570.43	498.06
570.641	462.06
570.853	461.06
571.064	441.06
571.276	444.06
571.487	416.06
571.698	414.06
571.91	413.06
572.121	423.06
572.333	418.06
572.544	424.06
572.755	396.06
572.966	397.06
573.178	389.06
573.389	370.06
573.6	398.06
573.811	390.06
574.023	381.06
574.234	392.06
574.445	412.06
574.656	394.06
574.867	376.06
575.078	364.06
575.289	390.06
575.501	364.06
575.712	379.06
575.923	384.06
576.134	379.06
576.345	387.06
576.556	395.06
576.767	369.06
576.978	372.06
577.188	365.06
577.399	388.06
577.61	376.06
577.821	363.06
578.032	380.06
578.243	406.06
578.454	597.06
578.665	469.06
578.875	363.06
579.086	360.06
579.297	360.06
579.508	362.06
579.718	361.06
579.929	342.06
580.14	357.06
580.35	357.06
580.561	347.06
580.772	364.06
580.982	357.06
581.193	340.06
581.403	358.06
581.614	358.06
581.825	346.06
582.035	338.06
582.246	364.06
582.456	345.06
582.667	340.06
582.877	347.06
583.087	324.06
583.298	335.06
583.508	345.06
583.719	341.06
583.929	366.06
584.139	353.06
584.35	337.06
584.56	345.06
584.77	338.06
584.981	329.06
585.191	343.06
585.401	338.06
585.611	346.06
585.821	347.06
586.032	347.06
586.242	335.06
586.452	342.06
586.662	335.06
586.872	344.06
587.082	345.06
587.292	328.06
587.502	333.06
587.713	337.06
587.923	341.06
588.133	328.06
588.343	322.06
588.553	337.06
588.762	334.06
588.972	349.06
589.182	339.06
589.392	333.06
589.602	341.06
589.812	330.06
590.022	337.06
590.232	324.06
590.441	343.06
590.651	358.06
590.861	325.06
591.071	332.06
591.281	349.06
591.49	356.06
591.7	341.06
591.91	336.06
592.119	337.06
592.329	360.06
592.539	350.06
592.748	360.06
592.958	347.06
593.167	368.06
593.377	362.06
593.587	384.06
593.796	373.06
594.006	361.06
594.215	372.06
594.424	359.06
594.634	356.06
594.843	364.06
595.053	343.06
595.262	353.06
595.472	345.06
595.681	325.06
595.89	330.06
596.1	319.06
596.309	326.06
596.518	312.06
596.727	309.06
596.937	311.06
597.146	329.06
597.355	329.06
597.564	314.06
597.774	329.06
597.983	309.06
598.192	316.06
598.401	313.06
598.61	297.06
598.819	283.06
599.028	306.06
599.237	299.06
599.446	311.06
599.655	322.06
599.864	286.06
600.073	313.06
600.282	288.06
600.491	291.06
600.7	297.06
600.909	277.06
601.118	288.06
601.327	284.06
601.536	285.06
601.745	310.06
601.953	293.06
602.162	293.06
602.371	299.06
602.58	289.06
602.789	286.06
602.997	295.06
603.206	280.06
603.415	289.06
603.623	293.06
603.832	273.06
604.041	299.06
604.249	293.06
604.458	290.06
604.666	274.06
604.875	267.06
605.084	277.06
605.292	275.06
605.501	258.06
605.709	265.06
605.918	275.06
606.126	267.06
606.334	267.06
606.543	273.06
606.751	279.06
606.96	293.06
607.168	276.06
607.376	271.06
607.585	276.06
607.793	281.06
608.001	275.06
608.21	270.06
608.418	264.06
608.626	274.06
608.834	269.06
609.043	278.06
609.251	270.06
609.459	261.06
609.667	272.06
609.875	250.06
610.083	281.06
610.291	266.06
610.499	277.06
610.707	277.06
610.916	277.06
611.124	285.06
611.332	288.06
611.54	276.06
611.748	268.06
611.955	263.06
612.163	261.06
612.371	271.06
612.579	254.06
612.787	260.06
612.995	261.06
613.203	248.06
613.411	274.06
613.618	260.06
613.826	262.06
614.034	249.06
614.242	253.06
614.449	263.06
614.657	253.06
614.865	284.06
615.072	262.06
615.28	271.06
615.488	247.06
615.695	271.06
615.903	253.06
616.111	284.06
616.318	276.06
616.526	276.06
616.733	256.06
616.941	262.06
617.148	268.06
617.356	260.06
617.563	265.06
617.771	265.06
617.978	271.06
618.185	260.06
618.393	253.06
618.6	266.06
618.807	252.06
619.015	278.06
619.222	258.06
619.429	262.06
619.637	250.06
619.844	251.06
620.051	246.06
620.258	247.06
620.466	261.06
620.673	258.06
620.88	224.06
621.087	265.06
621.294	254.06
621.501	254.06
621.708	259.06
621.915	227.06
622.122	245.06
622.329	253.06
622.536	227.06
622.743	264.06
622.95	244.06
623.157	242.06
623.364	236.06
623.571	249.06
623.778	244.06
623.985	224.06
624.192	221.06
624.399	224.06
624.606	237.06
624.812	235.06
625.019	231.06
625.226	246.06
625.433	244.06
625.639	220.06
625.846	223.06
626.053	241.06
626.259	244.06
626.466	224.06
626.673	236.06
626.879	221.06
627.086	246.06
627.293	228.06
627.499	218.06
627.706	225.06
627.912	209.06
628.119	233.06
628.325	228.06
628.532	231.06
628.738	230.06
628.945	233.06
629.151	225.06
629.357	222.06
629.564	213.06
629.77	222.06
629.976	202.06
630.183	206.06
630.389	217.06
630.595	212.06
630.802	228.06
631.008	214.06
631.214	212.06
631.42	211.06
631.627	220.06
631.833	226.06
632.039	210.06
632.245	217.06
632.451	204.06
632.657	211.06
632.863	208.06
633.069	197.06
633.275	198.06
633.481	209.06
633.688	205.06
633.893	206.06
634.099	202.06
634.305	219.06
634.511	196.06
634.717	201.06
634.923	202.06
635.129	198.06
635.335	205.06
635.541	208.06
635.747	200.06
635.952	197.06
636.158	201.06
636.364	190.06
636.57	199.06
636.775	226.06
636.981	196.06
637.187	204.06
637.392	199.06
637.598	194.06
637.804	199.06
638.009	218.06
638.215	206.06
638.421	196.06
638.626	192.06
638.832	207.06
639.037	185.06
639.243	198.06
639.448	197.06
639.654	193.06
639.859	210.06
640.065	197.06
640.27	192.06
640.475	182.06
640.681	190.06
640.886	181.06
641.091	196.06
641.297	207.06
641.502	202.06
641.707	186.06
641.913	192.06
642.118	177.06
642.323	184.06
642.528	185.06
642.733	172.06
642.939	186.06
643.144	182.06
643.349	171.06
643.554	183.06
643.759	172.06
643.964	182.06
644.169	187.06
644.374	174.06
644.579	166.06
644.784	193.06
644.989	184.06
645.194	176.06
645.399	188.06
645.604	186.06
645.809	173.06
646.014	190.06
646.219	188.06
646.423	185.06
646.628	180.06
646.833	178.06
647.038	179.06
647.243	182.06
647.447	184.06
647.652	189.06
647.857	174.06
648.062	190.06
648.266	164.06
648.471	196.06
648.676	185.06
648.88	186.06
649.085	196.06
649.289	199.06
649.494	183.06
649.698	216.06
649.903	197.06
650.107	180.06
650.312	174.06
650.516	186.06
650.721	176.06
650.925	160.06
651.13	184.06
651.334	155.06
651.539	156.06
651.743	158.06
651.947	146.06
652.152	161.06
652.356	149.06
652.56	143.06
652.764	156.06
652.969	149.06
653.173	164.06
653.377	139.06
653.581	140.06
653.785	150.06
653.99	148.06
654.194	142.06
654.398	140.06
654.602	159.06
654.806	141.06
655.01	152.06
655.214	151.06
655.418	155.06
655.622	152.06
655.826	139.06
656.03	136.06
656.234	146.06
656.438	140.06
656.642	138.06
656.846	126.06
657.049	145.06
657.253	129.06
657.457	135.06
657.661	123.06
657.865	128.06
658.068	128.06
658.272	119.06
658.476	115.06
658.68	107.06
658.883	102.06
659.087	111.06
659.291	103.06
659.494	99.06
659.698	90.06
659.901	94.06
660.105	91.06
660.309	97.06
660.512	97.06
660.716	94.06
660.919	85.06
661.123	97.06
661.326	75.06
661.53	92.06
661.733	105.06
661.936	88.06
662.14	91.06
662.343	88.06
662.546	94.06
662.75	95.06
662.953	78.06
663.156	86.06
663.36	78.06
663.563	79.06
663.766	84.06
663.969	87.06
664.173	95.06
664.376	80.06
664.579	74.06
664.782	64.06
664.985	91.06
665.188	86.06
665.391	84.06
665.594	88.06
665.797	89.06
666	90.06
666.203	87.06
666.406	77.06
666.609	87.06
666.812	85.06
667.015	86.06
667.218	95.06
667.421	86.06
667.624	89.06
667.827	93.06
668.03	74.06
668.232	74.06
668.435	85.06
668.638	82.06
668.841	88.06
669.043	73.06
669.246	79.06
669.449	76.06
669.651	91.06
669.854	80.06
670.057	97.06
670.259	75.06
670.462	85.06
670.665	89.06
670.867	105.06
671.07	93.06
671.272	94.06
671.475	93.06
671.677	87.06
671.88	86.06
672.082	82.06
672.284	78.06
672.487	78.06
672.689	78.06
672.892	73.06
