Data from 1966.PennyLincolnUp.Lamp.En5.5.200Scan.071719.P1.Scan2.head_HRD10591_14-18-07-163.txt Node
Date: Thu Jul 18 14:18:07 EDT 2019
User: cochatt
Spectrometer: HR+D1059
Trigger mode: 1
Integration Time (sec): 1.000000E-1
Scans to average: 1
Electric dark correction enabled: true
Nonlinearity correction enabled: false
Boxcar width: 0
XAxis mode: Wavelengths
Number of Pixels in Spectrum: 2048
>>>>>Begin Spectral Data<<<<<
223.165	8.75
223.4	8.75
223.635	8.75
223.869	-5.25
224.104	-19.25
224.338	-10.25
224.573	-17.25
224.808	-16.25
225.042	-8.25
225.277	-7.25
225.511	-14.25
225.746	3.75
225.98	3.75
226.215	0.75
226.449	15.75
226.683	10.75
226.918	28.75
227.152	25.75
227.387	48.75
227.621	29.75
227.856	29.75
228.09	45.75
228.324	47.75
228.559	49.75
228.793	66.75
229.027	90.75
229.262	110.75
229.496	134.75
229.73	112.75
229.964	146.75
230.199	137.75
230.433	119.75
230.667	116.75
230.901	112.75
231.136	98.75
231.37	93.75
231.604	111.75
231.838	123.75
232.072	110.75
232.306	109.75
232.541	87.75
232.775	119.75
233.009	100.75
233.243	104.75
233.477	114.75
233.711	116.75
233.945	101.75
234.179	115.75
234.413	122.75
234.647	120.75
234.881	115.75
235.115	129.75
235.349	132.75
235.583	131.75
235.817	125.75
236.051	133.75
236.285	127.75
236.519	115.75
236.753	129.75
236.987	143.75
237.221	185.75
237.455	235.75
237.689	175.75
237.922	128.75
238.156	129.75
238.39	130.75
238.624	126.75
238.858	126.75
239.091	130.75
239.325	134.75
239.559	127.75
239.793	131.75
240.027	128.75
240.26	144.75
240.494	160.75
240.728	145.75
240.961	152.75
241.195	130.75
241.429	134.75
241.662	127.75
241.896	125.75
242.13	126.75
242.363	143.75
242.597	130.75
242.83	125.75
243.064	142.75
243.298	134.75
243.531	127.75
243.765	139.75
243.998	142.75
244.232	151.75
244.465	147.75
244.699	154.75
244.932	155.75
245.166	152.75
245.399	144.75
245.633	156.75
245.866	155.75
246.099	133.75
246.333	147.75
246.566	142.75
246.8	140.75
247.033	153.75
247.266	170.75
247.5	160.75
247.733	183.75
247.966	188.75
248.2	170.75
248.433	168.75
248.666	181.75
248.899	182.75
249.133	197.75
249.366	214.75
249.599	192.75
249.832	181.75
250.066	180.75
250.299	203.75
250.532	192.75
250.765	217.75
250.998	235.75
251.231	223.75
251.465	203.75
251.698	203.75
251.931	196.75
252.164	199.75
252.397	207.75
252.63	187.75
252.863	204.75
253.096	216.75
253.329	236.75
253.562	230.75
253.795	225.75
254.028	211.75
254.261	204.75
254.494	210.75
254.727	254.75
254.96	266.75
255.193	266.75
255.426	234.75
255.659	219.75
255.892	243.75
256.124	247.75
256.357	239.75
256.59	236.75
256.823	213.75
257.056	208.75
257.289	214.75
257.521	233.75
257.754	197.75
257.987	206.75
258.22	209.75
258.452	211.75
258.685	198.75
258.918	204.75
259.151	202.75
259.383	191.75
259.616	218.75
259.849	212.75
260.081	244.75
260.314	269.75
260.547	255.75
260.779	230.75
261.012	229.75
261.244	213.75
261.477	215.75
261.71	223.75
261.942	231.75
262.175	230.75
262.407	247.75
262.64	211.75
262.872	206.75
263.105	220.75
263.337	218.75
263.57	218.75
263.802	223.75
264.035	214.75
264.267	204.75
264.499	205.75
264.732	196.75
264.964	203.75
265.197	223.75
265.429	223.75
265.661	207.75
265.894	219.75
266.126	219.75
266.358	218.75
266.591	209.75
266.823	209.75
267.055	229.75
267.287	239.75
267.52	219.75
267.752	220.75
267.984	228.75
268.216	222.75
268.448	237.75
268.681	243.75
268.913	240.75
269.145	255.75
269.377	280.75
269.609	269.75
269.841	257.75
270.073	269.75
270.306	267.75
270.538	319.75
270.77	313.75
271.002	293.75
271.234	274.75
271.466	310.75
271.698	300.75
271.93	317.75
272.162	320.75
272.394	335.75
272.626	304.75
272.858	282.75
273.09	252.75
273.322	252.75
273.553	270.75
273.785	253.75
274.017	267.75
274.249	262.75
274.481	265.75
274.713	249.75
274.945	269.75
275.176	271.75
275.408	288.75
275.64	275.75
275.872	244.75
276.104	276.75
276.335	257.75
276.567	278.75
276.799	272.75
277.031	306.75
277.262	300.75
277.494	313.75
277.726	294.75
277.957	273.75
278.189	284.75
278.421	286.75
278.652	267.75
278.884	264.75
279.115	275.75
279.347	253.75
279.579	274.75
279.81	262.75
280.042	269.75
280.273	265.75
280.505	259.75
280.736	247.75
280.968	281.75
281.199	265.75
281.431	266.75
281.662	286.75
281.894	280.75
282.125	278.75
282.356	268.75
282.588	296.75
282.819	307.75
283.051	273.75
283.282	278.75
283.513	263.75
283.745	272.75
283.976	295.75
284.207	283.75
284.439	270.75
284.67	284.75
284.901	272.75
285.132	263.75
285.364	269.75
285.595	290.75
285.826	270.75
286.057	276.75
286.288	280.75
286.52	292.75
286.751	276.75
286.982	294.75
287.213	271.75
287.444	262.75
287.675	291.75
287.906	309.75
288.138	300.75
288.369	288.75
288.6	294.75
288.831	288.75
289.062	296.75
289.293	272.75
289.524	315.75
289.755	301.75
289.986	285.75
290.217	287.75
290.448	272.75
290.679	274.75
290.91	281.75
291.141	297.75
291.371	287.75
291.602	298.75
291.833	293.75
292.064	286.75
292.295	308.75
292.526	286.75
292.757	288.75
292.987	308.75
293.218	303.75
293.449	274.75
293.68	280.75
293.91	285.75
294.141	294.75
294.372	294.75
294.603	289.75
294.833	283.75
295.064	294.75
295.295	296.75
295.525	293.75
295.756	293.75
295.987	318.75
296.217	311.75
296.448	325.75
296.679	306.75
296.909	296.75
297.14	310.75
297.37	295.75
297.601	306.75
297.831	311.75
298.062	304.75
298.292	306.75
298.523	289.75
298.753	317.75
298.984	299.75
299.214	310.75
299.445	310.75
299.675	287.75
299.905	314.75
300.136	322.75
300.366	310.75
300.597	320.75
300.827	329.75
301.057	322.75
301.288	334.75
301.518	310.75
301.748	315.75
301.979	320.75
302.209	325.75
302.439	327.75
302.669	341.75
302.9	323.75
303.13	322.75
303.36	332.75
303.59	342.75
303.82	341.75
304.051	327.75
304.281	328.75
304.511	341.75
304.741	341.75
304.971	328.75
305.201	326.75
305.431	330.75
305.661	337.75
305.891	323.75
306.121	324.75
306.352	332.75
306.582	345.75
306.812	336.75
307.042	334.75
307.272	334.75
307.502	323.75
307.731	323.75
307.961	340.75
308.191	339.75
308.421	327.75
308.651	343.75
308.881	333.75
309.111	332.75
309.341	347.75
309.571	361.75
309.8	364.75
310.03	359.75
310.26	364.75
310.49	349.75
310.72	380.75
310.949	391.75
311.179	382.75
311.409	360.75
311.639	378.75
311.868	384.75
312.098	365.75
312.328	374.75
312.557	375.75
312.787	388.75
313.017	395.75
313.246	396.75
313.476	382.75
313.706	380.75
313.935	371.75
314.165	393.75
314.394	390.75
314.624	379.75
314.853	394.75
315.083	388.75
315.312	388.75
315.542	386.75
315.771	366.75
316.001	378.75
316.23	367.75
316.46	374.75
316.689	386.75
316.919	380.75
317.148	390.75
317.377	387.75
317.607	377.75
317.836	376.75
318.065	375.75
318.295	399.75
318.524	375.75
318.753	379.75
318.983	389.75
319.212	383.75
319.441	388.75
319.67	390.75
319.9	381.75
320.129	386.75
320.358	372.75
320.587	385.75
320.816	403.75
321.046	401.75
321.275	400.75
321.504	404.75
321.733	390.75
321.962	398.75
322.191	409.75
322.42	400.75
322.649	435.75
322.878	437.75
323.108	456.75
323.337	459.75
323.566	503.75
323.795	516.75
324.024	552.75
324.253	662.75
324.482	920.75
324.71	1411.75
324.939	2135.75
325.168	1816.75
325.397	894.75
325.626	628.75
325.855	520.75
326.084	507.75
326.313	486.75
326.542	473.75
326.77	525.75
326.999	610.75
327.228	836.75
327.457	1252.75
327.686	1592.75
327.914	1038.75
328.143	666.75
328.372	617.75
328.6	564.75
328.829	528.75
329.058	573.75
329.287	553.75
329.515	518.75
329.744	513.75
329.972	498.75
330.201	517.75
330.43	560.75
330.658	596.75
330.887	598.75
331.115	589.75
331.344	515.75
331.572	487.75
331.801	475.75
332.03	494.75
332.258	454.75
332.486	455.75
332.715	454.75
332.943	456.75
333.172	452.75
333.4	467.75
333.629	492.75
333.857	477.75
334.085	485.75
334.314	512.75
334.542	541.75
334.771	552.75
334.999	501.75
335.227	482.75
335.455	444.75
335.684	442.75
335.912	465.75
336.14	432.75
336.369	444.75
336.597	462.75
336.825	463.75
337.053	452.75
337.281	435.75
337.51	428.75
337.738	445.75
337.966	464.75
338.194	428.75
338.422	444.75
338.65	438.75
338.878	446.75
339.106	455.75
339.334	440.75
339.562	446.75
339.79	454.75
340.018	427.75
340.246	444.75
340.474	442.75
340.702	443.75
340.93	439.75
341.158	445.75
341.386	416.75
341.614	442.75
341.842	437.75
342.07	448.75
342.298	446.75
342.526	441.75
342.754	411.75
342.981	430.75
343.209	421.75
343.437	434.75
343.665	436.75
343.893	452.75
344.12	452.75
344.348	446.75
344.576	463.75
344.804	469.75
345.031	456.75
345.259	447.75
345.487	457.75
345.714	456.75
345.942	445.75
346.17	431.75
346.397	438.75
346.625	431.75
346.853	436.75
347.08	418.75
347.308	430.75
347.535	445.75
347.763	438.75
347.99	433.75
348.218	428.75
348.445	438.75
348.673	451.75
348.9	426.75
349.128	431.75
349.355	396.75
349.583	402.75
349.81	414.75
350.037	405.75
350.265	396.75
350.492	406.75
350.72	436.75
350.947	420.75
351.174	432.75
351.402	428.75
351.629	438.75
351.856	432.75
352.083	432.75
352.311	431.75
352.538	439.75
352.765	438.75
352.992	447.75
353.22	431.75
353.447	412.75
353.674	414.75
353.901	413.75
354.128	414.75
354.355	403.75
354.583	414.75
354.81	425.75
355.037	416.75
355.264	400.75
355.491	410.75
355.718	407.75
355.945	384.75
356.172	411.75
356.399	388.75
356.626	407.75
356.853	410.75
357.08	394.75
357.307	409.75
357.534	380.75
357.761	388.75
357.988	414.75
358.215	412.75
358.441	398.75
358.668	393.75
358.895	420.75
359.122	418.75
359.349	415.75
359.576	422.75
359.802	452.75
360.029	471.75
360.256	487.75
360.483	464.75
360.709	452.75
360.936	431.75
361.163	428.75
361.39	437.75
361.616	438.75
361.843	426.75
362.07	415.75
362.296	420.75
362.523	449.75
362.749	438.75
362.976	435.75
363.203	416.75
363.429	402.75
363.656	404.75
363.882	428.75
364.109	419.75
364.335	410.75
364.562	429.75
364.788	393.75
365.015	407.75
365.241	418.75
365.468	434.75
365.694	443.75
365.92	424.75
366.147	440.75
366.373	419.75
366.599	398.75
366.826	415.75
367.052	408.75
367.278	424.75
367.505	424.75
367.731	421.75
367.957	421.75
368.184	422.75
368.41	422.75
368.636	436.75
368.862	451.75
369.089	411.75
369.315	441.75
369.541	423.75
369.767	423.75
369.993	403.75
370.219	429.75
370.445	436.75
370.672	411.75
370.898	426.75
371.124	414.75
371.35	415.75
371.576	421.75
371.802	428.75
372.028	414.75
372.254	432.75
372.48	444.75
372.706	427.75
372.932	423.75
373.158	427.75
373.384	436.75
373.61	411.75
373.835	419.75
374.061	418.75
374.287	438.75
374.513	412.75
374.739	442.75
374.965	429.75
375.191	430.75
375.416	438.75
375.642	435.75
375.868	431.75
376.094	429.75
376.319	411.75
376.545	420.75
376.771	414.75
376.997	392.75
377.222	441.75
377.448	425.75
377.674	427.75
377.899	407.75
378.125	426.75
378.35	424.75
378.576	434.75
378.802	435.75
379.027	413.75
379.253	406.75
379.478	420.75
379.704	416.75
379.929	414.75
380.155	415.75
380.38	429.75
380.606	448.75
380.831	415.75
381.057	427.75
381.282	415.75
381.507	431.75
381.733	443.75
381.958	431.75
382.184	442.75
382.409	448.75
382.634	454.75
382.86	438.75
383.085	428.75
383.31	430.75
383.535	456.75
383.761	458.75
383.986	446.75
384.211	451.75
384.436	451.75
384.662	452.75
384.887	467.75
385.112	450.75
385.337	474.75
385.562	464.75
385.787	454.75
386.013	467.75
386.238	460.75
386.463	475.75
386.688	478.75
386.913	475.75
387.138	463.75
387.363	476.75
387.588	471.75
387.813	456.75
388.038	446.75
388.263	489.75
388.488	458.75
388.713	458.75
388.938	467.75
389.163	477.75
389.387	498.75
389.612	479.75
389.837	492.75
390.062	486.75
390.287	475.75
390.512	486.75
390.736	471.75
390.961	468.75
391.186	484.75
391.411	487.75
391.636	492.75
391.86	482.75
392.085	454.75
392.31	493.75
392.534	503.75
392.759	509.75
392.984	487.75
393.208	484.75
393.433	489.75
393.658	473.75
393.882	469.75
394.107	496.75
394.331	476.75
394.556	478.75
394.78	464.75
395.005	474.75
395.229	474.75
395.454	491.75
395.678	478.75
395.903	512.75
396.127	521.75
396.352	504.75
396.576	476.75
396.801	484.75
397.025	527.75
397.249	496.75
397.474	514.75
397.698	510.75
397.922	520.75
398.147	564.75
398.371	542.75
398.595	522.75
398.82	542.75
399.044	535.75
399.268	583.75
399.492	618.75
399.717	629.75
399.941	636.75
400.165	699.75
400.389	681.75
400.613	650.75
400.837	589.75
401.062	567.75
401.286	576.75
401.51	546.75
401.734	558.75
401.958	543.75
402.182	550.75
402.406	566.75
402.63	572.75
402.854	596.75
403.078	561.75
403.302	551.75
403.526	579.75
403.75	576.75
403.974	576.75
404.198	582.75
404.422	584.75
404.645	598.75
404.869	586.75
405.093	617.75
405.317	659.75
405.541	688.75
405.765	629.75
405.988	614.75
406.212	616.75
406.436	628.75
406.66	660.75
406.883	639.75
407.107	629.75
407.331	677.75
407.555	773.75
407.778	754.75
408.002	674.75
408.226	644.75
408.449	649.75
408.673	634.75
408.896	648.75
409.12	683.75
409.344	656.75
409.567	596.75
409.791	596.75
410.014	571.75
410.238	566.75
410.461	587.75
410.685	597.75
410.908	614.75
411.132	627.75
411.355	676.75
411.578	616.75
411.802	578.75
412.025	583.75
412.249	589.75
412.472	606.75
412.695	662.75
412.919	645.75
413.142	580.75
413.365	564.75
413.589	580.75
413.812	537.75
414.035	554.75
414.258	552.75
414.482	555.75
414.705	557.75
414.928	537.75
415.151	550.75
415.374	556.75
415.597	531.75
415.821	542.75
416.044	529.75
416.267	539.75
416.49	553.75
416.713	553.75
416.936	538.75
417.159	552.75
417.382	540.75
417.605	554.75
417.828	553.75
418.051	552.75
418.274	566.75
418.497	559.75
418.72	530.75
418.943	547.75
419.166	555.75
419.389	588.75
419.611	595.75
419.834	581.75
420.057	595.75
420.28	578.75
420.503	569.75
420.726	575.75
420.948	588.75
421.171	611.75
421.394	657.75
421.617	591.75
421.839	568.75
422.062	568.75
422.285	574.75
422.507	646.75
422.73	708.75
422.953	699.75
423.175	611.75
423.398	591.75
423.621	578.75
423.843	614.75
424.066	598.75
424.288	597.75
424.511	630.75
424.733	701.75
424.956	797.75
425.178	724.75
425.401	740.75
425.623	735.75
425.846	650.75
426.068	618.75
426.291	606.75
426.513	596.75
426.735	606.75
426.958	644.75
427.18	766.75
427.402	883.75
427.625	984.75
427.847	840.75
428.069	743.75
428.292	637.75
428.514	630.75
428.736	578.75
428.958	572.75
429.181	547.75
429.403	566.75
429.625	578.75
429.847	598.75
430.069	694.75
430.292	664.75
430.514	572.75
430.736	602.75
430.958	558.75
431.18	523.75
431.402	535.75
431.624	523.75
431.846	544.75
432.068	535.75
432.29	532.75
432.512	543.75
432.734	543.75
432.956	535.75
433.178	536.75
433.4	543.75
433.622	561.75
433.844	564.75
434.066	557.75
434.287	541.75
434.509	546.75
434.731	540.75
434.953	565.75
435.175	570.75
435.397	590.75
435.618	594.75
435.84	639.75
436.062	767.75
436.284	830.75
436.505	672.75
436.727	608.75
436.949	571.75
437.17	567.75
437.392	555.75
437.614	586.75
437.835	589.75
438.057	709.75
438.278	849.75
438.5	818.75
438.721	898.75
438.943	875.75
439.165	679.75
439.386	650.75
439.608	630.75
439.829	607.75
440.05	615.75
440.272	668.75
440.493	648.75
440.715	595.75
440.936	582.75
441.158	586.75
441.379	578.75
441.6	589.75
441.822	617.75
442.043	661.75
442.264	746.75
442.486	766.75
442.707	650.75
442.928	613.75
443.149	627.75
443.371	648.75
443.592	683.75
443.813	782.75
444.034	857.75
444.255	708.75
444.476	657.75
444.698	621.75
444.919	609.75
445.14	755.75
445.361	680.75
445.582	636.75
445.803	706.75
446.024	810.75
446.245	858.75
446.466	758.75
446.687	650.75
446.908	607.75
447.129	580.75
447.35	576.75
447.571	566.75
447.792	564.75
448.013	552.75
448.234	574.75
448.455	614.75
448.675	767.75
448.896	899.75
449.117	754.75
449.338	688.75
449.559	798.75
449.779	926.75
450	725.75
450.221	603.75
450.442	573.75
450.662	569.75
450.883	557.75
451.104	567.75
451.324	558.75
451.545	535.75
451.766	521.75
451.986	502.75
452.207	489.75
452.428	481.75
452.648	502.75
452.869	500.75
453.089	510.75
453.31	537.75
453.53	519.75
453.751	499.75
453.971	491.75
454.192	522.75
454.412	519.75
454.633	481.75
454.853	501.75
455.073	474.75
455.294	534.75
455.514	612.75
455.734	575.75
455.955	490.75
456.175	471.75
456.395	484.75
456.616	473.75
456.836	481.75
457.056	459.75
457.276	466.75
457.497	468.75
457.717	482.75
457.937	464.75
458.157	483.75
458.377	488.75
458.598	504.75
458.818	558.75
459.038	651.75
459.258	687.75
459.478	567.75
459.698	534.75
459.918	546.75
460.138	542.75
460.358	534.75
460.578	538.75
460.798	546.75
461.018	555.75
461.238	551.75
461.458	540.75
461.678	536.75
461.898	568.75
462.118	545.75
462.338	554.75
462.558	576.75
462.777	607.75
462.997	615.75
463.217	615.75
463.437	612.75
463.657	609.75
463.876	570.75
464.096	607.75
464.316	594.75
464.536	603.75
464.755	603.75
464.975	583.75
465.195	629.75
465.414	702.75
465.634	605.75
465.854	580.75
466.073	553.75
466.293	534.75
466.512	536.75
466.732	531.75
466.951	525.75
467.171	518.75
467.391	522.75
467.61	515.75
467.829	544.75
468.049	507.75
468.268	526.75
468.488	537.75
468.707	493.75
468.927	487.75
469.146	500.75
469.365	523.75
469.585	506.75
469.804	532.75
470.023	529.75
470.243	522.75
470.462	541.75
470.681	533.75
470.901	545.75
471.12	536.75
471.339	524.75
471.558	551.75
471.777	538.75
471.997	513.75
472.216	532.75
472.435	566.75
472.654	525.75
472.873	539.75
473.092	526.75
473.311	558.75
473.53	522.75
473.749	529.75
473.968	589.75
474.187	696.75
474.406	716.75
474.625	614.75
474.844	548.75
475.063	517.75
475.282	540.75
475.501	534.75
475.72	538.75
475.939	563.75
476.158	534.75
476.377	538.75
476.596	545.75
476.814	553.75
477.033	545.75
477.252	576.75
477.471	566.75
477.69	585.75
477.908	591.75
478.127	593.75
478.346	572.75
478.564	609.75
478.783	571.75
479.002	591.75
479.22	617.75
479.439	605.75
479.658	625.75
479.876	639.75
480.095	645.75
480.313	661.75
480.532	655.75
480.751	644.75
480.969	662.75
481.188	706.75
481.406	735.75
481.624	668.75
481.843	662.75
482.061	634.75
482.28	608.75
482.498	630.75
482.717	631.75
482.935	640.75
483.153	645.75
483.372	607.75
483.59	622.75
483.808	622.75
484.027	624.75
484.245	611.75
484.463	618.75
484.681	628.75
484.9	648.75
485.118	631.75
485.336	634.75
485.554	645.75
485.772	650.75
485.99	649.75
486.209	644.75
486.427	647.75
486.645	672.75
486.863	665.75
487.081	694.75
487.299	663.75
487.517	666.75
487.735	671.75
487.953	662.75
488.171	667.75
488.389	667.75
488.607	671.75
488.825	670.75
489.043	666.75
489.261	659.75
489.479	684.75
489.696	680.75
489.914	667.75
490.132	694.75
490.35	704.75
490.568	700.75
490.786	702.75
491.003	717.75
491.221	746.75
491.439	739.75
491.657	751.75
491.874	771.75
492.092	754.75
492.31	746.75
492.527	754.75
492.745	772.75
492.963	775.75
493.18	775.75
493.398	791.75
493.615	802.75
493.833	790.75
494.05	785.75
494.268	783.75
494.485	764.75
494.703	787.75
494.92	779.75
495.138	785.75
495.355	802.75
495.573	772.75
495.79	830.75
496.008	820.75
496.225	793.75
496.442	782.75
496.66	798.75
496.877	797.75
497.094	810.75
497.312	807.75
497.529	803.75
497.746	830.75
497.963	828.75
498.181	882.75
498.398	877.75
498.615	896.75
498.832	864.75
499.049	898.75
499.267	943.75
499.484	1010.75
499.701	1003.75
499.918	1015.75
500.135	1096.75
500.352	1122.75
500.569	1168.75
500.786	1169.75
501.003	1111.75
501.22	1100.75
501.437	1061.75
501.654	1014.75
501.871	1011.75
502.088	994.75
502.305	941.75
502.522	903.75
502.739	891.75
502.956	868.75
503.172	846.75
503.389	815.75
503.606	813.75
503.823	849.75
504.04	796.75
504.256	798.75
504.473	803.75
504.69	798.75
504.907	814.75
505.123	766.75
505.34	778.75
505.557	775.75
505.773	783.75
505.99	764.75
506.207	755.75
506.423	744.75
506.64	752.75
506.856	735.75
507.073	735.75
507.289	734.75
507.506	728.75
507.722	724.75
507.939	727.75
508.155	718.75
508.372	717.75
508.588	692.75
508.805	712.75
509.021	695.75
509.238	733.75
509.454	725.75
509.67	721.75
509.887	694.75
510.103	676.75
510.319	700.75
510.536	772.75
510.752	1210.75
510.968	1021.75
511.184	728.75
511.401	667.75
511.617	675.75
511.833	666.75
512.049	664.75
512.265	682.75
512.481	678.75
512.698	655.75
512.914	685.75
513.13	672.75
513.346	670.75
513.562	644.75
513.778	679.75
513.994	679.75
514.21	675.75
514.426	679.75
514.642	722.75
514.858	760.75
515.074	793.75
515.29	894.75
515.506	1267.75
515.721	1090.75
515.937	804.75
516.153	730.75
516.369	694.75
516.585	719.75
516.801	683.75
517.016	700.75
517.232	703.75
517.448	704.75
517.664	705.75
517.879	694.75
518.095	707.75
518.311	694.75
518.527	692.75
518.742	681.75
518.958	694.75
519.173	674.75
519.389	672.75
519.605	673.75
519.82	676.75
520.036	676.75
520.251	696.75
520.467	729.75
520.682	707.75
520.898	700.75
521.113	720.75
521.329	777.75
521.544	845.75
521.76	1006.75
521.975	1573.75
522.19	1568.75
522.406	958.75
522.621	748.75
522.836	674.75
523.052	660.75
523.267	649.75
523.482	615.75
523.698	618.75
523.913	602.75
524.128	619.75
524.343	599.75
524.559	604.75
524.774	569.75
524.989	582.75
525.204	575.75
525.419	575.75
525.634	570.75
525.849	559.75
526.064	581.75
526.28	595.75
526.495	550.75
526.71	554.75
526.925	559.75
527.14	556.75
527.355	559.75
527.57	561.75
527.785	569.75
527.999	556.75
528.214	554.75
528.429	547.75
528.644	548.75
528.859	563.75
529.074	562.75
529.289	564.75
529.503	637.75
529.718	623.75
529.933	580.75
530.148	564.75
530.363	543.75
530.577	536.75
530.792	543.75
531.007	551.75
531.221	541.75
531.436	564.75
531.651	548.75
531.865	543.75
532.08	562.75
532.295	524.75
532.509	529.75
532.724	553.75
532.938	536.75
533.153	538.75
533.367	500.75
533.582	525.75
533.796	546.75
534.011	527.75
534.225	529.75
534.44	549.75
534.654	517.75
534.868	534.75
535.083	515.75
535.297	512.75
535.511	518.75
535.726	541.75
535.94	547.75
536.154	536.75
536.369	506.75
536.583	526.75
536.797	527.75
537.011	528.75
537.225	511.75
537.44	507.75
537.654	505.75
537.868	503.75
538.082	503.75
538.296	523.75
538.51	519.75
538.724	508.75
538.938	516.75
539.153	489.75
539.367	519.75
539.581	520.75
539.795	520.75
540.009	502.75
540.222	510.75
540.436	516.75
540.65	521.75
540.864	512.75
541.078	512.75
541.292	517.75
541.506	500.75
541.72	522.75
541.934	478.75
542.147	496.75
542.361	504.75
542.575	496.75
542.789	503.75
543.002	500.75
543.216	516.75
543.43	512.75
543.644	505.75
543.857	523.75
544.071	492.75
544.285	509.75
544.498	501.75
544.712	518.75
544.925	507.75
545.139	500.75
545.352	510.75
545.566	494.75
545.779	476.75
545.993	511.75
546.206	476.75
546.42	507.75
546.633	500.75
546.847	475.75
547.06	485.75
547.274	487.75
547.487	481.75
547.7	502.75
547.914	478.75
548.127	486.75
548.34	489.75
548.554	483.75
548.767	474.75
548.98	492.75
549.193	485.75
549.407	482.75
549.62	488.75
549.833	507.75
550.046	488.75
550.259	483.75
550.473	489.75
550.686	479.75
550.899	479.75
551.112	511.75
551.325	471.75
551.538	472.75
551.751	468.75
551.964	468.75
552.177	487.75
552.39	472.75
552.603	485.75
552.816	490.75
553.029	478.75
553.242	516.75
553.455	486.75
553.667	523.75
553.88	516.75
554.093	494.75
554.306	505.75
554.519	491.75
554.732	495.75
554.944	512.75
555.157	483.75
555.37	468.75
555.583	446.75
555.795	483.75
556.008	457.75
556.221	451.75
556.433	438.75
556.646	450.75
556.859	448.75
557.071	443.75
557.284	434.75
557.496	453.75
557.709	456.75
557.921	440.75
558.134	439.75
558.346	434.75
558.559	419.75
558.771	441.75
558.984	439.75
559.196	435.75
559.409	427.75
559.621	446.75
559.833	424.75
560.046	446.75
560.258	436.75
560.47	435.75
560.683	426.75
560.895	431.75
561.107	440.75
561.32	426.75
561.532	430.75
561.744	451.75
561.956	430.75
562.168	427.75
562.381	422.75
562.593	454.75
562.805	440.75
563.017	448.75
563.229	429.75
563.441	447.75
563.653	450.75
563.865	423.75
564.077	450.75
564.289	454.75
564.501	450.75
564.713	469.75
564.925	470.75
565.137	468.75
565.349	463.75
565.561	478.75
565.773	464.75
565.985	505.75
566.197	495.75
566.408	534.75
566.62	504.75
566.832	527.75
567.044	574.75
567.255	554.75
567.467	543.75
567.679	552.75
567.891	551.75
568.102	567.75
568.314	548.75
568.526	520.75
568.737	529.75
568.949	494.75
569.161	474.75
569.372	454.75
569.584	468.75
569.795	440.75
570.007	469.75
570.218	484.75
570.43	471.75
570.641	442.75
570.853	439.75
571.064	428.75
571.276	426.75
571.487	412.75
571.698	414.75
571.91	418.75
572.121	408.75
572.333	416.75
572.544	409.75
572.755	393.75
572.966	399.75
573.178	399.75
573.389	387.75
573.6	398.75
573.811	378.75
574.023	379.75
574.234	390.75
574.445	388.75
574.656	396.75
574.867	386.75
575.078	375.75
575.289	373.75
575.501	372.75
575.712	374.75
575.923	386.75
576.134	368.75
576.345	376.75
576.556	379.75
576.767	382.75
576.978	356.75
577.188	375.75
577.399	356.75
577.61	359.75
577.821	370.75
578.032	348.75
578.243	380.75
578.454	584.75
578.665	451.75
578.875	394.75
579.086	369.75
579.297	352.75
579.508	341.75
579.718	327.75
579.929	368.75
580.14	342.75
580.35	346.75
580.561	340.75
580.772	357.75
580.982	330.75
581.193	333.75
581.403	330.75
581.614	334.75
581.825	330.75
582.035	347.75
582.246	335.75
582.456	347.75
582.667	328.75
582.877	354.75
583.087	343.75
583.298	327.75
583.508	338.75
583.719	330.75
583.929	342.75
584.139	324.75
584.35	339.75
584.56	327.75
584.77	335.75
584.981	342.75
585.191	318.75
585.401	339.75
585.611	330.75
585.821	331.75
586.032	334.75
586.242	336.75
586.452	330.75
586.662	330.75
586.872	353.75
587.082	337.75
587.292	322.75
587.502	333.75
587.713	333.75
587.923	333.75
588.133	330.75
588.343	326.75
588.553	312.75
588.762	320.75
588.972	341.75
589.182	332.75
589.392	318.75
589.602	341.75
589.812	335.75
590.022	334.75
590.232	317.75
590.441	339.75
590.651	330.75
590.861	318.75
591.071	323.75
591.281	333.75
591.49	335.75
591.7	334.75
591.91	332.75
592.119	339.75
592.329	332.75
592.539	365.75
592.748	352.75
592.958	342.75
593.167	347.75
593.377	364.75
593.587	345.75
593.796	353.75
594.006	344.75
594.215	365.75
594.424	340.75
594.634	340.75
594.843	331.75
595.053	343.75
595.262	331.75
595.472	328.75
595.681	328.75
595.89	323.75
596.1	301.75
596.309	313.75
596.518	324.75
596.727	312.75
596.937	319.75
597.146	325.75
597.355	302.75
597.564	302.75
597.774	304.75
597.983	309.75
598.192	304.75
598.401	319.75
598.61	299.75
598.819	300.75
599.028	295.75
599.237	288.75
599.446	304.75
599.655	308.75
599.864	307.75
600.073	283.75
600.282	292.75
600.491	286.75
600.7	280.75
600.909	269.75
601.118	287.75
601.327	298.75
601.536	288.75
601.745	296.75
601.953	307.75
602.162	250.75
602.371	292.75
602.58	288.75
602.789	262.75
602.997	264.75
603.206	292.75
603.415	273.75
603.623	280.75
603.832	293.75
604.041	271.75
604.249	280.75
604.458	263.75
604.666	281.75
604.875	272.75
605.084	278.75
605.292	264.75
605.501	267.75
605.709	284.75
605.918	284.75
606.126	275.75
606.334	258.75
606.543	264.75
606.751	272.75
606.96	265.75
607.168	282.75
607.376	260.75
607.585	276.75
607.793	280.75
608.001	273.75
608.21	269.75
608.418	255.75
608.626	247.75
608.834	272.75
609.043	251.75
609.251	252.75
609.459	263.75
609.667	255.75
609.875	262.75
610.083	235.75
610.291	261.75
610.499	272.75
610.707	268.75
610.916	244.75
611.124	256.75
611.332	279.75
611.54	271.75
611.748	262.75
611.955	276.75
612.163	264.75
612.371	278.75
612.579	249.75
612.787	253.75
612.995	273.75
613.203	263.75
613.411	262.75
613.618	262.75
613.826	240.75
614.034	263.75
614.242	258.75
614.449	259.75
614.657	271.75
614.865	255.75
615.072	253.75
615.28	250.75
615.488	251.75
615.695	236.75
615.903	260.75
616.111	259.75
616.318	258.75
616.526	277.75
616.733	254.75
616.941	251.75
617.148	252.75
617.356	264.75
617.563	266.75
617.771	251.75
617.978	243.75
618.185	254.75
618.393	254.75
618.6	255.75
618.807	266.75
619.015	274.75
619.222	274.75
619.429	252.75
619.637	246.75
619.844	248.75
620.051	243.75
620.258	263.75
620.466	245.75
620.673	239.75
620.88	235.75
621.087	227.75
621.294	248.75
621.501	248.75
621.708	239.75
621.915	241.75
622.122	233.75
622.329	236.75
622.536	255.75
622.743	242.75
622.95	226.75
623.157	238.75
623.364	235.75
623.571	224.75
623.778	237.75
623.985	227.75
624.192	234.75
624.399	224.75
624.606	250.75
624.812	227.75
625.019	218.75
625.226	234.75
625.433	218.75
625.639	239.75
625.846	229.75
626.053	224.75
626.259	236.75
626.466	216.75
626.673	245.75
626.879	219.75
627.086	227.75
627.293	218.75
627.499	231.75
627.706	236.75
627.912	234.75
628.119	235.75
628.325	227.75
628.532	221.75
628.738	214.75
628.945	208.75
629.151	217.75
629.357	219.75
629.564	213.75
629.77	220.75
629.976	231.75
630.183	223.75
630.389	218.75
630.595	208.75
630.802	213.75
631.008	206.75
631.214	204.75
631.42	221.75
631.627	196.75
631.833	213.75
632.039	213.75
632.245	220.75
632.451	210.75
632.657	201.75
632.863	204.75
633.069	193.75
633.275	216.75
633.481	195.75
633.688	208.75
633.893	201.75
634.099	192.75
634.305	196.75
634.511	194.75
634.717	190.75
634.923	199.75
635.129	199.75
635.335	200.75
635.541	191.75
635.747	215.75
635.952	187.75
636.158	203.75
636.364	180.75
636.57	210.75
636.775	200.75
636.981	203.75
637.187	197.75
637.392	180.75
637.598	189.75
637.804	203.75
638.009	198.75
638.215	192.75
638.421	190.75
638.626	215.75
638.832	183.75
639.037	173.75
639.243	191.75
639.448	183.75
639.654	194.75
639.859	190.75
640.065	178.75
640.27	193.75
640.475	199.75
640.681	199.75
640.886	194.75
641.091	187.75
641.297	183.75
641.502	174.75
641.707	175.75
641.913	188.75
642.118	193.75
642.323	186.75
642.528	202.75
642.733	179.75
642.939	177.75
643.144	178.75
643.349	180.75
643.554	173.75
643.759	189.75
643.964	184.75
644.169	184.75
644.374	179.75
644.579	187.75
644.784	184.75
644.989	185.75
645.194	193.75
645.399	172.75
645.604	166.75
645.809	180.75
646.014	182.75
646.219	188.75
646.423	186.75
646.628	171.75
646.833	168.75
647.038	178.75
647.243	180.75
647.447	194.75
647.652	172.75
647.857	184.75
648.062	186.75
648.266	183.75
648.471	183.75
648.676	191.75
648.88	177.75
649.085	175.75
649.289	170.75
649.494	190.75
649.698	194.75
649.903	194.75
650.107	179.75
650.312	198.75
650.516	183.75
650.721	182.75
650.925	168.75
651.13	168.75
651.334	148.75
651.539	144.75
651.743	162.75
651.947	173.75
652.152	159.75
652.356	162.75
652.56	151.75
652.764	148.75
652.969	158.75
653.173	150.75
653.377	142.75
653.581	150.75
653.785	134.75
653.99	123.75
654.194	144.75
654.398	132.75
654.602	144.75
654.806	154.75
655.01	146.75
655.214	144.75
655.418	148.75
655.622	150.75
655.826	135.75
656.03	132.75
656.234	149.75
656.438	148.75
656.642	136.75
656.846	139.75
657.049	135.75
657.253	127.75
657.457	128.75
657.661	110.75
657.865	111.75
658.068	127.75
658.272	118.75
658.476	115.75
658.68	98.75
658.883	105.75
659.087	109.75
659.291	108.75
659.494	102.75
659.698	97.75
659.901	88.75
660.105	109.75
660.309	107.75
660.512	115.75
660.716	95.75
660.919	106.75
661.123	90.75
661.326	95.75
661.53	92.75
661.733	86.75
661.936	100.75
662.14	81.75
662.343	95.75
662.546	103.75
662.75	85.75
662.953	87.75
663.156	76.75
663.36	71.75
663.563	91.75
663.766	90.75
663.969	93.75
664.173	80.75
664.376	86.75
664.579	84.75
664.782	88.75
664.985	76.75
665.188	76.75
665.391	83.75
665.594	90.75
665.797	76.75
666	70.75
666.203	87.75
666.406	84.75
666.609	85.75
666.812	73.75
667.015	90.75
667.218	87.75
667.421	90.75
667.624	85.75
667.827	77.75
668.03	76.75
668.232	79.75
668.435	90.75
668.638	91.75
668.841	69.75
669.043	91.75
669.246	85.75
669.449	76.75
669.651	84.75
669.854	69.75
670.057	98.75
670.259	82.75
670.462	80.75
670.665	76.75
670.867	80.75
671.07	83.75
671.272	78.75
671.475	93.75
671.677	76.75
671.88	78.75
672.082	83.75
672.284	91.75
672.487	81.75
672.689	78.75
672.892	106.75
