Data from 1966.PennyLincolnUp.Lamp.En5.5.200Scan.071719.P1.Scan2.head_HRD10591_14-17-04-079.txt Node
Date: Thu Jul 18 14:17:04 EDT 2019
User: cochatt
Spectrometer: HR+D1059
Trigger mode: 1
Integration Time (sec): 1.000000E-1
Scans to average: 1
Electric dark correction enabled: true
Nonlinearity correction enabled: false
Boxcar width: 0
XAxis mode: Wavelengths
Number of Pixels in Spectrum: 2048
>>>>>Begin Spectral Data<<<<<
223.165	-1.94
223.4	-1.94
223.635	-1.94
223.869	-12.94
224.104	-26.94
224.338	-23.94
224.573	-16.94
224.808	-13.94
225.042	-3.94
225.277	-10.94
225.511	-9.94
225.746	19.06
225.98	3.06
226.215	10.06
226.449	14.06
226.683	24.06
226.918	27.06
227.152	24.06
227.387	38.06
227.621	33.06
227.856	30.06
228.09	43.06
228.324	48.06
228.559	51.06
228.793	66.06
229.027	96.06
229.262	109.06
229.496	103.06
229.73	134.06
229.964	150.06
230.199	115.06
230.433	103.06
230.667	106.06
230.901	108.06
231.136	106.06
231.37	109.06
231.604	115.06
231.838	116.06
232.072	119.06
232.306	99.06
232.541	116.06
232.775	108.06
233.009	122.06
233.243	122.06
233.477	120.06
233.711	112.06
233.945	114.06
234.179	118.06
234.413	116.06
234.647	114.06
234.881	115.06
235.115	120.06
235.349	120.06
235.583	119.06
235.817	113.06
236.051	125.06
236.285	126.06
236.519	107.06
236.753	114.06
236.987	133.06
237.221	169.06
237.455	218.06
237.689	182.06
237.922	130.06
238.156	132.06
238.39	130.06
238.624	114.06
238.858	126.06
239.091	121.06
239.325	126.06
239.559	135.06
239.793	136.06
240.027	127.06
240.26	127.06
240.494	144.06
240.728	152.06
240.961	126.06
241.195	145.06
241.429	139.06
241.662	135.06
241.896	140.06
242.13	133.06
242.363	130.06
242.597	118.06
242.83	134.06
243.064	152.06
243.298	138.06
243.531	138.06
243.765	151.06
243.998	148.06
244.232	129.06
244.465	142.06
244.699	151.06
244.932	134.06
245.166	126.06
245.399	143.06
245.633	146.06
245.866	128.06
246.099	142.06
246.333	156.06
246.566	152.06
246.8	149.06
247.033	157.06
247.266	164.06
247.5	154.06
247.733	160.06
247.966	181.06
248.2	143.06
248.433	155.06
248.666	164.06
248.899	176.06
249.133	184.06
249.366	198.06
249.599	186.06
249.832	192.06
250.066	183.06
250.299	198.06
250.532	181.06
250.765	196.06
250.998	189.06
251.231	219.06
251.465	205.06
251.698	209.06
251.931	182.06
252.164	198.06
252.397	191.06
252.63	190.06
252.863	184.06
253.096	214.06
253.329	209.06
253.562	237.06
253.795	212.06
254.028	227.06
254.261	199.06
254.494	205.06
254.727	227.06
254.96	269.06
255.193	239.06
255.426	243.06
255.659	238.06
255.892	230.06
256.124	233.06
256.357	233.06
256.59	226.06
256.823	218.06
257.056	209.06
257.289	206.06
257.521	202.06
257.754	194.06
257.987	206.06
258.22	192.06
258.452	200.06
258.685	207.06
258.918	205.06
259.151	215.06
259.383	216.06
259.616	215.06
259.849	219.06
260.081	211.06
260.314	233.06
260.547	235.06
260.779	237.06
261.012	225.06
261.244	219.06
261.477	215.06
261.71	214.06
261.942	215.06
262.175	229.06
262.407	220.06
262.64	194.06
262.872	205.06
263.105	211.06
263.337	221.06
263.57	212.06
263.802	205.06
264.035	188.06
264.267	202.06
264.499	198.06
264.732	201.06
264.964	210.06
265.197	217.06
265.429	207.06
265.661	214.06
265.894	206.06
266.126	196.06
266.358	199.06
266.591	212.06
266.823	218.06
267.055	223.06
267.287	233.06
267.52	231.06
267.752	219.06
267.984	220.06
268.216	215.06
268.448	237.06
268.681	223.06
268.913	228.06
269.145	259.06
269.377	262.06
269.609	255.06
269.841	248.06
270.073	259.06
270.306	255.06
270.538	287.06
270.77	281.06
271.002	284.06
271.234	266.06
271.466	282.06
271.698	286.06
271.93	292.06
272.162	286.06
272.394	298.06
272.626	279.06
272.858	255.06
273.09	273.06
273.322	260.06
273.553	246.06
273.785	264.06
274.017	247.06
274.249	256.06
274.481	262.06
274.713	239.06
274.945	247.06
275.176	249.06
275.408	248.06
275.64	248.06
275.872	259.06
276.104	274.06
276.335	252.06
276.567	263.06
276.799	265.06
277.031	302.06
277.262	300.06
277.494	314.06
277.726	278.06
277.957	262.06
278.189	250.06
278.421	254.06
278.652	272.06
278.884	265.06
279.115	259.06
279.347	252.06
279.579	260.06
279.81	235.06
280.042	265.06
280.273	261.06
280.505	263.06
280.736	257.06
280.968	235.06
281.199	282.06
281.431	280.06
281.662	262.06
281.894	253.06
282.125	261.06
282.356	283.06
282.588	300.06
282.819	282.06
283.051	278.06
283.282	271.06
283.513	278.06
283.745	266.06
283.976	269.06
284.207	281.06
284.439	277.06
284.67	287.06
284.901	281.06
285.132	272.06
285.364	258.06
285.595	270.06
285.826	273.06
286.057	281.06
286.288	267.06
286.52	249.06
286.751	264.06
286.982	279.06
287.213	275.06
287.444	268.06
287.675	292.06
287.906	286.06
288.138	278.06
288.369	289.06
288.6	299.06
288.831	295.06
289.062	283.06
289.293	285.06
289.524	290.06
289.755	279.06
289.986	293.06
290.217	287.06
290.448	285.06
290.679	305.06
290.91	284.06
291.141	269.06
291.371	287.06
291.602	294.06
291.833	286.06
292.064	281.06
292.295	285.06
292.526	282.06
292.757	278.06
292.987	279.06
293.218	278.06
293.449	281.06
293.68	300.06
293.91	296.06
294.141	295.06
294.372	303.06
294.603	294.06
294.833	284.06
295.064	288.06
295.295	298.06
295.525	302.06
295.756	298.06
295.987	295.06
296.217	311.06
296.448	296.06
296.679	310.06
296.909	297.06
297.14	286.06
297.37	296.06
297.601	288.06
297.831	294.06
298.062	308.06
298.292	289.06
298.523	292.06
298.753	294.06
298.984	290.06
299.214	283.06
299.445	303.06
299.675	300.06
299.905	298.06
300.136	295.06
300.366	312.06
300.597	305.06
300.827	297.06
301.057	299.06
301.288	317.06
301.518	327.06
301.748	320.06
301.979	326.06
302.209	334.06
302.439	311.06
302.669	314.06
302.9	308.06
303.13	312.06
303.36	341.06
303.59	309.06
303.82	332.06
304.051	329.06
304.281	310.06
304.511	299.06
304.741	317.06
304.971	313.06
305.201	295.06
305.431	333.06
305.661	330.06
305.891	311.06
306.121	314.06
306.352	320.06
306.582	319.06
306.812	314.06
307.042	329.06
307.272	344.06
307.502	335.06
307.731	307.06
307.961	330.06
308.191	323.06
308.421	316.06
308.651	352.06
308.881	347.06
309.111	322.06
309.341	333.06
309.571	333.06
309.8	334.06
310.03	356.06
310.26	357.06
310.49	340.06
310.72	370.06
310.949	364.06
311.179	398.06
311.409	359.06
311.639	352.06
311.868	362.06
312.098	356.06
312.328	361.06
312.557	365.06
312.787	378.06
313.017	392.06
313.246	378.06
313.476	355.06
313.706	336.06
313.935	381.06
314.165	358.06
314.394	396.06
314.624	392.06
314.853	373.06
315.083	371.06
315.312	356.06
315.542	361.06
315.771	350.06
316.001	360.06
316.23	373.06
316.46	351.06
316.689	367.06
316.919	356.06
317.148	392.06
317.377	377.06
317.607	374.06
317.836	382.06
318.065	363.06
318.295	369.06
318.524	358.06
318.753	380.06
318.983	363.06
319.212	367.06
319.441	393.06
319.67	376.06
319.9	378.06
320.129	382.06
320.358	359.06
320.587	373.06
320.816	362.06
321.046	384.06
321.275	386.06
321.504	384.06
321.733	384.06
321.962	385.06
322.191	390.06
322.42	407.06
322.649	424.06
322.878	410.06
323.108	423.06
323.337	455.06
323.566	422.06
323.795	485.06
324.024	492.06
324.253	594.06
324.482	814.06
324.71	1253.06
324.939	1880.06
325.168	1645.06
325.397	815.06
325.626	571.06
325.855	504.06
326.084	457.06
326.313	459.06
326.542	465.06
326.77	499.06
326.999	577.06
327.228	723.06
327.457	1143.06
327.686	1450.06
327.914	950.06
328.143	633.06
328.372	587.06
328.6	524.06
328.829	498.06
329.058	520.06
329.287	533.06
329.515	494.06
329.744	475.06
329.972	468.06
330.201	469.06
330.43	512.06
330.658	553.06
330.887	550.06
331.115	566.06
331.344	472.06
331.572	469.06
331.801	458.06
332.03	461.06
332.258	473.06
332.486	450.06
332.715	435.06
332.943	458.06
333.172	448.06
333.4	451.06
333.629	468.06
333.857	478.06
334.085	480.06
334.314	485.06
334.542	526.06
334.771	522.06
334.999	492.06
335.227	465.06
335.455	441.06
335.684	430.06
335.912	461.06
336.14	436.06
336.369	447.06
336.597	451.06
336.825	451.06
337.053	448.06
337.281	438.06
337.51	425.06
337.738	436.06
337.966	425.06
338.194	442.06
338.422	447.06
338.65	437.06
338.878	431.06
339.106	442.06
339.334	429.06
339.562	414.06
339.79	396.06
340.018	401.06
340.246	420.06
340.474	422.06
340.702	412.06
340.93	436.06
341.158	406.06
341.386	417.06
341.614	427.06
341.842	429.06
342.07	391.06
342.298	420.06
342.526	409.06
342.754	416.06
342.981	422.06
343.209	379.06
343.437	411.06
343.665	423.06
343.893	425.06
344.12	438.06
344.348	440.06
344.576	447.06
344.804	445.06
345.031	440.06
345.259	452.06
345.487	459.06
345.714	427.06
345.942	419.06
346.17	418.06
346.397	417.06
346.625	395.06
346.853	412.06
347.08	407.06
347.308	419.06
347.535	421.06
347.763	414.06
347.99	447.06
348.218	420.06
348.445	426.06
348.673	420.06
348.9	436.06
349.128	418.06
349.355	386.06
349.583	403.06
349.81	401.06
350.037	424.06
350.265	400.06
350.492	406.06
350.72	406.06
350.947	398.06
351.174	404.06
351.402	454.06
351.629	422.06
351.856	399.06
352.083	390.06
352.311	421.06
352.538	420.06
352.765	437.06
352.992	408.06
353.22	429.06
353.447	417.06
353.674	403.06
353.901	412.06
354.128	409.06
354.355	390.06
354.583	395.06
354.81	392.06
355.037	389.06
355.264	392.06
355.491	401.06
355.718	397.06
355.945	402.06
356.172	414.06
356.399	375.06
356.626	412.06
356.853	393.06
357.08	412.06
357.307	390.06
357.534	383.06
357.761	406.06
357.988	412.06
358.215	401.06
358.441	386.06
358.668	407.06
358.895	380.06
359.122	406.06
359.349	386.06
359.576	385.06
359.802	413.06
360.029	431.06
360.256	467.06
360.483	436.06
360.709	434.06
360.936	428.06
361.163	408.06
361.39	408.06
361.616	410.06
361.843	406.06
362.07	410.06
362.296	423.06
362.523	399.06
362.749	396.06
362.976	419.06
363.203	410.06
363.429	410.06
363.656	415.06
363.882	407.06
364.109	386.06
364.335	392.06
364.562	383.06
364.788	383.06
365.015	416.06
365.241	391.06
365.468	416.06
365.694	414.06
365.92	415.06
366.147	409.06
366.373	390.06
366.599	399.06
366.826	413.06
367.052	400.06
367.278	446.06
367.505	415.06
367.731	406.06
367.957	408.06
368.184	416.06
368.41	406.06
368.636	419.06
368.862	424.06
369.089	431.06
369.315	420.06
369.541	394.06
369.767	422.06
369.993	413.06
370.219	393.06
370.445	416.06
370.672	401.06
370.898	395.06
371.124	387.06
371.35	416.06
371.576	412.06
371.802	438.06
372.028	425.06
372.254	421.06
372.48	426.06
372.706	419.06
372.932	432.06
373.158	417.06
373.384	407.06
373.61	420.06
373.835	420.06
374.061	430.06
374.287	450.06
374.513	420.06
374.739	428.06
374.965	425.06
375.191	429.06
375.416	424.06
375.642	426.06
375.868	440.06
376.094	423.06
376.319	426.06
376.545	391.06
376.771	420.06
376.997	429.06
377.222	428.06
377.448	406.06
377.674	418.06
377.899	400.06
378.125	422.06
378.35	422.06
378.576	418.06
378.802	415.06
379.027	422.06
379.253	413.06
379.478	411.06
379.704	419.06
379.929	421.06
380.155	388.06
380.38	438.06
380.606	410.06
380.831	408.06
381.057	442.06
381.282	405.06
381.507	404.06
381.733	408.06
381.958	402.06
382.184	436.06
382.409	442.06
382.634	432.06
382.86	440.06
383.085	444.06
383.31	436.06
383.535	428.06
383.761	443.06
383.986	454.06
384.211	428.06
384.436	448.06
384.662	454.06
384.887	449.06
385.112	459.06
385.337	458.06
385.562	472.06
385.787	442.06
386.013	461.06
386.238	450.06
386.463	463.06
386.688	481.06
386.913	458.06
387.138	474.06
387.363	476.06
387.588	441.06
387.813	468.06
388.038	466.06
388.263	469.06
388.488	460.06
388.713	460.06
388.938	476.06
389.163	474.06
389.387	475.06
389.612	461.06
389.837	476.06
390.062	491.06
390.287	452.06
390.512	432.06
390.736	446.06
390.961	472.06
391.186	467.06
391.411	466.06
391.636	467.06
391.86	491.06
392.085	503.06
392.31	493.06
392.534	481.06
392.759	486.06
392.984	496.06
393.208	468.06
393.433	504.06
393.658	513.06
393.882	494.06
394.107	473.06
394.331	481.06
394.556	484.06
394.78	469.06
395.005	490.06
395.229	465.06
395.454	475.06
395.678	492.06
395.903	500.06
396.127	532.06
396.352	504.06
396.576	484.06
396.801	510.06
397.025	487.06
397.249	484.06
397.474	511.06
397.698	503.06
397.922	525.06
398.147	518.06
398.371	517.06
398.595	530.06
398.82	530.06
399.044	558.06
399.268	578.06
399.492	616.06
399.717	642.06
399.941	654.06
400.165	687.06
400.389	673.06
400.613	620.06
400.837	567.06
401.062	562.06
401.286	559.06
401.51	548.06
401.734	543.06
401.958	534.06
402.182	558.06
402.406	570.06
402.63	557.06
402.854	574.06
403.078	562.06
403.302	567.06
403.526	574.06
403.75	570.06
403.974	575.06
404.198	559.06
404.422	563.06
404.645	580.06
404.869	584.06
405.093	611.06
405.317	630.06
405.541	671.06
405.765	622.06
405.988	578.06
406.212	620.06
406.436	603.06
406.66	596.06
406.883	589.06
407.107	630.06
407.331	682.06
407.555	734.06
407.778	727.06
408.002	636.06
408.226	631.06
408.449	637.06
408.673	598.06
408.896	637.06
409.12	710.06
409.344	675.06
409.567	591.06
409.791	589.06
410.014	564.06
410.238	557.06
410.461	562.06
410.685	566.06
410.908	594.06
411.132	632.06
411.355	644.06
411.578	627.06
411.802	558.06
412.025	547.06
412.249	578.06
412.472	588.06
412.695	637.06
412.919	615.06
413.142	559.06
413.365	567.06
413.589	562.06
413.812	548.06
414.035	519.06
414.258	528.06
414.482	537.06
414.705	550.06
414.928	532.06
415.151	538.06
415.374	551.06
415.597	535.06
415.821	522.06
416.044	542.06
416.267	545.06
416.49	543.06
416.713	528.06
416.936	520.06
417.159	537.06
417.382	540.06
417.605	548.06
417.828	560.06
418.051	563.06
418.274	584.06
418.497	508.06
418.72	536.06
418.943	527.06
419.166	554.06
419.389	570.06
419.611	578.06
419.834	562.06
420.057	560.06
420.28	559.06
420.503	548.06
420.726	576.06
420.948	559.06
421.171	632.06
421.394	650.06
421.617	592.06
421.839	565.06
422.062	550.06
422.285	576.06
422.507	638.06
422.73	739.06
422.953	654.06
423.175	628.06
423.398	595.06
423.621	569.06
423.843	608.06
424.066	612.06
424.288	592.06
424.511	608.06
424.733	642.06
424.956	755.06
425.178	715.06
425.401	722.06
425.623	723.06
425.846	624.06
426.068	571.06
426.291	586.06
426.513	601.06
426.735	607.06
426.958	640.06
427.18	725.06
427.402	826.06
427.625	936.06
427.847	786.06
428.069	715.06
428.292	632.06
428.514	569.06
428.736	573.06
428.958	563.06
429.181	559.06
429.403	542.06
429.625	560.06
429.847	597.06
430.069	667.06
430.292	643.06
430.514	570.06
430.736	569.06
430.958	526.06
431.18	519.06
431.402	519.06
431.624	513.06
431.846	531.06
432.068	533.06
432.29	519.06
432.512	523.06
432.734	534.06
432.956	536.06
433.178	514.06
433.4	531.06
433.622	518.06
433.844	520.06
434.066	527.06
434.287	525.06
434.509	548.06
434.731	548.06
434.953	559.06
435.175	582.06
435.397	589.06
435.618	556.06
435.84	639.06
436.062	715.06
436.284	798.06
436.505	656.06
436.727	593.06
436.949	557.06
437.17	576.06
437.392	548.06
437.614	548.06
437.835	572.06
438.057	678.06
438.278	780.06
438.5	800.06
438.721	867.06
438.943	820.06
439.165	657.06
439.386	584.06
439.608	586.06
439.829	585.06
440.05	620.06
440.272	648.06
440.493	648.06
440.715	571.06
440.936	584.06
441.158	555.06
441.379	527.06
441.6	573.06
441.822	560.06
442.043	647.06
442.264	703.06
442.486	743.06
442.707	613.06
442.928	601.06
443.149	611.06
443.371	606.06
443.592	684.06
443.813	754.06
444.034	829.06
444.255	686.06
444.476	626.06
444.698	599.06
444.919	598.06
445.14	707.06
445.361	664.06
445.582	629.06
445.803	670.06
446.024	803.06
446.245	808.06
446.466	742.06
446.687	633.06
446.908	614.06
447.129	586.06
447.35	570.06
447.571	534.06
447.792	534.06
448.013	541.06
448.234	547.06
448.455	619.06
448.675	723.06
448.896	856.06
449.117	757.06
449.338	676.06
449.559	776.06
449.779	898.06
450	709.06
450.221	593.06
450.442	554.06
450.662	534.06
450.883	533.06
451.104	542.06
451.324	546.06
451.545	503.06
451.766	503.06
451.986	497.06
452.207	503.06
452.428	487.06
452.648	468.06
452.869	501.06
453.089	500.06
453.31	515.06
453.53	490.06
453.751	494.06
453.971	499.06
454.192	500.06
454.412	516.06
454.633	487.06
454.853	487.06
455.073	490.06
455.294	504.06
455.514	559.06
455.734	548.06
455.955	483.06
456.175	477.06
456.395	469.06
456.616	479.06
456.836	474.06
457.056	464.06
457.276	455.06
457.497	459.06
457.717	457.06
457.937	475.06
458.157	479.06
458.377	490.06
458.598	526.06
458.818	558.06
459.038	599.06
459.258	620.06
459.478	556.06
459.698	526.06
459.918	534.06
460.138	533.06
460.358	506.06
460.578	549.06
460.798	538.06
461.018	566.06
461.238	540.06
461.458	542.06
461.678	543.06
461.898	522.06
462.118	553.06
462.338	576.06
462.558	566.06
462.777	566.06
462.997	630.06
463.217	632.06
463.437	595.06
463.657	605.06
463.876	578.06
464.096	604.06
464.316	586.06
464.536	592.06
464.755	564.06
464.975	569.06
465.195	603.06
465.414	666.06
465.634	578.06
465.854	570.06
466.073	562.06
466.293	532.06
466.512	526.06
466.732	522.06
466.951	520.06
467.171	515.06
467.391	502.06
467.61	504.06
467.829	526.06
468.049	540.06
468.268	512.06
468.488	509.06
468.707	492.06
468.927	510.06
469.146	496.06
469.365	502.06
469.585	494.06
469.804	526.06
470.023	515.06
470.243	524.06
470.462	520.06
470.681	537.06
470.901	517.06
471.12	512.06
471.339	521.06
471.558	519.06
471.777	511.06
471.997	512.06
472.216	532.06
472.435	555.06
472.654	544.06
472.873	520.06
473.092	532.06
473.311	522.06
473.53	518.06
473.749	532.06
473.968	548.06
474.187	631.06
474.406	662.06
474.625	585.06
474.844	539.06
475.063	541.06
475.282	518.06
475.501	508.06
475.72	517.06
475.939	532.06
476.158	536.06
476.377	545.06
476.596	518.06
476.814	548.06
477.033	545.06
477.252	575.06
477.471	555.06
477.69	584.06
477.908	568.06
478.127	574.06
478.346	586.06
478.564	575.06
478.783	556.06
479.002	588.06
479.22	590.06
479.439	600.06
479.658	621.06
479.876	630.06
480.095	620.06
480.313	656.06
480.532	635.06
480.751	632.06
480.969	631.06
481.188	680.06
481.406	711.06
481.624	654.06
481.843	610.06
482.061	633.06
482.28	634.06
482.498	613.06
482.717	598.06
482.935	612.06
483.153	605.06
483.372	602.06
483.59	610.06
483.808	613.06
484.027	598.06
484.245	620.06
484.463	607.06
484.681	626.06
484.9	607.06
485.118	640.06
485.336	638.06
485.554	629.06
485.772	636.06
485.99	629.06
486.209	636.06
486.427	630.06
486.645	644.06
486.863	648.06
487.081	660.06
487.299	664.06
487.517	637.06
487.735	652.06
487.953	628.06
488.171	653.06
488.389	642.06
488.607	634.06
488.825	660.06
489.043	653.06
489.261	656.06
489.479	643.06
489.696	649.06
489.914	656.06
490.132	676.06
490.35	662.06
490.568	673.06
490.786	702.06
491.003	719.06
491.221	685.06
491.439	718.06
491.657	723.06
491.874	728.06
492.092	754.06
492.31	757.06
492.527	720.06
492.745	732.06
492.963	751.06
493.18	719.06
493.398	773.06
493.615	766.06
493.833	764.06
494.05	772.06
494.268	772.06
494.485	762.06
494.703	748.06
494.92	744.06
495.138	750.06
495.355	757.06
495.573	756.06
495.79	775.06
496.008	758.06
496.225	782.06
496.442	772.06
496.66	783.06
496.877	775.06
497.094	795.06
497.312	793.06
497.529	784.06
497.746	818.06
497.963	818.06
498.181	843.06
498.398	850.06
498.615	890.06
498.832	895.06
499.049	908.06
499.267	949.06
499.484	954.06
499.701	968.06
499.918	1023.06
500.135	1100.06
500.352	1155.06
500.569	1126.06
500.786	1170.06
501.003	1133.06
501.22	1084.06
501.437	1096.06
501.654	1026.06
501.871	996.06
502.088	990.06
502.305	919.06
502.522	888.06
502.739	896.06
502.956	882.06
503.172	830.06
503.389	825.06
503.606	821.06
503.823	801.06
504.04	822.06
504.256	770.06
504.473	764.06
504.69	792.06
504.907	769.06
505.123	762.06
505.34	750.06
505.557	732.06
505.773	748.06
505.99	736.06
506.207	752.06
506.423	742.06
506.64	711.06
506.856	696.06
507.073	710.06
507.289	694.06
507.506	721.06
507.722	715.06
507.939	718.06
508.155	717.06
508.372	702.06
508.588	686.06
508.805	699.06
509.021	676.06
509.238	692.06
509.454	716.06
509.67	682.06
509.887	707.06
510.103	681.06
510.319	681.06
510.536	759.06
510.752	1156.06
510.968	984.06
511.184	708.06
511.401	664.06
511.617	658.06
511.833	678.06
512.049	658.06
512.265	654.06
512.481	658.06
512.698	636.06
512.914	663.06
513.13	651.06
513.346	648.06
513.562	631.06
513.778	648.06
513.994	653.06
514.21	643.06
514.426	656.06
514.642	717.06
514.858	732.06
515.074	764.06
515.29	848.06
515.506	1120.06
515.721	1020.06
515.937	729.06
516.153	708.06
516.369	674.06
516.585	678.06
516.801	680.06
517.016	685.06
517.232	680.06
517.448	694.06
517.664	665.06
517.879	684.06
518.095	685.06
518.311	683.06
518.527	677.06
518.742	687.06
518.958	670.06
519.173	640.06
519.389	657.06
519.605	631.06
519.82	630.06
520.036	666.06
520.251	654.06
520.467	688.06
520.682	659.06
520.898	672.06
521.113	699.06
521.329	714.06
521.544	787.06
521.76	930.06
521.975	1450.06
522.19	1413.06
522.406	866.06
522.621	693.06
522.836	647.06
523.052	638.06
523.267	585.06
523.482	604.06
523.698	590.06
523.913	586.06
524.128	612.06
524.343	591.06
524.559	563.06
524.774	589.06
524.989	568.06
525.204	570.06
525.419	587.06
525.634	553.06
525.849	583.06
526.064	577.06
526.28	556.06
526.495	550.06
526.71	542.06
526.925	513.06
527.14	554.06
527.355	559.06
527.57	553.06
527.785	540.06
527.999	536.06
528.214	536.06
528.429	546.06
528.644	538.06
528.859	570.06
529.074	556.06
529.289	569.06
529.503	638.06
529.718	604.06
529.933	576.06
530.148	540.06
530.363	552.06
530.577	552.06
530.792	542.06
531.007	530.06
531.221	533.06
531.436	525.06
531.651	545.06
531.865	533.06
532.08	511.06
532.295	555.06
532.509	519.06
532.724	518.06
532.938	520.06
533.153	509.06
533.367	537.06
533.582	529.06
533.796	533.06
534.011	534.06
534.225	498.06
534.44	508.06
534.654	503.06
534.868	494.06
535.083	532.06
535.297	510.06
535.511	512.06
535.726	525.06
535.94	526.06
536.154	525.06
536.369	524.06
536.583	489.06
536.797	510.06
537.011	509.06
537.225	504.06
537.44	487.06
537.654	498.06
537.868	524.06
538.082	492.06
538.296	516.06
538.51	498.06
538.724	490.06
538.938	525.06
539.153	506.06
539.367	497.06
539.581	516.06
539.795	502.06
540.009	498.06
540.222	475.06
540.436	486.06
540.65	501.06
540.864	492.06
541.078	505.06
541.292	526.06
541.506	487.06
541.72	491.06
541.934	488.06
542.147	493.06
542.361	478.06
542.575	486.06
542.789	487.06
543.002	506.06
543.216	505.06
543.43	516.06
543.644	504.06
543.857	485.06
544.071	478.06
544.285	506.06
544.498	516.06
544.712	495.06
544.925	509.06
545.139	500.06
545.352	487.06
545.566	488.06
545.779	492.06
545.993	510.06
546.206	486.06
546.42	502.06
546.633	493.06
546.847	471.06
547.06	479.06
547.274	477.06
547.487	478.06
547.7	493.06
547.914	488.06
548.127	476.06
548.34	476.06
548.554	489.06
548.767	484.06
548.98	477.06
549.193	490.06
549.407	499.06
549.62	494.06
549.833	477.06
550.046	474.06
550.259	480.06
550.473	476.06
550.686	469.06
550.899	495.06
551.112	464.06
551.325	459.06
551.538	479.06
551.751	468.06
551.964	478.06
552.177	487.06
552.39	486.06
552.603	476.06
552.816	480.06
553.029	489.06
553.242	486.06
553.455	483.06
553.667	487.06
553.88	513.06
554.093	494.06
554.306	493.06
554.519	490.06
554.732	467.06
554.944	471.06
555.157	472.06
555.37	465.06
555.583	450.06
555.795	448.06
556.008	456.06
556.221	463.06
556.433	460.06
556.646	444.06
556.859	441.06
557.071	448.06
557.284	452.06
557.496	446.06
557.709	436.06
557.921	424.06
558.134	447.06
558.346	436.06
558.559	434.06
558.771	437.06
558.984	429.06
559.196	422.06
559.409	430.06
559.621	440.06
559.833	406.06
560.046	441.06
560.258	426.06
560.47	444.06
560.683	449.06
560.895	438.06
561.107	446.06
561.32	418.06
561.532	438.06
561.744	451.06
561.956	412.06
562.168	414.06
562.381	435.06
562.593	440.06
562.805	450.06
563.017	443.06
563.229	436.06
563.441	437.06
563.653	428.06
563.865	445.06
564.077	424.06
564.289	452.06
564.501	438.06
564.713	443.06
564.925	443.06
565.137	461.06
565.349	483.06
565.561	466.06
565.773	473.06
565.985	475.06
566.197	487.06
566.408	512.06
566.62	527.06
566.832	548.06
567.044	546.06
567.255	550.06
567.467	552.06
567.679	562.06
567.891	553.06
568.102	587.06
568.314	578.06
568.526	523.06
568.737	523.06
568.949	498.06
569.161	478.06
569.372	455.06
569.584	466.06
569.795	454.06
570.007	442.06
570.218	475.06
570.43	459.06
570.641	440.06
570.853	423.06
571.064	422.06
571.276	420.06
571.487	406.06
571.698	424.06
571.91	403.06
572.121	390.06
572.333	423.06
572.544	404.06
572.755	380.06
572.966	415.06
573.178	393.06
573.389	382.06
573.6	366.06
573.811	374.06
574.023	381.06
574.234	378.06
574.445	381.06
574.656	372.06
574.867	389.06
575.078	383.06
575.289	371.06
575.501	376.06
575.712	350.06
575.923	365.06
576.134	358.06
576.345	366.06
576.556	347.06
576.767	371.06
576.978	363.06
577.188	367.06
577.399	357.06
577.61	359.06
577.821	360.06
578.032	358.06
578.243	395.06
578.454	548.06
578.665	440.06
578.875	350.06
579.086	352.06
579.297	362.06
579.508	362.06
579.718	334.06
579.929	349.06
580.14	335.06
580.35	342.06
580.561	328.06
580.772	352.06
580.982	342.06
581.193	332.06
581.403	335.06
581.614	344.06
581.825	336.06
582.035	324.06
582.246	327.06
582.456	339.06
582.667	339.06
582.877	334.06
583.087	324.06
583.298	326.06
583.508	341.06
583.719	331.06
583.929	346.06
584.139	331.06
584.35	337.06
584.56	326.06
584.77	343.06
584.981	312.06
585.191	340.06
585.401	342.06
585.611	312.06
585.821	322.06
586.032	343.06
586.242	301.06
586.452	343.06
586.662	315.06
586.872	335.06
587.082	332.06
587.292	302.06
587.502	329.06
587.713	342.06
587.923	332.06
588.133	323.06
588.343	338.06
588.553	314.06
588.762	330.06
588.972	326.06
589.182	358.06
589.392	372.06
589.602	330.06
589.812	332.06
590.022	337.06
590.232	322.06
590.441	320.06
590.651	330.06
590.861	328.06
591.071	310.06
591.281	327.06
591.49	325.06
591.7	334.06
591.91	357.06
592.119	322.06
592.329	343.06
592.539	361.06
592.748	324.06
592.958	373.06
593.167	359.06
593.377	338.06
593.587	359.06
593.796	347.06
594.006	349.06
594.215	344.06
594.424	342.06
594.634	359.06
594.843	349.06
595.053	355.06
595.262	326.06
595.472	312.06
595.681	332.06
595.89	338.06
596.1	319.06
596.309	318.06
596.518	318.06
596.727	310.06
596.937	306.06
597.146	299.06
597.355	311.06
597.564	298.06
597.774	290.06
597.983	277.06
598.192	297.06
598.401	312.06
598.61	314.06
598.819	293.06
599.028	306.06
599.237	285.06
599.446	291.06
599.655	279.06
599.864	282.06
600.073	289.06
600.282	287.06
600.491	316.06
600.7	293.06
600.909	301.06
601.118	291.06
601.327	300.06
601.536	266.06
601.745	284.06
601.953	256.06
602.162	272.06
602.371	287.06
602.58	274.06
602.789	275.06
602.997	275.06
603.206	291.06
603.415	277.06
603.623	277.06
603.832	282.06
604.041	262.06
604.249	260.06
604.458	277.06
604.666	278.06
604.875	271.06
605.084	266.06
605.292	284.06
605.501	263.06
605.709	279.06
605.918	265.06
606.126	258.06
606.334	288.06
606.543	268.06
606.751	250.06
606.96	267.06
607.168	287.06
607.376	269.06
607.585	267.06
607.793	258.06
608.001	276.06
608.21	287.06
608.418	285.06
608.626	276.06
608.834	272.06
609.043	271.06
609.251	270.06
609.459	247.06
609.667	248.06
609.875	266.06
610.083	251.06
610.291	262.06
610.499	254.06
610.707	270.06
610.916	284.06
611.124	282.06
611.332	268.06
611.54	273.06
611.748	262.06
611.955	276.06
612.163	270.06
612.371	264.06
612.579	262.06
612.787	265.06
612.995	258.06
613.203	258.06
613.411	233.06
613.618	251.06
613.826	254.06
614.034	247.06
614.242	248.06
614.449	264.06
614.657	259.06
614.865	260.06
615.072	250.06
615.28	247.06
615.488	270.06
615.695	269.06
615.903	232.06
616.111	259.06
616.318	282.06
616.526	262.06
616.733	274.06
616.941	247.06
617.148	275.06
617.356	270.06
617.563	255.06
617.771	252.06
617.978	263.06
618.185	264.06
618.393	259.06
618.6	262.06
618.807	259.06
619.015	263.06
619.222	242.06
619.429	260.06
619.637	241.06
619.844	252.06
620.051	258.06
620.258	234.06
620.466	239.06
620.673	244.06
620.88	242.06
621.087	246.06
621.294	264.06
621.501	240.06
621.708	236.06
621.915	237.06
622.122	239.06
622.329	258.06
622.536	246.06
622.743	229.06
622.95	246.06
623.157	228.06
623.364	230.06
623.571	239.06
623.778	233.06
623.985	243.06
624.192	239.06
624.399	217.06
624.606	238.06
624.812	225.06
625.019	234.06
625.226	221.06
625.433	217.06
625.639	217.06
625.846	228.06
626.053	245.06
626.259	215.06
626.466	240.06
626.673	221.06
626.879	229.06
627.086	225.06
627.293	225.06
627.499	233.06
627.706	222.06
627.912	207.06
628.119	212.06
628.325	202.06
628.532	221.06
628.738	217.06
628.945	215.06
629.151	230.06
629.357	218.06
629.564	220.06
629.77	215.06
629.976	213.06
630.183	211.06
630.389	195.06
630.595	207.06
630.802	229.06
631.008	200.06
631.214	200.06
631.42	213.06
631.627	205.06
631.833	195.06
632.039	212.06
632.245	217.06
632.451	202.06
632.657	203.06
632.863	203.06
633.069	213.06
633.275	213.06
633.481	203.06
633.688	213.06
633.893	202.06
634.099	216.06
634.305	209.06
634.511	204.06
634.717	194.06
634.923	178.06
635.129	198.06
635.335	189.06
635.541	196.06
635.747	196.06
635.952	215.06
636.158	180.06
636.364	181.06
636.57	207.06
636.775	190.06
636.981	184.06
637.187	200.06
637.392	194.06
637.598	201.06
637.804	197.06
638.009	197.06
638.215	178.06
638.421	176.06
638.626	189.06
638.832	188.06
639.037	180.06
639.243	165.06
639.448	194.06
639.654	205.06
639.859	179.06
640.065	189.06
640.27	188.06
640.475	185.06
640.681	191.06
640.886	194.06
641.091	189.06
641.297	182.06
641.502	184.06
641.707	174.06
641.913	189.06
642.118	182.06
642.323	192.06
642.528	182.06
642.733	203.06
642.939	187.06
643.144	179.06
643.349	190.06
643.554	192.06
643.759	185.06
643.964	198.06
644.169	187.06
644.374	174.06
644.579	184.06
644.784	190.06
644.989	166.06
645.194	188.06
645.399	183.06
645.604	164.06
645.809	178.06
646.014	179.06
646.219	192.06
646.423	192.06
646.628	180.06
646.833	176.06
647.038	182.06
647.243	183.06
647.447	179.06
647.652	181.06
647.857	169.06
648.062	195.06
648.266	180.06
648.471	158.06
648.676	178.06
648.88	178.06
649.085	180.06
649.289	175.06
649.494	194.06
649.698	190.06
649.903	182.06
650.107	190.06
650.312	169.06
650.516	169.06
650.721	183.06
650.925	164.06
651.13	157.06
651.334	171.06
651.539	155.06
651.743	154.06
651.947	162.06
652.152	155.06
652.356	164.06
652.56	149.06
652.764	173.06
652.969	156.06
653.173	157.06
653.377	154.06
653.581	159.06
653.785	150.06
653.99	150.06
654.194	158.06
654.398	159.06
654.602	146.06
654.806	129.06
655.01	165.06
655.214	154.06
655.418	129.06
655.622	151.06
655.826	164.06
656.03	142.06
656.234	136.06
656.438	143.06
656.642	152.06
656.846	152.06
657.049	140.06
657.253	129.06
657.457	125.06
657.661	127.06
657.865	134.06
658.068	126.06
658.272	125.06
658.476	117.06
658.68	101.06
658.883	119.06
659.087	107.06
659.291	108.06
659.494	103.06
659.698	117.06
659.901	93.06
660.105	104.06
660.309	113.06
660.512	84.06
660.716	89.06
660.919	89.06
661.123	103.06
661.326	91.06
661.53	114.06
661.733	106.06
661.936	103.06
662.14	93.06
662.343	93.06
662.546	99.06
662.75	81.06
662.953	99.06
663.156	90.06
663.36	86.06
663.563	93.06
663.766	94.06
663.969	92.06
664.173	95.06
664.376	86.06
664.579	83.06
664.782	70.06
664.985	86.06
665.188	93.06
665.391	71.06
665.594	89.06
665.797	85.06
666	85.06
666.203	84.06
666.406	71.06
666.609	77.06
666.812	69.06
667.015	79.06
667.218	98.06
667.421	72.06
667.624	79.06
667.827	94.06
668.03	81.06
668.232	75.06
668.435	85.06
668.638	83.06
668.841	75.06
669.043	84.06
669.246	87.06
669.449	85.06
669.651	84.06
669.854	74.06
670.057	82.06
670.259	71.06
670.462	89.06
670.665	92.06
670.867	84.06
671.07	83.06
671.272	93.06
671.475	78.06
671.677	67.06
671.88	77.06
672.082	75.06
672.284	70.06
672.487	73.06
672.689	74.06
672.892	83.06
