Data from 1966.PennyLincolnUp.Lamp.En5.5.200Scan.071719.P1._HRD10591_14-13-15-914.txt Node
Date: Thu Jul 18 14:13:15 EDT 2019
User: cochatt
Spectrometer: HR+D1059
Trigger mode: 1
Integration Time (sec): 1.000000E-1
Scans to average: 1
Electric dark correction enabled: true
Nonlinearity correction enabled: false
Boxcar width: 0
XAxis mode: Wavelengths
Number of Pixels in Spectrum: 2048
>>>>>Begin Spectral Data<<<<<
223.165	-9.94
223.4	-9.94
223.635	-9.94
223.869	-8.94
224.104	-22.94
224.338	-18.94
224.573	-15.94
224.808	-18.94
225.042	-14.94
225.277	-0.94
225.511	-8.94
225.746	10.06
225.98	6.06
226.215	15.06
226.449	16.06
226.683	18.06
226.918	22.06
227.152	33.06
227.387	26.06
227.621	34.06
227.856	34.06
228.09	45.06
228.324	60.06
228.559	52.06
228.793	58.06
229.027	83.06
229.262	99.06
229.496	83.06
229.73	96.06
229.964	111.06
230.199	106.06
230.433	82.06
230.667	78.06
230.901	86.06
231.136	73.06
231.37	87.06
231.604	89.06
231.838	106.06
232.072	99.06
232.306	83.06
232.541	91.06
232.775	94.06
233.009	108.06
233.243	103.06
233.477	92.06
233.711	87.06
233.945	81.06
234.179	102.06
234.413	100.06
234.647	114.06
234.881	99.06
235.115	102.06
235.349	94.06
235.583	103.06
235.817	110.06
236.051	88.06
236.285	102.06
236.519	94.06
236.753	85.06
236.987	115.06
237.221	113.06
237.455	144.06
237.689	118.06
237.922	105.06
238.156	98.06
238.39	107.06
238.624	102.06
238.858	93.06
239.091	87.06
239.325	97.06
239.559	104.06
239.793	97.06
240.027	97.06
240.26	116.06
240.494	121.06
240.728	113.06
240.961	117.06
241.195	92.06
241.429	106.06
241.662	87.06
241.896	101.06
242.13	105.06
242.363	93.06
242.597	93.06
242.83	103.06
243.064	104.06
243.298	100.06
243.531	93.06
243.765	100.06
243.998	78.06
244.232	110.06
244.465	103.06
244.699	103.06
244.932	103.06
245.166	108.06
245.399	112.06
245.633	106.06
245.866	104.06
246.099	101.06
246.333	97.06
246.566	125.06
246.8	95.06
247.033	119.06
247.266	131.06
247.5	106.06
247.733	116.06
247.966	122.06
248.2	113.06
248.433	117.06
248.666	112.06
248.899	122.06
249.133	119.06
249.366	130.06
249.599	124.06
249.832	106.06
250.066	120.06
250.299	109.06
250.532	109.06
250.765	134.06
250.998	143.06
251.231	146.06
251.465	130.06
251.698	128.06
251.931	132.06
252.164	134.06
252.397	129.06
252.63	146.06
252.863	121.06
253.096	128.06
253.329	141.06
253.562	140.06
253.795	141.06
254.028	135.06
254.261	138.06
254.494	141.06
254.727	165.06
254.96	160.06
255.193	144.06
255.426	159.06
255.659	127.06
255.892	129.06
256.124	136.06
256.357	153.06
256.59	130.06
256.823	142.06
257.056	141.06
257.289	139.06
257.521	127.06
257.754	120.06
257.987	138.06
258.22	143.06
258.452	129.06
258.685	140.06
258.918	142.06
259.151	139.06
259.383	146.06
259.616	132.06
259.849	137.06
260.081	147.06
260.314	145.06
260.547	156.06
260.779	156.06
261.012	140.06
261.244	154.06
261.477	144.06
261.71	136.06
261.942	140.06
262.175	164.06
262.407	128.06
262.64	128.06
262.872	137.06
263.105	131.06
263.337	146.06
263.57	138.06
263.802	149.06
264.035	143.06
264.267	132.06
264.499	143.06
264.732	152.06
264.964	137.06
265.197	127.06
265.429	152.06
265.661	138.06
265.894	129.06
266.126	136.06
266.358	145.06
266.591	150.06
266.823	148.06
267.055	129.06
267.287	134.06
267.52	141.06
267.752	135.06
267.984	147.06
268.216	145.06
268.448	160.06
268.681	140.06
268.913	137.06
269.145	160.06
269.377	169.06
269.609	151.06
269.841	159.06
270.073	163.06
270.306	181.06
270.538	175.06
270.77	192.06
271.002	172.06
271.234	169.06
271.466	176.06
271.698	184.06
271.93	167.06
272.162	190.06
272.394	178.06
272.626	156.06
272.858	172.06
273.09	158.06
273.322	169.06
273.553	159.06
273.785	148.06
274.017	146.06
274.249	157.06
274.481	145.06
274.713	165.06
274.945	143.06
275.176	170.06
275.408	154.06
275.64	158.06
275.872	148.06
276.104	152.06
276.335	143.06
276.567	164.06
276.799	185.06
277.031	182.06
277.262	189.06
277.494	186.06
277.726	188.06
277.957	170.06
278.189	165.06
278.421	154.06
278.652	156.06
278.884	158.06
279.115	157.06
279.347	144.06
279.579	145.06
279.81	146.06
280.042	160.06
280.273	164.06
280.505	154.06
280.736	146.06
280.968	158.06
281.199	166.06
281.431	154.06
281.662	151.06
281.894	154.06
282.125	179.06
282.356	160.06
282.588	184.06
282.819	176.06
283.051	171.06
283.282	169.06
283.513	173.06
283.745	161.06
283.976	163.06
284.207	161.06
284.439	161.06
284.67	163.06
284.901	168.06
285.132	167.06
285.364	162.06
285.595	148.06
285.826	145.06
286.057	159.06
286.288	161.06
286.52	171.06
286.751	155.06
286.982	169.06
287.213	166.06
287.444	159.06
287.675	160.06
287.906	159.06
288.138	167.06
288.369	181.06
288.6	164.06
288.831	173.06
289.062	171.06
289.293	162.06
289.524	175.06
289.755	153.06
289.986	158.06
290.217	157.06
290.448	190.06
290.679	187.06
290.91	171.06
291.141	159.06
291.371	159.06
291.602	184.06
291.833	156.06
292.064	157.06
292.295	150.06
292.526	164.06
292.757	162.06
292.987	162.06
293.218	158.06
293.449	163.06
293.68	143.06
293.91	177.06
294.141	172.06
294.372	154.06
294.603	170.06
294.833	184.06
295.064	176.06
295.295	177.06
295.525	166.06
295.756	160.06
295.987	192.06
296.217	175.06
296.448	202.06
296.679	171.06
296.909	166.06
297.14	169.06
297.37	171.06
297.601	184.06
297.831	167.06
298.062	182.06
298.292	182.06
298.523	175.06
298.753	149.06
298.984	175.06
299.214	176.06
299.445	172.06
299.675	167.06
299.905	177.06
300.136	172.06
300.366	180.06
300.597	174.06
300.827	169.06
301.057	177.06
301.288	191.06
301.518	172.06
301.748	174.06
301.979	180.06
302.209	176.06
302.439	182.06
302.669	178.06
302.9	197.06
303.13	179.06
303.36	182.06
303.59	189.06
303.82	194.06
304.051	192.06
304.281	183.06
304.511	183.06
304.741	181.06
304.971	186.06
305.201	169.06
305.431	181.06
305.661	170.06
305.891	180.06
306.121	183.06
306.352	199.06
306.582	202.06
306.812	178.06
307.042	174.06
307.272	174.06
307.502	190.06
307.731	182.06
307.961	168.06
308.191	178.06
308.421	185.06
308.651	198.06
308.881	189.06
309.111	169.06
309.341	174.06
309.571	191.06
309.8	177.06
310.03	204.06
310.26	207.06
310.49	210.06
310.72	219.06
310.949	214.06
311.179	214.06
311.409	201.06
311.639	210.06
311.868	207.06
312.098	201.06
312.328	207.06
312.557	219.06
312.787	225.06
313.017	230.06
313.246	197.06
313.476	191.06
313.706	208.06
313.935	203.06
314.165	220.06
314.394	196.06
314.624	220.06
314.853	212.06
315.083	209.06
315.312	205.06
315.542	205.06
315.771	191.06
316.001	205.06
316.23	186.06
316.46	203.06
316.689	206.06
316.919	200.06
317.148	211.06
317.377	210.06
317.607	192.06
317.836	211.06
318.065	204.06
318.295	205.06
318.524	197.06
318.753	193.06
318.983	208.06
319.212	209.06
319.441	216.06
319.67	205.06
319.9	200.06
320.129	168.06
320.358	193.06
320.587	191.06
320.816	219.06
321.046	218.06
321.275	205.06
321.504	197.06
321.733	197.06
321.962	209.06
322.191	223.06
322.42	237.06
322.649	217.06
322.878	218.06
323.108	232.06
323.337	236.06
323.566	249.06
323.795	260.06
324.024	294.06
324.253	344.06
324.482	502.06
324.71	763.06
324.939	963.06
325.168	795.06
325.397	409.06
325.626	279.06
325.855	248.06
326.084	238.06
326.313	257.06
326.542	233.06
326.77	267.06
326.999	326.06
327.228	464.06
327.457	622.06
327.686	775.06
327.914	479.06
328.143	329.06
328.372	324.06
328.6	295.06
328.829	285.06
329.058	304.06
329.287	298.06
329.515	271.06
329.744	258.06
329.972	257.06
330.201	286.06
330.43	295.06
330.658	301.06
330.887	302.06
331.115	317.06
331.344	266.06
331.572	255.06
331.801	252.06
332.03	244.06
332.258	238.06
332.486	230.06
332.715	228.06
332.943	244.06
333.172	228.06
333.4	236.06
333.629	264.06
333.857	248.06
334.085	245.06
334.314	277.06
334.542	280.06
334.771	290.06
334.999	273.06
335.227	254.06
335.455	235.06
335.684	238.06
335.912	228.06
336.14	217.06
336.369	232.06
336.597	238.06
336.825	245.06
337.053	230.06
337.281	222.06
337.51	221.06
337.738	210.06
337.966	231.06
338.194	223.06
338.422	224.06
338.65	220.06
338.878	224.06
339.106	217.06
339.334	211.06
339.562	227.06
339.79	230.06
340.018	233.06
340.246	228.06
340.474	213.06
340.702	229.06
340.93	221.06
341.158	212.06
341.386	217.06
341.614	223.06
341.842	225.06
342.07	202.06
342.298	201.06
342.526	210.06
342.754	222.06
342.981	214.06
343.209	208.06
343.437	220.06
343.665	208.06
343.893	206.06
344.12	224.06
344.348	221.06
344.576	229.06
344.804	230.06
345.031	230.06
345.259	230.06
345.487	231.06
345.714	209.06
345.942	218.06
346.17	210.06
346.397	201.06
346.625	213.06
346.853	212.06
347.08	211.06
347.308	217.06
347.535	218.06
347.763	217.06
347.99	224.06
348.218	223.06
348.445	225.06
348.673	222.06
348.9	203.06
349.128	204.06
349.355	201.06
349.583	198.06
349.81	200.06
350.037	202.06
350.265	207.06
350.492	196.06
350.72	207.06
350.947	219.06
351.174	218.06
351.402	209.06
351.629	212.06
351.856	217.06
352.083	214.06
352.311	227.06
352.538	225.06
352.765	218.06
352.992	213.06
353.22	232.06
353.447	205.06
353.674	221.06
353.901	214.06
354.128	190.06
354.355	200.06
354.583	204.06
354.81	209.06
355.037	196.06
355.264	194.06
355.491	200.06
355.718	197.06
355.945	194.06
356.172	186.06
356.399	206.06
356.626	210.06
356.853	192.06
357.08	188.06
357.307	204.06
357.534	201.06
357.761	196.06
357.988	209.06
358.215	196.06
358.441	208.06
358.668	204.06
358.895	210.06
359.122	210.06
359.349	214.06
359.576	227.06
359.802	224.06
360.029	251.06
360.256	243.06
360.483	248.06
360.709	202.06
360.936	216.06
361.163	225.06
361.39	226.06
361.616	211.06
361.843	220.06
362.07	204.06
362.296	214.06
362.523	227.06
362.749	202.06
362.976	205.06
363.203	202.06
363.429	204.06
363.656	214.06
363.882	209.06
364.109	204.06
364.335	196.06
364.562	208.06
364.788	203.06
365.015	198.06
365.241	213.06
365.468	220.06
365.694	208.06
365.92	212.06
366.147	207.06
366.373	211.06
366.599	186.06
366.826	204.06
367.052	200.06
367.278	194.06
367.505	203.06
367.731	202.06
367.957	209.06
368.184	214.06
368.41	196.06
368.636	216.06
368.862	209.06
369.089	212.06
369.315	214.06
369.541	203.06
369.767	219.06
369.993	202.06
370.219	200.06
370.445	202.06
370.672	188.06
370.898	214.06
371.124	190.06
371.35	193.06
371.576	188.06
371.802	196.06
372.028	202.06
372.254	214.06
372.48	205.06
372.706	208.06
372.932	200.06
373.158	206.06
373.384	196.06
373.61	213.06
373.835	197.06
374.061	207.06
374.287	216.06
374.513	201.06
374.739	200.06
374.965	193.06
375.191	204.06
375.416	203.06
375.642	203.06
375.868	207.06
376.094	212.06
376.319	198.06
376.545	202.06
376.771	219.06
376.997	210.06
377.222	201.06
377.448	203.06
377.674	223.06
377.899	194.06
378.125	202.06
378.35	207.06
378.576	205.06
378.802	191.06
379.027	190.06
379.253	201.06
379.478	214.06
379.704	201.06
379.929	205.06
380.155	197.06
380.38	195.06
380.606	200.06
380.831	216.06
381.057	204.06
381.282	214.06
381.507	209.06
381.733	222.06
381.958	211.06
382.184	205.06
382.409	194.06
382.634	200.06
382.86	190.06
383.085	209.06
383.31	207.06
383.535	221.06
383.761	212.06
383.986	211.06
384.211	202.06
384.436	197.06
384.662	218.06
384.887	232.06
385.112	209.06
385.337	233.06
385.562	208.06
385.787	218.06
386.013	237.06
386.238	235.06
386.463	213.06
386.688	215.06
386.913	224.06
387.138	204.06
387.363	221.06
387.588	218.06
387.813	196.06
388.038	223.06
388.263	212.06
388.488	214.06
388.713	224.06
388.938	218.06
389.163	227.06
389.387	231.06
389.612	222.06
389.837	227.06
390.062	228.06
390.287	194.06
390.512	217.06
390.736	200.06
390.961	202.06
391.186	201.06
391.411	207.06
391.636	230.06
391.86	220.06
392.085	212.06
392.31	223.06
392.534	241.06
392.759	225.06
392.984	231.06
393.208	211.06
393.433	223.06
393.658	228.06
393.882	222.06
394.107	209.06
394.331	210.06
394.556	210.06
394.78	221.06
395.005	222.06
395.229	226.06
395.454	201.06
395.678	202.06
395.903	216.06
396.127	245.06
396.352	225.06
396.576	237.06
396.801	212.06
397.025	221.06
397.249	228.06
397.474	224.06
397.698	231.06
397.922	236.06
398.147	220.06
398.371	247.06
398.595	228.06
398.82	249.06
399.044	259.06
399.268	257.06
399.492	251.06
399.717	289.06
399.941	296.06
400.165	272.06
400.389	305.06
400.613	272.06
400.837	246.06
401.062	254.06
401.286	273.06
401.51	265.06
401.734	239.06
401.958	228.06
402.182	242.06
402.406	248.06
402.63	256.06
402.854	252.06
403.078	245.06
403.302	269.06
403.526	249.06
403.75	263.06
403.974	272.06
404.198	242.06
404.422	278.06
404.645	248.06
404.869	279.06
405.093	267.06
405.317	302.06
405.541	298.06
405.765	289.06
405.988	277.06
406.212	264.06
406.436	272.06
406.66	301.06
406.883	288.06
407.107	287.06
407.331	299.06
407.555	336.06
407.778	315.06
408.002	304.06
408.226	267.06
408.449	251.06
408.673	282.06
408.896	288.06
409.12	274.06
409.344	275.06
409.567	263.06
409.791	260.06
410.014	236.06
410.238	246.06
410.461	260.06
410.685	262.06
410.908	279.06
411.132	270.06
411.355	290.06
411.578	261.06
411.802	265.06
412.025	249.06
412.249	263.06
412.472	268.06
412.695	265.06
412.919	273.06
413.142	261.06
413.365	251.06
413.589	253.06
413.812	251.06
414.035	245.06
414.258	219.06
414.482	252.06
414.705	250.06
414.928	262.06
415.151	224.06
415.374	242.06
415.597	244.06
415.821	253.06
416.044	226.06
416.267	251.06
416.49	233.06
416.713	236.06
416.936	236.06
417.159	254.06
417.382	248.06
417.605	229.06
417.828	250.06
418.051	249.06
418.274	256.06
418.497	247.06
418.72	231.06
418.943	236.06
419.166	248.06
419.389	256.06
419.611	269.06
419.834	265.06
420.057	260.06
420.28	259.06
420.503	251.06
420.726	247.06
420.948	257.06
421.171	265.06
421.394	300.06
421.617	248.06
421.839	260.06
422.062	246.06
422.285	272.06
422.507	291.06
422.73	316.06
422.953	303.06
423.175	259.06
423.398	273.06
423.621	288.06
423.843	292.06
424.066	267.06
424.288	267.06
424.511	266.06
424.733	320.06
424.956	335.06
425.178	318.06
425.401	293.06
425.623	338.06
425.846	279.06
426.068	271.06
426.291	267.06
426.513	270.06
426.735	260.06
426.958	280.06
427.18	329.06
427.402	381.06
427.625	398.06
427.847	343.06
428.069	304.06
428.292	285.06
428.514	260.06
428.736	246.06
428.958	246.06
429.181	260.06
429.403	250.06
429.625	266.06
429.847	274.06
430.069	309.06
430.292	274.06
430.514	283.06
430.736	244.06
430.958	253.06
431.18	244.06
431.402	239.06
431.624	246.06
431.846	244.06
432.068	227.06
432.29	233.06
432.512	240.06
432.734	237.06
432.956	241.06
433.178	262.06
433.4	252.06
433.622	250.06
433.844	240.06
434.066	248.06
434.287	241.06
434.509	232.06
434.731	222.06
434.953	254.06
435.175	268.06
435.397	252.06
435.618	289.06
435.84	292.06
436.062	313.06
436.284	349.06
436.505	295.06
436.727	276.06
436.949	257.06
437.17	252.06
437.392	248.06
437.614	255.06
437.835	275.06
438.057	324.06
438.278	357.06
438.5	346.06
438.721	373.06
438.943	353.06
439.165	272.06
439.386	268.06
439.608	267.06
439.829	268.06
440.05	277.06
440.272	305.06
440.493	290.06
440.715	270.06
440.936	283.06
441.158	251.06
441.379	270.06
441.6	257.06
441.822	268.06
442.043	266.06
442.264	326.06
442.486	342.06
442.707	297.06
442.928	261.06
443.149	293.06
443.371	302.06
443.592	303.06
443.813	340.06
444.034	347.06
444.255	295.06
444.476	300.06
444.698	272.06
444.919	262.06
445.14	344.06
445.361	320.06
445.582	286.06
445.803	314.06
446.024	372.06
446.245	363.06
446.466	346.06
446.687	299.06
446.908	268.06
447.129	249.06
447.35	239.06
447.571	255.06
447.792	226.06
448.013	250.06
448.234	254.06
448.455	288.06
448.675	337.06
448.896	354.06
449.117	303.06
449.338	304.06
449.559	333.06
449.779	358.06
450	294.06
450.221	253.06
450.442	236.06
450.662	234.06
450.883	244.06
451.104	257.06
451.324	260.06
451.545	236.06
451.766	250.06
451.986	223.06
452.207	240.06
452.428	231.06
452.648	240.06
452.869	229.06
453.089	250.06
453.31	247.06
453.53	230.06
453.751	235.06
453.971	241.06
454.192	242.06
454.412	231.06
454.633	234.06
454.853	237.06
455.073	222.06
455.294	246.06
455.514	289.06
455.734	257.06
455.955	224.06
456.175	216.06
456.395	206.06
456.616	204.06
456.836	203.06
457.056	191.06
457.276	200.06
457.497	207.06
457.717	218.06
457.937	221.06
458.157	215.06
458.377	216.06
458.598	222.06
458.818	278.06
459.038	310.06
459.258	299.06
459.478	246.06
459.698	248.06
459.918	234.06
460.138	241.06
460.358	225.06
460.578	261.06
460.798	223.06
461.018	246.06
461.238	233.06
461.458	241.06
461.678	235.06
461.898	235.06
462.118	238.06
462.338	245.06
462.558	239.06
462.777	236.06
462.997	256.06
463.217	258.06
463.437	255.06
463.657	258.06
463.876	244.06
464.096	247.06
464.316	260.06
464.536	271.06
464.755	260.06
464.975	250.06
465.195	288.06
465.414	338.06
465.634	292.06
465.854	251.06
466.073	238.06
466.293	237.06
466.512	227.06
466.732	238.06
466.951	210.06
467.171	225.06
467.391	257.06
467.61	255.06
467.829	251.06
468.049	239.06
468.268	233.06
468.488	217.06
468.707	217.06
468.927	221.06
469.146	217.06
469.365	222.06
469.585	226.06
469.804	236.06
470.023	237.06
470.243	244.06
470.462	244.06
470.681	260.06
470.901	244.06
471.12	232.06
471.339	253.06
471.558	234.06
471.777	237.06
471.997	225.06
472.216	236.06
472.435	266.06
472.654	248.06
472.873	238.06
473.092	223.06
473.311	233.06
473.53	230.06
473.749	238.06
473.968	254.06
474.187	313.06
474.406	296.06
474.625	253.06
474.844	238.06
475.063	220.06
475.282	225.06
475.501	224.06
475.72	260.06
475.939	217.06
476.158	222.06
476.377	227.06
476.596	235.06
476.814	247.06
477.033	259.06
477.252	241.06
477.471	248.06
477.69	245.06
477.908	262.06
478.127	255.06
478.346	264.06
478.564	253.06
478.783	251.06
479.002	260.06
479.22	263.06
479.439	272.06
479.658	267.06
479.876	281.06
480.095	290.06
480.313	278.06
480.532	274.06
480.751	271.06
480.969	311.06
481.188	350.06
481.406	358.06
481.624	320.06
481.843	287.06
482.061	269.06
482.28	285.06
482.498	254.06
482.717	257.06
482.935	254.06
483.153	272.06
483.372	260.06
483.59	252.06
483.808	274.06
484.027	273.06
484.245	265.06
484.463	289.06
484.681	285.06
484.9	273.06
485.118	289.06
485.336	265.06
485.554	280.06
485.772	267.06
485.99	258.06
486.209	272.06
486.427	280.06
486.645	279.06
486.863	312.06
487.081	304.06
487.299	283.06
487.517	294.06
487.735	284.06
487.953	273.06
488.171	294.06
488.389	286.06
488.607	286.06
488.825	291.06
489.043	280.06
489.261	298.06
489.479	280.06
489.696	299.06
489.914	300.06
490.132	290.06
490.35	311.06
490.568	282.06
490.786	308.06
491.003	325.06
491.221	321.06
491.439	328.06
491.657	343.06
491.874	342.06
492.092	343.06
492.31	336.06
492.527	331.06
492.745	333.06
492.963	356.06
493.18	341.06
493.398	349.06
493.615	353.06
493.833	353.06
494.05	343.06
494.268	342.06
494.485	357.06
494.703	337.06
494.92	354.06
495.138	349.06
495.355	336.06
495.573	350.06
495.79	324.06
496.008	323.06
496.225	340.06
496.442	356.06
496.66	331.06
496.877	333.06
497.094	330.06
497.312	335.06
497.529	338.06
497.746	355.06
497.963	337.06
498.181	343.06
498.398	335.06
498.615	374.06
498.832	364.06
499.049	347.06
499.267	367.06
499.484	376.06
499.701	395.06
499.918	385.06
500.135	447.06
500.352	421.06
500.569	448.06
500.786	463.06
501.003	433.06
501.22	440.06
501.437	424.06
501.654	430.06
501.871	435.06
502.088	394.06
502.305	386.06
502.522	360.06
502.739	366.06
502.956	353.06
503.172	342.06
503.389	341.06
503.606	328.06
503.823	359.06
504.04	342.06
504.256	317.06
504.473	336.06
504.69	328.06
504.907	312.06
505.123	319.06
505.34	324.06
505.557	338.06
505.773	326.06
505.99	325.06
506.207	313.06
506.423	302.06
506.64	316.06
506.856	310.06
507.073	313.06
507.289	316.06
507.506	302.06
507.722	317.06
507.939	333.06
508.155	328.06
508.372	306.06
508.588	321.06
508.805	294.06
509.021	314.06
509.238	298.06
509.454	311.06
509.67	304.06
509.887	308.06
510.103	304.06
510.319	326.06
510.536	370.06
510.752	722.06
510.968	526.06
511.184	308.06
511.401	302.06
511.617	310.06
511.833	276.06
512.049	304.06
512.265	280.06
512.481	287.06
512.698	286.06
512.914	288.06
513.13	285.06
513.346	279.06
513.562	272.06
513.778	303.06
513.994	293.06
514.21	308.06
514.426	312.06
514.642	345.06
514.858	356.06
515.074	355.06
515.29	470.06
515.506	782.06
515.721	625.06
515.937	367.06
516.153	318.06
516.369	310.06
516.585	278.06
516.801	319.06
517.016	308.06
517.232	290.06
517.448	300.06
517.664	305.06
517.879	299.06
518.095	286.06
518.311	288.06
518.527	265.06
518.742	276.06
518.958	276.06
519.173	302.06
519.389	287.06
519.605	276.06
519.82	285.06
520.036	284.06
520.251	294.06
520.467	328.06
520.682	308.06
520.898	321.06
521.113	334.06
521.329	364.06
521.544	396.06
521.76	548.06
521.975	1061.06
522.19	1040.06
522.406	500.06
522.621	338.06
522.836	310.06
523.052	310.06
523.267	281.06
523.482	266.06
523.698	265.06
523.913	254.06
524.128	268.06
524.343	251.06
524.559	247.06
524.774	248.06
524.989	256.06
525.204	239.06
525.419	267.06
525.634	266.06
525.849	230.06
526.064	245.06
526.28	244.06
526.495	239.06
526.71	250.06
526.925	228.06
527.14	232.06
527.355	241.06
527.57	245.06
527.785	236.06
527.999	240.06
528.214	214.06
528.429	240.06
528.644	253.06
528.859	254.06
529.074	257.06
529.289	252.06
529.503	319.06
529.718	298.06
529.933	264.06
530.148	238.06
530.363	242.06
530.577	249.06
530.792	233.06
531.007	235.06
531.221	235.06
531.436	262.06
531.651	247.06
531.865	222.06
532.08	239.06
532.295	244.06
532.509	233.06
532.724	222.06
532.938	229.06
533.153	233.06
533.367	238.06
533.582	225.06
533.796	230.06
534.011	218.06
534.225	225.06
534.44	232.06
534.654	225.06
534.868	214.06
535.083	224.06
535.297	241.06
535.511	245.06
535.726	255.06
535.94	231.06
536.154	219.06
536.369	212.06
536.583	223.06
536.797	225.06
537.011	217.06
537.225	216.06
537.44	222.06
537.654	214.06
537.868	233.06
538.082	215.06
538.296	220.06
538.51	229.06
538.724	223.06
538.938	230.06
539.153	227.06
539.367	226.06
539.581	223.06
539.795	210.06
540.009	233.06
540.222	228.06
540.436	220.06
540.65	218.06
540.864	233.06
541.078	219.06
541.292	246.06
541.506	230.06
541.72	217.06
541.934	208.06
542.147	236.06
542.361	222.06
542.575	222.06
542.789	226.06
543.002	198.06
543.216	228.06
543.43	236.06
543.644	261.06
543.857	220.06
544.071	232.06
544.285	215.06
544.498	236.06
544.712	228.06
544.925	227.06
545.139	236.06
545.352	221.06
545.566	229.06
545.779	233.06
545.993	222.06
546.206	221.06
546.42	249.06
546.633	207.06
546.847	208.06
547.06	235.06
547.274	211.06
547.487	210.06
547.7	202.06
547.914	217.06
548.127	212.06
548.34	223.06
548.554	208.06
548.767	225.06
548.98	218.06
549.193	211.06
549.407	210.06
549.62	234.06
549.833	203.06
550.046	218.06
550.259	212.06
550.473	218.06
550.686	221.06
550.899	232.06
551.112	224.06
551.325	226.06
551.538	205.06
551.751	199.06
551.964	201.06
552.177	221.06
552.39	211.06
552.603	218.06
552.816	217.06
553.029	216.06
553.242	230.06
553.455	231.06
553.667	249.06
553.88	244.06
554.093	225.06
554.306	217.06
554.519	212.06
554.732	219.06
554.944	216.06
555.157	210.06
555.37	212.06
555.583	215.06
555.795	193.06
556.008	200.06
556.221	209.06
556.433	199.06
556.646	209.06
556.859	200.06
557.071	201.06
557.284	200.06
557.496	198.06
557.709	189.06
557.921	188.06
558.134	205.06
558.346	208.06
558.559	204.06
558.771	173.06
558.984	203.06
559.196	202.06
559.409	198.06
559.621	206.06
559.833	187.06
560.046	209.06
560.258	190.06
560.47	194.06
560.683	198.06
560.895	208.06
561.107	191.06
561.32	190.06
561.532	179.06
561.744	187.06
561.956	182.06
562.168	182.06
562.381	211.06
562.593	204.06
562.805	190.06
563.017	205.06
563.229	194.06
563.441	190.06
563.653	206.06
563.865	187.06
564.077	197.06
564.289	203.06
564.501	210.06
564.713	205.06
564.925	207.06
565.137	195.06
565.349	198.06
565.561	199.06
565.773	211.06
565.985	206.06
566.197	201.06
566.408	217.06
566.62	222.06
566.832	225.06
567.044	241.06
567.255	241.06
567.467	233.06
567.679	234.06
567.891	233.06
568.102	228.06
568.314	230.06
568.526	232.06
568.737	211.06
568.949	210.06
569.161	205.06
569.372	201.06
569.584	211.06
569.795	205.06
570.007	200.06
570.218	220.06
570.43	211.06
570.641	189.06
570.853	187.06
571.064	192.06
571.276	192.06
571.487	171.06
571.698	201.06
571.91	196.06
572.121	184.06
572.333	186.06
572.544	187.06
572.755	173.06
572.966	193.06
573.178	177.06
573.389	177.06
573.6	194.06
573.811	183.06
574.023	169.06
574.234	176.06
574.445	201.06
574.656	173.06
574.867	179.06
575.078	161.06
575.289	167.06
575.501	173.06
575.712	156.06
575.923	171.06
576.134	167.06
576.345	188.06
576.556	180.06
576.767	176.06
576.978	177.06
577.188	178.06
577.399	178.06
577.61	176.06
577.821	177.06
578.032	183.06
578.243	196.06
578.454	348.06
578.665	228.06
578.875	183.06
579.086	145.06
579.297	161.06
579.508	166.06
579.718	169.06
579.929	175.06
580.14	179.06
580.35	168.06
580.561	162.06
580.772	161.06
580.982	160.06
581.193	169.06
581.403	159.06
581.614	173.06
581.825	161.06
582.035	163.06
582.246	165.06
582.456	156.06
582.667	174.06
582.877	164.06
583.087	151.06
583.298	151.06
583.508	138.06
583.719	143.06
583.929	175.06
584.139	173.06
584.35	159.06
584.56	165.06
584.77	180.06
584.981	158.06
585.191	153.06
585.401	180.06
585.611	156.06
585.821	152.06
586.032	164.06
586.242	161.06
586.452	174.06
586.662	154.06
586.872	148.06
587.082	156.06
587.292	159.06
587.502	153.06
587.713	167.06
587.923	144.06
588.133	145.06
588.343	167.06
588.553	165.06
588.762	161.06
588.972	183.06
589.182	180.06
589.392	174.06
589.602	172.06
589.812	166.06
590.022	156.06
590.232	150.06
590.441	164.06
590.651	162.06
590.861	146.06
591.071	144.06
591.281	160.06
591.49	153.06
591.7	152.06
591.91	165.06
592.119	152.06
592.329	168.06
592.539	178.06
592.748	176.06
592.958	160.06
593.167	166.06
593.377	161.06
593.587	169.06
593.796	175.06
594.006	161.06
594.215	172.06
594.424	170.06
594.634	155.06
594.843	174.06
595.053	171.06
595.262	155.06
595.472	154.06
595.681	160.06
595.89	147.06
596.1	152.06
596.309	149.06
596.518	161.06
596.727	150.06
596.937	153.06
597.146	133.06
597.355	152.06
597.564	170.06
597.774	146.06
597.983	145.06
598.192	152.06
598.401	164.06
598.61	139.06
598.819	159.06
599.028	162.06
599.237	151.06
599.446	145.06
599.655	162.06
599.864	152.06
600.073	141.06
600.282	140.06
600.491	143.06
600.7	140.06
600.909	156.06
601.118	142.06
601.327	153.06
601.536	136.06
601.745	145.06
601.953	147.06
602.162	146.06
602.371	144.06
602.58	149.06
602.789	156.06
602.997	156.06
603.206	133.06
603.415	136.06
603.623	126.06
603.832	140.06
604.041	133.06
604.249	127.06
604.458	140.06
604.666	146.06
604.875	137.06
605.084	151.06
605.292	132.06
605.501	154.06
605.709	142.06
605.918	134.06
606.126	153.06
606.334	145.06
606.543	152.06
606.751	148.06
606.96	150.06
607.168	136.06
607.376	133.06
607.585	133.06
607.793	134.06
608.001	147.06
608.21	144.06
608.418	148.06
608.626	150.06
608.834	144.06
609.043	142.06
609.251	131.06
609.459	142.06
609.667	160.06
609.875	150.06
610.083	162.06
610.291	147.06
610.499	154.06
610.707	145.06
610.916	150.06
611.124	137.06
611.332	149.06
611.54	151.06
611.748	148.06
611.955	143.06
612.163	132.06
612.371	146.06
612.579	148.06
612.787	152.06
612.995	132.06
613.203	134.06
613.411	136.06
613.618	152.06
613.826	144.06
614.034	155.06
614.242	152.06
614.449	148.06
614.657	143.06
614.865	140.06
615.072	161.06
615.28	137.06
615.488	139.06
615.695	141.06
615.903	142.06
616.111	142.06
616.318	127.06
616.526	144.06
616.733	133.06
616.941	134.06
617.148	141.06
617.356	144.06
617.563	142.06
617.771	153.06
617.978	120.06
618.185	148.06
618.393	145.06
618.6	148.06
618.807	132.06
619.015	143.06
619.222	136.06
619.429	146.06
619.637	138.06
619.844	138.06
620.051	147.06
620.258	141.06
620.466	124.06
620.673	128.06
620.88	148.06
621.087	142.06
621.294	139.06
621.501	133.06
621.708	145.06
621.915	139.06
622.122	136.06
622.329	136.06
622.536	136.06
622.743	132.06
622.95	137.06
623.157	133.06
623.364	127.06
623.571	121.06
623.778	127.06
623.985	118.06
624.192	143.06
624.399	135.06
624.606	131.06
624.812	130.06
625.019	129.06
625.226	136.06
625.433	136.06
625.639	135.06
625.846	123.06
626.053	129.06
626.259	132.06
626.466	128.06
626.673	132.06
626.879	134.06
627.086	140.06
627.293	134.06
627.499	131.06
627.706	142.06
627.912	121.06
628.119	122.06
628.325	123.06
628.532	122.06
628.738	125.06
628.945	146.06
629.151	126.06
629.357	129.06
629.564	132.06
629.77	121.06
629.976	124.06
630.183	118.06
630.389	109.06
630.595	136.06
630.802	137.06
631.008	134.06
631.214	120.06
631.42	142.06
631.627	127.06
631.833	121.06
632.039	123.06
632.245	140.06
632.451	123.06
632.657	123.06
632.863	137.06
633.069	134.06
633.275	141.06
633.481	129.06
633.688	132.06
633.893	131.06
634.099	128.06
634.305	118.06
634.511	125.06
634.717	125.06
634.923	125.06
635.129	117.06
635.335	133.06
635.541	119.06
635.747	124.06
635.952	113.06
636.158	113.06
636.364	126.06
636.57	138.06
636.775	130.06
636.981	124.06
637.187	131.06
637.392	128.06
637.598	126.06
637.804	125.06
638.009	121.06
638.215	119.06
638.421	117.06
638.626	117.06
638.832	121.06
639.037	128.06
639.243	114.06
639.448	113.06
639.654	126.06
639.859	118.06
640.065	118.06
640.27	142.06
640.475	110.06
640.681	119.06
640.886	118.06
641.091	124.06
641.297	117.06
641.502	120.06
641.707	130.06
641.913	126.06
642.118	125.06
642.323	111.06
642.528	111.06
642.733	123.06
642.939	125.06
643.144	117.06
643.349	110.06
643.554	121.06
643.759	116.06
643.964	130.06
644.169	119.06
644.374	110.06
644.579	113.06
644.784	126.06
644.989	119.06
645.194	112.06
645.399	102.06
645.604	116.06
645.809	128.06
646.014	103.06
646.219	124.06
646.423	126.06
646.628	103.06
646.833	118.06
647.038	121.06
647.243	128.06
647.447	109.06
647.652	116.06
647.857	116.06
648.062	141.06
648.266	107.06
648.471	104.06
648.676	127.06
648.88	120.06
649.085	133.06
649.289	121.06
649.494	130.06
649.698	144.06
649.903	136.06
650.107	129.06
650.312	127.06
650.516	124.06
650.721	123.06
650.925	117.06
651.13	127.06
651.334	125.06
651.539	120.06
651.743	124.06
651.947	106.06
652.152	121.06
652.356	128.06
652.56	102.06
652.764	93.06
652.969	105.06
653.173	113.06
653.377	126.06
653.581	104.06
653.785	113.06
653.99	116.06
654.194	125.06
654.398	108.06
654.602	83.06
654.806	105.06
655.01	118.06
655.214	126.06
655.418	113.06
655.622	119.06
655.826	108.06
656.03	112.06
656.234	108.06
656.438	116.06
656.642	112.06
656.846	110.06
657.049	112.06
657.253	97.06
657.457	102.06
657.661	88.06
657.865	96.06
658.068	90.06
658.272	106.06
658.476	110.06
658.68	101.06
658.883	103.06
659.087	107.06
659.291	102.06
659.494	97.06
659.698	100.06
659.901	100.06
660.105	91.06
660.309	80.06
660.512	95.06
660.716	97.06
660.919	88.06
661.123	92.06
661.326	96.06
661.53	86.06
661.733	92.06
661.936	78.06
662.14	78.06
662.343	78.06
662.546	74.06
662.75	81.06
662.953	92.06
663.156	81.06
663.36	80.06
663.563	90.06
663.766	85.06
663.969	87.06
664.173	77.06
664.376	79.06
664.579	90.06
664.782	98.06
664.985	77.06
665.188	92.06
665.391	98.06
665.594	83.06
665.797	86.06
666	90.06
666.203	79.06
666.406	79.06
666.609	88.06
666.812	94.06
667.015	95.06
667.218	87.06
667.421	90.06
667.624	86.06
667.827	81.06
668.03	96.06
668.232	67.06
668.435	86.06
668.638	82.06
668.841	86.06
669.043	85.06
669.246	98.06
669.449	88.06
669.651	81.06
669.854	83.06
670.057	100.06
670.259	81.06
670.462	88.06
670.665	82.06
670.867	96.06
671.07	86.06
671.272	93.06
671.475	77.06
671.677	92.06
671.88	91.06
672.082	77.06
672.284	84.06
672.487	90.06
672.689	86.06
672.892	76.06
