Data from 1966.PennyLincolnUp.Lamp.En5.5.200Scan.071719.P1.Scan2.head_HRD10591_14-18-31-194.txt Node
Date: Thu Jul 18 14:18:31 EDT 2019
User: cochatt
Spectrometer: HR+D1059
Trigger mode: 1
Integration Time (sec): 1.000000E-1
Scans to average: 1
Electric dark correction enabled: true
Nonlinearity correction enabled: false
Boxcar width: 0
XAxis mode: Wavelengths
Number of Pixels in Spectrum: 2048
>>>>>Begin Spectral Data<<<<<
223.165	-11.25
223.4	-11.25
223.635	-11.25
223.869	-16.25
224.104	-6.25
224.338	-10.25
224.573	-0.25
224.808	-11.25
225.042	-21.25
225.277	-18.25
225.511	3.75
225.746	-11.25
225.98	-11.25
226.215	15.75
226.449	7.75
226.683	21.75
226.918	32.75
227.152	35.75
227.387	27.75
227.621	32.75
227.856	43.75
228.09	35.75
228.324	67.75
228.559	61.75
228.793	71.75
229.027	94.75
229.262	121.75
229.496	117.75
229.73	132.75
229.964	176.75
230.199	151.75
230.433	124.75
230.667	118.75
230.901	123.75
231.136	119.75
231.37	127.75
231.604	113.75
231.838	111.75
232.072	99.75
232.306	116.75
232.541	107.75
232.775	118.75
233.009	128.75
233.243	123.75
233.477	121.75
233.711	104.75
233.945	109.75
234.179	115.75
234.413	125.75
234.647	120.75
234.881	133.75
235.115	116.75
235.349	107.75
235.583	121.75
235.817	113.75
236.051	128.75
236.285	126.75
236.519	111.75
236.753	139.75
236.987	160.75
237.221	192.75
237.455	230.75
237.689	187.75
237.922	149.75
238.156	134.75
238.39	127.75
238.624	130.75
238.858	124.75
239.091	138.75
239.325	111.75
239.559	136.75
239.793	135.75
240.027	141.75
240.26	153.75
240.494	155.75
240.728	152.75
240.961	160.75
241.195	148.75
241.429	143.75
241.662	141.75
241.896	137.75
242.13	142.75
242.363	137.75
242.597	143.75
242.83	153.75
243.064	142.75
243.298	149.75
243.531	150.75
243.765	149.75
243.998	146.75
244.232	149.75
244.465	136.75
244.699	158.75
244.932	153.75
245.166	143.75
245.399	154.75
245.633	162.75
245.866	146.75
246.099	154.75
246.333	156.75
246.566	162.75
246.8	151.75
247.033	165.75
247.266	162.75
247.5	151.75
247.733	190.75
247.966	174.75
248.2	184.75
248.433	173.75
248.666	174.75
248.899	180.75
249.133	203.75
249.366	211.75
249.599	204.75
249.832	196.75
250.066	184.75
250.299	192.75
250.532	203.75
250.765	216.75
250.998	222.75
251.231	239.75
251.465	214.75
251.698	220.75
251.931	193.75
252.164	207.75
252.397	208.75
252.63	203.75
252.863	201.75
253.096	219.75
253.329	224.75
253.562	213.75
253.795	222.75
254.028	228.75
254.261	239.75
254.494	219.75
254.727	247.75
254.96	272.75
255.193	287.75
255.426	257.75
255.659	227.75
255.892	243.75
256.124	227.75
256.357	229.75
256.59	234.75
256.823	220.75
257.056	215.75
257.289	214.75
257.521	209.75
257.754	214.75
257.987	204.75
258.22	216.75
258.452	224.75
258.685	220.75
258.918	217.75
259.151	200.75
259.383	227.75
259.616	231.75
259.849	221.75
260.081	241.75
260.314	247.75
260.547	277.75
260.779	243.75
261.012	231.75
261.244	252.75
261.477	235.75
261.71	237.75
261.942	223.75
262.175	234.75
262.407	239.75
262.64	228.75
262.872	237.75
263.105	213.75
263.337	222.75
263.57	204.75
263.802	218.75
264.035	216.75
264.267	221.75
264.499	191.75
264.732	212.75
264.964	214.75
265.197	221.75
265.429	207.75
265.661	207.75
265.894	214.75
266.126	228.75
266.358	224.75
266.591	225.75
266.823	224.75
267.055	208.75
267.287	227.75
267.52	215.75
267.752	233.75
267.984	238.75
268.216	239.75
268.448	232.75
268.681	238.75
268.913	261.75
269.145	269.75
269.377	274.75
269.609	272.75
269.841	266.75
270.073	282.75
270.306	272.75
270.538	320.75
270.77	312.75
271.002	288.75
271.234	304.75
271.466	298.75
271.698	309.75
271.93	342.75
272.162	329.75
272.394	339.75
272.626	313.75
272.858	287.75
273.09	280.75
273.322	285.75
273.553	263.75
273.785	283.75
274.017	257.75
274.249	267.75
274.481	275.75
274.713	259.75
274.945	272.75
275.176	288.75
275.408	274.75
275.64	277.75
275.872	277.75
276.104	260.75
276.335	252.75
276.567	286.75
276.799	268.75
277.031	305.75
277.262	314.75
277.494	324.75
277.726	313.75
277.957	300.75
278.189	274.75
278.421	279.75
278.652	284.75
278.884	291.75
279.115	282.75
279.347	273.75
279.579	252.75
279.81	266.75
280.042	274.75
280.273	265.75
280.505	268.75
280.736	253.75
280.968	277.75
281.199	277.75
281.431	281.75
281.662	277.75
281.894	288.75
282.125	267.75
282.356	293.75
282.588	315.75
282.819	319.75
283.051	286.75
283.282	278.75
283.513	274.75
283.745	295.75
283.976	294.75
284.207	302.75
284.439	293.75
284.67	295.75
284.901	300.75
285.132	279.75
285.364	286.75
285.595	308.75
285.826	275.75
286.057	280.75
286.288	278.75
286.52	271.75
286.751	288.75
286.982	281.75
287.213	297.75
287.444	300.75
287.675	291.75
287.906	299.75
288.138	312.75
288.369	284.75
288.6	317.75
288.831	317.75
289.062	302.75
289.293	315.75
289.524	301.75
289.755	300.75
289.986	275.75
290.217	281.75
290.448	296.75
290.679	295.75
290.91	303.75
291.141	289.75
291.371	304.75
291.602	286.75
291.833	297.75
292.064	295.75
292.295	313.75
292.526	289.75
292.757	278.75
292.987	302.75
293.218	285.75
293.449	313.75
293.68	317.75
293.91	299.75
294.141	296.75
294.372	289.75
294.603	301.75
294.833	288.75
295.064	298.75
295.295	301.75
295.525	292.75
295.756	320.75
295.987	303.75
296.217	337.75
296.448	372.75
296.679	302.75
296.909	310.75
297.14	300.75
297.37	320.75
297.601	305.75
297.831	317.75
298.062	291.75
298.292	322.75
298.523	312.75
298.753	319.75
298.984	318.75
299.214	319.75
299.445	331.75
299.675	317.75
299.905	310.75
300.136	327.75
300.366	312.75
300.597	313.75
300.827	311.75
301.057	329.75
301.288	335.75
301.518	337.75
301.748	338.75
301.979	335.75
302.209	349.75
302.439	344.75
302.669	331.75
302.9	343.75
303.13	314.75
303.36	331.75
303.59	338.75
303.82	347.75
304.051	324.75
304.281	336.75
304.511	340.75
304.741	329.75
304.971	315.75
305.201	327.75
305.431	350.75
305.661	346.75
305.891	352.75
306.121	329.75
306.352	336.75
306.582	362.75
306.812	330.75
307.042	343.75
307.272	352.75
307.502	346.75
307.731	350.75
307.961	344.75
308.191	344.75
308.421	350.75
308.651	359.75
308.881	341.75
309.111	353.75
309.341	357.75
309.571	377.75
309.8	367.75
310.03	371.75
310.26	383.75
310.49	377.75
310.72	386.75
310.949	413.75
311.179	414.75
311.409	369.75
311.639	389.75
311.868	383.75
312.098	381.75
312.328	406.75
312.557	409.75
312.787	411.75
313.017	412.75
313.246	388.75
313.476	382.75
313.706	383.75
313.935	397.75
314.165	435.75
314.394	410.75
314.624	419.75
314.853	391.75
315.083	384.75
315.312	397.75
315.542	373.75
315.771	371.75
316.001	379.75
316.23	376.75
316.46	372.75
316.689	389.75
316.919	385.75
317.148	391.75
317.377	389.75
317.607	422.75
317.836	376.75
318.065	388.75
318.295	401.75
318.524	376.75
318.753	380.75
318.983	385.75
319.212	386.75
319.441	413.75
319.67	399.75
319.9	381.75
320.129	401.75
320.358	415.75
320.587	407.75
320.816	384.75
321.046	402.75
321.275	397.75
321.504	427.75
321.733	414.75
321.962	424.75
322.191	423.75
322.42	455.75
322.649	457.75
322.878	474.75
323.108	480.75
323.337	471.75
323.566	508.75
323.795	549.75
324.024	563.75
324.253	691.75
324.482	984.75
324.71	1539.75
324.939	2286.75
325.168	1979.75
325.397	995.75
325.626	667.75
325.855	555.75
326.084	525.75
326.313	489.75
326.542	523.75
326.77	528.75
326.999	640.75
327.228	870.75
327.457	1359.75
327.686	1707.75
327.914	1131.75
328.143	726.75
328.372	645.75
328.6	594.75
328.829	574.75
329.058	591.75
329.287	592.75
329.515	566.75
329.744	524.75
329.972	521.75
330.201	541.75
330.43	575.75
330.658	590.75
330.887	644.75
331.115	593.75
331.344	551.75
331.572	529.75
331.801	521.75
332.03	510.75
332.258	487.75
332.486	487.75
332.715	473.75
332.943	459.75
333.172	463.75
333.4	481.75
333.629	485.75
333.857	493.75
334.085	517.75
334.314	536.75
334.542	565.75
334.771	599.75
334.999	550.75
335.227	507.75
335.455	492.75
335.684	470.75
335.912	471.75
336.14	457.75
336.369	464.75
336.597	473.75
336.825	481.75
337.053	482.75
337.281	461.75
337.51	451.75
337.738	469.75
337.966	456.75
338.194	440.75
338.422	466.75
338.65	455.75
338.878	463.75
339.106	455.75
339.334	444.75
339.562	459.75
339.79	445.75
340.018	459.75
340.246	440.75
340.474	448.75
340.702	458.75
340.93	455.75
341.158	463.75
341.386	449.75
341.614	436.75
341.842	432.75
342.07	462.75
342.298	428.75
342.526	441.75
342.754	430.75
342.981	421.75
343.209	425.75
343.437	449.75
343.665	440.75
343.893	471.75
344.12	459.75
344.348	465.75
344.576	458.75
344.804	469.75
345.031	462.75
345.259	467.75
345.487	483.75
345.714	448.75
345.942	451.75
346.17	447.75
346.397	437.75
346.625	430.75
346.853	442.75
347.08	413.75
347.308	439.75
347.535	471.75
347.763	448.75
347.99	445.75
348.218	457.75
348.445	441.75
348.673	462.75
348.9	453.75
349.128	442.75
349.355	419.75
349.583	424.75
349.81	424.75
350.037	405.75
350.265	409.75
350.492	420.75
350.72	419.75
350.947	428.75
351.174	440.75
351.402	441.75
351.629	427.75
351.856	419.75
352.083	463.75
352.311	475.75
352.538	468.75
352.765	469.75
352.992	456.75
353.22	443.75
353.447	432.75
353.674	412.75
353.901	407.75
354.128	414.75
354.355	409.75
354.583	421.75
354.81	413.75
355.037	411.75
355.264	425.75
355.491	409.75
355.718	408.75
355.945	409.75
356.172	410.75
356.399	400.75
356.626	403.75
356.853	411.75
357.08	405.75
357.307	413.75
357.534	412.75
357.761	416.75
357.988	409.75
358.215	423.75
358.441	426.75
358.668	419.75
358.895	417.75
359.122	429.75
359.349	418.75
359.576	447.75
359.802	445.75
360.029	492.75
360.256	514.75
360.483	482.75
360.709	449.75
360.936	459.75
361.163	455.75
361.39	460.75
361.616	442.75
361.843	442.75
362.07	447.75
362.296	431.75
362.523	461.75
362.749	457.75
362.976	440.75
363.203	439.75
363.429	443.75
363.656	437.75
363.882	436.75
364.109	428.75
364.335	434.75
364.562	439.75
364.788	441.75
365.015	398.75
365.241	431.75
365.468	448.75
365.694	428.75
365.92	429.75
366.147	416.75
366.373	432.75
366.599	423.75
366.826	436.75
367.052	416.75
367.278	448.75
367.505	428.75
367.731	431.75
367.957	431.75
368.184	447.75
368.41	431.75
368.636	446.75
368.862	451.75
369.089	434.75
369.315	430.75
369.541	431.75
369.767	460.75
369.993	435.75
370.219	426.75
370.445	442.75
370.672	439.75
370.898	431.75
371.124	441.75
371.35	425.75
371.576	420.75
371.802	418.75
372.028	422.75
372.254	424.75
372.48	429.75
372.706	447.75
372.932	425.75
373.158	422.75
373.384	449.75
373.61	444.75
373.835	429.75
374.061	422.75
374.287	432.75
374.513	414.75
374.739	452.75
374.965	455.75
375.191	444.75
375.416	460.75
375.642	449.75
375.868	440.75
376.094	430.75
376.319	440.75
376.545	439.75
376.771	450.75
376.997	433.75
377.222	421.75
377.448	447.75
377.674	443.75
377.899	436.75
378.125	425.75
378.35	421.75
378.576	426.75
378.802	435.75
379.027	443.75
379.253	417.75
379.478	429.75
379.704	427.75
379.929	435.75
380.155	413.75
380.38	409.75
380.606	435.75
380.831	419.75
381.057	443.75
381.282	460.75
381.507	448.75
381.733	435.75
381.958	441.75
382.184	461.75
382.409	446.75
382.634	422.75
382.86	471.75
383.085	432.75
383.31	431.75
383.535	462.75
383.761	448.75
383.986	471.75
384.211	455.75
384.436	452.75
384.662	467.75
384.887	475.75
385.112	470.75
385.337	460.75
385.562	463.75
385.787	475.75
386.013	503.75
386.238	486.75
386.463	473.75
386.688	496.75
386.913	483.75
387.138	465.75
387.363	475.75
387.588	481.75
387.813	478.75
388.038	487.75
388.263	471.75
388.488	495.75
388.713	475.75
388.938	497.75
389.163	511.75
389.387	501.75
389.612	477.75
389.837	471.75
390.062	487.75
390.287	477.75
390.512	501.75
390.736	494.75
390.961	465.75
391.186	471.75
391.411	499.75
391.636	505.75
391.86	515.75
392.085	504.75
392.31	499.75
392.534	486.75
392.759	490.75
392.984	495.75
393.208	498.75
393.433	515.75
393.658	513.75
393.882	485.75
394.107	482.75
394.331	497.75
394.556	500.75
394.78	491.75
395.005	503.75
395.229	500.75
395.454	505.75
395.678	493.75
395.903	518.75
396.127	541.75
396.352	536.75
396.576	528.75
396.801	529.75
397.025	523.75
397.249	500.75
397.474	521.75
397.698	527.75
397.922	548.75
398.147	557.75
398.371	545.75
398.595	549.75
398.82	551.75
399.044	577.75
399.268	593.75
399.492	622.75
399.717	685.75
399.941	695.75
400.165	711.75
400.389	728.75
400.613	663.75
400.837	602.75
401.062	578.75
401.286	583.75
401.51	574.75
401.734	570.75
401.958	566.75
402.182	603.75
402.406	592.75
402.63	579.75
402.854	579.75
403.078	582.75
403.302	586.75
403.526	586.75
403.75	591.75
403.974	597.75
404.198	596.75
404.422	601.75
404.645	597.75
404.869	599.75
405.093	643.75
405.317	668.75
405.541	709.75
405.765	641.75
405.988	614.75
406.212	662.75
406.436	645.75
406.66	645.75
406.883	642.75
407.107	678.75
407.331	728.75
407.555	762.75
407.778	749.75
408.002	731.75
408.226	668.75
408.449	643.75
408.673	641.75
408.896	647.75
409.12	729.75
409.344	687.75
409.567	631.75
409.791	579.75
410.014	587.75
410.238	613.75
410.461	600.75
410.685	596.75
410.908	620.75
411.132	644.75
411.355	689.75
411.578	668.75
411.802	599.75
412.025	569.75
412.249	619.75
412.472	621.75
412.695	641.75
412.919	659.75
413.142	599.75
413.365	601.75
413.589	577.75
413.812	565.75
414.035	567.75
414.258	564.75
414.482	550.75
414.705	577.75
414.928	566.75
415.151	553.75
415.374	556.75
415.597	539.75
415.821	561.75
416.044	543.75
416.267	530.75
416.49	569.75
416.713	541.75
416.936	600.75
417.159	553.75
417.382	572.75
417.605	552.75
417.828	560.75
418.051	608.75
418.274	589.75
418.497	555.75
418.72	560.75
418.943	567.75
419.166	579.75
419.389	608.75
419.611	616.75
419.834	593.75
420.057	586.75
420.28	600.75
420.503	583.75
420.726	573.75
420.948	600.75
421.171	639.75
421.394	681.75
421.617	604.75
421.839	591.75
422.062	583.75
422.285	591.75
422.507	655.75
422.73	732.75
422.953	718.75
423.175	639.75
423.398	610.75
423.621	611.75
423.843	653.75
424.066	643.75
424.288	657.75
424.511	636.75
424.733	687.75
424.956	798.75
425.178	762.75
425.401	778.75
425.623	793.75
425.846	691.75
426.068	654.75
426.291	619.75
426.513	615.75
426.735	632.75
426.958	649.75
427.18	770.75
427.402	917.75
427.625	1004.75
427.847	859.75
428.069	781.75
428.292	707.75
428.514	637.75
428.736	617.75
428.958	611.75
429.181	580.75
429.403	577.75
429.625	572.75
429.847	615.75
430.069	703.75
430.292	699.75
430.514	604.75
430.736	589.75
430.958	583.75
431.18	552.75
431.402	541.75
431.624	557.75
431.846	551.75
432.068	547.75
432.29	548.75
432.512	540.75
432.734	572.75
432.956	556.75
433.178	591.75
433.4	571.75
433.622	558.75
433.844	567.75
434.066	555.75
434.287	551.75
434.509	560.75
434.731	566.75
434.953	565.75
435.175	604.75
435.397	651.75
435.618	645.75
435.84	666.75
436.062	757.75
436.284	849.75
436.505	705.75
436.727	663.75
436.949	603.75
437.17	597.75
437.392	588.75
437.614	592.75
437.835	656.75
438.057	746.75
438.278	831.75
438.5	839.75
438.721	950.75
438.943	908.75
439.165	705.75
439.386	638.75
439.608	612.75
439.829	620.75
440.05	663.75
440.272	716.75
440.493	663.75
440.715	607.75
440.936	595.75
441.158	592.75
441.379	583.75
441.6	595.75
441.822	619.75
442.043	646.75
442.264	747.75
442.486	803.75
442.707	700.75
442.928	645.75
443.149	645.75
443.371	661.75
443.592	709.75
443.813	829.75
444.034	899.75
444.255	745.75
444.476	651.75
444.698	650.75
444.919	639.75
445.14	727.75
445.361	716.75
445.582	693.75
445.803	721.75
446.024	852.75
446.245	896.75
446.466	804.75
446.687	671.75
446.908	633.75
447.129	584.75
447.35	583.75
447.571	598.75
447.792	568.75
448.013	584.75
448.234	599.75
448.455	636.75
448.675	787.75
448.896	915.75
449.117	750.75
449.338	732.75
449.559	825.75
449.779	956.75
450	752.75
450.221	637.75
450.442	557.75
450.662	568.75
450.883	581.75
451.104	577.75
451.324	557.75
451.545	545.75
451.766	528.75
451.986	520.75
452.207	490.75
452.428	506.75
452.648	502.75
452.869	524.75
453.089	525.75
453.31	542.75
453.53	523.75
453.751	509.75
453.971	518.75
454.192	528.75
454.412	539.75
454.633	526.75
454.853	505.75
455.073	521.75
455.294	541.75
455.514	624.75
455.734	589.75
455.955	525.75
456.175	497.75
456.395	497.75
456.616	486.75
456.836	477.75
457.056	492.75
457.276	487.75
457.497	496.75
457.717	495.75
457.937	484.75
458.157	516.75
458.377	491.75
458.598	549.75
458.818	591.75
459.038	654.75
459.258	705.75
459.478	563.75
459.698	559.75
459.918	560.75
460.138	538.75
460.358	567.75
460.578	565.75
460.798	567.75
461.018	564.75
461.238	564.75
461.458	550.75
461.678	582.75
461.898	593.75
462.118	596.75
462.338	561.75
462.558	599.75
462.777	603.75
462.997	610.75
463.217	624.75
463.437	657.75
463.657	621.75
463.876	597.75
464.096	626.75
464.316	603.75
464.536	602.75
464.755	604.75
464.975	631.75
465.195	636.75
465.414	688.75
465.634	677.75
465.854	591.75
466.073	579.75
466.293	561.75
466.512	571.75
466.732	536.75
466.951	555.75
467.171	536.75
467.391	546.75
467.61	548.75
467.829	558.75
468.049	523.75
468.268	558.75
468.488	551.75
468.707	517.75
468.927	520.75
469.146	511.75
469.365	513.75
469.585	525.75
469.804	527.75
470.023	554.75
470.243	540.75
470.462	553.75
470.681	543.75
470.901	541.75
471.12	544.75
471.339	548.75
471.558	553.75
471.777	524.75
471.997	567.75
472.216	547.75
472.435	557.75
472.654	563.75
472.873	524.75
473.092	521.75
473.311	548.75
473.53	547.75
473.749	534.75
473.968	604.75
474.187	683.75
474.406	713.75
474.625	575.75
474.844	549.75
475.063	560.75
475.282	556.75
475.501	528.75
475.72	544.75
475.939	549.75
476.158	564.75
476.377	552.75
476.596	532.75
476.814	583.75
477.033	579.75
477.252	580.75
477.471	588.75
477.69	573.75
477.908	598.75
478.127	584.75
478.346	610.75
478.564	595.75
478.783	621.75
479.002	602.75
479.22	613.75
479.439	615.75
479.658	641.75
479.876	642.75
480.095	649.75
480.313	671.75
480.532	683.75
480.751	687.75
480.969	700.75
481.188	743.75
481.406	795.75
481.624	705.75
481.843	683.75
482.061	671.75
482.28	660.75
482.498	631.75
482.717	631.75
482.935	635.75
483.153	641.75
483.372	645.75
483.59	653.75
483.808	659.75
484.027	640.75
484.245	635.75
484.463	625.75
484.681	660.75
484.9	661.75
485.118	673.75
485.336	661.75
485.554	684.75
485.772	670.75
485.99	673.75
486.209	655.75
486.427	659.75
486.645	677.75
486.863	696.75
487.081	687.75
487.299	676.75
487.517	697.75
487.735	661.75
487.953	676.75
488.171	665.75
488.389	706.75
488.607	679.75
488.825	673.75
489.043	672.75
489.261	722.75
489.479	683.75
489.696	681.75
489.914	702.75
490.132	712.75
490.35	721.75
490.568	736.75
490.786	730.75
491.003	741.75
491.221	763.75
491.439	753.75
491.657	795.75
491.874	789.75
492.092	777.75
492.31	755.75
492.527	781.75
492.745	787.75
492.963	807.75
493.18	819.75
493.398	833.75
493.615	811.75
493.833	813.75
494.05	815.75
494.268	847.75
494.485	796.75
494.703	806.75
494.92	810.75
495.138	780.75
495.355	812.75
495.573	824.75
495.79	814.75
496.008	785.75
496.225	827.75
496.442	801.75
496.66	833.75
496.877	824.75
497.094	831.75
497.312	817.75
497.529	849.75
497.746	873.75
497.963	859.75
498.181	870.75
498.398	896.75
498.615	917.75
498.832	935.75
499.049	973.75
499.267	964.75
499.484	1012.75
499.701	1043.75
499.918	1051.75
500.135	1142.75
500.352	1169.75
500.569	1200.75
500.786	1185.75
501.003	1183.75
501.22	1144.75
501.437	1088.75
501.654	1053.75
501.871	1049.75
502.088	1015.75
502.305	975.75
502.522	937.75
502.739	928.75
502.956	896.75
503.172	869.75
503.389	851.75
503.606	854.75
503.823	852.75
504.04	837.75
504.256	856.75
504.473	823.75
504.69	828.75
504.907	843.75
505.123	828.75
505.34	782.75
505.557	801.75
505.773	808.75
505.99	799.75
506.207	784.75
506.423	776.75
506.64	768.75
506.856	758.75
507.073	763.75
507.289	749.75
507.506	753.75
507.722	759.75
507.939	770.75
508.155	743.75
508.372	758.75
508.588	743.75
508.805	711.75
509.021	721.75
509.238	746.75
509.454	731.75
509.67	747.75
509.887	736.75
510.103	735.75
510.319	752.75
510.536	809.75
510.752	1279.75
510.968	1059.75
511.184	715.75
511.401	699.75
511.617	714.75
511.833	708.75
512.049	697.75
512.265	688.75
512.481	703.75
512.698	712.75
512.914	685.75
513.13	692.75
513.346	687.75
513.562	677.75
513.778	700.75
513.994	694.75
514.21	711.75
514.426	736.75
514.642	781.75
514.858	802.75
515.074	840.75
515.29	949.75
515.506	1355.75
515.721	1150.75
515.937	812.75
516.153	755.75
516.369	735.75
516.585	709.75
516.801	701.75
517.016	725.75
517.232	682.75
517.448	724.75
517.664	745.75
517.879	741.75
518.095	728.75
518.311	691.75
518.527	714.75
518.742	713.75
518.958	724.75
519.173	703.75
519.389	663.75
519.605	684.75
519.82	677.75
520.036	707.75
520.251	719.75
520.467	745.75
520.682	733.75
520.898	742.75
521.113	763.75
521.329	795.75
521.544	884.75
521.76	1068.75
521.975	1744.75
522.19	1733.75
522.406	986.75
522.621	759.75
522.836	703.75
523.052	691.75
523.267	653.75
523.482	655.75
523.698	645.75
523.913	639.75
524.128	626.75
524.343	626.75
524.559	609.75
524.774	624.75
524.989	626.75
525.204	587.75
525.419	622.75
525.634	585.75
525.849	569.75
526.064	614.75
526.28	574.75
526.495	568.75
526.71	588.75
526.925	567.75
527.14	558.75
527.355	555.75
527.57	572.75
527.785	568.75
527.999	574.75
528.214	572.75
528.429	554.75
528.644	596.75
528.859	557.75
529.074	550.75
529.289	614.75
529.503	684.75
529.718	667.75
529.933	610.75
530.148	594.75
530.363	573.75
530.577	597.75
530.792	554.75
531.007	554.75
531.221	557.75
531.436	551.75
531.651	550.75
531.865	550.75
532.08	550.75
532.295	565.75
532.509	552.75
532.724	539.75
532.938	549.75
533.153	544.75
533.367	545.75
533.582	542.75
533.796	549.75
534.011	542.75
534.225	563.75
534.44	561.75
534.654	528.75
534.868	545.75
535.083	514.75
535.297	541.75
535.511	546.75
535.726	557.75
535.94	563.75
536.154	546.75
536.369	527.75
536.583	542.75
536.797	531.75
537.011	507.75
537.225	520.75
537.44	525.75
537.654	517.75
537.868	528.75
538.082	520.75
538.296	529.75
538.51	525.75
538.724	546.75
538.938	527.75
539.153	538.75
539.367	554.75
539.581	526.75
539.795	539.75
540.009	503.75
540.222	533.75
540.436	522.75
540.65	520.75
540.864	525.75
541.078	533.75
541.292	536.75
541.506	529.75
541.72	526.75
541.934	524.75
542.147	523.75
542.361	515.75
542.575	497.75
542.789	529.75
543.002	517.75
543.216	510.75
543.43	529.75
543.644	513.75
543.857	526.75
544.071	505.75
544.285	511.75
544.498	519.75
544.712	499.75
544.925	526.75
545.139	538.75
545.352	528.75
545.566	499.75
545.779	498.75
545.993	484.75
546.206	493.75
546.42	517.75
546.633	524.75
546.847	485.75
547.06	506.75
547.274	494.75
547.487	500.75
547.7	502.75
547.914	491.75
548.127	505.75
548.34	490.75
548.554	508.75
548.767	493.75
548.98	520.75
549.193	491.75
549.407	492.75
549.62	510.75
549.833	501.75
550.046	506.75
550.259	501.75
550.473	477.75
550.686	499.75
550.899	484.75
551.112	479.75
551.325	491.75
551.538	490.75
551.751	487.75
551.964	479.75
552.177	495.75
552.39	484.75
552.603	499.75
552.816	493.75
553.029	492.75
553.242	504.75
553.455	514.75
553.667	529.75
553.88	515.75
554.093	503.75
554.306	504.75
554.519	486.75
554.732	506.75
554.944	497.75
555.157	492.75
555.37	471.75
555.583	477.75
555.795	482.75
556.008	460.75
556.221	472.75
556.433	459.75
556.646	445.75
556.859	454.75
557.071	464.75
557.284	477.75
557.496	467.75
557.709	439.75
557.921	447.75
558.134	456.75
558.346	449.75
558.559	442.75
558.771	464.75
558.984	449.75
559.196	434.75
559.409	436.75
559.621	442.75
559.833	447.75
560.046	430.75
560.258	425.75
560.47	433.75
560.683	439.75
560.895	439.75
561.107	445.75
561.32	447.75
561.532	461.75
561.744	441.75
561.956	440.75
562.168	438.75
562.381	468.75
562.593	450.75
562.805	451.75
563.017	449.75
563.229	444.75
563.441	460.75
563.653	446.75
563.865	446.75
564.077	465.75
564.289	463.75
564.501	460.75
564.713	458.75
564.925	475.75
565.137	494.75
565.349	463.75
565.561	514.75
565.773	505.75
565.985	495.75
566.197	509.75
566.408	526.75
566.62	524.75
566.832	565.75
567.044	553.75
567.255	561.75
567.467	570.75
567.679	584.75
567.891	592.75
568.102	592.75
568.314	594.75
568.526	541.75
568.737	516.75
568.949	512.75
569.161	481.75
569.372	478.75
569.584	473.75
569.795	484.75
570.007	464.75
570.218	501.75
570.43	491.75
570.641	450.75
570.853	440.75
571.064	439.75
571.276	435.75
571.487	440.75
571.698	413.75
571.91	432.75
572.121	432.75
572.333	419.75
572.544	403.75
572.755	395.75
572.966	403.75
573.178	393.75
573.389	402.75
573.6	387.75
573.811	387.75
574.023	415.75
574.234	387.75
574.445	387.75
574.656	391.75
574.867	396.75
575.078	381.75
575.289	384.75
575.501	391.75
575.712	396.75
575.923	382.75
576.134	381.75
576.345	371.75
576.556	376.75
576.767	372.75
576.978	371.75
577.188	367.75
577.399	373.75
577.61	378.75
577.821	376.75
578.032	361.75
578.243	411.75
578.454	614.75
578.665	465.75
578.875	366.75
579.086	357.75
579.297	371.75
579.508	356.75
579.718	369.75
579.929	348.75
580.14	336.75
580.35	356.75
580.561	355.75
580.772	369.75
580.982	357.75
581.193	336.75
581.403	352.75
581.614	352.75
581.825	355.75
582.035	354.75
582.246	348.75
582.456	342.75
582.667	361.75
582.877	350.75
583.087	342.75
583.298	328.75
583.508	346.75
583.719	341.75
583.929	339.75
584.139	334.75
584.35	347.75
584.56	344.75
584.77	351.75
584.981	342.75
585.191	353.75
585.401	333.75
585.611	336.75
585.821	327.75
586.032	329.75
586.242	327.75
586.452	328.75
586.662	338.75
586.872	349.75
587.082	342.75
587.292	336.75
587.502	339.75
587.713	332.75
587.923	331.75
588.133	337.75
588.343	327.75
588.553	361.75
588.762	331.75
588.972	333.75
589.182	366.75
589.392	338.75
589.602	312.75
589.812	331.75
590.022	344.75
590.232	331.75
590.441	331.75
590.651	340.75
590.861	317.75
591.071	339.75
591.281	338.75
591.49	340.75
591.7	337.75
591.91	331.75
592.119	343.75
592.329	346.75
592.539	341.75
592.748	378.75
592.958	349.75
593.167	369.75
593.377	362.75
593.587	383.75
593.796	361.75
594.006	379.75
594.215	345.75
594.424	356.75
594.634	345.75
594.843	353.75
595.053	350.75
595.262	358.75
595.472	336.75
595.681	351.75
595.89	334.75
596.1	332.75
596.309	325.75
596.518	318.75
596.727	325.75
596.937	325.75
597.146	315.75
597.355	295.75
597.564	312.75
597.774	323.75
597.983	295.75
598.192	309.75
598.401	300.75
598.61	309.75
598.819	307.75
599.028	326.75
599.237	309.75
599.446	296.75
599.655	309.75
599.864	297.75
600.073	308.75
600.282	282.75
600.491	287.75
600.7	286.75
600.909	294.75
601.118	299.75
601.327	304.75
601.536	299.75
601.745	286.75
601.953	290.75
602.162	307.75
602.371	301.75
602.58	301.75
602.789	292.75
602.997	293.75
603.206	293.75
603.415	299.75
603.623	296.75
603.832	287.75
604.041	279.75
604.249	286.75
604.458	274.75
604.666	298.75
604.875	296.75
605.084	274.75
605.292	261.75
605.501	283.75
605.709	281.75
605.918	290.75
606.126	302.75
606.334	279.75
606.543	265.75
606.751	286.75
606.96	282.75
607.168	308.75
607.376	273.75
607.585	278.75
607.793	287.75
608.001	280.75
608.21	271.75
608.418	271.75
608.626	275.75
608.834	254.75
609.043	273.75
609.251	274.75
609.459	273.75
609.667	279.75
609.875	268.75
610.083	274.75
610.291	274.75
610.499	264.75
610.707	289.75
610.916	284.75
611.124	246.75
611.332	275.75
611.54	280.75
611.748	275.75
611.955	269.75
612.163	265.75
612.371	282.75
612.579	269.75
612.787	284.75
612.995	277.75
613.203	263.75
613.411	250.75
613.618	261.75
613.826	261.75
614.034	285.75
614.242	255.75
614.449	280.75
614.657	251.75
614.865	267.75
615.072	273.75
615.28	269.75
615.488	282.75
615.695	270.75
615.903	269.75
616.111	278.75
616.318	269.75
616.526	268.75
616.733	268.75
616.941	276.75
617.148	256.75
617.356	288.75
617.563	261.75
617.771	250.75
617.978	272.75
618.185	253.75
618.393	263.75
618.6	281.75
618.807	246.75
619.015	260.75
619.222	264.75
619.429	253.75
619.637	238.75
619.844	253.75
620.051	263.75
620.258	259.75
620.466	246.75
620.673	233.75
620.88	228.75
621.087	239.75
621.294	248.75
621.501	253.75
621.708	259.75
621.915	245.75
622.122	249.75
622.329	231.75
622.536	254.75
622.743	268.75
622.95	243.75
623.157	227.75
623.364	245.75
623.571	233.75
623.778	243.75
623.985	249.75
624.192	248.75
624.399	247.75
624.606	229.75
624.812	239.75
625.019	249.75
625.226	243.75
625.433	224.75
625.639	230.75
625.846	259.75
626.053	227.75
626.259	247.75
626.466	232.75
626.673	234.75
626.879	234.75
627.086	221.75
627.293	230.75
627.499	228.75
627.706	233.75
627.912	229.75
628.119	217.75
628.325	209.75
628.532	235.75
628.738	220.75
628.945	233.75
629.151	231.75
629.357	224.75
629.564	228.75
629.77	209.75
629.976	210.75
630.183	212.75
630.389	227.75
630.595	226.75
630.802	217.75
631.008	217.75
631.214	210.75
631.42	204.75
631.627	236.75
631.833	212.75
632.039	205.75
632.245	212.75
632.451	224.75
632.657	209.75
632.863	216.75
633.069	211.75
633.275	219.75
633.481	201.75
633.688	200.75
633.893	217.75
634.099	215.75
634.305	211.75
634.511	202.75
634.717	201.75
634.923	187.75
635.129	195.75
635.335	197.75
635.541	207.75
635.747	188.75
635.952	203.75
636.158	185.75
636.364	198.75
636.57	215.75
636.775	197.75
636.981	206.75
637.187	193.75
637.392	209.75
637.598	207.75
637.804	201.75
638.009	205.75
638.215	201.75
638.421	187.75
638.626	185.75
638.832	186.75
639.037	185.75
639.243	191.75
639.448	182.75
639.654	191.75
639.859	190.75
640.065	184.75
640.27	187.75
640.475	193.75
640.681	208.75
640.886	189.75
641.091	189.75
641.297	181.75
641.502	194.75
641.707	192.75
641.913	199.75
642.118	190.75
642.323	193.75
642.528	187.75
642.733	182.75
642.939	177.75
643.144	177.75
643.349	197.75
643.554	182.75
643.759	177.75
643.964	181.75
644.169	187.75
644.374	187.75
644.579	189.75
644.784	189.75
644.989	188.75
645.194	190.75
645.399	174.75
645.604	172.75
645.809	173.75
646.014	192.75
646.219	195.75
646.423	179.75
646.628	187.75
646.833	180.75
647.038	175.75
647.243	188.75
647.447	191.75
647.652	180.75
647.857	176.75
648.062	200.75
648.266	169.75
648.471	198.75
648.676	181.75
648.88	174.75
649.085	198.75
649.289	196.75
649.494	187.75
649.698	208.75
649.903	193.75
650.107	199.75
650.312	176.75
650.516	176.75
650.721	175.75
650.925	177.75
651.13	168.75
651.334	144.75
651.539	160.75
651.743	164.75
651.947	155.75
652.152	163.75
652.356	176.75
652.56	169.75
652.764	159.75
652.969	166.75
653.173	165.75
653.377	161.75
653.581	144.75
653.785	153.75
653.99	155.75
654.194	143.75
654.398	137.75
654.602	145.75
654.806	125.75
655.01	155.75
655.214	159.75
655.418	138.75
655.622	159.75
655.826	145.75
656.03	158.75
656.234	139.75
656.438	151.75
656.642	155.75
656.846	145.75
657.049	146.75
657.253	141.75
657.457	127.75
657.661	125.75
657.865	130.75
658.068	126.75
658.272	128.75
658.476	103.75
658.68	115.75
658.883	115.75
659.087	109.75
659.291	122.75
659.494	109.75
659.698	88.75
659.901	121.75
660.105	108.75
660.309	100.75
660.512	110.75
660.716	96.75
660.919	90.75
661.123	97.75
661.326	84.75
661.53	103.75
661.733	86.75
661.936	101.75
662.14	88.75
662.343	99.75
662.546	84.75
662.75	94.75
662.953	81.75
663.156	73.75
663.36	90.75
663.563	80.75
663.766	94.75
663.969	95.75
664.173	78.75
664.376	80.75
664.579	80.75
664.782	82.75
664.985	87.75
665.188	80.75
665.391	80.75
665.594	85.75
665.797	76.75
666	80.75
666.203	90.75
666.406	80.75
666.609	80.75
666.812	100.75
667.015	75.75
667.218	85.75
667.421	84.75
667.624	79.75
667.827	79.75
668.03	87.75
668.232	84.75
668.435	81.75
668.638	83.75
668.841	64.75
669.043	84.75
669.246	72.75
669.449	84.75
669.651	86.75
669.854	87.75
670.057	102.75
670.259	82.75
670.462	87.75
670.665	59.75
670.867	93.75
671.07	86.75
671.272	86.75
671.475	79.75
671.677	81.75
671.88	100.75
672.082	83.75
672.284	83.75
672.487	87.75
672.689	93.75
672.892	95.75
