Data from 1966.PennyLincolnUp.Lamp.En5.5.200Scan.071719.P1.Scan2.head_HRD10591_14-18-30-192.txt Node
Date: Thu Jul 18 14:18:30 EDT 2019
User: cochatt
Spectrometer: HR+D1059
Trigger mode: 1
Integration Time (sec): 1.000000E-1
Scans to average: 1
Electric dark correction enabled: true
Nonlinearity correction enabled: false
Boxcar width: 0
XAxis mode: Wavelengths
Number of Pixels in Spectrum: 2048
>>>>>Begin Spectral Data<<<<<
223.165	-16.75
223.4	-16.75
223.635	-16.75
223.869	-16.75
224.104	-18.75
224.338	-7.75
224.573	-21.75
224.808	-10.75
225.042	-14.75
225.277	1.25
225.511	9.25
225.746	9.25
225.98	4.25
226.215	5.25
226.449	6.25
226.683	22.25
226.918	28.25
227.152	21.25
227.387	40.25
227.621	40.25
227.856	51.25
228.09	32.25
228.324	45.25
228.559	58.25
228.793	73.25
229.027	99.25
229.262	116.25
229.496	113.25
229.73	131.25
229.964	164.25
230.199	133.25
230.433	105.25
230.667	114.25
230.901	100.25
231.136	113.25
231.37	108.25
231.604	117.25
231.838	95.25
232.072	114.25
232.306	109.25
232.541	104.25
232.775	110.25
233.009	120.25
233.243	115.25
233.477	103.25
233.711	103.25
233.945	108.25
234.179	121.25
234.413	119.25
234.647	117.25
234.881	113.25
235.115	118.25
235.349	127.25
235.583	117.25
235.817	111.25
236.051	117.25
236.285	131.25
236.519	127.25
236.753	123.25
236.987	149.25
237.221	171.25
237.455	235.25
237.689	181.25
237.922	145.25
238.156	127.25
238.39	131.25
238.624	133.25
238.858	129.25
239.091	129.25
239.325	134.25
239.559	129.25
239.793	144.25
240.027	127.25
240.26	135.25
240.494	165.25
240.728	150.25
240.961	150.25
241.195	147.25
241.429	124.25
241.662	138.25
241.896	119.25
242.13	121.25
242.363	131.25
242.597	139.25
242.83	135.25
243.064	135.25
243.298	150.25
243.531	146.25
243.765	133.25
243.998	151.25
244.232	144.25
244.465	144.25
244.699	150.25
244.932	150.25
245.166	162.25
245.399	153.25
245.633	147.25
245.866	133.25
246.099	131.25
246.333	158.25
246.566	153.25
246.8	151.25
247.033	148.25
247.266	165.25
247.5	146.25
247.733	170.25
247.966	178.25
248.2	165.25
248.433	179.25
248.666	174.25
248.899	184.25
249.133	187.25
249.366	223.25
249.599	190.25
249.832	178.25
250.066	150.25
250.299	185.25
250.532	189.25
250.765	213.25
250.998	213.25
251.231	216.25
251.465	224.25
251.698	206.25
251.931	201.25
252.164	197.25
252.397	194.25
252.63	216.25
252.863	214.25
253.096	209.25
253.329	217.25
253.562	237.25
253.795	230.25
254.028	225.25
254.261	218.25
254.494	237.25
254.727	263.25
254.96	306.25
255.193	287.25
255.426	252.25
255.659	227.25
255.892	233.25
256.124	226.25
256.357	221.25
256.59	236.25
256.823	212.25
257.056	218.25
257.289	213.25
257.521	207.25
257.754	205.25
257.987	210.25
258.22	207.25
258.452	206.25
258.685	217.25
258.918	201.25
259.151	206.25
259.383	230.25
259.616	231.25
259.849	229.25
260.081	256.25
260.314	240.25
260.547	237.25
260.779	242.25
261.012	227.25
261.244	218.25
261.477	222.25
261.71	229.25
261.942	226.25
262.175	230.25
262.407	232.25
262.64	223.25
262.872	210.25
263.105	217.25
263.337	203.25
263.57	207.25
263.802	210.25
264.035	213.25
264.267	208.25
264.499	207.25
264.732	219.25
264.964	235.25
265.197	211.25
265.429	221.25
265.661	206.25
265.894	212.25
266.126	213.25
266.358	212.25
266.591	215.25
266.823	215.25
267.055	241.25
267.287	230.25
267.52	236.25
267.752	224.25
267.984	232.25
268.216	229.25
268.448	220.25
268.681	235.25
268.913	253.25
269.145	260.25
269.377	270.25
269.609	275.25
269.841	270.25
270.073	277.25
270.306	287.25
270.538	325.25
270.77	310.25
271.002	318.25
271.234	289.25
271.466	303.25
271.698	312.25
271.93	326.25
272.162	319.25
272.394	320.25
272.626	313.25
272.858	292.25
273.09	286.25
273.322	278.25
273.553	272.25
273.785	259.25
274.017	241.25
274.249	261.25
274.481	262.25
274.713	260.25
274.945	272.25
275.176	268.25
275.408	270.25
275.64	261.25
275.872	282.25
276.104	250.25
276.335	263.25
276.567	271.25
276.799	305.25
277.031	314.25
277.262	318.25
277.494	309.25
277.726	298.25
277.957	293.25
278.189	281.25
278.421	299.25
278.652	287.25
278.884	280.25
279.115	287.25
279.347	275.25
279.579	267.25
279.81	267.25
280.042	270.25
280.273	278.25
280.505	270.25
280.736	261.25
280.968	257.25
281.199	266.25
281.431	275.25
281.662	265.25
281.894	266.25
282.125	278.25
282.356	273.25
282.588	309.25
282.819	330.25
283.051	280.25
283.282	269.25
283.513	275.25
283.745	271.25
283.976	284.25
284.207	298.25
284.439	273.25
284.67	270.25
284.901	275.25
285.132	277.25
285.364	279.25
285.595	282.25
285.826	280.25
286.057	278.25
286.288	274.25
286.52	286.25
286.751	283.25
286.982	288.25
287.213	289.25
287.444	285.25
287.675	284.25
287.906	288.25
288.138	296.25
288.369	307.25
288.6	327.25
288.831	300.25
289.062	305.25
289.293	307.25
289.524	298.25
289.755	310.25
289.986	291.25
290.217	307.25
290.448	308.25
290.679	304.25
290.91	308.25
291.141	303.25
291.371	293.25
291.602	285.25
291.833	293.25
292.064	312.25
292.295	289.25
292.526	299.25
292.757	289.25
292.987	295.25
293.218	305.25
293.449	285.25
293.68	301.25
293.91	311.25
294.141	293.25
294.372	314.25
294.603	294.25
294.833	298.25
295.064	299.25
295.295	311.25
295.525	311.25
295.756	306.25
295.987	313.25
296.217	323.25
296.448	344.25
296.679	321.25
296.909	314.25
297.14	301.25
297.37	321.25
297.601	308.25
297.831	328.25
298.062	309.25
298.292	325.25
298.523	298.25
298.753	310.25
298.984	321.25
299.214	321.25
299.445	326.25
299.675	316.25
299.905	321.25
300.136	329.25
300.366	306.25
300.597	318.25
300.827	319.25
301.057	329.25
301.288	333.25
301.518	343.25
301.748	321.25
301.979	322.25
302.209	329.25
302.439	341.25
302.669	333.25
302.9	315.25
303.13	339.25
303.36	349.25
303.59	347.25
303.82	341.25
304.051	335.25
304.281	327.25
304.511	330.25
304.741	322.25
304.971	317.25
305.201	327.25
305.431	341.25
305.661	317.25
305.891	353.25
306.121	339.25
306.352	333.25
306.582	341.25
306.812	329.25
307.042	344.25
307.272	339.25
307.502	341.25
307.731	345.25
307.961	341.25
308.191	336.25
308.421	355.25
308.651	363.25
308.881	345.25
309.111	341.25
309.341	334.25
309.571	334.25
309.8	356.25
310.03	374.25
310.26	371.25
310.49	385.25
310.72	383.25
310.949	391.25
311.179	413.25
311.409	383.25
311.639	363.25
311.868	383.25
312.098	397.25
312.328	391.25
312.557	385.25
312.787	439.25
313.017	403.25
313.246	417.25
313.476	395.25
313.706	381.25
313.935	378.25
314.165	383.25
314.394	386.25
314.624	405.25
314.853	385.25
315.083	395.25
315.312	385.25
315.542	378.25
315.771	377.25
316.001	406.25
316.23	371.25
316.46	389.25
316.689	403.25
316.919	395.25
317.148	403.25
317.377	403.25
317.607	392.25
317.836	387.25
318.065	409.25
318.295	386.25
318.524	389.25
318.753	383.25
318.983	379.25
319.212	389.25
319.441	395.25
319.67	404.25
319.9	401.25
320.129	368.25
320.358	381.25
320.587	393.25
320.816	402.25
321.046	401.25
321.275	408.25
321.504	404.25
321.733	409.25
321.962	419.25
322.191	424.25
322.42	423.25
322.649	455.25
322.878	463.25
323.108	475.25
323.337	471.25
323.566	472.25
323.795	495.25
324.024	559.25
324.253	666.25
324.482	943.25
324.71	1516.25
324.939	2232.25
325.168	1919.25
325.397	933.25
325.626	661.25
325.855	557.25
326.084	523.25
326.313	494.25
326.542	485.25
326.77	541.25
326.999	650.25
327.228	865.25
327.457	1325.25
327.686	1667.25
327.914	1100.25
328.143	719.25
328.372	622.25
328.6	579.25
328.829	546.25
329.058	596.25
329.287	577.25
329.515	543.25
329.744	498.25
329.972	521.25
330.201	527.25
330.43	578.25
330.658	597.25
330.887	618.25
331.115	619.25
331.344	535.25
331.572	489.25
331.801	483.25
332.03	485.25
332.258	479.25
332.486	468.25
332.715	445.25
332.943	479.25
333.172	452.25
333.4	471.25
333.629	506.25
333.857	518.25
334.085	514.25
334.314	531.25
334.542	530.25
334.771	573.25
334.999	518.25
335.227	498.25
335.455	492.25
335.684	470.25
335.912	473.25
336.14	470.25
336.369	435.25
336.597	475.25
336.825	479.25
337.053	456.25
337.281	474.25
337.51	474.25
337.738	460.25
337.966	467.25
338.194	483.25
338.422	452.25
338.65	457.25
338.878	460.25
339.106	448.25
339.334	477.25
339.562	455.25
339.79	449.25
340.018	453.25
340.246	435.25
340.474	470.25
340.702	469.25
340.93	466.25
341.158	426.25
341.386	447.25
341.614	437.25
341.842	463.25
342.07	456.25
342.298	423.25
342.526	435.25
342.754	433.25
342.981	454.25
343.209	433.25
343.437	434.25
343.665	430.25
343.893	446.25
344.12	463.25
344.348	456.25
344.576	475.25
344.804	441.25
345.031	459.25
345.259	484.25
345.487	468.25
345.714	471.25
345.942	437.25
346.17	454.25
346.397	443.25
346.625	437.25
346.853	450.25
347.08	447.25
347.308	450.25
347.535	421.25
347.763	461.25
347.99	468.25
348.218	437.25
348.445	434.25
348.673	448.25
348.9	452.25
349.128	434.25
349.355	411.25
349.583	423.25
349.81	443.25
350.037	424.25
350.265	388.25
350.492	439.25
350.72	436.25
350.947	434.25
351.174	441.25
351.402	448.25
351.629	443.25
351.856	455.25
352.083	452.25
352.311	457.25
352.538	462.25
352.765	451.25
352.992	439.25
353.22	441.25
353.447	454.25
353.674	439.25
353.901	400.25
354.128	434.25
354.355	415.25
354.583	431.25
354.81	420.25
355.037	422.25
355.264	396.25
355.491	416.25
355.718	427.25
355.945	427.25
356.172	417.25
356.399	426.25
356.626	403.25
356.853	434.25
357.08	414.25
357.307	406.25
357.534	423.25
357.761	412.25
357.988	416.25
358.215	413.25
358.441	434.25
358.668	390.25
358.895	414.25
359.122	416.25
359.349	431.25
359.576	443.25
359.802	467.25
360.029	505.25
360.256	487.25
360.483	491.25
360.709	435.25
360.936	456.25
361.163	439.25
361.39	422.25
361.616	461.25
361.843	458.25
362.07	457.25
362.296	465.25
362.523	459.25
362.749	438.25
362.976	420.25
363.203	427.25
363.429	440.25
363.656	433.25
363.882	430.25
364.109	417.25
364.335	435.25
364.562	411.25
364.788	423.25
365.015	423.25
365.241	434.25
365.468	426.25
365.694	424.25
365.92	426.25
366.147	445.25
366.373	406.25
366.599	433.25
366.826	415.25
367.052	447.25
367.278	437.25
367.505	421.25
367.731	427.25
367.957	400.25
368.184	416.25
368.41	434.25
368.636	461.25
368.862	458.25
369.089	460.25
369.315	426.25
369.541	429.25
369.767	442.25
369.993	430.25
370.219	430.25
370.445	407.25
370.672	447.25
370.898	436.25
371.124	415.25
371.35	429.25
371.576	431.25
371.802	420.25
372.028	455.25
372.254	433.25
372.48	442.25
372.706	435.25
372.932	433.25
373.158	434.25
373.384	434.25
373.61	417.25
373.835	433.25
374.061	447.25
374.287	455.25
374.513	443.25
374.739	447.25
374.965	451.25
375.191	442.25
375.416	440.25
375.642	427.25
375.868	437.25
376.094	445.25
376.319	405.25
376.545	423.25
376.771	428.25
376.997	424.25
377.222	428.25
377.448	431.25
377.674	407.25
377.899	425.25
378.125	429.25
378.35	439.25
378.576	435.25
378.802	448.25
379.027	412.25
379.253	451.25
379.478	419.25
379.704	431.25
379.929	439.25
380.155	425.25
380.38	460.25
380.606	463.25
380.831	436.25
381.057	428.25
381.282	437.25
381.507	446.25
381.733	451.25
381.958	463.25
382.184	451.25
382.409	457.25
382.634	458.25
382.86	438.25
383.085	455.25
383.31	441.25
383.535	469.25
383.761	418.25
383.986	463.25
384.211	433.25
384.436	458.25
384.662	460.25
384.887	447.25
385.112	450.25
385.337	454.25
385.562	483.25
385.787	484.25
386.013	494.25
386.238	490.25
386.463	493.25
386.688	487.25
386.913	485.25
387.138	463.25
387.363	500.25
387.588	475.25
387.813	485.25
388.038	489.25
388.263	465.25
388.488	465.25
388.713	474.25
388.938	483.25
389.163	500.25
389.387	484.25
389.612	483.25
389.837	493.25
390.062	487.25
390.287	483.25
390.512	486.25
390.736	473.25
390.961	464.25
391.186	511.25
391.411	501.25
391.636	484.25
391.86	504.25
392.085	517.25
392.31	508.25
392.534	490.25
392.759	492.25
392.984	483.25
393.208	504.25
393.433	498.25
393.658	486.25
393.882	490.25
394.107	468.25
394.331	486.25
394.556	499.25
394.78	491.25
395.005	502.25
395.229	493.25
395.454	515.25
395.678	483.25
395.903	519.25
396.127	565.25
396.352	529.25
396.576	517.25
396.801	533.25
397.025	491.25
397.249	513.25
397.474	533.25
397.698	531.25
397.922	540.25
398.147	553.25
398.371	556.25
398.595	564.25
398.82	554.25
399.044	573.25
399.268	580.25
399.492	618.25
399.717	640.25
399.941	703.25
400.165	699.25
400.389	710.25
400.613	634.25
400.837	605.25
401.062	579.25
401.286	579.25
401.51	580.25
401.734	550.25
401.958	570.25
402.182	548.25
402.406	561.25
402.63	588.25
402.854	559.25
403.078	552.25
403.302	565.25
403.526	591.25
403.75	584.25
403.974	591.25
404.198	570.25
404.422	582.25
404.645	609.25
404.869	605.25
405.093	645.25
405.317	661.25
405.541	710.25
405.765	629.25
405.988	615.25
406.212	627.25
406.436	665.25
406.66	659.25
406.883	659.25
407.107	668.25
407.331	701.25
407.555	776.25
407.778	787.25
408.002	699.25
408.226	658.25
408.449	656.25
408.673	645.25
408.896	668.25
409.12	721.25
409.344	660.25
409.567	609.25
409.791	607.25
410.014	589.25
410.238	589.25
410.461	589.25
410.685	581.25
410.908	623.25
411.132	657.25
411.355	697.25
411.578	640.25
411.802	605.25
412.025	595.25
412.249	598.25
412.472	620.25
412.695	654.25
412.919	638.25
413.142	625.25
413.365	594.25
413.589	573.25
413.812	547.25
414.035	537.25
414.258	575.25
414.482	554.25
414.705	571.25
414.928	548.25
415.151	564.25
415.374	568.25
415.597	563.25
415.821	555.25
416.044	564.25
416.267	565.25
416.49	542.25
416.713	537.25
416.936	550.25
417.159	560.25
417.382	547.25
417.605	571.25
417.828	578.25
418.051	577.25
418.274	593.25
418.497	549.25
418.72	549.25
418.943	567.25
419.166	578.25
419.389	601.25
419.611	593.25
419.834	572.25
420.057	590.25
420.28	591.25
420.503	592.25
420.726	573.25
420.948	597.25
421.171	645.25
421.394	694.25
421.617	593.25
421.839	550.25
422.062	577.25
422.285	612.25
422.507	641.25
422.73	725.25
422.953	718.25
423.175	653.25
423.398	585.25
423.621	595.25
423.843	617.25
424.066	620.25
424.288	625.25
424.511	647.25
424.733	693.25
424.956	795.25
425.178	731.25
425.401	756.25
425.623	777.25
425.846	654.25
426.068	638.25
426.291	623.25
426.513	616.25
426.735	631.25
426.958	684.25
427.18	754.25
427.402	915.25
427.625	981.25
427.847	866.25
428.069	751.25
428.292	674.25
428.514	612.25
428.736	589.25
428.958	599.25
429.181	553.25
429.403	581.25
429.625	591.25
429.847	636.25
430.069	706.25
430.292	672.25
430.514	599.25
430.736	571.25
430.958	573.25
431.18	554.25
431.402	530.25
431.624	541.25
431.846	558.25
432.068	537.25
432.29	551.25
432.512	541.25
432.734	550.25
432.956	538.25
433.178	574.25
433.4	586.25
433.622	558.25
433.844	573.25
434.066	549.25
434.287	542.25
434.509	558.25
434.731	568.25
434.953	562.25
435.175	590.25
435.397	626.25
435.618	640.25
435.84	675.25
436.062	807.25
436.284	866.25
436.505	702.25
436.727	612.25
436.949	603.25
437.17	578.25
437.392	559.25
437.614	581.25
437.835	637.25
438.057	738.25
438.278	829.25
438.5	835.25
438.721	920.25
438.943	885.25
439.165	695.25
439.386	647.25
439.608	647.25
439.829	629.25
440.05	663.25
440.272	706.25
440.493	665.25
440.715	590.25
440.936	612.25
441.158	579.25
441.379	589.25
441.6	570.25
441.822	601.25
442.043	685.25
442.264	766.25
442.486	821.25
442.707	679.25
442.928	628.25
443.149	677.25
443.371	695.25
443.592	704.25
443.813	818.25
444.034	901.25
444.255	721.25
444.476	657.25
444.698	618.25
444.919	640.25
445.14	765.25
445.361	697.25
445.582	663.25
445.803	725.25
446.024	873.25
446.245	860.25
446.466	812.25
446.687	665.25
446.908	626.25
447.129	589.25
447.35	564.25
447.571	579.25
447.792	562.25
448.013	575.25
448.234	588.25
448.455	656.25
448.675	780.25
448.896	895.25
449.117	785.25
449.338	718.25
449.559	828.25
449.779	938.25
450	767.25
450.221	645.25
450.442	595.25
450.662	569.25
450.883	577.25
451.104	570.25
451.324	554.25
451.545	550.25
451.766	550.25
451.986	520.25
452.207	501.25
452.428	523.25
452.648	531.25
452.869	510.25
453.089	526.25
453.31	527.25
453.53	524.25
453.751	527.25
453.971	538.25
454.192	564.25
454.412	503.25
454.633	519.25
454.853	515.25
455.073	519.25
455.294	543.25
455.514	620.25
455.734	592.25
455.955	523.25
456.175	501.25
456.395	475.25
456.616	482.25
456.836	493.25
457.056	487.25
457.276	478.25
457.497	463.25
457.717	489.25
457.937	510.25
458.157	493.25
458.377	517.25
458.598	525.25
458.818	581.25
459.038	665.25
459.258	699.25
459.478	590.25
459.698	574.25
459.918	565.25
460.138	567.25
460.358	561.25
460.578	572.25
460.798	578.25
461.018	569.25
461.238	569.25
461.458	576.25
461.678	568.25
461.898	587.25
462.118	549.25
462.338	588.25
462.558	582.25
462.777	574.25
462.997	611.25
463.217	600.25
463.437	636.25
463.657	620.25
463.876	604.25
464.096	610.25
464.316	600.25
464.536	608.25
464.755	616.25
464.975	609.25
465.195	635.25
465.414	689.25
465.634	641.25
465.854	602.25
466.073	580.25
466.293	563.25
466.512	550.25
466.732	548.25
466.951	520.25
467.171	528.25
467.391	569.25
467.61	569.25
467.829	556.25
468.049	557.25
468.268	533.25
468.488	526.25
468.707	519.25
468.927	529.25
469.146	517.25
469.365	512.25
469.585	486.25
469.804	531.25
470.023	531.25
470.243	529.25
470.462	539.25
470.681	544.25
470.901	539.25
471.12	555.25
471.339	539.25
471.558	525.25
471.777	531.25
471.997	546.25
472.216	553.25
472.435	577.25
472.654	562.25
472.873	532.25
473.092	544.25
473.311	522.25
473.53	537.25
473.749	542.25
473.968	583.25
474.187	695.25
474.406	745.25
474.625	592.25
474.844	565.25
475.063	524.25
475.282	547.25
475.501	547.25
475.72	566.25
475.939	552.25
476.158	541.25
476.377	575.25
476.596	562.25
476.814	542.25
477.033	552.25
477.252	572.25
477.471	584.25
477.69	606.25
477.908	594.25
478.127	582.25
478.346	585.25
478.564	598.25
478.783	600.25
479.002	609.25
479.22	613.25
479.439	659.25
479.658	669.25
479.876	629.25
480.095	654.25
480.313	686.25
480.532	689.25
480.751	675.25
480.969	659.25
481.188	724.25
481.406	769.25
481.624	679.25
481.843	674.25
482.061	657.25
482.28	635.25
482.498	644.25
482.717	634.25
482.935	619.25
483.153	637.25
483.372	649.25
483.59	622.25
483.808	623.25
484.027	649.25
484.245	647.25
484.463	649.25
484.681	687.25
484.9	647.25
485.118	656.25
485.336	637.25
485.554	640.25
485.772	663.25
485.99	662.25
486.209	648.25
486.427	652.25
486.645	659.25
486.863	672.25
487.081	690.25
487.299	700.25
487.517	682.25
487.735	691.25
487.953	676.25
488.171	665.25
488.389	691.25
488.607	695.25
488.825	666.25
489.043	681.25
489.261	675.25
489.479	710.25
489.696	700.25
489.914	697.25
490.132	711.25
490.35	700.25
490.568	709.25
490.786	727.25
491.003	733.25
491.221	756.25
491.439	775.25
491.657	777.25
491.874	795.25
492.092	782.25
492.31	781.25
492.527	798.25
492.745	794.25
492.963	796.25
493.18	799.25
493.398	809.25
493.615	845.25
493.833	802.25
494.05	821.25
494.268	827.25
494.485	810.25
494.703	795.25
494.92	806.25
495.138	835.25
495.355	855.25
495.573	818.25
495.79	807.25
496.008	843.25
496.225	779.25
496.442	787.25
496.66	828.25
496.877	833.25
497.094	821.25
497.312	847.25
497.529	840.25
497.746	847.25
497.963	855.25
498.181	883.25
498.398	901.25
498.615	899.25
498.832	920.25
499.049	967.25
499.267	976.25
499.484	983.25
499.701	1042.25
499.918	1050.25
500.135	1121.25
500.352	1202.25
500.569	1195.25
500.786	1181.25
501.003	1162.25
501.22	1134.25
501.437	1109.25
501.654	1053.25
501.871	1066.25
502.088	989.25
502.305	983.25
502.522	923.25
502.739	937.25
502.956	862.25
503.172	829.25
503.389	858.25
503.606	857.25
503.823	864.25
504.04	825.25
504.256	837.25
504.473	821.25
504.69	811.25
504.907	825.25
505.123	797.25
505.34	808.25
505.557	773.25
505.773	770.25
505.99	775.25
506.207	788.25
506.423	781.25
506.64	773.25
506.856	757.25
507.073	752.25
507.289	755.25
507.506	760.25
507.722	767.25
507.939	781.25
508.155	748.25
508.372	733.25
508.588	722.25
508.805	719.25
509.021	731.25
509.238	735.25
509.454	750.25
509.67	741.25
509.887	745.25
510.103	737.25
510.319	722.25
510.536	834.25
510.752	1269.25
510.968	1081.25
511.184	748.25
511.401	713.25
511.617	683.25
511.833	683.25
512.049	693.25
512.265	710.25
512.481	679.25
512.698	677.25
512.914	680.25
513.13	706.25
513.346	669.25
513.562	677.25
513.778	695.25
513.994	691.25
514.21	698.25
514.426	722.25
514.642	749.25
514.858	792.25
515.074	818.25
515.29	937.25
515.506	1319.25
515.721	1118.25
515.937	822.25
516.153	751.25
516.369	750.25
516.585	734.25
516.801	719.25
517.016	709.25
517.232	723.25
517.448	728.25
517.664	724.25
517.879	725.25
518.095	725.25
518.311	747.25
518.527	740.25
518.742	705.25
518.958	680.25
519.173	701.25
519.389	661.25
519.605	684.25
519.82	708.25
520.036	693.25
520.251	748.25
520.467	751.25
520.682	726.25
520.898	746.25
521.113	739.25
521.329	770.25
521.544	871.25
521.76	1041.25
521.975	1709.25
522.19	1649.25
522.406	975.25
522.621	773.25
522.836	708.25
523.052	645.25
523.267	649.25
523.482	626.25
523.698	622.25
523.913	645.25
524.128	645.25
524.343	637.25
524.559	595.25
524.774	588.25
524.989	578.25
525.204	605.25
525.419	611.25
525.634	601.25
525.849	601.25
526.064	578.25
526.28	573.25
526.495	574.25
526.71	566.25
526.925	564.25
527.14	583.25
527.355	582.25
527.57	568.25
527.785	585.25
527.999	549.25
528.214	585.25
528.429	561.25
528.644	565.25
528.859	555.25
529.074	573.25
529.289	588.25
529.503	661.25
529.718	647.25
529.933	581.25
530.148	576.25
530.363	569.25
530.577	558.25
530.792	550.25
531.007	569.25
531.221	567.25
531.436	558.25
531.651	552.25
531.865	550.25
532.08	535.25
532.295	564.25
532.509	541.25
532.724	549.25
532.938	542.25
533.153	547.25
533.367	546.25
533.582	535.25
533.796	558.25
534.011	526.25
534.225	532.25
534.44	547.25
534.654	564.25
534.868	547.25
535.083	551.25
535.297	541.25
535.511	545.25
535.726	528.25
535.94	561.25
536.154	548.25
536.369	541.25
536.583	538.25
536.797	535.25
537.011	518.25
537.225	545.25
537.44	517.25
537.654	522.25
537.868	533.25
538.082	503.25
538.296	530.25
538.51	501.25
538.724	551.25
538.938	531.25
539.153	533.25
539.367	533.25
539.581	532.25
539.795	531.25
540.009	518.25
540.222	527.25
540.436	514.25
540.65	511.25
540.864	535.25
541.078	528.25
541.292	531.25
541.506	510.25
541.72	520.25
541.934	517.25
542.147	531.25
542.361	545.25
542.575	516.25
542.789	502.25
543.002	506.25
543.216	495.25
543.43	513.25
543.644	513.25
543.857	539.25
544.071	519.25
544.285	517.25
544.498	501.25
544.712	482.25
544.925	505.25
545.139	503.25
545.352	497.25
545.566	506.25
545.779	495.25
545.993	526.25
546.206	515.25
546.42	511.25
546.633	484.25
546.847	493.25
547.06	520.25
547.274	519.25
547.487	499.25
547.7	480.25
547.914	491.25
548.127	510.25
548.34	497.25
548.554	484.25
548.767	505.25
548.98	497.25
549.193	484.25
549.407	485.25
549.62	490.25
549.833	510.25
550.046	481.25
550.259	497.25
550.473	501.25
550.686	492.25
550.899	475.25
551.112	477.25
551.325	488.25
551.538	482.25
551.751	483.25
551.964	508.25
552.177	519.25
552.39	481.25
552.603	479.25
552.816	493.25
553.029	519.25
553.242	494.25
553.455	513.25
553.667	497.25
553.88	532.25
554.093	524.25
554.306	509.25
554.519	509.25
554.732	499.25
554.944	481.25
555.157	477.25
555.37	476.25
555.583	478.25
555.795	483.25
556.008	463.25
556.221	472.25
556.433	479.25
556.646	471.25
556.859	466.25
557.071	481.25
557.284	458.25
557.496	435.25
557.709	447.25
557.921	453.25
558.134	437.25
558.346	429.25
558.559	436.25
558.771	441.25
558.984	458.25
559.196	445.25
559.409	449.25
559.621	442.25
559.833	435.25
560.046	451.25
560.258	444.25
560.47	430.25
560.683	447.25
560.895	438.25
561.107	434.25
561.32	469.25
561.532	453.25
561.744	458.25
561.956	447.25
562.168	449.25
562.381	430.25
562.593	433.25
562.805	449.25
563.017	462.25
563.229	461.25
563.441	442.25
563.653	441.25
563.865	452.25
564.077	437.25
564.289	451.25
564.501	476.25
564.713	476.25
564.925	470.25
565.137	466.25
565.349	489.25
565.561	499.25
565.773	497.25
565.985	504.25
566.197	502.25
566.408	535.25
566.62	514.25
566.832	539.25
567.044	535.25
567.255	551.25
567.467	558.25
567.679	565.25
567.891	582.25
568.102	575.25
568.314	576.25
568.526	550.25
568.737	543.25
568.949	512.25
569.161	493.25
569.372	490.25
569.584	470.25
569.795	468.25
570.007	447.25
570.218	484.25
570.43	486.25
570.641	441.25
570.853	445.25
571.064	453.25
571.276	450.25
571.487	447.25
571.698	440.25
571.91	414.25
572.121	415.25
572.333	413.25
572.544	410.25
572.755	394.25
572.966	391.25
573.178	391.25
573.389	385.25
573.6	395.25
573.811	390.25
574.023	399.25
574.234	389.25
574.445	385.25
574.656	384.25
574.867	379.25
575.078	380.25
575.289	402.25
575.501	391.25
575.712	372.25
575.923	393.25
576.134	383.25
576.345	366.25
576.556	366.25
576.767	383.25
576.978	377.25
577.188	351.25
577.399	389.25
577.61	366.25
577.821	353.25
578.032	370.25
578.243	415.25
578.454	611.25
578.665	463.25
578.875	379.25
579.086	377.25
579.297	397.25
579.508	351.25
579.718	352.25
579.929	343.25
580.14	334.25
580.35	355.25
580.561	342.25
580.772	342.25
580.982	352.25
581.193	330.25
581.403	329.25
581.614	352.25
581.825	354.25
582.035	351.25
582.246	346.25
582.456	343.25
582.667	337.25
582.877	329.25
583.087	336.25
583.298	329.25
583.508	329.25
583.719	331.25
583.929	337.25
584.139	339.25
584.35	353.25
584.56	366.25
584.77	341.25
584.981	339.25
585.191	341.25
585.401	323.25
585.611	330.25
585.821	325.25
586.032	324.25
586.242	334.25
586.452	321.25
586.662	327.25
586.872	340.25
587.082	340.25
587.292	321.25
587.502	329.25
587.713	336.25
587.923	338.25
588.133	338.25
588.343	337.25
588.553	332.25
588.762	334.25
588.972	331.25
589.182	342.25
589.392	335.25
589.602	316.25
589.812	321.25
590.022	348.25
590.232	321.25
590.441	333.25
590.651	329.25
590.861	340.25
591.071	344.25
591.281	325.25
591.49	335.25
591.7	342.25
591.91	334.25
592.119	359.25
592.329	345.25
592.539	342.25
592.748	353.25
592.958	331.25
593.167	345.25
593.377	357.25
593.587	348.25
593.796	356.25
594.006	351.25
594.215	364.25
594.424	378.25
594.634	344.25
594.843	352.25
595.053	345.25
595.262	344.25
595.472	345.25
595.681	343.25
595.89	335.25
596.1	338.25
596.309	325.25
596.518	329.25
596.727	303.25
596.937	322.25
597.146	319.25
597.355	318.25
597.564	314.25
597.774	309.25
597.983	305.25
598.192	298.25
598.401	316.25
598.61	298.25
598.819	296.25
599.028	310.25
599.237	300.25
599.446	292.25
599.655	307.25
599.864	295.25
600.073	300.25
600.282	305.25
600.491	299.25
600.7	303.25
600.909	282.25
601.118	294.25
601.327	285.25
601.536	277.25
601.745	302.25
601.953	303.25
602.162	270.25
602.371	280.25
602.58	294.25
602.789	295.25
602.997	275.25
603.206	285.25
603.415	281.25
603.623	285.25
603.832	276.25
604.041	270.25
604.249	285.25
604.458	281.25
604.666	286.25
604.875	260.25
605.084	272.25
605.292	277.25
605.501	285.25
605.709	288.25
605.918	259.25
606.126	289.25
606.334	282.25
606.543	271.25
606.751	268.25
606.96	291.25
607.168	250.25
607.376	272.25
607.585	279.25
607.793	285.25
608.001	268.25
608.21	272.25
608.418	280.25
608.626	267.25
608.834	257.25
609.043	276.25
609.251	279.25
609.459	273.25
609.667	265.25
609.875	259.25
610.083	284.25
610.291	275.25
610.499	283.25
610.707	271.25
610.916	268.25
611.124	277.25
611.332	273.25
611.54	274.25
611.748	271.25
611.955	276.25
612.163	281.25
612.371	272.25
612.579	252.25
612.787	269.25
612.995	264.25
613.203	248.25
613.411	256.25
613.618	262.25
613.826	261.25
614.034	268.25
614.242	251.25
614.449	267.25
614.657	276.25
614.865	256.25
615.072	261.25
615.28	260.25
615.488	273.25
615.695	273.25
615.903	262.25
616.111	265.25
616.318	263.25
616.526	252.25
616.733	274.25
616.941	266.25
617.148	264.25
617.356	257.25
617.563	258.25
617.771	263.25
617.978	260.25
618.185	234.25
618.393	268.25
618.6	245.25
618.807	252.25
619.015	250.25
619.222	237.25
619.429	241.25
619.637	246.25
619.844	244.25
620.051	250.25
620.258	245.25
620.466	244.25
620.673	241.25
620.88	236.25
621.087	257.25
621.294	270.25
621.501	230.25
621.708	245.25
621.915	253.25
622.122	264.25
622.329	259.25
622.536	241.25
622.743	253.25
622.95	247.25
623.157	247.25
623.364	230.25
623.571	228.25
623.778	230.25
623.985	227.25
624.192	239.25
624.399	230.25
624.606	220.25
624.812	235.25
625.019	215.25
625.226	245.25
625.433	217.25
625.639	226.25
625.846	229.25
626.053	239.25
626.259	228.25
626.466	220.25
626.673	217.25
626.879	233.25
627.086	229.25
627.293	220.25
627.499	219.25
627.706	229.25
627.912	225.25
628.119	227.25
628.325	225.25
628.532	198.25
628.738	222.25
628.945	220.25
629.151	218.25
629.357	217.25
629.564	218.25
629.77	215.25
629.976	218.25
630.183	202.25
630.389	209.25
630.595	201.25
630.802	196.25
631.008	216.25
631.214	221.25
631.42	200.25
631.627	226.25
631.833	216.25
632.039	189.25
632.245	209.25
632.451	189.25
632.657	199.25
632.863	218.25
633.069	187.25
633.275	206.25
633.481	197.25
633.688	203.25
633.893	189.25
634.099	200.25
634.305	201.25
634.511	213.25
634.717	197.25
634.923	202.25
635.129	179.25
635.335	195.25
635.541	198.25
635.747	196.25
635.952	221.25
636.158	197.25
636.364	207.25
636.57	206.25
636.775	199.25
636.981	191.25
637.187	195.25
637.392	197.25
637.598	210.25
637.804	189.25
638.009	203.25
638.215	191.25
638.421	194.25
638.626	200.25
638.832	196.25
639.037	204.25
639.243	172.25
639.448	198.25
639.654	177.25
639.859	174.25
640.065	201.25
640.27	185.25
640.475	183.25
640.681	202.25
640.886	193.25
641.091	181.25
641.297	179.25
641.502	178.25
641.707	175.25
641.913	188.25
642.118	187.25
642.323	188.25
642.528	193.25
642.733	173.25
642.939	170.25
643.144	181.25
643.349	179.25
643.554	179.25
643.759	169.25
643.964	180.25
644.169	185.25
644.374	165.25
644.579	164.25
644.784	193.25
644.989	181.25
645.194	182.25
645.399	191.25
645.604	164.25
645.809	173.25
646.014	161.25
646.219	178.25
646.423	169.25
646.628	168.25
646.833	177.25
647.038	197.25
647.243	194.25
647.447	164.25
647.652	182.25
647.857	198.25
648.062	169.25
648.266	184.25
648.471	183.25
648.676	166.25
648.88	170.25
649.085	188.25
649.289	183.25
649.494	187.25
649.698	193.25
649.903	180.25
650.107	180.25
650.312	174.25
650.516	178.25
650.721	183.25
650.925	161.25
651.13	175.25
651.334	179.25
651.539	165.25
651.743	167.25
651.947	144.25
652.152	160.25
652.356	149.25
652.56	163.25
652.764	151.25
652.969	153.25
653.173	143.25
653.377	144.25
653.581	150.25
653.785	161.25
653.99	147.25
654.194	146.25
654.398	151.25
654.602	145.25
654.806	147.25
655.01	158.25
655.214	146.25
655.418	141.25
655.622	123.25
655.826	130.25
656.03	135.25
656.234	136.25
656.438	161.25
656.642	144.25
656.846	139.25
657.049	126.25
657.253	133.25
657.457	117.25
657.661	122.25
657.865	124.25
658.068	110.25
658.272	108.25
658.476	109.25
658.68	107.25
658.883	125.25
659.087	110.25
659.291	113.25
659.494	101.25
659.698	99.25
659.901	89.25
660.105	83.25
660.309	81.25
660.512	102.25
660.716	89.25
660.919	95.25
661.123	89.25
661.326	99.25
661.53	76.25
661.733	79.25
661.936	101.25
662.14	88.25
662.343	87.25
662.546	81.25
662.75	85.25
662.953	96.25
663.156	81.25
663.36	92.25
663.563	91.25
663.766	75.25
663.969	87.25
664.173	89.25
664.376	85.25
664.579	77.25
664.782	77.25
664.985	89.25
665.188	74.25
665.391	83.25
665.594	69.25
665.797	77.25
666	78.25
666.203	79.25
666.406	78.25
666.609	91.25
666.812	87.25
667.015	84.25
667.218	82.25
667.421	72.25
667.624	79.25
667.827	68.25
668.03	91.25
668.232	81.25
668.435	77.25
668.638	101.25
668.841	97.25
669.043	74.25
669.246	85.25
669.449	84.25
669.651	79.25
669.854	98.25
670.057	95.25
670.259	91.25
670.462	82.25
670.665	79.25
670.867	75.25
671.07	77.25
671.272	81.25
671.475	81.25
671.677	83.25
671.88	88.25
672.082	74.25
672.284	75.25
672.487	77.25
672.689	86.25
672.892	82.25
