Data from 1966.PennyLincolnUp.Lamp.En5.5.200Scan.071719.P1._HRD10591_14-15-19-940.txt Node
Date: Thu Jul 18 14:15:19 EDT 2019
User: cochatt
Spectrometer: HR+D1059
Trigger mode: 1
Integration Time (sec): 1.000000E-1
Scans to average: 1
Electric dark correction enabled: true
Nonlinearity correction enabled: false
Boxcar width: 0
XAxis mode: Wavelengths
Number of Pixels in Spectrum: 2048
>>>>>Begin Spectral Data<<<<<
223.165	-9.12
223.4	-9.12
223.635	-9.12
223.869	-4.12
224.104	-22.12
224.338	-23.12
224.573	-27.12
224.808	-12.12
225.042	-12.12
225.277	-12.12
225.511	7.88
225.746	1.88
225.98	9.88
226.215	6.88
226.449	20.88
226.683	10.88
226.918	31.88
227.152	31.88
227.387	34.88
227.621	30.88
227.856	44.88
228.09	48.88
228.324	43.88
228.559	63.88
228.793	53.88
229.027	79.88
229.262	73.88
229.496	82.88
229.73	87.88
229.964	97.88
230.199	79.88
230.433	95.88
230.667	86.88
230.901	87.88
231.136	91.88
231.37	89.88
231.604	94.88
231.838	85.88
232.072	89.88
232.306	100.88
232.541	112.88
232.775	96.88
233.009	98.88
233.243	97.88
233.477	81.88
233.711	84.88
233.945	104.88
234.179	91.88
234.413	104.88
234.647	96.88
234.881	99.88
235.115	96.88
235.349	80.88
235.583	92.88
235.817	82.88
236.051	99.88
236.285	106.88
236.519	101.88
236.753	101.88
236.987	116.88
237.221	128.88
237.455	153.88
237.689	118.88
237.922	93.88
238.156	101.88
238.39	95.88
238.624	101.88
238.858	90.88
239.091	104.88
239.325	103.88
239.559	88.88
239.793	94.88
240.027	100.88
240.26	115.88
240.494	113.88
240.728	122.88
240.961	107.88
241.195	98.88
241.429	90.88
241.662	98.88
241.896	100.88
242.13	95.88
242.363	93.88
242.597	95.88
242.83	108.88
243.064	112.88
243.298	108.88
243.531	104.88
243.765	108.88
243.998	108.88
244.232	92.88
244.465	101.88
244.699	107.88
244.932	103.88
245.166	106.88
245.399	89.88
245.633	108.88
245.866	98.88
246.099	91.88
246.333	107.88
246.566	116.88
246.8	112.88
247.033	99.88
247.266	111.88
247.5	112.88
247.733	125.88
247.966	129.88
248.2	131.88
248.433	103.88
248.666	107.88
248.899	122.88
249.133	133.88
249.366	139.88
249.599	120.88
249.832	123.88
250.066	118.88
250.299	122.88
250.532	125.88
250.765	149.88
250.998	147.88
251.231	152.88
251.465	129.88
251.698	141.88
251.931	128.88
252.164	125.88
252.397	132.88
252.63	139.88
252.863	133.88
253.096	140.88
253.329	138.88
253.562	142.88
253.795	139.88
254.028	147.88
254.261	144.88
254.494	153.88
254.727	148.88
254.96	175.88
255.193	143.88
255.426	142.88
255.659	128.88
255.892	132.88
256.124	142.88
256.357	118.88
256.59	145.88
256.823	143.88
257.056	141.88
257.289	124.88
257.521	134.88
257.754	131.88
257.987	127.88
258.22	149.88
258.452	111.88
258.685	129.88
258.918	137.88
259.151	131.88
259.383	137.88
259.616	150.88
259.849	132.88
260.081	149.88
260.314	150.88
260.547	173.88
260.779	149.88
261.012	137.88
261.244	131.88
261.477	131.88
261.71	123.88
261.942	141.88
262.175	148.88
262.407	153.88
262.64	142.88
262.872	145.88
263.105	135.88
263.337	156.88
263.57	149.88
263.802	125.88
264.035	113.88
264.267	123.88
264.499	127.88
264.732	127.88
264.964	135.88
265.197	149.88
265.429	141.88
265.661	138.88
265.894	141.88
266.126	122.88
266.358	130.88
266.591	142.88
266.823	157.88
267.055	160.88
267.287	144.88
267.52	147.88
267.752	142.88
267.984	148.88
268.216	156.88
268.448	157.88
268.681	162.88
268.913	155.88
269.145	159.88
269.377	173.88
269.609	167.88
269.841	155.88
270.073	165.88
270.306	177.88
270.538	187.88
270.77	179.88
271.002	176.88
271.234	170.88
271.466	184.88
271.698	193.88
271.93	195.88
272.162	197.88
272.394	177.88
272.626	198.88
272.858	159.88
273.09	165.88
273.322	154.88
273.553	153.88
273.785	145.88
274.017	162.88
274.249	163.88
274.481	163.88
274.713	142.88
274.945	166.88
275.176	171.88
275.408	156.88
275.64	172.88
275.872	154.88
276.104	168.88
276.335	161.88
276.567	154.88
276.799	178.88
277.031	173.88
277.262	191.88
277.494	195.88
277.726	177.88
277.957	176.88
278.189	173.88
278.421	166.88
278.652	164.88
278.884	170.88
279.115	141.88
279.347	159.88
279.579	164.88
279.81	152.88
280.042	173.88
280.273	171.88
280.505	154.88
280.736	168.88
280.968	151.88
281.199	153.88
281.431	167.88
281.662	167.88
281.894	165.88
282.125	151.88
282.356	151.88
282.588	187.88
282.819	190.88
283.051	159.88
283.282	151.88
283.513	175.88
283.745	157.88
283.976	164.88
284.207	168.88
284.439	169.88
284.67	182.88
284.901	169.88
285.132	172.88
285.364	172.88
285.595	175.88
285.826	157.88
286.057	165.88
286.288	161.88
286.52	152.88
286.751	170.88
286.982	172.88
287.213	173.88
287.444	180.88
287.675	176.88
287.906	167.88
288.138	172.88
288.369	177.88
288.6	188.88
288.831	195.88
289.062	175.88
289.293	171.88
289.524	196.88
289.755	163.88
289.986	183.88
290.217	179.88
290.448	167.88
290.679	171.88
290.91	168.88
291.141	163.88
291.371	155.88
291.602	188.88
291.833	157.88
292.064	168.88
292.295	167.88
292.526	168.88
292.757	185.88
292.987	167.88
293.218	171.88
293.449	179.88
293.68	165.88
293.91	175.88
294.141	172.88
294.372	171.88
294.603	188.88
294.833	174.88
295.064	170.88
295.295	145.88
295.525	160.88
295.756	181.88
295.987	179.88
296.217	180.88
296.448	206.88
296.679	183.88
296.909	189.88
297.14	180.88
297.37	165.88
297.601	178.88
297.831	175.88
298.062	177.88
298.292	176.88
298.523	180.88
298.753	171.88
298.984	191.88
299.214	190.88
299.445	188.88
299.675	187.88
299.905	192.88
300.136	180.88
300.366	181.88
300.597	186.88
300.827	177.88
301.057	196.88
301.288	195.88
301.518	198.88
301.748	197.88
301.979	184.88
302.209	199.88
302.439	183.88
302.669	196.88
302.9	202.88
303.13	169.88
303.36	180.88
303.59	194.88
303.82	184.88
304.051	205.88
304.281	175.88
304.511	196.88
304.741	189.88
304.971	204.88
305.201	195.88
305.431	193.88
305.661	185.88
305.891	187.88
306.121	198.88
306.352	184.88
306.582	191.88
306.812	179.88
307.042	183.88
307.272	194.88
307.502	189.88
307.731	183.88
307.961	194.88
308.191	189.88
308.421	208.88
308.651	200.88
308.881	205.88
309.111	199.88
309.341	200.88
309.571	212.88
309.8	204.88
310.03	220.88
310.26	208.88
310.49	225.88
310.72	213.88
310.949	205.88
311.179	224.88
311.409	207.88
311.639	220.88
311.868	220.88
312.098	222.88
312.328	220.88
312.557	237.88
312.787	219.88
313.017	233.88
313.246	246.88
313.476	207.88
313.706	200.88
313.935	219.88
314.165	216.88
314.394	223.88
314.624	213.88
314.853	223.88
315.083	228.88
315.312	215.88
315.542	199.88
315.771	200.88
316.001	202.88
316.23	212.88
316.46	212.88
316.689	216.88
316.919	202.88
317.148	207.88
317.377	218.88
317.607	223.88
317.836	220.88
318.065	213.88
318.295	209.88
318.524	213.88
318.753	227.88
318.983	214.88
319.212	208.88
319.441	213.88
319.67	215.88
319.9	220.88
320.129	211.88
320.358	196.88
320.587	193.88
320.816	199.88
321.046	223.88
321.275	229.88
321.504	218.88
321.733	223.88
321.962	219.88
322.191	240.88
322.42	233.88
322.649	247.88
322.878	248.88
323.108	237.88
323.337	268.88
323.566	287.88
323.795	300.88
324.024	324.88
324.253	384.88
324.482	554.88
324.71	819.88
324.939	1125.88
325.168	901.88
325.397	453.88
325.626	332.88
325.855	271.88
326.084	258.88
326.313	248.88
326.542	257.88
326.77	308.88
326.999	347.88
327.228	480.88
327.457	708.88
327.686	828.88
327.914	545.88
328.143	383.88
328.372	358.88
328.6	326.88
328.829	306.88
329.058	304.88
329.287	318.88
329.515	297.88
329.744	277.88
329.972	290.88
330.201	298.88
330.43	328.88
330.658	324.88
330.887	345.88
331.115	339.88
331.344	289.88
331.572	254.88
331.801	273.88
332.03	284.88
332.258	245.88
332.486	267.88
332.715	236.88
332.943	239.88
333.172	250.88
333.4	246.88
333.629	252.88
333.857	275.88
334.085	270.88
334.314	289.88
334.542	322.88
334.771	337.88
334.999	313.88
335.227	265.88
335.455	243.88
335.684	252.88
335.912	258.88
336.14	240.88
336.369	239.88
336.597	250.88
336.825	252.88
337.053	220.88
337.281	231.88
337.51	247.88
337.738	236.88
337.966	237.88
338.194	240.88
338.422	250.88
338.65	242.88
338.878	235.88
339.106	233.88
339.334	227.88
339.562	233.88
339.79	234.88
340.018	234.88
340.246	237.88
340.474	237.88
340.702	249.88
340.93	240.88
341.158	235.88
341.386	251.88
341.614	248.88
341.842	228.88
342.07	235.88
342.298	228.88
342.526	204.88
342.754	221.88
342.981	223.88
343.209	221.88
343.437	230.88
343.665	212.88
343.893	225.88
344.12	240.88
344.348	236.88
344.576	223.88
344.804	235.88
345.031	236.88
345.259	251.88
345.487	245.88
345.714	228.88
345.942	220.88
346.17	232.88
346.397	229.88
346.625	226.88
346.853	213.88
347.08	228.88
347.308	220.88
347.535	213.88
347.763	247.88
347.99	226.88
348.218	235.88
348.445	219.88
348.673	223.88
348.9	216.88
349.128	230.88
349.355	197.88
349.583	194.88
349.81	227.88
350.037	214.88
350.265	228.88
350.492	211.88
350.72	226.88
350.947	223.88
351.174	233.88
351.402	243.88
351.629	229.88
351.856	223.88
352.083	220.88
352.311	235.88
352.538	235.88
352.765	243.88
352.992	217.88
353.22	241.88
353.447	227.88
353.674	230.88
353.901	214.88
354.128	203.88
354.355	208.88
354.583	212.88
354.81	215.88
355.037	199.88
355.264	200.88
355.491	203.88
355.718	204.88
355.945	194.88
356.172	199.88
356.399	203.88
356.626	205.88
356.853	206.88
357.08	205.88
357.307	225.88
357.534	202.88
357.761	187.88
357.988	226.88
358.215	212.88
358.441	214.88
358.668	206.88
358.895	221.88
359.122	211.88
359.349	211.88
359.576	235.88
359.802	241.88
360.029	243.88
360.256	271.88
360.483	257.88
360.709	227.88
360.936	226.88
361.163	234.88
361.39	226.88
361.616	216.88
361.843	216.88
362.07	220.88
362.296	226.88
362.523	213.88
362.749	240.88
362.976	226.88
363.203	224.88
363.429	211.88
363.656	221.88
363.882	207.88
364.109	215.88
364.335	232.88
364.562	226.88
364.788	215.88
365.015	202.88
365.241	201.88
365.468	212.88
365.694	234.88
365.92	224.88
366.147	222.88
366.373	205.88
366.599	211.88
366.826	216.88
367.052	216.88
367.278	210.88
367.505	213.88
367.731	222.88
367.957	219.88
368.184	197.88
368.41	223.88
368.636	209.88
368.862	226.88
369.089	212.88
369.315	215.88
369.541	223.88
369.767	199.88
369.993	204.88
370.219	208.88
370.445	221.88
370.672	208.88
370.898	205.88
371.124	203.88
371.35	200.88
371.576	210.88
371.802	203.88
372.028	197.88
372.254	200.88
372.48	211.88
372.706	225.88
372.932	204.88
373.158	213.88
373.384	213.88
373.61	201.88
373.835	213.88
374.061	214.88
374.287	211.88
374.513	219.88
374.739	218.88
374.965	200.88
375.191	211.88
375.416	221.88
375.642	212.88
375.868	220.88
376.094	196.88
376.319	210.88
376.545	195.88
376.771	210.88
376.997	209.88
377.222	200.88
377.448	202.88
377.674	215.88
377.899	207.88
378.125	213.88
378.35	216.88
378.576	194.88
378.802	195.88
379.027	204.88
379.253	216.88
379.478	204.88
379.704	206.88
379.929	216.88
380.155	221.88
380.38	211.88
380.606	196.88
380.831	210.88
381.057	216.88
381.282	199.88
381.507	209.88
381.733	196.88
381.958	205.88
382.184	228.88
382.409	217.88
382.634	204.88
382.86	205.88
383.085	201.88
383.31	184.88
383.535	209.88
383.761	222.88
383.986	213.88
384.211	212.88
384.436	237.88
384.662	212.88
384.887	216.88
385.112	208.88
385.337	205.88
385.562	212.88
385.787	224.88
386.013	233.88
386.238	245.88
386.463	243.88
386.688	227.88
386.913	226.88
387.138	216.88
387.363	229.88
387.588	217.88
387.813	231.88
388.038	238.88
388.263	215.88
388.488	225.88
388.713	218.88
388.938	231.88
389.163	219.88
389.387	230.88
389.612	230.88
389.837	241.88
390.062	216.88
390.287	222.88
390.512	233.88
390.736	214.88
390.961	234.88
391.186	241.88
391.411	220.88
391.636	220.88
391.86	219.88
392.085	214.88
392.31	226.88
392.534	244.88
392.759	239.88
392.984	239.88
393.208	209.88
393.433	235.88
393.658	225.88
393.882	240.88
394.107	220.88
394.331	235.88
394.556	232.88
394.78	233.88
395.005	232.88
395.229	247.88
395.454	234.88
395.678	231.88
395.903	244.88
396.127	243.88
396.352	244.88
396.576	262.88
396.801	251.88
397.025	235.88
397.249	242.88
397.474	227.88
397.698	231.88
397.922	246.88
398.147	247.88
398.371	253.88
398.595	240.88
398.82	256.88
399.044	256.88
399.268	259.88
399.492	268.88
399.717	310.88
399.941	300.88
400.165	291.88
400.389	288.88
400.613	270.88
400.837	245.88
401.062	260.88
401.286	253.88
401.51	257.88
401.734	262.88
401.958	255.88
402.182	255.88
402.406	292.88
402.63	284.88
402.854	277.88
403.078	267.88
403.302	267.88
403.526	263.88
403.75	279.88
403.974	275.88
404.198	268.88
404.422	262.88
404.645	272.88
404.869	275.88
405.093	289.88
405.317	283.88
405.541	315.88
405.765	282.88
405.988	277.88
406.212	296.88
406.436	303.88
406.66	316.88
406.883	289.88
407.107	290.88
407.331	310.88
407.555	334.88
407.778	354.88
408.002	314.88
408.226	292.88
408.449	297.88
408.673	288.88
408.896	310.88
409.12	321.88
409.344	282.88
409.567	273.88
409.791	275.88
410.014	271.88
410.238	252.88
410.461	269.88
410.685	275.88
410.908	272.88
411.132	286.88
411.355	313.88
411.578	287.88
411.802	261.88
412.025	267.88
412.249	252.88
412.472	275.88
412.695	296.88
412.919	277.88
413.142	261.88
413.365	263.88
413.589	259.88
413.812	264.88
414.035	249.88
414.258	241.88
414.482	256.88
414.705	259.88
414.928	250.88
415.151	252.88
415.374	263.88
415.597	260.88
415.821	233.88
416.044	242.88
416.267	261.88
416.49	252.88
416.713	257.88
416.936	246.88
417.159	267.88
417.382	247.88
417.605	272.88
417.828	257.88
418.051	259.88
418.274	241.88
418.497	247.88
418.72	251.88
418.943	255.88
419.166	258.88
419.389	257.88
419.611	270.88
419.834	267.88
420.057	281.88
420.28	280.88
420.503	256.88
420.726	264.88
420.948	253.88
421.171	295.88
421.394	293.88
421.617	266.88
421.839	263.88
422.062	261.88
422.285	266.88
422.507	291.88
422.73	324.88
422.953	322.88
423.175	277.88
423.398	263.88
423.621	291.88
423.843	295.88
424.066	284.88
424.288	280.88
424.511	306.88
424.733	289.88
424.956	340.88
425.178	324.88
425.401	328.88
425.623	338.88
425.846	285.88
426.068	305.88
426.291	284.88
426.513	270.88
426.735	285.88
426.958	316.88
427.18	330.88
427.402	392.88
427.625	431.88
427.847	376.88
428.069	327.88
428.292	294.88
428.514	279.88
428.736	270.88
428.958	256.88
429.181	263.88
429.403	259.88
429.625	260.88
429.847	282.88
430.069	324.88
430.292	295.88
430.514	247.88
430.736	248.88
430.958	256.88
431.18	253.88
431.402	241.88
431.624	239.88
431.846	251.88
432.068	228.88
432.29	266.88
432.512	248.88
432.734	265.88
432.956	242.88
433.178	256.88
433.4	268.88
433.622	253.88
433.844	231.88
434.066	253.88
434.287	253.88
434.509	265.88
434.731	265.88
434.953	236.88
435.175	273.88
435.397	272.88
435.618	291.88
435.84	311.88
436.062	342.88
436.284	367.88
436.505	313.88
436.727	287.88
436.949	280.88
437.17	259.88
437.392	245.88
437.614	276.88
437.835	299.88
438.057	330.88
438.278	362.88
438.5	347.88
438.721	406.88
438.943	380.88
439.165	281.88
439.386	296.88
439.608	282.88
439.829	269.88
440.05	296.88
440.272	306.88
440.493	293.88
440.715	267.88
440.936	283.88
441.158	267.88
441.379	259.88
441.6	265.88
441.822	293.88
442.043	317.88
442.264	346.88
442.486	359.88
442.707	319.88
442.928	305.88
443.149	285.88
443.371	307.88
443.592	333.88
443.813	374.88
444.034	370.88
444.255	329.88
444.476	296.88
444.698	299.88
444.919	267.88
445.14	369.88
445.361	343.88
445.582	311.88
445.803	331.88
446.024	393.88
446.245	401.88
446.466	376.88
446.687	315.88
446.908	269.88
447.129	276.88
447.35	244.88
447.571	267.88
447.792	239.88
448.013	251.88
448.234	264.88
448.455	303.88
448.675	345.88
448.896	392.88
449.117	317.88
449.338	293.88
449.559	360.88
449.779	399.88
450	307.88
450.221	271.88
450.442	260.88
450.662	261.88
450.883	258.88
451.104	295.88
451.324	253.88
451.545	271.88
451.766	258.88
451.986	252.88
452.207	242.88
452.428	225.88
452.648	229.88
452.869	246.88
453.089	243.88
453.31	252.88
453.53	237.88
453.751	246.88
453.971	243.88
454.192	257.88
454.412	263.88
454.633	236.88
454.853	239.88
455.073	249.88
455.294	247.88
455.514	281.88
455.734	269.88
455.955	235.88
456.175	226.88
456.395	226.88
456.616	236.88
456.836	230.88
457.056	221.88
457.276	227.88
457.497	212.88
457.717	229.88
457.937	213.88
458.157	228.88
458.377	239.88
458.598	229.88
458.818	277.88
459.038	320.88
459.258	337.88
459.478	273.88
459.698	234.88
459.918	239.88
460.138	228.88
460.358	237.88
460.578	246.88
460.798	255.88
461.018	260.88
461.238	251.88
461.458	264.88
461.678	241.88
461.898	240.88
462.118	266.88
462.338	247.88
462.558	252.88
462.777	246.88
462.997	268.88
463.217	271.88
463.437	264.88
463.657	275.88
463.876	271.88
464.096	262.88
464.316	248.88
464.536	242.88
464.755	268.88
464.975	279.88
465.195	297.88
465.414	369.88
465.634	314.88
465.854	250.88
466.073	243.88
466.293	263.88
466.512	231.88
466.732	237.88
466.951	244.88
467.171	239.88
467.391	251.88
467.61	242.88
467.829	262.88
468.049	259.88
468.268	236.88
468.488	237.88
468.707	242.88
468.927	236.88
469.146	245.88
469.365	228.88
469.585	238.88
469.804	236.88
470.023	265.88
470.243	247.88
470.462	255.88
470.681	265.88
470.901	258.88
471.12	240.88
471.339	235.88
471.558	247.88
471.777	237.88
471.997	253.88
472.216	253.88
472.435	311.88
472.654	271.88
472.873	239.88
473.092	250.88
473.311	229.88
473.53	244.88
473.749	257.88
473.968	265.88
474.187	318.88
474.406	311.88
474.625	277.88
474.844	242.88
475.063	243.88
475.282	226.88
475.501	241.88
475.72	253.88
475.939	254.88
476.158	249.88
476.377	249.88
476.596	257.88
476.814	258.88
477.033	260.88
477.252	271.88
477.471	267.88
477.69	244.88
477.908	255.88
478.127	269.88
478.346	273.88
478.564	264.88
478.783	279.88
479.002	278.88
479.22	279.88
479.439	284.88
479.658	285.88
479.876	297.88
480.095	273.88
480.313	306.88
480.532	305.88
480.751	285.88
480.969	316.88
481.188	367.88
481.406	410.88
481.624	338.88
481.843	289.88
482.061	297.88
482.28	285.88
482.498	299.88
482.717	295.88
482.935	284.88
483.153	279.88
483.372	289.88
483.59	278.88
483.808	288.88
484.027	280.88
484.245	284.88
484.463	295.88
484.681	291.88
484.9	275.88
485.118	285.88
485.336	308.88
485.554	291.88
485.772	305.88
485.99	297.88
486.209	293.88
486.427	276.88
486.645	302.88
486.863	312.88
487.081	308.88
487.299	316.88
487.517	310.88
487.735	292.88
487.953	292.88
488.171	324.88
488.389	311.88
488.607	305.88
488.825	282.88
489.043	303.88
489.261	311.88
489.479	311.88
489.696	305.88
489.914	309.88
490.132	317.88
490.35	334.88
490.568	298.88
490.786	324.88
491.003	317.88
491.221	349.88
491.439	356.88
491.657	373.88
491.874	347.88
492.092	331.88
492.31	344.88
492.527	363.88
492.745	359.88
492.963	357.88
493.18	372.88
493.398	359.88
493.615	368.88
493.833	347.88
494.05	353.88
494.268	362.88
494.485	376.88
494.703	351.88
494.92	325.88
495.138	364.88
495.355	370.88
495.573	359.88
495.79	361.88
496.008	354.88
496.225	368.88
496.442	345.88
496.66	367.88
496.877	345.88
497.094	349.88
497.312	375.88
497.529	365.88
497.746	377.88
497.963	372.88
498.181	384.88
498.398	368.88
498.615	382.88
498.832	386.88
499.049	404.88
499.267	398.88
499.484	403.88
499.701	443.88
499.918	421.88
500.135	456.88
500.352	479.88
500.569	475.88
500.786	484.88
501.003	469.88
501.22	451.88
501.437	460.88
501.654	426.88
501.871	432.88
502.088	415.88
502.305	405.88
502.522	376.88
502.739	388.88
502.956	367.88
503.172	348.88
503.389	327.88
503.606	341.88
503.823	372.88
504.04	344.88
504.256	338.88
504.473	347.88
504.69	342.88
504.907	357.88
505.123	323.88
505.34	328.88
505.557	340.88
505.773	339.88
505.99	330.88
506.207	325.88
506.423	351.88
506.64	352.88
506.856	328.88
507.073	316.88
507.289	334.88
507.506	328.88
507.722	354.88
507.939	345.88
508.155	346.88
508.372	323.88
508.588	311.88
508.805	322.88
509.021	315.88
509.238	340.88
509.454	317.88
509.67	320.88
509.887	317.88
510.103	308.88
510.319	321.88
510.536	408.88
510.752	826.88
510.968	581.88
511.184	322.88
511.401	315.88
511.617	313.88
511.833	315.88
512.049	298.88
512.265	317.88
512.481	305.88
512.698	293.88
512.914	286.88
513.13	303.88
513.346	289.88
513.562	297.88
513.778	298.88
513.994	299.88
514.21	321.88
514.426	321.88
514.642	354.88
514.858	375.88
515.074	403.88
515.29	520.88
515.506	883.88
515.721	691.88
515.937	397.88
516.153	346.88
516.369	312.88
516.585	312.88
516.801	307.88
517.016	329.88
517.232	303.88
517.448	315.88
517.664	314.88
517.879	303.88
518.095	291.88
518.311	280.88
518.527	308.88
518.742	303.88
518.958	290.88
519.173	292.88
519.389	283.88
519.605	286.88
519.82	287.88
520.036	306.88
520.251	335.88
520.467	345.88
520.682	338.88
520.898	343.88
521.113	356.88
521.329	350.88
521.544	461.88
521.76	629.88
521.975	1219.88
522.19	1193.88
522.406	539.88
522.621	372.88
522.836	310.88
523.052	293.88
523.267	293.88
523.482	275.88
523.698	277.88
523.913	296.88
524.128	281.88
524.343	275.88
524.559	275.88
524.774	258.88
524.989	295.88
525.204	283.88
525.419	283.88
525.634	260.88
525.849	265.88
526.064	235.88
526.28	278.88
526.495	240.88
526.71	250.88
526.925	257.88
527.14	248.88
527.355	261.88
527.57	245.88
527.785	246.88
527.999	246.88
528.214	256.88
528.429	257.88
528.644	268.88
528.859	245.88
529.074	257.88
529.289	266.88
529.503	327.88
529.718	310.88
529.933	279.88
530.148	260.88
530.363	268.88
530.577	244.88
530.792	234.88
531.007	230.88
531.221	232.88
531.436	228.88
531.651	252.88
531.865	246.88
532.08	242.88
532.295	237.88
532.509	247.88
532.724	245.88
532.938	242.88
533.153	250.88
533.367	240.88
533.582	232.88
533.796	233.88
534.011	242.88
534.225	245.88
534.44	233.88
534.654	248.88
534.868	229.88
535.083	239.88
535.297	239.88
535.511	224.88
535.726	226.88
535.94	240.88
536.154	253.88
536.369	259.88
536.583	229.88
536.797	219.88
537.011	239.88
537.225	218.88
537.44	235.88
537.654	239.88
537.868	221.88
538.082	230.88
538.296	234.88
538.51	229.88
538.724	229.88
538.938	243.88
539.153	250.88
539.367	251.88
539.581	249.88
539.795	220.88
540.009	234.88
540.222	228.88
540.436	248.88
540.65	223.88
540.864	241.88
541.078	251.88
541.292	244.88
541.506	252.88
541.72	243.88
541.934	230.88
542.147	239.88
542.361	227.88
542.575	231.88
542.789	216.88
543.002	220.88
543.216	216.88
543.43	224.88
543.644	236.88
543.857	236.88
544.071	224.88
544.285	234.88
544.498	234.88
544.712	242.88
544.925	222.88
545.139	239.88
545.352	241.88
545.566	236.88
545.779	227.88
545.993	229.88
546.206	244.88
546.42	236.88
546.633	247.88
546.847	240.88
547.06	226.88
547.274	246.88
547.487	227.88
547.7	223.88
547.914	215.88
548.127	238.88
548.34	228.88
548.554	228.88
548.767	217.88
548.98	226.88
549.193	216.88
549.407	232.88
549.62	216.88
549.833	217.88
550.046	227.88
550.259	224.88
550.473	242.88
550.686	215.88
550.899	211.88
551.112	223.88
551.325	228.88
551.538	215.88
551.751	210.88
551.964	223.88
552.177	226.88
552.39	230.88
552.603	228.88
552.816	218.88
553.029	226.88
553.242	230.88
553.455	236.88
553.667	242.88
553.88	226.88
554.093	224.88
554.306	236.88
554.519	224.88
554.732	216.88
554.944	209.88
555.157	213.88
555.37	222.88
555.583	230.88
555.795	208.88
556.008	215.88
556.221	204.88
556.433	202.88
556.646	204.88
556.859	208.88
557.071	199.88
557.284	201.88
557.496	212.88
557.709	203.88
557.921	187.88
558.134	203.88
558.346	201.88
558.559	184.88
558.771	209.88
558.984	198.88
559.196	196.88
559.409	197.88
559.621	203.88
559.833	187.88
560.046	196.88
560.258	198.88
560.47	200.88
560.683	176.88
560.895	220.88
561.107	200.88
561.32	212.88
561.532	204.88
561.744	196.88
561.956	201.88
562.168	199.88
562.381	199.88
562.593	213.88
562.805	200.88
563.017	191.88
563.229	197.88
563.441	210.88
563.653	198.88
563.865	186.88
564.077	207.88
564.289	200.88
564.501	207.88
564.713	206.88
564.925	213.88
565.137	220.88
565.349	199.88
565.561	234.88
565.773	221.88
565.985	224.88
566.197	216.88
566.408	226.88
566.62	228.88
566.832	242.88
567.044	243.88
567.255	231.88
567.467	249.88
567.679	223.88
567.891	253.88
568.102	238.88
568.314	249.88
568.526	224.88
568.737	202.88
568.949	220.88
569.161	205.88
569.372	221.88
569.584	212.88
569.795	197.88
570.007	186.88
570.218	233.88
570.43	231.88
570.641	194.88
570.853	181.88
571.064	187.88
571.276	197.88
571.487	189.88
571.698	187.88
571.91	195.88
572.121	197.88
572.333	184.88
572.544	188.88
572.755	178.88
572.966	189.88
573.178	173.88
573.389	189.88
573.6	192.88
573.811	177.88
574.023	175.88
574.234	195.88
574.445	183.88
574.656	171.88
574.867	182.88
575.078	180.88
575.289	153.88
575.501	163.88
575.712	169.88
575.923	166.88
576.134	194.88
576.345	166.88
576.556	167.88
576.767	172.88
576.978	177.88
577.188	179.88
577.399	178.88
577.61	187.88
577.821	178.88
578.032	184.88
578.243	215.88
578.454	393.88
578.665	250.88
578.875	177.88
579.086	161.88
579.297	169.88
579.508	159.88
579.718	166.88
579.929	170.88
580.14	180.88
580.35	157.88
580.561	162.88
580.772	170.88
580.982	169.88
581.193	177.88
581.403	170.88
581.614	164.88
581.825	148.88
582.035	156.88
582.246	160.88
582.456	159.88
582.667	155.88
582.877	161.88
583.087	152.88
583.298	161.88
583.508	155.88
583.719	167.88
583.929	170.88
584.139	165.88
584.35	169.88
584.56	169.88
584.77	171.88
584.981	163.88
585.191	161.88
585.401	161.88
585.611	162.88
585.821	160.88
586.032	152.88
586.242	164.88
586.452	160.88
586.662	156.88
586.872	150.88
587.082	160.88
587.292	157.88
587.502	151.88
587.713	153.88
587.923	153.88
588.133	162.88
588.343	146.88
588.553	166.88
588.762	156.88
588.972	164.88
589.182	175.88
589.392	175.88
589.602	149.88
589.812	154.88
590.022	163.88
590.232	157.88
590.441	163.88
590.651	175.88
590.861	168.88
591.071	162.88
591.281	154.88
591.49	159.88
591.7	147.88
591.91	147.88
592.119	159.88
592.329	162.88
592.539	172.88
592.748	150.88
592.958	170.88
593.167	160.88
593.377	158.88
593.587	156.88
593.796	157.88
594.006	161.88
594.215	167.88
594.424	186.88
594.634	157.88
594.843	160.88
595.053	157.88
595.262	151.88
595.472	157.88
595.681	137.88
595.89	156.88
596.1	172.88
596.309	161.88
596.518	147.88
596.727	165.88
596.937	152.88
597.146	157.88
597.355	149.88
597.564	154.88
597.774	161.88
597.983	151.88
598.192	151.88
598.401	151.88
598.61	153.88
598.819	131.88
599.028	151.88
599.237	153.88
599.446	163.88
599.655	167.88
599.864	152.88
600.073	128.88
600.282	153.88
600.491	145.88
600.7	141.88
600.909	142.88
601.118	134.88
601.327	136.88
601.536	141.88
601.745	148.88
601.953	148.88
602.162	151.88
602.371	150.88
602.58	152.88
602.789	131.88
602.997	145.88
603.206	142.88
603.415	155.88
603.623	149.88
603.832	140.88
604.041	142.88
604.249	158.88
604.458	141.88
604.666	155.88
604.875	136.88
605.084	151.88
605.292	145.88
605.501	167.88
605.709	151.88
605.918	123.88
606.126	140.88
606.334	145.88
606.543	145.88
606.751	138.88
606.96	149.88
607.168	149.88
607.376	157.88
607.585	141.88
607.793	157.88
608.001	137.88
608.21	149.88
608.418	145.88
608.626	150.88
608.834	137.88
609.043	132.88
609.251	138.88
609.459	124.88
609.667	133.88
609.875	149.88
610.083	139.88
610.291	141.88
610.499	126.88
610.707	137.88
610.916	136.88
611.124	134.88
611.332	160.88
611.54	157.88
611.748	148.88
611.955	140.88
612.163	151.88
612.371	133.88
612.579	143.88
612.787	164.88
612.995	138.88
613.203	137.88
613.411	151.88
613.618	136.88
613.826	145.88
614.034	135.88
614.242	134.88
614.449	135.88
614.657	146.88
614.865	152.88
615.072	136.88
615.28	155.88
615.488	142.88
615.695	135.88
615.903	140.88
616.111	143.88
616.318	153.88
616.526	158.88
616.733	139.88
616.941	142.88
617.148	151.88
617.356	153.88
617.563	153.88
617.771	137.88
617.978	136.88
618.185	148.88
618.393	116.88
618.6	133.88
618.807	140.88
619.015	140.88
619.222	132.88
619.429	135.88
619.637	142.88
619.844	135.88
620.051	132.88
620.258	137.88
620.466	123.88
620.673	125.88
620.88	129.88
621.087	126.88
621.294	147.88
621.501	127.88
621.708	138.88
621.915	132.88
622.122	136.88
622.329	146.88
622.536	147.88
622.743	141.88
622.95	128.88
623.157	130.88
623.364	137.88
623.571	138.88
623.778	138.88
623.985	140.88
624.192	127.88
624.399	115.88
624.606	128.88
624.812	123.88
625.019	125.88
625.226	139.88
625.433	128.88
625.639	133.88
625.846	126.88
626.053	136.88
626.259	127.88
626.466	132.88
626.673	126.88
626.879	124.88
627.086	133.88
627.293	128.88
627.499	115.88
627.706	135.88
627.912	125.88
628.119	139.88
628.325	119.88
628.532	127.88
628.738	132.88
628.945	132.88
629.151	123.88
629.357	114.88
629.564	117.88
629.77	115.88
629.976	126.88
630.183	119.88
630.389	120.88
630.595	121.88
630.802	125.88
631.008	117.88
631.214	142.88
631.42	137.88
631.627	123.88
631.833	104.88
632.039	122.88
632.245	117.88
632.451	134.88
632.657	130.88
632.863	121.88
633.069	115.88
633.275	121.88
633.481	116.88
633.688	114.88
633.893	115.88
634.099	135.88
634.305	134.88
634.511	123.88
634.717	116.88
634.923	106.88
635.129	121.88
635.335	126.88
635.541	113.88
635.747	111.88
635.952	136.88
636.158	132.88
636.364	127.88
636.57	135.88
636.775	132.88
636.981	111.88
637.187	116.88
637.392	104.88
637.598	121.88
637.804	126.88
638.009	119.88
638.215	124.88
638.421	119.88
638.626	117.88
638.832	126.88
639.037	116.88
639.243	92.88
639.448	114.88
639.654	121.88
639.859	118.88
640.065	115.88
640.27	111.88
640.475	124.88
640.681	126.88
640.886	120.88
641.091	124.88
641.297	123.88
641.502	107.88
641.707	108.88
641.913	122.88
642.118	128.88
642.323	121.88
642.528	121.88
642.733	119.88
642.939	126.88
643.144	103.88
643.349	111.88
643.554	108.88
643.759	121.88
643.964	113.88
644.169	101.88
644.374	105.88
644.579	120.88
644.784	123.88
644.989	117.88
645.194	109.88
645.399	129.88
645.604	118.88
645.809	127.88
646.014	122.88
646.219	115.88
646.423	113.88
646.628	122.88
646.833	103.88
647.038	126.88
647.243	117.88
647.447	115.88
647.652	109.88
647.857	121.88
648.062	129.88
648.266	100.88
648.471	108.88
648.676	108.88
648.88	105.88
649.085	120.88
649.289	119.88
649.494	131.88
649.698	134.88
649.903	117.88
650.107	129.88
650.312	116.88
650.516	122.88
650.721	123.88
650.925	117.88
651.13	104.88
651.334	113.88
651.539	99.88
651.743	106.88
651.947	117.88
652.152	106.88
652.356	104.88
652.56	99.88
652.764	95.88
652.969	102.88
653.173	119.88
653.377	93.88
653.581	114.88
653.785	118.88
653.99	99.88
654.194	114.88
654.398	86.88
654.602	101.88
654.806	97.88
655.01	107.88
655.214	124.88
655.418	112.88
655.622	103.88
655.826	93.88
656.03	107.88
656.234	109.88
656.438	121.88
656.642	114.88
656.846	104.88
657.049	113.88
657.253	106.88
657.457	105.88
657.661	108.88
657.865	106.88
658.068	98.88
658.272	100.88
658.476	98.88
658.68	89.88
658.883	104.88
659.087	83.88
659.291	84.88
659.494	98.88
659.698	99.88
659.901	84.88
660.105	90.88
660.309	81.88
660.512	84.88
660.716	95.88
660.919	87.88
661.123	83.88
661.326	87.88
661.53	76.88
661.733	94.88
661.936	92.88
662.14	86.88
662.343	74.88
662.546	86.88
662.75	92.88
662.953	82.88
663.156	84.88
663.36	85.88
663.563	89.88
663.766	82.88
663.969	73.88
664.173	79.88
664.376	75.88
664.579	71.88
664.782	87.88
664.985	84.88
665.188	78.88
665.391	81.88
665.594	73.88
665.797	84.88
666	80.88
666.203	82.88
666.406	67.88
666.609	82.88
666.812	87.88
667.015	76.88
667.218	78.88
667.421	75.88
667.624	85.88
667.827	71.88
668.03	64.88
668.232	84.88
668.435	78.88
668.638	83.88
668.841	84.88
669.043	77.88
669.246	93.88
669.449	76.88
669.651	75.88
669.854	83.88
670.057	75.88
670.259	79.88
670.462	81.88
670.665	80.88
670.867	71.88
671.07	71.88
671.272	69.88
671.475	75.88
671.677	79.88
671.88	73.88
672.082	83.88
672.284	77.88
672.487	81.88
672.689	78.88
672.892	78.88
