Data from 1966.PennyLincolnUp.Lamp.En5.5.200Scan.071719.P1.Scan2.head_HRD10591_14-16-38-050.txt Node
Date: Thu Jul 18 14:16:38 EDT 2019
User: cochatt
Spectrometer: HR+D1059
Trigger mode: 1
Integration Time (sec): 1.000000E-1
Scans to average: 1
Electric dark correction enabled: true
Nonlinearity correction enabled: false
Boxcar width: 0
XAxis mode: Wavelengths
Number of Pixels in Spectrum: 2048
>>>>>Begin Spectral Data<<<<<
223.165	-23.31
223.4	-23.31
223.635	-23.31
223.869	-15.31
224.104	-10.31
224.338	-17.31
224.573	-20.31
224.808	-20.31
225.042	4.69
225.277	2.69
225.511	-2.31
225.746	-3.31
225.98	8.69
226.215	13.69
226.449	5.69
226.683	25.69
226.918	21.69
227.152	29.69
227.387	34.69
227.621	25.69
227.856	44.69
228.09	49.69
228.324	41.69
228.559	67.69
228.793	75.69
229.027	87.69
229.262	98.69
229.496	90.69
229.73	132.69
229.964	146.69
230.199	121.69
230.433	117.69
230.667	118.69
230.901	100.69
231.136	110.69
231.37	103.69
231.604	98.69
231.838	116.69
232.072	102.69
232.306	93.69
232.541	111.69
232.775	116.69
233.009	112.69
233.243	123.69
233.477	120.69
233.711	96.69
233.945	104.69
234.179	106.69
234.413	112.69
234.647	93.69
234.881	112.69
235.115	116.69
235.349	119.69
235.583	112.69
235.817	119.69
236.051	114.69
236.285	127.69
236.519	123.69
236.753	119.69
236.987	126.69
237.221	164.69
237.455	206.69
237.689	165.69
237.922	138.69
238.156	136.69
238.39	129.69
238.624	122.69
238.858	108.69
239.091	118.69
239.325	132.69
239.559	132.69
239.793	126.69
240.027	132.69
240.26	125.69
240.494	141.69
240.728	135.69
240.961	142.69
241.195	143.69
241.429	133.69
241.662	130.69
241.896	130.69
242.13	137.69
242.363	130.69
242.597	140.69
242.83	148.69
243.064	123.69
243.298	145.69
243.531	132.69
243.765	132.69
243.998	126.69
244.232	140.69
244.465	137.69
244.699	151.69
244.932	123.69
245.166	149.69
245.399	140.69
245.633	153.69
245.866	144.69
246.099	126.69
246.333	131.69
246.566	132.69
246.8	145.69
247.033	151.69
247.266	152.69
247.5	154.69
247.733	151.69
247.966	156.69
248.2	145.69
248.433	141.69
248.666	152.69
248.899	158.69
249.133	189.69
249.366	186.69
249.599	189.69
249.832	158.69
250.066	176.69
250.299	174.69
250.532	181.69
250.765	195.69
250.998	202.69
251.231	192.69
251.465	207.69
251.698	201.69
251.931	181.69
252.164	197.69
252.397	186.69
252.63	195.69
252.863	173.69
253.096	197.69
253.329	208.69
253.562	214.69
253.795	186.69
254.028	184.69
254.261	180.69
254.494	196.69
254.727	217.69
254.96	248.69
255.193	223.69
255.426	210.69
255.659	203.69
255.892	204.69
256.124	197.69
256.357	216.69
256.59	200.69
256.823	207.69
257.056	207.69
257.289	193.69
257.521	201.69
257.754	194.69
257.987	182.69
258.22	197.69
258.452	188.69
258.685	204.69
258.918	208.69
259.151	187.69
259.383	201.69
259.616	189.69
259.849	200.69
260.081	201.69
260.314	231.69
260.547	236.69
260.779	225.69
261.012	216.69
261.244	209.69
261.477	199.69
261.71	205.69
261.942	207.69
262.175	218.69
262.407	220.69
262.64	207.69
262.872	220.69
263.105	204.69
263.337	212.69
263.57	197.69
263.802	184.69
264.035	196.69
264.267	210.69
264.499	214.69
264.732	228.69
264.964	204.69
265.197	203.69
265.429	202.69
265.661	204.69
265.894	205.69
266.126	205.69
266.358	200.69
266.591	206.69
266.823	208.69
267.055	199.69
267.287	209.69
267.52	217.69
267.752	212.69
267.984	210.69
268.216	205.69
268.448	214.69
268.681	225.69
268.913	223.69
269.145	246.69
269.377	239.69
269.609	224.69
269.841	234.69
270.073	248.69
270.306	263.69
270.538	265.69
270.77	273.69
271.002	266.69
271.234	250.69
271.466	270.69
271.698	268.69
271.93	288.69
272.162	254.69
272.394	258.69
272.626	233.69
272.858	259.69
273.09	245.69
273.322	230.69
273.553	233.69
273.785	241.69
274.017	226.69
274.249	227.69
274.481	238.69
274.713	242.69
274.945	250.69
275.176	234.69
275.408	234.69
275.64	238.69
275.872	223.69
276.104	248.69
276.335	255.69
276.567	221.69
276.799	264.69
277.031	266.69
277.262	280.69
277.494	292.69
277.726	260.69
277.957	245.69
278.189	265.69
278.421	241.69
278.652	250.69
278.884	258.69
279.115	237.69
279.347	264.69
279.579	260.69
279.81	265.69
280.042	241.69
280.273	234.69
280.505	232.69
280.736	255.69
280.968	264.69
281.199	245.69
281.431	255.69
281.662	254.69
281.894	271.69
282.125	233.69
282.356	262.69
282.588	274.69
282.819	270.69
283.051	253.69
283.282	237.69
283.513	273.69
283.745	260.69
283.976	246.69
284.207	244.69
284.439	259.69
284.67	264.69
284.901	256.69
285.132	256.69
285.364	281.69
285.595	264.69
285.826	269.69
286.057	271.69
286.288	255.69
286.52	257.69
286.751	275.69
286.982	280.69
287.213	267.69
287.444	264.69
287.675	258.69
287.906	271.69
288.138	274.69
288.369	292.69
288.6	278.69
288.831	285.69
289.062	270.69
289.293	258.69
289.524	277.69
289.755	288.69
289.986	283.69
290.217	259.69
290.448	273.69
290.679	278.69
290.91	272.69
291.141	286.69
291.371	257.69
291.602	279.69
291.833	275.69
292.064	274.69
292.295	286.69
292.526	265.69
292.757	272.69
292.987	264.69
293.218	302.69
293.449	286.69
293.68	256.69
293.91	280.69
294.141	296.69
294.372	270.69
294.603	263.69
294.833	268.69
295.064	275.69
295.295	296.69
295.525	269.69
295.756	286.69
295.987	293.69
296.217	269.69
296.448	300.69
296.679	294.69
296.909	284.69
297.14	292.69
297.37	292.69
297.601	275.69
297.831	270.69
298.062	282.69
298.292	277.69
298.523	282.69
298.753	281.69
298.984	287.69
299.214	292.69
299.445	288.69
299.675	280.69
299.905	280.69
300.136	306.69
300.366	299.69
300.597	285.69
300.827	296.69
301.057	292.69
301.288	302.69
301.518	299.69
301.748	311.69
301.979	297.69
302.209	309.69
302.439	292.69
302.669	300.69
302.9	294.69
303.13	300.69
303.36	308.69
303.59	310.69
303.82	317.69
304.051	325.69
304.281	296.69
304.511	312.69
304.741	309.69
304.971	309.69
305.201	310.69
305.431	290.69
305.661	312.69
305.891	305.69
306.121	311.69
306.352	323.69
306.582	316.69
306.812	296.69
307.042	316.69
307.272	325.69
307.502	305.69
307.731	315.69
307.961	327.69
308.191	300.69
308.421	329.69
308.651	302.69
308.881	313.69
309.111	319.69
309.341	300.69
309.571	317.69
309.8	332.69
310.03	323.69
310.26	340.69
310.49	340.69
310.72	334.69
310.949	354.69
311.179	363.69
311.409	337.69
311.639	336.69
311.868	347.69
312.098	321.69
312.328	343.69
312.557	356.69
312.787	366.69
313.017	378.69
313.246	375.69
313.476	332.69
313.706	350.69
313.935	353.69
314.165	345.69
314.394	359.69
314.624	350.69
314.853	356.69
315.083	332.69
315.312	343.69
315.542	339.69
315.771	342.69
316.001	339.69
316.23	319.69
316.46	356.69
316.689	344.69
316.919	344.69
317.148	344.69
317.377	349.69
317.607	348.69
317.836	339.69
318.065	337.69
318.295	362.69
318.524	344.69
318.753	310.69
318.983	335.69
319.212	361.69
319.441	359.69
319.67	363.69
319.9	337.69
320.129	360.69
320.358	368.69
320.587	351.69
320.816	344.69
321.046	363.69
321.275	375.69
321.504	343.69
321.733	362.69
321.962	384.69
322.191	392.69
322.42	377.69
322.649	401.69
322.878	401.69
323.108	402.69
323.337	424.69
323.566	404.69
323.795	446.69
324.024	460.69
324.253	516.69
324.482	740.69
324.71	1132.69
324.939	1680.69
325.168	1462.69
325.397	743.69
325.626	514.69
325.855	436.69
326.084	450.69
326.313	409.69
326.542	420.69
326.77	480.69
326.999	520.69
327.228	660.69
327.457	1036.69
327.686	1296.69
327.914	815.69
328.143	547.69
328.372	493.69
328.6	477.69
328.829	471.69
329.058	500.69
329.287	453.69
329.515	456.69
329.744	429.69
329.972	425.69
330.201	453.69
330.43	474.69
330.658	482.69
330.887	514.69
331.115	495.69
331.344	446.69
331.572	438.69
331.801	445.69
332.03	450.69
332.258	428.69
332.486	408.69
332.715	425.69
332.943	414.69
333.172	402.69
333.4	414.69
333.629	427.69
333.857	437.69
334.085	440.69
334.314	445.69
334.542	457.69
334.771	459.69
334.999	461.69
335.227	434.69
335.455	413.69
335.684	441.69
335.912	420.69
336.14	427.69
336.369	430.69
336.597	409.69
336.825	414.69
337.053	417.69
337.281	430.69
337.51	429.69
337.738	434.69
337.966	424.69
338.194	394.69
338.422	415.69
338.65	431.69
338.878	410.69
339.106	416.69
339.334	399.69
339.562	377.69
339.79	406.69
340.018	392.69
340.246	402.69
340.474	409.69
340.702	430.69
340.93	399.69
341.158	417.69
341.386	392.69
341.614	406.69
341.842	401.69
342.07	412.69
342.298	407.69
342.526	388.69
342.754	397.69
342.981	408.69
343.209	386.69
343.437	409.69
343.665	396.69
343.893	413.69
344.12	425.69
344.348	410.69
344.576	413.69
344.804	416.69
345.031	426.69
345.259	429.69
345.487	418.69
345.714	399.69
345.942	429.69
346.17	392.69
346.397	409.69
346.625	373.69
346.853	398.69
347.08	382.69
347.308	392.69
347.535	393.69
347.763	389.69
347.99	408.69
348.218	399.69
348.445	390.69
348.673	407.69
348.9	382.69
349.128	388.69
349.355	380.69
349.583	385.69
349.81	378.69
350.037	380.69
350.265	400.69
350.492	392.69
350.72	373.69
350.947	388.69
351.174	413.69
351.402	402.69
351.629	402.69
351.856	408.69
352.083	418.69
352.311	425.69
352.538	420.69
352.765	412.69
352.992	411.69
353.22	401.69
353.447	388.69
353.674	392.69
353.901	402.69
354.128	386.69
354.355	375.69
354.583	398.69
354.81	378.69
355.037	383.69
355.264	401.69
355.491	368.69
355.718	382.69
355.945	378.69
356.172	373.69
356.399	379.69
356.626	385.69
356.853	390.69
357.08	385.69
357.307	384.69
357.534	382.69
357.761	367.69
357.988	394.69
358.215	366.69
358.441	385.69
358.668	380.69
358.895	381.69
359.122	384.69
359.349	380.69
359.576	401.69
359.802	396.69
360.029	423.69
360.256	448.69
360.483	420.69
360.709	385.69
360.936	394.69
361.163	396.69
361.39	400.69
361.616	411.69
361.843	414.69
362.07	400.69
362.296	403.69
362.523	393.69
362.749	393.69
362.976	391.69
363.203	400.69
363.429	396.69
363.656	400.69
363.882	366.69
364.109	380.69
364.335	400.69
364.562	387.69
364.788	390.69
365.015	372.69
365.241	379.69
365.468	394.69
365.694	388.69
365.92	376.69
366.147	380.69
366.373	398.69
366.599	392.69
366.826	392.69
367.052	409.69
367.278	392.69
367.505	405.69
367.731	406.69
367.957	409.69
368.184	366.69
368.41	399.69
368.636	389.69
368.862	401.69
369.089	408.69
369.315	415.69
369.541	400.69
369.767	380.69
369.993	413.69
370.219	390.69
370.445	400.69
370.672	403.69
370.898	418.69
371.124	388.69
371.35	414.69
371.576	390.69
371.802	420.69
372.028	414.69
372.254	393.69
372.48	390.69
372.706	402.69
372.932	417.69
373.158	419.69
373.384	413.69
373.61	384.69
373.835	391.69
374.061	425.69
374.287	398.69
374.513	404.69
374.739	401.69
374.965	394.69
375.191	422.69
375.416	412.69
375.642	413.69
375.868	407.69
376.094	410.69
376.319	409.69
376.545	404.69
376.771	386.69
376.997	412.69
377.222	406.69
377.448	427.69
377.674	391.69
377.899	420.69
378.125	403.69
378.35	402.69
378.576	374.69
378.802	420.69
379.027	412.69
379.253	393.69
379.478	386.69
379.704	399.69
379.929	420.69
380.155	410.69
380.38	405.69
380.606	386.69
380.831	398.69
381.057	415.69
381.282	410.69
381.507	415.69
381.733	391.69
381.958	390.69
382.184	423.69
382.409	434.69
382.634	431.69
382.86	409.69
383.085	437.69
383.31	438.69
383.535	425.69
383.761	408.69
383.986	412.69
384.211	416.69
384.436	420.69
384.662	418.69
384.887	445.69
385.112	437.69
385.337	427.69
385.562	465.69
385.787	438.69
386.013	452.69
386.238	451.69
386.463	459.69
386.688	460.69
386.913	457.69
387.138	448.69
387.363	466.69
387.588	446.69
387.813	450.69
388.038	463.69
388.263	472.69
388.488	469.69
388.713	456.69
388.938	450.69
389.163	472.69
389.387	437.69
389.612	454.69
389.837	452.69
390.062	438.69
390.287	448.69
390.512	458.69
390.736	444.69
390.961	471.69
391.186	458.69
391.411	461.69
391.636	460.69
391.86	470.69
392.085	462.69
392.31	453.69
392.534	466.69
392.759	470.69
392.984	465.69
393.208	477.69
393.433	506.69
393.658	493.69
393.882	467.69
394.107	465.69
394.331	464.69
394.556	477.69
394.78	465.69
395.005	471.69
395.229	460.69
395.454	458.69
395.678	466.69
395.903	486.69
396.127	493.69
396.352	494.69
396.576	494.69
396.801	486.69
397.025	500.69
397.249	490.69
397.474	481.69
397.698	489.69
397.922	520.69
398.147	492.69
398.371	528.69
398.595	504.69
398.82	538.69
399.044	524.69
399.268	565.69
399.492	582.69
399.717	602.69
399.941	632.69
400.165	644.69
400.389	638.69
400.613	588.69
400.837	554.69
401.062	548.69
401.286	529.69
401.51	520.69
401.734	530.69
401.958	534.69
402.182	527.69
402.406	510.69
402.63	541.69
402.854	510.69
403.078	535.69
403.302	550.69
403.526	548.69
403.75	546.69
403.974	536.69
404.198	554.69
404.422	557.69
404.645	559.69
404.869	549.69
405.093	586.69
405.317	593.69
405.541	646.69
405.765	615.69
405.988	555.69
406.212	554.69
406.436	585.69
406.66	598.69
406.883	586.69
407.107	584.69
407.331	640.69
407.555	712.69
407.778	723.69
408.002	666.69
408.226	614.69
408.449	597.69
408.673	609.69
408.896	633.69
409.12	670.69
409.344	639.69
409.567	580.69
409.791	560.69
410.014	546.69
410.238	560.69
410.461	572.69
410.685	573.69
410.908	559.69
411.132	611.69
411.355	653.69
411.578	570.69
411.802	562.69
412.025	559.69
412.249	556.69
412.472	571.69
412.695	604.69
412.919	586.69
413.142	578.69
413.365	543.69
413.589	536.69
413.812	501.69
414.035	539.69
414.258	531.69
414.482	534.69
414.705	530.69
414.928	512.69
415.151	524.69
415.374	530.69
415.597	524.69
415.821	499.69
416.044	515.69
416.267	533.69
416.49	511.69
416.713	544.69
416.936	533.69
417.159	509.69
417.382	526.69
417.605	508.69
417.828	523.69
418.051	536.69
418.274	518.69
418.497	518.69
418.72	536.69
418.943	525.69
419.166	530.69
419.389	566.69
419.611	568.69
419.834	568.69
420.057	575.69
420.28	530.69
420.503	543.69
420.726	526.69
420.948	540.69
421.171	576.69
421.394	609.69
421.617	550.69
421.839	514.69
422.062	552.69
422.285	543.69
422.507	599.69
422.73	676.69
422.953	633.69
423.175	585.69
423.398	559.69
423.621	555.69
423.843	565.69
424.066	566.69
424.288	560.69
424.511	577.69
424.733	628.69
424.956	711.69
425.178	685.69
425.401	704.69
425.623	714.69
425.846	590.69
426.068	544.69
426.291	563.69
426.513	574.69
426.735	569.69
426.958	619.69
427.18	687.69
427.402	832.69
427.625	874.69
427.847	774.69
428.069	653.69
428.292	593.69
428.514	559.69
428.736	559.69
428.958	572.69
429.181	531.69
429.403	529.69
429.625	533.69
429.847	548.69
430.069	631.69
430.292	628.69
430.514	567.69
430.736	520.69
430.958	515.69
431.18	513.69
431.402	521.69
431.624	498.69
431.846	503.69
432.068	487.69
432.29	522.69
432.512	508.69
432.734	513.69
432.956	512.69
433.178	495.69
433.4	505.69
433.622	526.69
433.844	520.69
434.066	511.69
434.287	511.69
434.509	528.69
434.731	536.69
434.953	513.69
435.175	544.69
435.397	557.69
435.618	576.69
435.84	612.69
436.062	678.69
436.284	790.69
436.505	631.69
436.727	587.69
436.949	556.69
437.17	529.69
437.392	540.69
437.614	537.69
437.835	577.69
438.057	648.69
438.278	742.69
438.5	743.69
438.721	821.69
438.943	795.69
439.165	631.69
439.386	574.69
439.608	567.69
439.829	560.69
440.05	607.69
440.272	636.69
440.493	572.69
440.715	558.69
440.936	557.69
441.158	533.69
441.379	520.69
441.6	554.69
441.822	558.69
442.043	585.69
442.264	694.69
442.486	741.69
442.707	624.69
442.928	609.69
443.149	573.69
443.371	590.69
443.592	633.69
443.813	733.69
444.034	815.69
444.255	674.69
444.476	614.69
444.698	586.69
444.919	594.69
445.14	690.69
445.361	634.69
445.582	610.69
445.803	665.69
446.024	764.69
446.245	752.69
446.466	687.69
446.687	591.69
446.908	572.69
447.129	535.69
447.35	530.69
447.571	553.69
447.792	514.69
448.013	524.69
448.234	530.69
448.455	582.69
448.675	688.69
448.896	808.69
449.117	678.69
449.338	646.69
449.559	743.69
449.779	892.69
450	678.69
450.221	578.69
450.442	534.69
450.662	505.69
450.883	518.69
451.104	525.69
451.324	511.69
451.545	502.69
451.766	471.69
451.986	478.69
452.207	485.69
452.428	463.69
452.648	459.69
452.869	448.69
453.089	478.69
453.31	488.69
453.53	488.69
453.751	454.69
453.971	460.69
454.192	477.69
454.412	468.69
454.633	469.69
454.853	473.69
455.073	456.69
455.294	481.69
455.514	529.69
455.734	537.69
455.955	472.69
456.175	445.69
456.395	444.69
456.616	457.69
456.836	452.69
457.056	450.69
457.276	444.69
457.497	462.69
457.717	468.69
457.937	477.69
458.157	469.69
458.377	458.69
458.598	477.69
458.818	518.69
459.038	576.69
459.258	621.69
459.478	551.69
459.698	500.69
459.918	510.69
460.138	523.69
460.358	529.69
460.578	521.69
460.798	508.69
461.018	548.69
461.238	528.69
461.458	518.69
461.678	518.69
461.898	538.69
462.118	529.69
462.338	550.69
462.558	548.69
462.777	570.69
462.997	578.69
463.217	586.69
463.437	597.69
463.657	552.69
463.876	579.69
464.096	572.69
464.316	578.69
464.536	575.69
464.755	553.69
464.975	556.69
465.195	576.69
465.414	606.69
465.634	572.69
465.854	540.69
466.073	505.69
466.293	487.69
466.512	502.69
466.732	486.69
466.951	482.69
467.171	492.69
467.391	484.69
467.61	492.69
467.829	494.69
468.049	517.69
468.268	499.69
468.488	468.69
468.707	485.69
468.927	482.69
469.146	463.69
469.365	481.69
469.585	481.69
469.804	478.69
470.023	500.69
470.243	480.69
470.462	513.69
470.681	504.69
470.901	503.69
471.12	491.69
471.339	493.69
471.558	491.69
471.777	492.69
471.997	512.69
472.216	500.69
472.435	522.69
472.654	500.69
472.873	510.69
473.092	491.69
473.311	492.69
473.53	493.69
473.749	508.69
473.968	536.69
474.187	610.69
474.406	635.69
474.625	542.69
474.844	504.69
475.063	494.69
475.282	500.69
475.501	506.69
475.72	483.69
475.939	500.69
476.158	508.69
476.377	523.69
476.596	500.69
476.814	516.69
477.033	522.69
477.252	530.69
477.471	525.69
477.69	518.69
477.908	559.69
478.127	570.69
478.346	540.69
478.564	553.69
478.783	562.69
479.002	555.69
479.22	585.69
479.439	587.69
479.658	593.69
479.876	597.69
480.095	604.69
480.313	637.69
480.532	610.69
480.751	599.69
480.969	622.69
481.188	639.69
481.406	668.69
481.624	655.69
481.843	607.69
482.061	610.69
482.28	588.69
482.498	581.69
482.717	554.69
482.935	593.69
483.153	588.69
483.372	581.69
483.59	585.69
483.808	589.69
484.027	596.69
484.245	600.69
484.463	588.69
484.681	598.69
484.9	582.69
485.118	598.69
485.336	606.69
485.554	600.69
485.772	627.69
485.99	616.69
486.209	612.69
486.427	591.69
486.645	601.69
486.863	643.69
487.081	635.69
487.299	606.69
487.517	646.69
487.735	608.69
487.953	620.69
488.171	638.69
488.389	632.69
488.607	622.69
488.825	630.69
489.043	626.69
489.261	630.69
489.479	646.69
489.696	615.69
489.914	626.69
490.132	636.69
490.35	650.69
490.568	637.69
490.786	638.69
491.003	665.69
491.221	696.69
491.439	675.69
491.657	672.69
491.874	687.69
492.092	704.69
492.31	711.69
492.527	721.69
492.745	720.69
492.963	713.69
493.18	720.69
493.398	706.69
493.615	747.69
493.833	714.69
494.05	734.69
494.268	730.69
494.485	706.69
494.703	715.69
494.92	736.69
495.138	715.69
495.355	726.69
495.573	709.69
495.79	713.69
496.008	740.69
496.225	750.69
496.442	743.69
496.66	715.69
496.877	730.69
497.094	732.69
497.312	757.69
497.529	736.69
497.746	772.69
497.963	785.69
498.181	796.69
498.398	798.69
498.615	797.69
498.832	830.69
499.049	856.69
499.267	887.69
499.484	931.69
499.701	968.69
499.918	1007.69
500.135	1045.69
500.352	1088.69
500.569	1110.69
500.786	1118.69
501.003	1058.69
501.22	1061.69
501.437	1015.69
501.654	1009.69
501.871	985.69
502.088	898.69
502.305	882.69
502.522	874.69
502.739	817.69
502.956	815.69
503.172	789.69
503.389	779.69
503.606	776.69
503.823	791.69
504.04	771.69
504.256	776.69
504.473	744.69
504.69	755.69
504.907	767.69
505.123	736.69
505.34	725.69
505.557	705.69
505.773	713.69
505.99	713.69
506.207	712.69
506.423	694.69
506.64	667.69
506.856	676.69
507.073	660.69
507.289	669.69
507.506	679.69
507.722	668.69
507.939	646.69
508.155	678.69
508.372	664.69
508.588	648.69
508.805	655.69
509.021	667.69
509.238	668.69
509.454	679.69
509.67	642.69
509.887	644.69
510.103	644.69
510.319	655.69
510.536	697.69
510.752	973.69
510.968	859.69
511.184	654.69
511.401	621.69
511.617	602.69
511.833	606.69
512.049	600.69
512.265	642.69
512.481	624.69
512.698	592.69
512.914	616.69
513.13	634.69
513.346	606.69
513.562	619.69
513.778	625.69
513.994	624.69
514.21	615.69
514.426	617.69
514.642	646.69
514.858	664.69
515.074	701.69
515.29	784.69
515.506	991.69
515.721	886.69
515.937	682.69
516.153	669.69
516.369	658.69
516.585	637.69
516.801	637.69
517.016	661.69
517.232	622.69
517.448	654.69
517.664	646.69
517.879	661.69
518.095	660.69
518.311	657.69
518.527	662.69
518.742	647.69
518.958	648.69
519.173	632.69
519.389	603.69
519.605	607.69
519.82	624.69
520.036	638.69
520.251	650.69
520.467	654.69
520.682	624.69
520.898	639.69
521.113	646.69
521.329	661.69
521.544	699.69
521.76	847.69
521.975	1194.69
522.19	1199.69
522.406	783.69
522.621	652.69
522.836	623.69
523.052	591.69
523.267	576.69
523.482	553.69
523.698	556.69
523.913	558.69
524.128	547.69
524.343	548.69
524.559	563.69
524.774	561.69
524.989	550.69
525.204	536.69
525.419	531.69
525.634	524.69
525.849	534.69
526.064	535.69
526.28	540.69
526.495	539.69
526.71	522.69
526.925	536.69
527.14	538.69
527.355	531.69
527.57	543.69
527.785	537.69
527.999	527.69
528.214	516.69
528.429	525.69
528.644	534.69
528.859	516.69
529.074	528.69
529.289	552.69
529.503	579.69
529.718	578.69
529.933	556.69
530.148	525.69
530.363	533.69
530.577	526.69
530.792	516.69
531.007	520.69
531.221	502.69
531.436	515.69
531.651	506.69
531.865	501.69
532.08	492.69
532.295	518.69
532.509	513.69
532.724	510.69
532.938	500.69
533.153	498.69
533.367	528.69
533.582	518.69
533.796	508.69
534.011	503.69
534.225	488.69
534.44	500.69
534.654	508.69
534.868	499.69
535.083	488.69
535.297	521.69
535.511	481.69
535.726	508.69
535.94	492.69
536.154	502.69
536.369	512.69
536.583	493.69
536.797	498.69
537.011	510.69
537.225	480.69
537.44	497.69
537.654	494.69
537.868	487.69
538.082	474.69
538.296	472.69
538.51	485.69
538.724	500.69
538.938	476.69
539.153	481.69
539.367	493.69
539.581	489.69
539.795	493.69
540.009	487.69
540.222	482.69
540.436	468.69
540.65	458.69
540.864	480.69
541.078	473.69
541.292	468.69
541.506	470.69
541.72	472.69
541.934	469.69
542.147	480.69
542.361	463.69
542.575	465.69
542.789	462.69
543.002	462.69
543.216	476.69
543.43	487.69
543.644	489.69
543.857	474.69
544.071	492.69
544.285	470.69
544.498	480.69
544.712	489.69
544.925	473.69
545.139	486.69
545.352	479.69
545.566	469.69
545.779	464.69
545.993	487.69
546.206	488.69
546.42	461.69
546.633	485.69
546.847	474.69
547.06	471.69
547.274	476.69
547.487	478.69
547.7	478.69
547.914	473.69
548.127	452.69
548.34	470.69
548.554	439.69
548.767	480.69
548.98	471.69
549.193	447.69
549.407	471.69
549.62	476.69
549.833	459.69
550.046	466.69
550.259	470.69
550.473	452.69
550.686	473.69
550.899	465.69
551.112	458.69
551.325	469.69
551.538	477.69
551.751	463.69
551.964	463.69
552.177	439.69
552.39	461.69
552.603	463.69
552.816	477.69
553.029	469.69
553.242	476.69
553.455	473.69
553.667	481.69
553.88	487.69
554.093	496.69
554.306	485.69
554.519	455.69
554.732	462.69
554.944	455.69
555.157	457.69
555.37	447.69
555.583	457.69
555.795	450.69
556.008	454.69
556.221	438.69
556.433	447.69
556.646	430.69
556.859	414.69
557.071	432.69
557.284	418.69
557.496	420.69
557.709	414.69
557.921	411.69
558.134	417.69
558.346	427.69
558.559	424.69
558.771	423.69
558.984	413.69
559.196	415.69
559.409	418.69
559.621	415.69
559.833	433.69
560.046	413.69
560.258	418.69
560.47	426.69
560.683	431.69
560.895	430.69
561.107	429.69
561.32	415.69
561.532	431.69
561.744	414.69
561.956	398.69
562.168	427.69
562.381	416.69
562.593	404.69
562.805	423.69
563.017	417.69
563.229	426.69
563.441	414.69
563.653	410.69
563.865	430.69
564.077	443.69
564.289	431.69
564.501	447.69
564.713	445.69
564.925	439.69
565.137	443.69
565.349	439.69
565.561	469.69
565.773	456.69
565.985	459.69
566.197	495.69
566.408	496.69
566.62	519.69
566.832	529.69
567.044	520.69
567.255	514.69
567.467	534.69
567.679	548.69
567.891	551.69
568.102	555.69
568.314	554.69
568.526	544.69
568.737	523.69
568.949	509.69
569.161	472.69
569.372	460.69
569.584	450.69
569.795	446.69
570.007	425.69
570.218	458.69
570.43	450.69
570.641	430.69
570.853	400.69
571.064	420.69
571.276	421.69
571.487	404.69
571.698	403.69
571.91	378.69
572.121	382.69
572.333	392.69
572.544	381.69
572.755	380.69
572.966	390.69
573.178	385.69
573.389	372.69
573.6	382.69
573.811	395.69
574.023	381.69
574.234	378.69
574.445	373.69
574.656	367.69
574.867	380.69
575.078	394.69
575.289	360.69
575.501	376.69
575.712	373.69
575.923	357.69
576.134	370.69
576.345	361.69
576.556	365.69
576.767	374.69
576.978	344.69
577.188	374.69
577.399	344.69
577.61	334.69
577.821	348.69
578.032	349.69
578.243	363.69
578.454	490.69
578.665	401.69
578.875	363.69
579.086	349.69
579.297	349.69
579.508	331.69
579.718	345.69
579.929	343.69
580.14	316.69
580.35	332.69
580.561	325.69
580.772	341.69
580.982	327.69
581.193	339.69
581.403	306.69
581.614	325.69
581.825	318.69
582.035	328.69
582.246	314.69
582.456	327.69
582.667	335.69
582.877	342.69
583.087	345.69
583.298	325.69
583.508	339.69
583.719	324.69
583.929	330.69
584.139	330.69
584.35	306.69
584.56	316.69
584.77	333.69
584.981	332.69
585.191	306.69
585.401	321.69
585.611	333.69
585.821	339.69
586.032	324.69
586.242	320.69
586.452	322.69
586.662	324.69
586.872	334.69
587.082	330.69
587.292	337.69
587.502	340.69
587.713	334.69
587.923	312.69
588.133	328.69
588.343	342.69
588.553	316.69
588.762	320.69
588.972	314.69
589.182	375.69
589.392	379.69
589.602	345.69
589.812	349.69
590.022	331.69
590.232	331.69
590.441	322.69
590.651	317.69
590.861	305.69
591.071	305.69
591.281	318.69
591.49	328.69
591.7	323.69
591.91	331.69
592.119	336.69
592.329	335.69
592.539	341.69
592.748	337.69
592.958	364.69
593.167	338.69
593.377	345.69
593.587	364.69
593.796	349.69
594.006	335.69
594.215	346.69
594.424	337.69
594.634	357.69
594.843	328.69
595.053	325.69
595.262	318.69
595.472	310.69
595.681	314.69
595.89	326.69
596.1	325.69
596.309	319.69
596.518	321.69
596.727	294.69
596.937	302.69
597.146	309.69
597.355	304.69
597.564	288.69
597.774	292.69
597.983	297.69
598.192	296.69
598.401	289.69
598.61	289.69
598.819	292.69
599.028	270.69
599.237	300.69
599.446	289.69
599.655	290.69
599.864	286.69
600.073	273.69
600.282	282.69
600.491	292.69
600.7	303.69
600.909	282.69
601.118	275.69
601.327	287.69
601.536	285.69
601.745	276.69
601.953	264.69
602.162	271.69
602.371	267.69
602.58	276.69
602.789	275.69
602.997	280.69
603.206	285.69
603.415	282.69
603.623	277.69
603.832	254.69
604.041	288.69
604.249	265.69
604.458	264.69
604.666	270.69
604.875	271.69
605.084	274.69
605.292	262.69
605.501	265.69
605.709	274.69
605.918	274.69
606.126	251.69
606.334	273.69
606.543	286.69
606.751	284.69
606.96	254.69
607.168	262.69
607.376	279.69
607.585	269.69
607.793	253.69
608.001	264.69
608.21	272.69
608.418	266.69
608.626	250.69
608.834	265.69
609.043	260.69
609.251	241.69
609.459	253.69
609.667	278.69
609.875	269.69
610.083	260.69
610.291	248.69
610.499	257.69
610.707	260.69
610.916	260.69
611.124	264.69
611.332	288.69
611.54	248.69
611.748	253.69
611.955	263.69
612.163	255.69
612.371	257.69
612.579	252.69
612.787	274.69
612.995	262.69
613.203	256.69
613.411	269.69
613.618	248.69
613.826	272.69
614.034	267.69
614.242	266.69
614.449	249.69
614.657	250.69
614.865	269.69
615.072	246.69
615.28	253.69
615.488	244.69
615.695	251.69
615.903	268.69
616.111	254.69
616.318	264.69
616.526	266.69
616.733	263.69
616.941	274.69
617.148	255.69
617.356	261.69
617.563	245.69
617.771	249.69
617.978	270.69
618.185	240.69
618.393	244.69
618.6	265.69
618.807	258.69
619.015	241.69
619.222	230.69
619.429	247.69
619.637	252.69
619.844	252.69
620.051	264.69
620.258	238.69
620.466	248.69
620.673	247.69
620.88	241.69
621.087	248.69
621.294	239.69
621.501	240.69
621.708	253.69
621.915	234.69
622.122	253.69
622.329	244.69
622.536	261.69
622.743	231.69
622.95	229.69
623.157	238.69
623.364	231.69
623.571	239.69
623.778	225.69
623.985	222.69
624.192	229.69
624.399	242.69
624.606	238.69
624.812	237.69
625.019	226.69
625.226	231.69
625.433	241.69
625.639	246.69
625.846	222.69
626.053	223.69
626.259	221.69
626.466	228.69
626.673	237.69
626.879	231.69
627.086	228.69
627.293	217.69
627.499	225.69
627.706	237.69
627.912	223.69
628.119	218.69
628.325	226.69
628.532	226.69
628.738	204.69
628.945	224.69
629.151	214.69
629.357	216.69
629.564	221.69
629.77	218.69
629.976	206.69
630.183	216.69
630.389	212.69
630.595	222.69
630.802	221.69
631.008	201.69
631.214	225.69
631.42	220.69
631.627	223.69
631.833	220.69
632.039	192.69
632.245	212.69
632.451	215.69
632.657	226.69
632.863	198.69
633.069	201.69
633.275	192.69
633.481	200.69
633.688	201.69
633.893	199.69
634.099	188.69
634.305	184.69
634.511	201.69
634.717	199.69
634.923	197.69
635.129	199.69
635.335	202.69
635.541	197.69
635.747	192.69
635.952	201.69
636.158	189.69
636.364	194.69
636.57	201.69
636.775	192.69
636.981	196.69
637.187	211.69
637.392	224.69
637.598	176.69
637.804	187.69
638.009	209.69
638.215	206.69
638.421	193.69
638.626	195.69
638.832	194.69
639.037	180.69
639.243	176.69
639.448	202.69
639.654	183.69
639.859	187.69
640.065	172.69
640.27	194.69
640.475	190.69
640.681	185.69
640.886	202.69
641.091	197.69
641.297	184.69
641.502	191.69
641.707	180.69
641.913	191.69
642.118	184.69
642.323	198.69
642.528	184.69
642.733	188.69
642.939	190.69
643.144	186.69
643.349	186.69
643.554	175.69
643.759	174.69
643.964	171.69
644.169	189.69
644.374	182.69
644.579	178.69
644.784	173.69
644.989	187.69
645.194	187.69
645.399	182.69
645.604	175.69
645.809	176.69
646.014	185.69
646.219	181.69
646.423	177.69
646.628	178.69
646.833	193.69
647.038	177.69
647.243	174.69
647.447	165.69
647.652	175.69
647.857	186.69
648.062	177.69
648.266	172.69
648.471	189.69
648.676	184.69
648.88	190.69
649.085	193.69
649.289	167.69
649.494	176.69
649.698	199.69
649.903	184.69
650.107	184.69
650.312	179.69
650.516	188.69
650.721	165.69
650.925	172.69
651.13	184.69
651.334	182.69
651.539	177.69
651.743	147.69
651.947	167.69
652.152	161.69
652.356	169.69
652.56	150.69
652.764	158.69
652.969	159.69
653.173	151.69
653.377	160.69
653.581	156.69
653.785	141.69
653.99	130.69
654.194	156.69
654.398	141.69
654.602	146.69
654.806	149.69
655.01	158.69
655.214	157.69
655.418	151.69
655.622	144.69
655.826	150.69
656.03	142.69
656.234	151.69
656.438	148.69
656.642	160.69
656.846	145.69
657.049	137.69
657.253	146.69
657.457	133.69
657.661	124.69
657.865	120.69
658.068	114.69
658.272	126.69
658.476	121.69
658.68	132.69
658.883	120.69
659.087	112.69
659.291	125.69
659.494	116.69
659.698	118.69
659.901	97.69
660.105	100.69
660.309	102.69
660.512	104.69
660.716	94.69
660.919	106.69
661.123	103.69
661.326	80.69
661.53	90.69
661.733	101.69
661.936	97.69
662.14	84.69
662.343	109.69
662.546	89.69
662.75	73.69
662.953	98.69
663.156	102.69
663.36	95.69
663.563	102.69
663.766	92.69
663.969	82.69
664.173	95.69
664.376	98.69
664.579	87.69
664.782	100.69
664.985	73.69
665.188	83.69
665.391	98.69
665.594	94.69
665.797	93.69
666	94.69
666.203	91.69
666.406	73.69
666.609	86.69
666.812	87.69
667.015	81.69
667.218	81.69
667.421	84.69
667.624	82.69
667.827	87.69
668.03	80.69
668.232	75.69
668.435	67.69
668.638	79.69
668.841	79.69
669.043	88.69
669.246	93.69
669.449	84.69
669.651	94.69
669.854	91.69
670.057	85.69
670.259	70.69
670.462	88.69
670.665	78.69
670.867	75.69
671.07	76.69
671.272	76.69
671.475	81.69
671.677	93.69
671.88	74.69
672.082	71.69
672.284	76.69
672.487	84.69
672.689	87.69
672.892	79.69
