Data from 1966.PennyLincolnUp.Lamp.En5.5.200Scan.071719.P1.Scan2.head_HRD10591_14-17-25-107.txt Node
Date: Thu Jul 18 14:17:25 EDT 2019
User: cochatt
Spectrometer: HR+D1059
Trigger mode: 1
Integration Time (sec): 1.000000E-1
Scans to average: 1
Electric dark correction enabled: true
Nonlinearity correction enabled: false
Boxcar width: 0
XAxis mode: Wavelengths
Number of Pixels in Spectrum: 2048
>>>>>Begin Spectral Data<<<<<
223.165	-18.12
223.4	-18.12
223.635	-18.12
223.869	-14.12
224.104	-5.12
224.338	-14.12
224.573	-22.12
224.808	-14.12
225.042	-5.12
225.277	-8.12
225.511	-3.12
225.746	-1.12
225.98	-8.12
226.215	18.88
226.449	11.88
226.683	22.88
226.918	33.88
227.152	25.88
227.387	33.88
227.621	40.88
227.856	47.88
228.09	34.88
228.324	62.88
228.559	61.88
228.793	62.88
229.027	88.88
229.262	102.88
229.496	112.88
229.73	127.88
229.964	164.88
230.199	130.88
230.433	103.88
230.667	116.88
230.901	106.88
231.136	111.88
231.37	117.88
231.604	108.88
231.838	109.88
232.072	116.88
232.306	114.88
232.541	125.88
232.775	119.88
233.009	113.88
233.243	117.88
233.477	120.88
233.711	110.88
233.945	120.88
234.179	132.88
234.413	117.88
234.647	121.88
234.881	114.88
235.115	122.88
235.349	125.88
235.583	120.88
235.817	129.88
236.051	145.88
236.285	144.88
236.519	125.88
236.753	108.88
236.987	138.88
237.221	190.88
237.455	207.88
237.689	173.88
237.922	144.88
238.156	138.88
238.39	124.88
238.624	132.88
238.858	140.88
239.091	137.88
239.325	145.88
239.559	124.88
239.793	112.88
240.027	127.88
240.26	140.88
240.494	157.88
240.728	158.88
240.961	150.88
241.195	124.88
241.429	127.88
241.662	139.88
241.896	140.88
242.13	142.88
242.363	132.88
242.597	135.88
242.83	130.88
243.064	132.88
243.298	125.88
243.531	143.88
243.765	144.88
243.998	136.88
244.232	145.88
244.465	146.88
244.699	154.88
244.932	157.88
245.166	152.88
245.399	148.88
245.633	139.88
245.866	149.88
246.099	146.88
246.333	142.88
246.566	172.88
246.8	139.88
247.033	165.88
247.266	158.88
247.5	155.88
247.733	151.88
247.966	175.88
248.2	163.88
248.433	164.88
248.666	168.88
248.899	195.88
249.133	190.88
249.366	216.88
249.599	198.88
249.832	193.88
250.066	193.88
250.299	185.88
250.532	191.88
250.765	198.88
250.998	223.88
251.231	232.88
251.465	217.88
251.698	193.88
251.931	194.88
252.164	208.88
252.397	201.88
252.63	210.88
252.863	215.88
253.096	208.88
253.329	220.88
253.562	225.88
253.795	201.88
254.028	220.88
254.261	204.88
254.494	218.88
254.727	232.88
254.96	274.88
255.193	256.88
255.426	243.88
255.659	240.88
255.892	239.88
256.124	237.88
256.357	239.88
256.59	237.88
256.823	223.88
257.056	194.88
257.289	208.88
257.521	207.88
257.754	206.88
257.987	214.88
258.22	212.88
258.452	217.88
258.685	208.88
258.918	198.88
259.151	194.88
259.383	239.88
259.616	213.88
259.849	230.88
260.081	223.88
260.314	249.88
260.547	260.88
260.779	240.88
261.012	228.88
261.244	214.88
261.477	217.88
261.71	221.88
261.942	229.88
262.175	220.88
262.407	220.88
262.64	211.88
262.872	229.88
263.105	222.88
263.337	207.88
263.57	208.88
263.802	208.88
264.035	223.88
264.267	210.88
264.499	216.88
264.732	217.88
264.964	215.88
265.197	200.88
265.429	209.88
265.661	219.88
265.894	215.88
266.126	220.88
266.358	222.88
266.591	209.88
266.823	224.88
267.055	226.88
267.287	236.88
267.52	218.88
267.752	207.88
267.984	231.88
268.216	222.88
268.448	216.88
268.681	222.88
268.913	252.88
269.145	241.88
269.377	272.88
269.609	254.88
269.841	280.88
270.073	282.88
270.306	269.88
270.538	283.88
270.77	300.88
271.002	282.88
271.234	274.88
271.466	276.88
271.698	280.88
271.93	294.88
272.162	310.88
272.394	310.88
272.626	284.88
272.858	272.88
273.09	270.88
273.322	277.88
273.553	257.88
273.785	260.88
274.017	263.88
274.249	249.88
274.481	231.88
274.713	268.88
274.945	273.88
275.176	250.88
275.408	271.88
275.64	262.88
275.872	257.88
276.104	266.88
276.335	269.88
276.567	269.88
276.799	288.88
277.031	289.88
277.262	280.88
277.494	299.88
277.726	312.88
277.957	283.88
278.189	289.88
278.421	271.88
278.652	269.88
278.884	264.88
279.115	276.88
279.347	265.88
279.579	255.88
279.81	252.88
280.042	271.88
280.273	266.88
280.505	256.88
280.736	268.88
280.968	266.88
281.199	247.88
281.431	263.88
281.662	254.88
281.894	266.88
282.125	269.88
282.356	272.88
282.588	297.88
282.819	312.88
283.051	289.88
283.282	265.88
283.513	269.88
283.745	258.88
283.976	280.88
284.207	262.88
284.439	274.88
284.67	274.88
284.901	274.88
285.132	270.88
285.364	282.88
285.595	281.88
285.826	272.88
286.057	272.88
286.288	256.88
286.52	278.88
286.751	269.88
286.982	280.88
287.213	288.88
287.444	294.88
287.675	277.88
287.906	274.88
288.138	282.88
288.369	295.88
288.6	305.88
288.831	277.88
289.062	280.88
289.293	264.88
289.524	285.88
289.755	294.88
289.986	287.88
290.217	301.88
290.448	274.88
290.679	270.88
290.91	290.88
291.141	296.88
291.371	292.88
291.602	284.88
291.833	281.88
292.064	278.88
292.295	285.88
292.526	290.88
292.757	277.88
292.987	271.88
293.218	280.88
293.449	292.88
293.68	301.88
293.91	297.88
294.141	305.88
294.372	302.88
294.603	286.88
294.833	279.88
295.064	290.88
295.295	297.88
295.525	273.88
295.756	311.88
295.987	310.88
296.217	316.88
296.448	321.88
296.679	324.88
296.909	313.88
297.14	295.88
297.37	297.88
297.601	290.88
297.831	299.88
298.062	289.88
298.292	283.88
298.523	309.88
298.753	294.88
298.984	329.88
299.214	298.88
299.445	299.88
299.675	308.88
299.905	306.88
300.136	312.88
300.366	306.88
300.597	306.88
300.827	300.88
301.057	321.88
301.288	327.88
301.518	334.88
301.748	326.88
301.979	333.88
302.209	328.88
302.439	319.88
302.669	334.88
302.9	297.88
303.13	308.88
303.36	332.88
303.59	331.88
303.82	336.88
304.051	335.88
304.281	318.88
304.511	327.88
304.741	317.88
304.971	324.88
305.201	332.88
305.431	334.88
305.661	330.88
305.891	314.88
306.121	334.88
306.352	318.88
306.582	331.88
306.812	313.88
307.042	322.88
307.272	328.88
307.502	346.88
307.731	338.88
307.961	311.88
308.191	326.88
308.421	326.88
308.651	334.88
308.881	342.88
309.111	351.88
309.341	341.88
309.571	332.88
309.8	334.88
310.03	351.88
310.26	348.88
310.49	351.88
310.72	389.88
310.949	378.88
311.179	382.88
311.409	366.88
311.639	351.88
311.868	372.88
312.098	376.88
312.328	377.88
312.557	384.88
312.787	389.88
313.017	389.88
313.246	388.88
313.476	370.88
313.706	346.88
313.935	388.88
314.165	376.88
314.394	394.88
314.624	394.88
314.853	388.88
315.083	355.88
315.312	362.88
315.542	357.88
315.771	364.88
316.001	355.88
316.23	370.88
316.46	378.88
316.689	351.88
316.919	368.88
317.148	370.88
317.377	382.88
317.607	392.88
317.836	368.88
318.065	352.88
318.295	383.88
318.524	363.88
318.753	347.88
318.983	360.88
319.212	374.88
319.441	384.88
319.67	390.88
319.9	361.88
320.129	376.88
320.358	380.88
320.587	384.88
320.816	377.88
321.046	386.88
321.275	410.88
321.504	402.88
321.733	398.88
321.962	392.88
322.191	412.88
322.42	411.88
322.649	429.88
322.878	419.88
323.108	437.88
323.337	438.88
323.566	462.88
323.795	498.88
324.024	505.88
324.253	610.88
324.482	855.88
324.71	1359.88
324.939	2016.88
325.168	1764.88
325.397	880.88
325.626	593.88
325.855	504.88
326.084	478.88
326.313	481.88
326.542	475.88
326.77	512.88
326.999	600.88
327.228	803.88
327.457	1241.88
327.686	1514.88
327.914	968.88
328.143	649.88
328.372	596.88
328.6	593.88
328.829	508.88
329.058	543.88
329.287	534.88
329.515	494.88
329.744	464.88
329.972	487.88
330.201	497.88
330.43	531.88
330.658	545.88
330.887	578.88
331.115	569.88
331.344	500.88
331.572	463.88
331.801	474.88
332.03	473.88
332.258	459.88
332.486	446.88
332.715	450.88
332.943	452.88
333.172	453.88
333.4	455.88
333.629	470.88
333.857	476.88
334.085	488.88
334.314	501.88
334.542	503.88
334.771	526.88
334.999	514.88
335.227	471.88
335.455	463.88
335.684	461.88
335.912	444.88
336.14	436.88
336.369	428.88
336.597	444.88
336.825	442.88
337.053	429.88
337.281	439.88
337.51	448.88
337.738	435.88
337.966	432.88
338.194	442.88
338.422	446.88
338.65	449.88
338.878	443.88
339.106	441.88
339.334	454.88
339.562	430.88
339.79	445.88
340.018	403.88
340.246	426.88
340.474	426.88
340.702	446.88
340.93	422.88
341.158	416.88
341.386	462.88
341.614	431.88
341.842	430.88
342.07	440.88
342.298	420.88
342.526	446.88
342.754	440.88
342.981	411.88
343.209	423.88
343.437	421.88
343.665	446.88
343.893	428.88
344.12	433.88
344.348	445.88
344.576	438.88
344.804	434.88
345.031	455.88
345.259	450.88
345.487	453.88
345.714	422.88
345.942	431.88
346.17	413.88
346.397	421.88
346.625	426.88
346.853	413.88
347.08	420.88
347.308	413.88
347.535	424.88
347.763	423.88
347.99	430.88
348.218	439.88
348.445	442.88
348.673	445.88
348.9	415.88
349.128	400.88
349.355	421.88
349.583	405.88
349.81	413.88
350.037	409.88
350.265	397.88
350.492	407.88
350.72	401.88
350.947	421.88
351.174	411.88
351.402	441.88
351.629	430.88
351.856	416.88
352.083	412.88
352.311	440.88
352.538	424.88
352.765	437.88
352.992	422.88
353.22	425.88
353.447	411.88
353.674	407.88
353.901	406.88
354.128	421.88
354.355	411.88
354.583	378.88
354.81	397.88
355.037	395.88
355.264	382.88
355.491	414.88
355.718	391.88
355.945	393.88
356.172	408.88
356.399	390.88
356.626	394.88
356.853	380.88
357.08	390.88
357.307	375.88
357.534	399.88
357.761	410.88
357.988	403.88
358.215	402.88
358.441	408.88
358.668	380.88
358.895	415.88
359.122	402.88
359.349	404.88
359.576	407.88
359.802	442.88
360.029	449.88
360.256	468.88
360.483	456.88
360.709	441.88
360.936	447.88
361.163	417.88
361.39	426.88
361.616	442.88
361.843	418.88
362.07	425.88
362.296	425.88
362.523	421.88
362.749	423.88
362.976	423.88
363.203	411.88
363.429	428.88
363.656	410.88
363.882	411.88
364.109	416.88
364.335	405.88
364.562	418.88
364.788	412.88
365.015	427.88
365.241	427.88
365.468	431.88
365.694	440.88
365.92	430.88
366.147	410.88
366.373	406.88
366.599	402.88
366.826	411.88
367.052	405.88
367.278	409.88
367.505	421.88
367.731	417.88
367.957	413.88
368.184	420.88
368.41	423.88
368.636	424.88
368.862	427.88
369.089	413.88
369.315	438.88
369.541	408.88
369.767	417.88
369.993	406.88
370.219	415.88
370.445	433.88
370.672	403.88
370.898	406.88
371.124	414.88
371.35	411.88
371.576	402.88
371.802	414.88
372.028	425.88
372.254	419.88
372.48	426.88
372.706	416.88
372.932	423.88
373.158	433.88
373.384	426.88
373.61	415.88
373.835	430.88
374.061	424.88
374.287	405.88
374.513	448.88
374.739	418.88
374.965	438.88
375.191	440.88
375.416	440.88
375.642	426.88
375.868	438.88
376.094	421.88
376.319	433.88
376.545	413.88
376.771	434.88
376.997	410.88
377.222	436.88
377.448	417.88
377.674	402.88
377.899	413.88
378.125	411.88
378.35	400.88
378.576	432.88
378.802	417.88
379.027	422.88
379.253	418.88
379.478	409.88
379.704	428.88
379.929	420.88
380.155	413.88
380.38	429.88
380.606	417.88
380.831	421.88
381.057	443.88
381.282	423.88
381.507	408.88
381.733	413.88
381.958	425.88
382.184	426.88
382.409	453.88
382.634	429.88
382.86	441.88
383.085	432.88
383.31	444.88
383.535	440.88
383.761	450.88
383.986	441.88
384.211	441.88
384.436	442.88
384.662	480.88
384.887	473.88
385.112	449.88
385.337	446.88
385.562	461.88
385.787	449.88
386.013	490.88
386.238	489.88
386.463	449.88
386.688	477.88
386.913	467.88
387.138	468.88
387.363	460.88
387.588	472.88
387.813	487.88
388.038	464.88
388.263	465.88
388.488	490.88
388.713	467.88
388.938	479.88
389.163	469.88
389.387	481.88
389.612	475.88
389.837	471.88
390.062	448.88
390.287	474.88
390.512	461.88
390.736	462.88
390.961	465.88
391.186	462.88
391.411	461.88
391.636	490.88
391.86	465.88
392.085	481.88
392.31	489.88
392.534	481.88
392.759	486.88
392.984	464.88
393.208	483.88
393.433	482.88
393.658	490.88
393.882	484.88
394.107	472.88
394.331	456.88
394.556	488.88
394.78	504.88
395.005	453.88
395.229	487.88
395.454	500.88
395.678	500.88
395.903	500.88
396.127	527.88
396.352	522.88
396.576	493.88
396.801	502.88
397.025	508.88
397.249	506.88
397.474	514.88
397.698	495.88
397.922	524.88
398.147	522.88
398.371	536.88
398.595	543.88
398.82	543.88
399.044	572.88
399.268	591.88
399.492	601.88
399.717	631.88
399.941	666.88
400.165	656.88
400.389	680.88
400.613	628.88
400.837	557.88
401.062	555.88
401.286	579.88
401.51	546.88
401.734	543.88
401.958	551.88
402.182	551.88
402.406	568.88
402.63	585.88
402.854	558.88
403.078	539.88
403.302	559.88
403.526	561.88
403.75	549.88
403.974	569.88
404.198	542.88
404.422	564.88
404.645	583.88
404.869	595.88
405.093	611.88
405.317	636.88
405.541	702.88
405.765	631.88
405.988	608.88
406.212	599.88
406.436	614.88
406.66	633.88
406.883	595.88
407.107	638.88
407.331	698.88
407.555	732.88
407.778	737.88
408.002	672.88
408.226	631.88
408.449	622.88
408.673	640.88
408.896	650.88
409.12	705.88
409.344	655.88
409.567	611.88
409.791	570.88
410.014	574.88
410.238	583.88
410.461	574.88
410.685	570.88
410.908	590.88
411.132	636.88
411.355	665.88
411.578	618.88
411.802	593.88
412.025	582.88
412.249	564.88
412.472	582.88
412.695	637.88
412.919	638.88
413.142	597.88
413.365	562.88
413.589	558.88
413.812	550.88
414.035	538.88
414.258	517.88
414.482	534.88
414.705	539.88
414.928	534.88
415.151	554.88
415.374	532.88
415.597	545.88
415.821	545.88
416.044	548.88
416.267	528.88
416.49	531.88
416.713	546.88
416.936	521.88
417.159	533.88
417.382	538.88
417.605	536.88
417.828	551.88
418.051	549.88
418.274	540.88
418.497	534.88
418.72	554.88
418.943	551.88
419.166	559.88
419.389	558.88
419.611	586.88
419.834	579.88
420.057	568.88
420.28	583.88
420.503	554.88
420.726	550.88
420.948	580.88
421.171	606.88
421.394	620.88
421.617	591.88
421.839	562.88
422.062	541.88
422.285	578.88
422.507	638.88
422.73	729.88
422.953	689.88
423.175	606.88
423.398	583.88
423.621	568.88
423.843	600.88
424.066	586.88
424.288	586.88
424.511	632.88
424.733	690.88
424.956	778.88
425.178	721.88
425.401	714.88
425.623	748.88
425.846	637.88
426.068	602.88
426.291	575.88
426.513	603.88
426.735	613.88
426.958	642.88
427.18	724.88
427.402	869.88
427.625	965.88
427.847	841.88
428.069	739.88
428.292	641.88
428.514	593.88
428.736	582.88
428.958	556.88
429.181	546.88
429.403	552.88
429.625	561.88
429.847	596.88
430.069	674.88
430.292	663.88
430.514	583.88
430.736	570.88
430.958	539.88
431.18	552.88
431.402	536.88
431.624	546.88
431.846	512.88
432.068	520.88
432.29	531.88
432.512	526.88
432.734	555.88
432.956	555.88
433.178	523.88
433.4	545.88
433.622	542.88
433.844	559.88
434.066	530.88
434.287	522.88
434.509	550.88
434.731	527.88
434.953	544.88
435.175	566.88
435.397	574.88
435.618	592.88
435.84	614.88
436.062	722.88
436.284	811.88
436.505	702.88
436.727	615.88
436.949	584.88
437.17	542.88
437.392	551.88
437.614	573.88
437.835	601.88
438.057	678.88
438.278	812.88
438.5	810.88
438.721	888.88
438.943	832.88
439.165	648.88
439.386	623.88
439.608	617.88
439.829	614.88
440.05	623.88
440.272	673.88
440.493	601.88
440.715	582.88
440.936	578.88
441.158	550.88
441.379	550.88
441.6	567.88
441.822	602.88
442.043	639.88
442.264	705.88
442.486	768.88
442.707	655.88
442.928	638.88
443.149	629.88
443.371	669.88
443.592	703.88
443.813	796.88
444.034	855.88
444.255	688.88
444.476	637.88
444.698	648.88
444.919	604.88
445.14	696.88
445.361	644.88
445.582	639.88
445.803	706.88
446.024	796.88
446.245	830.88
446.466	741.88
446.687	650.88
446.908	591.88
447.129	579.88
447.35	545.88
447.571	548.88
447.792	523.88
448.013	545.88
448.234	553.88
448.455	611.88
448.675	724.88
448.896	854.88
449.117	728.88
449.338	683.88
449.559	788.88
449.779	880.88
450	726.88
450.221	637.88
450.442	573.88
450.662	563.88
450.883	572.88
451.104	545.88
451.324	541.88
451.545	522.88
451.766	522.88
451.986	506.88
452.207	476.88
452.428	486.88
452.648	485.88
452.869	494.88
453.089	470.88
453.31	504.88
453.53	514.88
453.751	490.88
453.971	505.88
454.192	481.88
454.412	505.88
454.633	500.88
454.853	486.88
455.073	489.88
455.294	502.88
455.514	569.88
455.734	552.88
455.955	500.88
456.175	490.88
456.395	455.88
456.616	458.88
456.836	480.88
457.056	460.88
457.276	460.88
457.497	484.88
457.717	472.88
457.937	479.88
458.157	510.88
458.377	504.88
458.598	498.88
458.818	552.88
459.038	640.88
459.258	648.88
459.478	553.88
459.698	544.88
459.918	514.88
460.138	534.88
460.358	528.88
460.578	544.88
460.798	524.88
461.018	564.88
461.238	546.88
461.458	574.88
461.678	555.88
461.898	542.88
462.118	524.88
462.338	552.88
462.558	566.88
462.777	561.88
462.997	601.88
463.217	604.88
463.437	624.88
463.657	608.88
463.876	596.88
464.096	589.88
464.316	578.88
464.536	583.88
464.755	606.88
464.975	571.88
465.195	630.88
465.414	662.88
465.634	586.88
465.854	543.88
466.073	545.88
466.293	529.88
466.512	500.88
466.732	518.88
466.951	514.88
467.171	521.88
467.391	536.88
467.61	511.88
467.829	539.88
468.049	538.88
468.268	512.88
468.488	514.88
468.707	512.88
468.927	492.88
469.146	482.88
469.365	496.88
469.585	534.88
469.804	510.88
470.023	527.88
470.243	541.88
470.462	519.88
470.681	551.88
470.901	529.88
471.12	509.88
471.339	521.88
471.558	513.88
471.777	506.88
471.997	509.88
472.216	535.88
472.435	558.88
472.654	556.88
472.873	553.88
473.092	521.88
473.311	523.88
473.53	502.88
473.749	540.88
473.968	552.88
474.187	681.88
474.406	664.88
474.625	597.88
474.844	553.88
475.063	524.88
475.282	532.88
475.501	535.88
475.72	533.88
475.939	538.88
476.158	523.88
476.377	523.88
476.596	512.88
476.814	545.88
477.033	558.88
477.252	554.88
477.471	551.88
477.69	551.88
477.908	560.88
478.127	551.88
478.346	572.88
478.564	584.88
478.783	584.88
479.002	606.88
479.22	582.88
479.439	608.88
479.658	651.88
479.876	627.88
480.095	632.88
480.313	656.88
480.532	635.88
480.751	644.88
480.969	648.88
481.188	706.88
481.406	729.88
481.624	668.88
481.843	640.88
482.061	600.88
482.28	641.88
482.498	639.88
482.717	607.88
482.935	617.88
483.153	616.88
483.372	619.88
483.59	591.88
483.808	601.88
484.027	598.88
484.245	628.88
484.463	635.88
484.681	609.88
484.9	604.88
485.118	639.88
485.336	637.88
485.554	618.88
485.772	624.88
485.99	642.88
486.209	651.88
486.427	634.88
486.645	643.88
486.863	644.88
487.081	673.88
487.299	672.88
487.517	648.88
487.735	652.88
487.953	639.88
488.171	660.88
488.389	676.88
488.607	671.88
488.825	656.88
489.043	654.88
489.261	642.88
489.479	684.88
489.696	688.88
489.914	670.88
490.132	696.88
490.35	698.88
490.568	702.88
490.786	708.88
491.003	693.88
491.221	735.88
491.439	718.88
491.657	735.88
491.874	765.88
492.092	772.88
492.31	745.88
492.527	726.88
492.745	740.88
492.963	756.88
493.18	765.88
493.398	761.88
493.615	770.88
493.833	791.88
494.05	799.88
494.268	766.88
494.485	768.88
494.703	765.88
494.92	749.88
495.138	761.88
495.355	761.88
495.573	778.88
495.79	772.88
496.008	779.88
496.225	800.88
496.442	791.88
496.66	771.88
496.877	790.88
497.094	779.88
497.312	820.88
497.529	805.88
497.746	809.88
497.963	832.88
498.181	857.88
498.398	890.88
498.615	889.88
498.832	872.88
499.049	893.88
499.267	910.88
499.484	961.88
499.701	968.88
499.918	1014.88
500.135	1080.88
500.352	1125.88
500.569	1137.88
500.786	1138.88
501.003	1126.88
501.22	1108.88
501.437	1032.88
501.654	1055.88
501.871	994.88
502.088	967.88
502.305	919.88
502.522	879.88
502.739	892.88
502.956	835.88
503.172	836.88
503.389	840.88
503.606	804.88
503.823	798.88
504.04	793.88
504.256	777.88
504.473	797.88
504.69	795.88
504.907	806.88
505.123	780.88
505.34	765.88
505.557	749.88
505.773	756.88
505.99	743.88
506.207	777.88
506.423	743.88
506.64	737.88
506.856	716.88
507.073	744.88
507.289	730.88
507.506	727.88
507.722	722.88
507.939	738.88
508.155	708.88
508.372	686.88
508.588	708.88
508.805	676.88
509.021	679.88
509.238	719.88
509.454	702.88
509.67	696.88
509.887	684.88
510.103	681.88
510.319	703.88
510.536	785.88
510.752	1162.88
510.968	997.88
511.184	701.88
511.401	676.88
511.617	665.88
511.833	646.88
512.049	672.88
512.265	648.88
512.481	657.88
512.698	653.88
512.914	646.88
513.13	653.88
513.346	645.88
513.562	665.88
513.778	651.88
513.994	656.88
514.21	664.88
514.426	684.88
514.642	710.88
514.858	744.88
515.074	760.88
515.29	889.88
515.506	1200.88
515.721	1033.88
515.937	773.88
516.153	722.88
516.369	687.88
516.585	716.88
516.801	685.88
517.016	706.88
517.232	658.88
517.448	709.88
517.664	694.88
517.879	722.88
518.095	713.88
518.311	681.88
518.527	669.88
518.742	684.88
518.958	694.88
519.173	671.88
519.389	669.88
519.605	674.88
519.82	656.88
520.036	702.88
520.251	679.88
520.467	704.88
520.682	696.88
520.898	693.88
521.113	715.88
521.329	735.88
521.544	816.88
521.76	982.88
521.975	1557.88
522.19	1550.88
522.406	896.88
522.621	707.88
522.836	659.88
523.052	644.88
523.267	625.88
523.482	600.88
523.698	628.88
523.913	604.88
524.128	594.88
524.343	589.88
524.559	565.88
524.774	590.88
524.989	584.88
525.204	601.88
525.419	580.88
525.634	581.88
525.849	566.88
526.064	573.88
526.28	568.88
526.495	559.88
526.71	558.88
526.925	552.88
527.14	578.88
527.355	543.88
527.57	546.88
527.785	568.88
527.999	542.88
528.214	539.88
528.429	541.88
528.644	525.88
528.859	544.88
529.074	569.88
529.289	577.88
529.503	650.88
529.718	625.88
529.933	578.88
530.148	550.88
530.363	560.88
530.577	572.88
530.792	543.88
531.007	540.88
531.221	557.88
531.436	522.88
531.651	542.88
531.865	556.88
532.08	538.88
532.295	527.88
532.509	526.88
532.724	528.88
532.938	513.88
533.153	513.88
533.367	519.88
533.582	522.88
533.796	529.88
534.011	523.88
534.225	504.88
534.44	517.88
534.654	515.88
534.868	517.88
535.083	534.88
535.297	528.88
535.511	520.88
535.726	542.88
535.94	518.88
536.154	511.88
536.369	518.88
536.583	504.88
536.797	509.88
537.011	504.88
537.225	493.88
537.44	504.88
537.654	484.88
537.868	528.88
538.082	489.88
538.296	526.88
538.51	502.88
538.724	480.88
538.938	514.88
539.153	516.88
539.367	508.88
539.581	520.88
539.795	509.88
540.009	486.88
540.222	502.88
540.436	502.88
540.65	517.88
540.864	528.88
541.078	516.88
541.292	516.88
541.506	503.88
541.72	489.88
541.934	494.88
542.147	500.88
542.361	464.88
542.575	485.88
542.789	496.88
543.002	507.88
543.216	500.88
543.43	486.88
543.644	498.88
543.857	520.88
544.071	498.88
544.285	506.88
544.498	485.88
544.712	491.88
544.925	491.88
545.139	496.88
545.352	490.88
545.566	502.88
545.779	512.88
545.993	493.88
546.206	522.88
546.42	479.88
546.633	494.88
546.847	505.88
547.06	498.88
547.274	493.88
547.487	493.88
547.7	466.88
547.914	477.88
548.127	502.88
548.34	492.88
548.554	487.88
548.767	481.88
548.98	489.88
549.193	492.88
549.407	470.88
549.62	466.88
549.833	472.88
550.046	472.88
550.259	475.88
550.473	460.88
550.686	460.88
550.899	486.88
551.112	478.88
551.325	472.88
551.538	476.88
551.751	477.88
551.964	477.88
552.177	466.88
552.39	481.88
552.603	477.88
552.816	488.88
553.029	489.88
553.242	493.88
553.455	477.88
553.667	503.88
553.88	513.88
554.093	497.88
554.306	492.88
554.519	494.88
554.732	486.88
554.944	466.88
555.157	468.88
555.37	469.88
555.583	452.88
555.795	480.88
556.008	463.88
556.221	452.88
556.433	458.88
556.646	431.88
556.859	430.88
557.071	441.88
557.284	471.88
557.496	443.88
557.709	446.88
557.921	425.88
558.134	440.88
558.346	440.88
558.559	432.88
558.771	447.88
558.984	412.88
559.196	420.88
559.409	426.88
559.621	396.88
559.833	431.88
560.046	413.88
560.258	395.88
560.47	434.88
560.683	432.88
560.895	427.88
561.107	442.88
561.32	422.88
561.532	444.88
561.744	433.88
561.956	441.88
562.168	437.88
562.381	428.88
562.593	411.88
562.805	444.88
563.017	441.88
563.229	425.88
563.441	424.88
563.653	431.88
563.865	432.88
564.077	425.88
564.289	426.88
564.501	449.88
564.713	460.88
564.925	466.88
565.137	480.88
565.349	481.88
565.561	470.88
565.773	469.88
565.985	494.88
566.197	491.88
566.408	523.88
566.62	527.88
566.832	531.88
567.044	530.88
567.255	557.88
567.467	545.88
567.679	560.88
567.891	533.88
568.102	538.88
568.314	568.88
568.526	566.88
568.737	519.88
568.949	492.88
569.161	489.88
569.372	457.88
569.584	449.88
569.795	456.88
570.007	435.88
570.218	487.88
570.43	458.88
570.641	426.88
570.853	420.88
571.064	413.88
571.276	435.88
571.487	421.88
571.698	416.88
571.91	405.88
572.121	390.88
572.333	403.88
572.544	404.88
572.755	388.88
572.966	384.88
573.178	383.88
573.389	388.88
573.6	382.88
573.811	378.88
574.023	368.88
574.234	380.88
574.445	372.88
574.656	375.88
574.867	375.88
575.078	393.88
575.289	392.88
575.501	362.88
575.712	396.88
575.923	364.88
576.134	362.88
576.345	367.88
576.556	370.88
576.767	364.88
576.978	372.88
577.188	368.88
577.399	372.88
577.61	351.88
577.821	358.88
578.032	365.88
578.243	389.88
578.454	556.88
578.665	431.88
578.875	372.88
579.086	350.88
579.297	355.88
579.508	368.88
579.718	364.88
579.929	345.88
580.14	356.88
580.35	369.88
580.561	338.88
580.772	363.88
580.982	339.88
581.193	328.88
581.403	331.88
581.614	337.88
581.825	337.88
582.035	338.88
582.246	335.88
582.456	319.88
582.667	337.88
582.877	344.88
583.087	344.88
583.298	334.88
583.508	326.88
583.719	331.88
583.929	334.88
584.139	335.88
584.35	329.88
584.56	324.88
584.77	332.88
584.981	330.88
585.191	329.88
585.401	334.88
585.611	352.88
585.821	328.88
586.032	327.88
586.242	338.88
586.452	345.88
586.662	330.88
586.872	298.88
587.082	322.88
587.292	340.88
587.502	331.88
587.713	332.88
587.923	321.88
588.133	316.88
588.343	321.88
588.553	336.88
588.762	324.88
588.972	330.88
589.182	338.88
589.392	348.88
589.602	338.88
589.812	333.88
590.022	336.88
590.232	331.88
590.441	334.88
590.651	322.88
590.861	301.88
591.071	319.88
591.281	310.88
591.49	338.88
591.7	325.88
591.91	342.88
592.119	322.88
592.329	345.88
592.539	349.88
592.748	347.88
592.958	351.88
593.167	344.88
593.377	344.88
593.587	359.88
593.796	345.88
594.006	360.88
594.215	368.88
594.424	357.88
594.634	353.88
594.843	336.88
595.053	351.88
595.262	336.88
595.472	322.88
595.681	335.88
595.89	332.88
596.1	327.88
596.309	318.88
596.518	318.88
596.727	316.88
596.937	317.88
597.146	312.88
597.355	291.88
597.564	291.88
597.774	294.88
597.983	290.88
598.192	286.88
598.401	293.88
598.61	297.88
598.819	295.88
599.028	297.88
599.237	281.88
599.446	303.88
599.655	296.88
599.864	300.88
600.073	290.88
600.282	291.88
600.491	287.88
600.7	285.88
600.909	272.88
601.118	281.88
601.327	314.88
601.536	276.88
601.745	296.88
601.953	284.88
602.162	288.88
602.371	282.88
602.58	279.88
602.789	274.88
602.997	262.88
603.206	282.88
603.415	284.88
603.623	284.88
603.832	282.88
604.041	268.88
604.249	270.88
604.458	257.88
604.666	269.88
604.875	285.88
605.084	272.88
605.292	272.88
605.501	266.88
605.709	270.88
605.918	266.88
606.126	262.88
606.334	266.88
606.543	263.88
606.751	275.88
606.96	270.88
607.168	282.88
607.376	258.88
607.585	259.88
607.793	273.88
608.001	280.88
608.21	257.88
608.418	251.88
608.626	256.88
608.834	267.88
609.043	242.88
609.251	269.88
609.459	265.88
609.667	271.88
609.875	273.88
610.083	267.88
610.291	259.88
610.499	266.88
610.707	269.88
610.916	261.88
611.124	252.88
611.332	263.88
611.54	266.88
611.748	269.88
611.955	255.88
612.163	273.88
612.371	263.88
612.579	266.88
612.787	269.88
612.995	254.88
613.203	266.88
613.411	269.88
613.618	266.88
613.826	264.88
614.034	238.88
614.242	247.88
614.449	264.88
614.657	269.88
614.865	264.88
615.072	264.88
615.28	262.88
615.488	247.88
615.695	262.88
615.903	272.88
616.111	241.88
616.318	268.88
616.526	267.88
616.733	248.88
616.941	242.88
617.148	272.88
617.356	247.88
617.563	267.88
617.771	256.88
617.978	251.88
618.185	246.88
618.393	275.88
618.6	264.88
618.807	256.88
619.015	263.88
619.222	260.88
619.429	240.88
619.637	258.88
619.844	249.88
620.051	239.88
620.258	260.88
620.466	255.88
620.673	249.88
620.88	239.88
621.087	228.88
621.294	228.88
621.501	238.88
621.708	250.88
621.915	224.88
622.122	237.88
622.329	233.88
622.536	249.88
622.743	248.88
622.95	232.88
623.157	221.88
623.364	229.88
623.571	246.88
623.778	241.88
623.985	225.88
624.192	237.88
624.399	238.88
624.606	235.88
624.812	237.88
625.019	243.88
625.226	233.88
625.433	237.88
625.639	218.88
625.846	241.88
626.053	230.88
626.259	226.88
626.466	228.88
626.673	208.88
626.879	214.88
627.086	226.88
627.293	222.88
627.499	245.88
627.706	229.88
627.912	217.88
628.119	220.88
628.325	223.88
628.532	237.88
628.738	213.88
628.945	235.88
629.151	222.88
629.357	226.88
629.564	206.88
629.77	218.88
629.976	211.88
630.183	209.88
630.389	208.88
630.595	197.88
630.802	219.88
631.008	200.88
631.214	211.88
631.42	214.88
631.627	221.88
631.833	211.88
632.039	213.88
632.245	208.88
632.451	221.88
632.657	198.88
632.863	202.88
633.069	214.88
633.275	206.88
633.481	208.88
633.688	220.88
633.893	216.88
634.099	216.88
634.305	214.88
634.511	210.88
634.717	194.88
634.923	193.88
635.129	184.88
635.335	210.88
635.541	200.88
635.747	200.88
635.952	198.88
636.158	177.88
636.364	208.88
636.57	206.88
636.775	206.88
636.981	213.88
637.187	192.88
637.392	190.88
637.598	197.88
637.804	205.88
638.009	198.88
638.215	202.88
638.421	184.88
638.626	200.88
638.832	195.88
639.037	197.88
639.243	183.88
639.448	176.88
639.654	189.88
639.859	183.88
640.065	192.88
640.27	208.88
640.475	209.88
640.681	195.88
640.886	181.88
641.091	214.88
641.297	197.88
641.502	186.88
641.707	192.88
641.913	208.88
642.118	196.88
642.323	188.88
642.528	193.88
642.733	180.88
642.939	186.88
643.144	184.88
643.349	171.88
643.554	182.88
643.759	180.88
643.964	156.88
644.169	183.88
644.374	188.88
644.579	171.88
644.784	177.88
644.989	181.88
645.194	190.88
645.399	196.88
645.604	174.88
645.809	180.88
646.014	171.88
646.219	173.88
646.423	181.88
646.628	183.88
646.833	187.88
647.038	197.88
647.243	190.88
647.447	170.88
647.652	180.88
647.857	185.88
648.062	189.88
648.266	173.88
648.471	172.88
648.676	186.88
648.88	189.88
649.085	195.88
649.289	182.88
649.494	190.88
649.698	213.88
649.903	206.88
650.107	186.88
650.312	174.88
650.516	185.88
650.721	168.88
650.925	175.88
651.13	169.88
651.334	174.88
651.539	149.88
651.743	154.88
651.947	147.88
652.152	161.88
652.356	158.88
652.56	155.88
652.764	150.88
652.969	157.88
653.173	157.88
653.377	162.88
653.581	148.88
653.785	136.88
653.99	153.88
654.194	146.88
654.398	153.88
654.602	154.88
654.806	160.88
655.01	169.88
655.214	144.88
655.418	150.88
655.622	144.88
655.826	130.88
656.03	138.88
656.234	149.88
656.438	135.88
656.642	143.88
656.846	151.88
657.049	165.88
657.253	128.88
657.457	136.88
657.661	138.88
657.865	127.88
658.068	102.88
658.272	113.88
658.476	124.88
658.68	122.88
658.883	98.88
659.087	109.88
659.291	112.88
659.494	111.88
659.698	108.88
659.901	110.88
660.105	91.88
660.309	104.88
660.512	106.88
660.716	95.88
660.919	90.88
661.123	100.88
661.326	114.88
661.53	90.88
661.733	93.88
661.936	93.88
662.14	79.88
662.343	79.88
662.546	91.88
662.75	89.88
662.953	89.88
663.156	83.88
663.36	97.88
663.563	97.88
663.766	80.88
663.969	94.88
664.173	98.88
664.376	93.88
664.579	82.88
664.782	80.88
664.985	84.88
665.188	84.88
665.391	87.88
665.594	90.88
665.797	85.88
666	77.88
666.203	96.88
666.406	89.88
666.609	91.88
666.812	77.88
667.015	80.88
667.218	92.88
667.421	86.88
667.624	78.88
667.827	91.88
668.03	84.88
668.232	86.88
668.435	87.88
668.638	85.88
668.841	97.88
669.043	99.88
669.246	90.88
669.449	71.88
669.651	94.88
669.854	89.88
670.057	73.88
670.259	85.88
670.462	89.88
670.665	77.88
670.867	85.88
671.07	82.88
671.272	100.88
671.475	81.88
671.677	81.88
671.88	82.88
672.082	74.88
672.284	87.88
672.487	82.88
672.689	93.88
672.892	89.88
