Data from 1966.PennyLincolnUp.Lamp.En5.5.200Scan.071719.P1.Scan2.head_HRD10591_14-17-54-146.txt Node
Date: Thu Jul 18 14:17:54 EDT 2019
User: cochatt
Spectrometer: HR+D1059
Trigger mode: 1
Integration Time (sec): 1.000000E-1
Scans to average: 1
Electric dark correction enabled: true
Nonlinearity correction enabled: false
Boxcar width: 0
XAxis mode: Wavelengths
Number of Pixels in Spectrum: 2048
>>>>>Begin Spectral Data<<<<<
223.165	-23.31
223.4	-23.31
223.635	-23.31
223.869	-15.31
224.104	-2.31
224.338	-8.31
224.573	-13.31
224.808	-14.31
225.042	-6.31
225.277	-6.31
225.511	-7.31
225.746	-0.31
225.98	5.69
226.215	22.69
226.449	31.69
226.683	15.69
226.918	4.69
227.152	16.69
227.387	22.69
227.621	44.69
227.856	37.69
228.09	47.69
228.324	40.69
228.559	48.69
228.793	69.69
229.027	120.69
229.262	109.69
229.496	124.69
229.73	131.69
229.964	150.69
230.199	113.69
230.433	117.69
230.667	117.69
230.901	115.69
231.136	118.69
231.37	109.69
231.604	125.69
231.838	126.69
232.072	112.69
232.306	110.69
232.541	112.69
232.775	113.69
233.009	121.69
233.243	119.69
233.477	129.69
233.711	114.69
233.945	109.69
234.179	106.69
234.413	112.69
234.647	111.69
234.881	130.69
235.115	121.69
235.349	121.69
235.583	130.69
235.817	116.69
236.051	118.69
236.285	132.69
236.519	131.69
236.753	139.69
236.987	146.69
237.221	172.69
237.455	228.69
237.689	187.69
237.922	134.69
238.156	147.69
238.39	132.69
238.624	126.69
238.858	119.69
239.091	136.69
239.325	135.69
239.559	133.69
239.793	144.69
240.027	117.69
240.26	141.69
240.494	189.69
240.728	151.69
240.961	158.69
241.195	138.69
241.429	135.69
241.662	124.69
241.896	149.69
242.13	126.69
242.363	129.69
242.597	140.69
242.83	136.69
243.064	147.69
243.298	141.69
243.531	142.69
243.765	141.69
243.998	137.69
244.232	143.69
244.465	147.69
244.699	155.69
244.932	159.69
245.166	160.69
245.399	146.69
245.633	160.69
245.866	151.69
246.099	145.69
246.333	154.69
246.566	150.69
246.8	181.69
247.033	161.69
247.266	167.69
247.5	161.69
247.733	181.69
247.966	182.69
248.2	165.69
248.433	178.69
248.666	175.69
248.899	185.69
249.133	207.69
249.366	201.69
249.599	211.69
249.832	183.69
250.066	185.69
250.299	196.69
250.532	204.69
250.765	195.69
250.998	228.69
251.231	230.69
251.465	227.69
251.698	226.69
251.931	201.69
252.164	193.69
252.397	208.69
252.63	208.69
252.863	192.69
253.096	216.69
253.329	249.69
253.562	226.69
253.795	209.69
254.028	221.69
254.261	210.69
254.494	213.69
254.727	275.69
254.96	283.69
255.193	302.69
255.426	272.69
255.659	222.69
255.892	244.69
256.124	238.69
256.357	259.69
256.59	245.69
256.823	222.69
257.056	217.69
257.289	217.69
257.521	215.69
257.754	226.69
257.987	225.69
258.22	203.69
258.452	227.69
258.685	217.69
258.918	213.69
259.151	211.69
259.383	214.69
259.616	227.69
259.849	222.69
260.081	224.69
260.314	269.69
260.547	255.69
260.779	246.69
261.012	248.69
261.244	250.69
261.477	223.69
261.71	232.69
261.942	227.69
262.175	247.69
262.407	239.69
262.64	226.69
262.872	221.69
263.105	223.69
263.337	225.69
263.57	232.69
263.802	229.69
264.035	211.69
264.267	201.69
264.499	224.69
264.732	219.69
264.964	212.69
265.197	223.69
265.429	226.69
265.661	219.69
265.894	221.69
266.126	230.69
266.358	212.69
266.591	223.69
266.823	233.69
267.055	218.69
267.287	234.69
267.52	234.69
267.752	225.69
267.984	243.69
268.216	240.69
268.448	251.69
268.681	235.69
268.913	241.69
269.145	269.69
269.377	269.69
269.609	279.69
269.841	294.69
270.073	283.69
270.306	281.69
270.538	303.69
270.77	313.69
271.002	315.69
271.234	280.69
271.466	320.69
271.698	314.69
271.93	325.69
272.162	311.69
272.394	328.69
272.626	310.69
272.858	294.69
273.09	271.69
273.322	262.69
273.553	266.69
273.785	282.69
274.017	277.69
274.249	264.69
274.481	266.69
274.713	286.69
274.945	285.69
275.176	283.69
275.408	279.69
275.64	267.69
275.872	284.69
276.104	269.69
276.335	289.69
276.567	289.69
276.799	301.69
277.031	294.69
277.262	327.69
277.494	318.69
277.726	298.69
277.957	289.69
278.189	299.69
278.421	282.69
278.652	265.69
278.884	277.69
279.115	278.69
279.347	273.69
279.579	259.69
279.81	275.69
280.042	264.69
280.273	280.69
280.505	268.69
280.736	287.69
280.968	279.69
281.199	273.69
281.431	261.69
281.662	264.69
281.894	298.69
282.125	254.69
282.356	280.69
282.588	329.69
282.819	317.69
283.051	301.69
283.282	265.69
283.513	278.69
283.745	287.69
283.976	283.69
284.207	285.69
284.439	292.69
284.67	287.69
284.901	282.69
285.132	269.69
285.364	266.69
285.595	284.69
285.826	294.69
286.057	294.69
286.288	280.69
286.52	301.69
286.751	282.69
286.982	278.69
287.213	317.69
287.444	285.69
287.675	283.69
287.906	293.69
288.138	325.69
288.369	311.69
288.6	311.69
288.831	313.69
289.062	310.69
289.293	325.69
289.524	295.69
289.755	301.69
289.986	304.69
290.217	299.69
290.448	294.69
290.679	307.69
290.91	303.69
291.141	288.69
291.371	292.69
291.602	299.69
291.833	297.69
292.064	286.69
292.295	321.69
292.526	311.69
292.757	288.69
292.987	291.69
293.218	293.69
293.449	292.69
293.68	306.69
293.91	303.69
294.141	307.69
294.372	299.69
294.603	300.69
294.833	291.69
295.064	301.69
295.295	298.69
295.525	301.69
295.756	325.69
295.987	311.69
296.217	323.69
296.448	337.69
296.679	318.69
296.909	295.69
297.14	294.69
297.37	313.69
297.601	332.69
297.831	332.69
298.062	320.69
298.292	317.69
298.523	313.69
298.753	303.69
298.984	313.69
299.214	313.69
299.445	325.69
299.675	337.69
299.905	336.69
300.136	324.69
300.366	319.69
300.597	319.69
300.827	336.69
301.057	345.69
301.288	334.69
301.518	322.69
301.748	343.69
301.979	352.69
302.209	336.69
302.439	348.69
302.669	343.69
302.9	332.69
303.13	329.69
303.36	334.69
303.59	343.69
303.82	347.69
304.051	342.69
304.281	328.69
304.511	343.69
304.741	342.69
304.971	342.69
305.201	338.69
305.431	347.69
305.661	365.69
305.891	333.69
306.121	336.69
306.352	345.69
306.582	364.69
306.812	323.69
307.042	358.69
307.272	345.69
307.502	335.69
307.731	352.69
307.961	340.69
308.191	352.69
308.421	347.69
308.651	347.69
308.881	360.69
309.111	376.69
309.341	352.69
309.571	363.69
309.8	352.69
310.03	376.69
310.26	382.69
310.49	378.69
310.72	379.69
310.949	393.69
311.179	409.69
311.409	369.69
311.639	375.69
311.868	387.69
312.098	379.69
312.328	386.69
312.557	398.69
312.787	394.69
313.017	401.69
313.246	370.69
313.476	382.69
313.706	365.69
313.935	387.69
314.165	393.69
314.394	381.69
314.624	387.69
314.853	397.69
315.083	403.69
315.312	389.69
315.542	379.69
315.771	391.69
316.001	377.69
316.23	397.69
316.46	381.69
316.689	391.69
316.919	387.69
317.148	406.69
317.377	385.69
317.607	391.69
317.836	398.69
318.065	390.69
318.295	392.69
318.524	399.69
318.753	398.69
318.983	390.69
319.212	387.69
319.441	397.69
319.67	402.69
319.9	411.69
320.129	397.69
320.358	404.69
320.587	382.69
320.816	408.69
321.046	411.69
321.275	415.69
321.504	404.69
321.733	421.69
321.962	414.69
322.191	423.69
322.42	433.69
322.649	433.69
322.878	464.69
323.108	461.69
323.337	503.69
323.566	485.69
323.795	518.69
324.024	585.69
324.253	675.69
324.482	945.69
324.71	1435.69
324.939	2160.69
325.168	1901.69
325.397	936.69
325.626	637.69
325.855	543.69
326.084	481.69
326.313	491.69
326.542	494.69
326.77	527.69
326.999	630.69
327.228	859.69
327.457	1299.69
327.686	1647.69
327.914	1083.69
328.143	699.69
328.372	589.69
328.6	585.69
328.829	560.69
329.058	542.69
329.287	590.69
329.515	541.69
329.744	514.69
329.972	515.69
330.201	542.69
330.43	562.69
330.658	585.69
330.887	622.69
331.115	604.69
331.344	518.69
331.572	487.69
331.801	490.69
332.03	485.69
332.258	471.69
332.486	462.69
332.715	457.69
332.943	462.69
333.172	459.69
333.4	489.69
333.629	494.69
333.857	502.69
334.085	509.69
334.314	498.69
334.542	540.69
334.771	551.69
334.999	494.69
335.227	481.69
335.455	480.69
335.684	493.69
335.912	478.69
336.14	460.69
336.369	484.69
336.597	468.69
336.825	493.69
337.053	452.69
337.281	478.69
337.51	465.69
337.738	454.69
337.966	457.69
338.194	457.69
338.422	478.69
338.65	486.69
338.878	443.69
339.106	438.69
339.334	448.69
339.562	437.69
339.79	442.69
340.018	452.69
340.246	445.69
340.474	459.69
340.702	457.69
340.93	467.69
341.158	441.69
341.386	457.69
341.614	458.69
341.842	439.69
342.07	456.69
342.298	461.69
342.526	427.69
342.754	421.69
342.981	459.69
343.209	447.69
343.437	443.69
343.665	463.69
343.893	457.69
344.12	456.69
344.348	465.69
344.576	456.69
344.804	467.69
345.031	444.69
345.259	464.69
345.487	453.69
345.714	441.69
345.942	463.69
346.17	456.69
346.397	454.69
346.625	417.69
346.853	451.69
347.08	427.69
347.308	439.69
347.535	443.69
347.763	457.69
347.99	428.69
348.218	457.69
348.445	452.69
348.673	444.69
348.9	430.69
349.128	426.69
349.355	438.69
349.583	417.69
349.81	443.69
350.037	443.69
350.265	449.69
350.492	407.69
350.72	411.69
350.947	439.69
351.174	422.69
351.402	440.69
351.629	441.69
351.856	426.69
352.083	453.69
352.311	448.69
352.538	444.69
352.765	435.69
352.992	447.69
353.22	434.69
353.447	424.69
353.674	426.69
353.901	412.69
354.128	406.69
354.355	432.69
354.583	400.69
354.81	416.69
355.037	432.69
355.264	439.69
355.491	433.69
355.718	425.69
355.945	410.69
356.172	439.69
356.399	405.69
356.626	402.69
356.853	423.69
357.08	416.69
357.307	427.69
357.534	396.69
357.761	421.69
357.988	421.69
358.215	407.69
358.441	409.69
358.668	412.69
358.895	418.69
359.122	435.69
359.349	409.69
359.576	449.69
359.802	458.69
360.029	483.69
360.256	521.69
360.483	477.69
360.709	445.69
360.936	447.69
361.163	440.69
361.39	446.69
361.616	446.69
361.843	444.69
362.07	439.69
362.296	429.69
362.523	449.69
362.749	450.69
362.976	445.69
363.203	433.69
363.429	404.69
363.656	443.69
363.882	423.69
364.109	434.69
364.335	424.69
364.562	433.69
364.788	430.69
365.015	417.69
365.241	433.69
365.468	439.69
365.694	443.69
365.92	429.69
366.147	414.69
366.373	428.69
366.599	424.69
366.826	433.69
367.052	442.69
367.278	454.69
367.505	424.69
367.731	430.69
367.957	423.69
368.184	421.69
368.41	441.69
368.636	453.69
368.862	456.69
369.089	439.69
369.315	447.69
369.541	441.69
369.767	430.69
369.993	429.69
370.219	439.69
370.445	425.69
370.672	434.69
370.898	441.69
371.124	442.69
371.35	437.69
371.576	435.69
371.802	432.69
372.028	413.69
372.254	423.69
372.48	438.69
372.706	429.69
372.932	429.69
373.158	441.69
373.384	435.69
373.61	451.69
373.835	431.69
374.061	443.69
374.287	455.69
374.513	462.69
374.739	475.69
374.965	444.69
375.191	443.69
375.416	427.69
375.642	445.69
375.868	449.69
376.094	445.69
376.319	448.69
376.545	452.69
376.771	432.69
376.997	437.69
377.222	433.69
377.448	458.69
377.674	445.69
377.899	437.69
378.125	434.69
378.35	427.69
378.576	450.69
378.802	432.69
379.027	443.69
379.253	444.69
379.478	437.69
379.704	461.69
379.929	462.69
380.155	448.69
380.38	429.69
380.606	445.69
380.831	444.69
381.057	454.69
381.282	449.69
381.507	451.69
381.733	442.69
381.958	423.69
382.184	456.69
382.409	476.69
382.634	458.69
382.86	440.69
383.085	442.69
383.31	469.69
383.535	454.69
383.761	453.69
383.986	467.69
384.211	480.69
384.436	461.69
384.662	456.69
384.887	487.69
385.112	467.69
385.337	486.69
385.562	503.69
385.787	483.69
386.013	498.69
386.238	489.69
386.463	473.69
386.688	478.69
386.913	472.69
387.138	477.69
387.363	480.69
387.588	466.69
387.813	478.69
388.038	477.69
388.263	493.69
388.488	496.69
388.713	497.69
388.938	473.69
389.163	481.69
389.387	473.69
389.612	494.69
389.837	487.69
390.062	476.69
390.287	477.69
390.512	469.69
390.736	504.69
390.961	502.69
391.186	482.69
391.411	491.69
391.636	481.69
391.86	505.69
392.085	513.69
392.31	504.69
392.534	487.69
392.759	497.69
392.984	510.69
393.208	517.69
393.433	497.69
393.658	521.69
393.882	480.69
394.107	482.69
394.331	510.69
394.556	501.69
394.78	488.69
395.005	495.69
395.229	503.69
395.454	519.69
395.678	521.69
395.903	509.69
396.127	543.69
396.352	558.69
396.576	512.69
396.801	520.69
397.025	523.69
397.249	505.69
397.474	507.69
397.698	535.69
397.922	530.69
398.147	579.69
398.371	559.69
398.595	554.69
398.82	548.69
399.044	566.69
399.268	590.69
399.492	627.69
399.717	645.69
399.941	677.69
400.165	744.69
400.389	698.69
400.613	635.69
400.837	607.69
401.062	597.69
401.286	597.69
401.51	559.69
401.734	587.69
401.958	553.69
402.182	560.69
402.406	572.69
402.63	587.69
402.854	564.69
403.078	589.69
403.302	592.69
403.526	593.69
403.75	580.69
403.974	608.69
404.198	599.69
404.422	582.69
404.645	602.69
404.869	611.69
405.093	637.69
405.317	680.69
405.541	731.69
405.765	651.69
405.988	629.69
406.212	637.69
406.436	643.69
406.66	653.69
406.883	647.69
407.107	677.69
407.331	689.69
407.555	784.69
407.778	800.69
408.002	686.69
408.226	673.69
408.449	653.69
408.673	645.69
408.896	676.69
409.12	711.69
409.344	658.69
409.567	612.69
409.791	619.69
410.014	615.69
410.238	596.69
410.461	592.69
410.685	587.69
410.908	594.69
411.132	637.69
411.355	671.69
411.578	651.69
411.802	620.69
412.025	601.69
412.249	587.69
412.472	623.69
412.695	651.69
412.919	673.69
413.142	631.69
413.365	593.69
413.589	573.69
413.812	551.69
414.035	537.69
414.258	579.69
414.482	575.69
414.705	565.69
414.928	580.69
415.151	546.69
415.374	562.69
415.597	550.69
415.821	533.69
416.044	545.69
416.267	553.69
416.49	547.69
416.713	536.69
416.936	563.69
417.159	569.69
417.382	571.69
417.605	562.69
417.828	562.69
418.051	608.69
418.274	572.69
418.497	556.69
418.72	587.69
418.943	585.69
419.166	581.69
419.389	623.69
419.611	583.69
419.834	594.69
420.057	594.69
420.28	601.69
420.503	577.69
420.726	584.69
420.948	594.69
421.171	639.69
421.394	661.69
421.617	597.69
421.839	590.69
422.062	619.69
422.285	618.69
422.507	655.69
422.73	751.69
422.953	708.69
423.175	631.69
423.398	607.69
423.621	597.69
423.843	610.69
424.066	617.69
424.288	606.69
424.511	644.69
424.733	718.69
424.956	796.69
425.178	768.69
425.401	766.69
425.623	780.69
425.846	677.69
426.068	645.69
426.291	635.69
426.513	612.69
426.735	629.69
426.958	667.69
427.18	764.69
427.402	905.69
427.625	1022.69
427.847	856.69
428.069	748.69
428.292	687.69
428.514	622.69
428.736	606.69
428.958	600.69
429.181	571.69
429.403	589.69
429.625	583.69
429.847	630.69
430.069	697.69
430.292	705.69
430.514	594.69
430.736	574.69
430.958	573.69
431.18	556.69
431.402	545.69
431.624	526.69
431.846	527.69
432.068	548.69
432.29	538.69
432.512	537.69
432.734	588.69
432.956	555.69
433.178	563.69
433.4	544.69
433.622	526.69
433.844	554.69
434.066	544.69
434.287	540.69
434.509	559.69
434.731	571.69
434.953	578.69
435.175	599.69
435.397	634.69
435.618	635.69
435.84	643.69
436.062	773.69
436.284	877.69
436.505	714.69
436.727	629.69
436.949	598.69
437.17	569.69
437.392	571.69
437.614	571.69
437.835	639.69
438.057	739.69
438.278	828.69
438.5	832.69
438.721	928.69
438.943	903.69
439.165	712.69
439.386	648.69
439.608	614.69
439.829	604.69
440.05	626.69
440.272	715.69
440.493	669.69
440.715	597.69
440.936	591.69
441.158	599.69
441.379	604.69
441.6	598.69
441.822	626.69
442.043	661.69
442.264	759.69
442.486	763.69
442.707	693.69
442.928	631.69
443.149	649.69
443.371	664.69
443.592	699.69
443.813	833.69
444.034	881.69
444.255	730.69
444.476	649.69
444.698	645.69
444.919	643.69
445.14	736.69
445.361	695.69
445.582	674.69
445.803	701.69
446.024	835.69
446.245	837.69
446.466	784.69
446.687	680.69
446.908	630.69
447.129	577.69
447.35	598.69
447.571	597.69
447.792	568.69
448.013	591.69
448.234	596.69
448.455	635.69
448.675	765.69
448.896	897.69
449.117	759.69
449.338	719.69
449.559	812.69
449.779	921.69
450	751.69
450.221	633.69
450.442	601.69
450.662	567.69
450.883	587.69
451.104	584.69
451.324	590.69
451.545	569.69
451.766	549.69
451.986	528.69
452.207	515.69
452.428	504.69
452.648	509.69
452.869	508.69
453.089	521.69
453.31	541.69
453.53	557.69
453.751	512.69
453.971	527.69
454.192	547.69
454.412	541.69
454.633	528.69
454.853	506.69
455.073	508.69
455.294	557.69
455.514	617.69
455.734	609.69
455.955	523.69
456.175	487.69
456.395	472.69
456.616	483.69
456.836	496.69
457.056	491.69
457.276	503.69
457.497	475.69
457.717	497.69
457.937	523.69
458.157	489.69
458.377	509.69
458.598	529.69
458.818	571.69
459.038	668.69
459.258	689.69
459.478	593.69
459.698	571.69
459.918	555.69
460.138	558.69
460.358	566.69
460.578	556.69
460.798	569.69
461.018	567.69
461.238	545.69
461.458	553.69
461.678	556.69
461.898	590.69
462.118	568.69
462.338	589.69
462.558	587.69
462.777	586.69
462.997	620.69
463.217	614.69
463.437	603.69
463.657	604.69
463.876	607.69
464.096	619.69
464.316	599.69
464.536	614.69
464.755	629.69
464.975	599.69
465.195	631.69
465.414	698.69
465.634	623.69
465.854	584.69
466.073	565.69
466.293	561.69
466.512	538.69
466.732	541.69
466.951	540.69
467.171	549.69
467.391	519.69
467.61	549.69
467.829	552.69
468.049	525.69
468.268	549.69
468.488	537.69
468.707	539.69
468.927	517.69
469.146	538.69
469.365	532.69
469.585	533.69
469.804	541.69
470.023	554.69
470.243	559.69
470.462	535.69
470.681	579.69
470.901	574.69
471.12	535.69
471.339	541.69
471.558	535.69
471.777	535.69
471.997	502.69
472.216	517.69
472.435	576.69
472.654	560.69
472.873	554.69
473.092	522.69
473.311	555.69
473.53	558.69
473.749	546.69
473.968	570.69
474.187	683.69
474.406	708.69
474.625	587.69
474.844	565.69
475.063	556.69
475.282	557.69
475.501	548.69
475.72	569.69
475.939	572.69
476.158	570.69
476.377	562.69
476.596	547.69
476.814	598.69
477.033	579.69
477.252	575.69
477.471	557.69
477.69	586.69
477.908	590.69
478.127	602.69
478.346	581.69
478.564	595.69
478.783	617.69
479.002	608.69
479.22	624.69
479.439	620.69
479.658	640.69
479.876	669.69
480.095	655.69
480.313	685.69
480.532	671.69
480.751	677.69
480.969	659.69
481.188	738.69
481.406	761.69
481.624	722.69
481.843	655.69
482.061	669.69
482.28	638.69
482.498	675.69
482.717	635.69
482.935	641.69
483.153	642.69
483.372	633.69
483.59	632.69
483.808	633.69
484.027	631.69
484.245	647.69
484.463	660.69
484.681	642.69
484.9	625.69
485.118	653.69
485.336	650.69
485.554	666.69
485.772	667.69
485.99	645.69
486.209	654.69
486.427	671.69
486.645	679.69
486.863	670.69
487.081	700.69
487.299	690.69
487.517	661.69
487.735	669.69
487.953	699.69
488.171	690.69
488.389	682.69
488.607	702.69
488.825	662.69
489.043	695.69
489.261	684.69
489.479	686.69
489.696	689.69
489.914	697.69
490.132	710.69
490.35	698.69
490.568	715.69
490.786	726.69
491.003	731.69
491.221	750.69
491.439	759.69
491.657	771.69
491.874	780.69
492.092	775.69
492.31	793.69
492.527	781.69
492.745	799.69
492.963	766.69
493.18	786.69
493.398	795.69
493.615	805.69
493.833	788.69
494.05	799.69
494.268	793.69
494.485	795.69
494.703	809.69
494.92	802.69
495.138	802.69
495.355	817.69
495.573	843.69
495.79	819.69
496.008	806.69
496.225	799.69
496.442	796.69
496.66	812.69
496.877	841.69
497.094	798.69
497.312	865.69
497.529	839.69
497.746	832.69
497.963	866.69
498.181	896.69
498.398	891.69
498.615	929.69
498.832	945.69
499.049	976.69
499.267	967.69
499.484	1019.69
499.701	1059.69
499.918	1076.69
500.135	1124.69
500.352	1164.69
500.569	1198.69
500.786	1214.69
501.003	1176.69
501.22	1141.69
501.437	1103.69
501.654	1058.69
501.871	1040.69
502.088	990.69
502.305	988.69
502.522	937.69
502.739	925.69
502.956	918.69
503.172	862.69
503.389	869.69
503.606	838.69
503.823	871.69
504.04	862.69
504.256	823.69
504.473	836.69
504.69	827.69
504.907	813.69
505.123	802.69
505.34	793.69
505.557	797.69
505.773	770.69
505.99	791.69
506.207	759.69
506.423	771.69
506.64	760.69
506.856	736.69
507.073	727.69
507.289	748.69
507.506	734.69
507.722	767.69
507.939	793.69
508.155	747.69
508.372	749.69
508.588	721.69
508.805	718.69
509.021	727.69
509.238	723.69
509.454	757.69
509.67	722.69
509.887	739.69
510.103	746.69
510.319	739.69
510.536	795.69
510.752	1265.69
510.968	1037.69
511.184	727.69
511.401	708.69
511.617	704.69
511.833	679.69
512.049	676.69
512.265	689.69
512.481	683.69
512.698	682.69
512.914	701.69
513.13	699.69
513.346	672.69
513.562	666.69
513.778	687.69
513.994	696.69
514.21	690.69
514.426	722.69
514.642	753.69
514.858	785.69
515.074	810.69
515.29	920.69
515.506	1298.69
515.721	1080.69
515.937	793.69
516.153	742.69
516.369	745.69
516.585	718.69
516.801	728.69
517.016	695.69
517.232	713.69
517.448	705.69
517.664	718.69
517.879	736.69
518.095	729.69
518.311	713.69
518.527	727.69
518.742	669.69
518.958	701.69
519.173	688.69
519.389	690.69
519.605	679.69
519.82	697.69
520.036	697.69
520.251	740.69
520.467	706.69
520.682	723.69
520.898	735.69
521.113	753.69
521.329	792.69
521.544	870.69
521.76	1037.69
521.975	1595.69
522.19	1609.69
522.406	974.69
522.621	782.69
522.836	700.69
523.052	681.69
523.267	648.69
523.482	629.69
523.698	603.69
523.913	622.69
524.128	611.69
524.343	619.69
524.559	616.69
524.774	603.69
524.989	598.69
525.204	607.69
525.419	589.69
525.634	610.69
525.849	599.69
526.064	572.69
526.28	579.69
526.495	580.69
526.71	578.69
526.925	571.69
527.14	560.69
527.355	569.69
527.57	546.69
527.785	565.69
527.999	559.69
528.214	579.69
528.429	571.69
528.644	568.69
528.859	589.69
529.074	579.69
529.289	587.69
529.503	663.69
529.718	663.69
529.933	585.69
530.148	591.69
530.363	581.69
530.577	572.69
530.792	553.69
531.007	549.69
531.221	557.69
531.436	558.69
531.651	556.69
531.865	555.69
532.08	546.69
532.295	560.69
532.509	559.69
532.724	566.69
532.938	554.69
533.153	531.69
533.367	546.69
533.582	534.69
533.796	556.69
534.011	557.69
534.225	538.69
534.44	517.69
534.654	535.69
534.868	515.69
535.083	551.69
535.297	547.69
535.511	531.69
535.726	552.69
535.94	573.69
536.154	526.69
536.369	521.69
536.583	504.69
536.797	526.69
537.011	531.69
537.225	507.69
537.44	555.69
537.654	522.69
537.868	527.69
538.082	536.69
538.296	530.69
538.51	524.69
538.724	539.69
538.938	523.69
539.153	531.69
539.367	538.69
539.581	559.69
539.795	490.69
540.009	503.69
540.222	536.69
540.436	528.69
540.65	547.69
540.864	516.69
541.078	539.69
541.292	508.69
541.506	523.69
541.72	515.69
541.934	509.69
542.147	519.69
542.361	488.69
542.575	511.69
542.789	501.69
543.002	501.69
543.216	506.69
543.43	499.69
543.644	518.69
543.857	503.69
544.071	540.69
544.285	542.69
544.498	492.69
544.712	507.69
544.925	517.69
545.139	523.69
545.352	512.69
545.566	520.69
545.779	510.69
545.993	506.69
546.206	520.69
546.42	508.69
546.633	504.69
546.847	513.69
547.06	506.69
547.274	517.69
547.487	493.69
547.7	525.69
547.914	498.69
548.127	501.69
548.34	492.69
548.554	507.69
548.767	505.69
548.98	521.69
549.193	495.69
549.407	508.69
549.62	483.69
549.833	522.69
550.046	509.69
550.259	486.69
550.473	483.69
550.686	511.69
550.899	498.69
551.112	506.69
551.325	477.69
551.538	490.69
551.751	488.69
551.964	470.69
552.177	487.69
552.39	496.69
552.603	496.69
552.816	497.69
553.029	530.69
553.242	509.69
553.455	521.69
553.667	527.69
553.88	529.69
554.093	528.69
554.306	510.69
554.519	499.69
554.732	509.69
554.944	489.69
555.157	474.69
555.37	483.69
555.583	479.69
555.795	478.69
556.008	455.69
556.221	476.69
556.433	458.69
556.646	465.69
556.859	467.69
557.071	457.69
557.284	441.69
557.496	465.69
557.709	448.69
557.921	438.69
558.134	458.69
558.346	460.69
558.559	434.69
558.771	464.69
558.984	454.69
559.196	432.69
559.409	461.69
559.621	427.69
559.833	448.69
560.046	461.69
560.258	453.69
560.47	446.69
560.683	467.69
560.895	451.69
561.107	462.69
561.32	431.69
561.532	457.69
561.744	450.69
561.956	462.69
562.168	441.69
562.381	448.69
562.593	448.69
562.805	452.69
563.017	454.69
563.229	430.69
563.441	432.69
563.653	447.69
563.865	451.69
564.077	443.69
564.289	444.69
564.501	464.69
564.713	489.69
564.925	471.69
565.137	478.69
565.349	482.69
565.561	478.69
565.773	483.69
565.985	491.69
566.197	517.69
566.408	530.69
566.62	565.69
566.832	551.69
567.044	565.69
567.255	572.69
567.467	577.69
567.679	570.69
567.891	581.69
568.102	571.69
568.314	578.69
568.526	559.69
568.737	534.69
568.949	526.69
569.161	493.69
569.372	481.69
569.584	466.69
569.795	457.69
570.007	460.69
570.218	512.69
570.43	478.69
570.641	422.69
570.853	465.69
571.064	446.69
571.276	444.69
571.487	443.69
571.698	443.69
571.91	415.69
572.121	424.69
572.333	419.69
572.544	404.69
572.755	405.69
572.966	383.69
573.178	415.69
573.389	431.69
573.6	398.69
573.811	391.69
574.023	386.69
574.234	373.69
574.445	395.69
574.656	385.69
574.867	377.69
575.078	374.69
575.289	389.69
575.501	392.69
575.712	374.69
575.923	380.69
576.134	385.69
576.345	368.69
576.556	391.69
576.767	389.69
576.978	378.69
577.188	369.69
577.399	383.69
577.61	375.69
577.821	350.69
578.032	374.69
578.243	401.69
578.454	593.69
578.665	465.69
578.875	389.69
579.086	352.69
579.297	378.69
579.508	383.69
579.718	353.69
579.929	365.69
580.14	359.69
580.35	354.69
580.561	339.69
580.772	368.69
580.982	362.69
581.193	348.69
581.403	347.69
581.614	345.69
581.825	352.69
582.035	355.69
582.246	337.69
582.456	337.69
582.667	349.69
582.877	333.69
583.087	360.69
583.298	343.69
583.508	337.69
583.719	342.69
583.929	352.69
584.139	346.69
584.35	353.69
584.56	350.69
584.77	349.69
584.981	345.69
585.191	347.69
585.401	330.69
585.611	346.69
585.821	339.69
586.032	343.69
586.242	344.69
586.452	337.69
586.662	339.69
586.872	321.69
587.082	332.69
587.292	338.69
587.502	349.69
587.713	335.69
587.923	362.69
588.133	343.69
588.343	348.69
588.553	337.69
588.762	340.69
588.972	347.69
589.182	351.69
589.392	342.69
589.602	344.69
589.812	358.69
590.022	351.69
590.232	367.69
590.441	349.69
590.651	337.69
590.861	328.69
591.071	339.69
591.281	350.69
591.49	328.69
591.7	347.69
591.91	359.69
592.119	348.69
592.329	349.69
592.539	350.69
592.748	349.69
592.958	352.69
593.167	334.69
593.377	344.69
593.587	385.69
593.796	365.69
594.006	369.69
594.215	381.69
594.424	368.69
594.634	360.69
594.843	353.69
595.053	354.69
595.262	368.69
595.472	336.69
595.681	326.69
595.89	344.69
596.1	328.69
596.309	349.69
596.518	339.69
596.727	328.69
596.937	327.69
597.146	319.69
597.355	322.69
597.564	300.69
597.774	323.69
597.983	295.69
598.192	322.69
598.401	325.69
598.61	299.69
598.819	321.69
599.028	305.69
599.237	310.69
599.446	282.69
599.655	298.69
599.864	302.69
600.073	287.69
600.282	277.69
600.491	301.69
600.7	306.69
600.909	304.69
601.118	291.69
601.327	302.69
601.536	289.69
601.745	305.69
601.953	301.69
602.162	289.69
602.371	314.69
602.58	295.69
602.789	303.69
602.997	298.69
603.206	299.69
603.415	289.69
603.623	275.69
603.832	283.69
604.041	294.69
604.249	280.69
604.458	281.69
604.666	285.69
604.875	269.69
605.084	279.69
605.292	276.69
605.501	288.69
605.709	274.69
605.918	295.69
606.126	270.69
606.334	273.69
606.543	288.69
606.751	281.69
606.96	291.69
607.168	281.69
607.376	272.69
607.585	271.69
607.793	273.69
608.001	296.69
608.21	268.69
608.418	261.69
608.626	287.69
608.834	265.69
609.043	283.69
609.251	279.69
609.459	266.69
609.667	277.69
609.875	280.69
610.083	263.69
610.291	278.69
610.499	279.69
610.707	284.69
610.916	292.69
611.124	276.69
611.332	283.69
611.54	284.69
611.748	297.69
611.955	280.69
612.163	281.69
612.371	275.69
612.579	291.69
612.787	275.69
612.995	288.69
613.203	271.69
613.411	274.69
613.618	265.69
613.826	279.69
614.034	275.69
614.242	263.69
614.449	260.69
614.657	269.69
614.865	258.69
615.072	273.69
615.28	274.69
615.488	278.69
615.695	263.69
615.903	251.69
616.111	260.69
616.318	271.69
616.526	270.69
616.733	266.69
616.941	238.69
617.148	265.69
617.356	267.69
617.563	275.69
617.771	279.69
617.978	259.69
618.185	251.69
618.393	251.69
618.6	248.69
618.807	253.69
619.015	274.69
619.222	282.69
619.429	241.69
619.637	255.69
619.844	267.69
620.051	264.69
620.258	272.69
620.466	260.69
620.673	241.69
620.88	261.69
621.087	248.69
621.294	259.69
621.501	253.69
621.708	259.69
621.915	234.69
622.122	239.69
622.329	243.69
622.536	243.69
622.743	245.69
622.95	253.69
623.157	246.69
623.364	243.69
623.571	242.69
623.778	234.69
623.985	247.69
624.192	236.69
624.399	219.69
624.606	235.69
624.812	236.69
625.019	234.69
625.226	251.69
625.433	247.69
625.639	233.69
625.846	239.69
626.053	249.69
626.259	241.69
626.466	229.69
626.673	226.69
626.879	229.69
627.086	251.69
627.293	243.69
627.499	245.69
627.706	249.69
627.912	221.69
628.119	239.69
628.325	232.69
628.532	226.69
628.738	225.69
628.945	235.69
629.151	232.69
629.357	218.69
629.564	226.69
629.77	232.69
629.976	219.69
630.183	230.69
630.389	223.69
630.595	202.69
630.802	223.69
631.008	222.69
631.214	236.69
631.42	225.69
631.627	219.69
631.833	231.69
632.039	218.69
632.245	211.69
632.451	209.69
632.657	213.69
632.863	213.69
633.069	202.69
633.275	212.69
633.481	214.69
633.688	210.69
633.893	213.69
634.099	213.69
634.305	193.69
634.511	204.69
634.717	215.69
634.923	203.69
635.129	215.69
635.335	215.69
635.541	206.69
635.747	201.69
635.952	203.69
636.158	206.69
636.364	214.69
636.57	202.69
636.775	209.69
636.981	213.69
637.187	205.69
637.392	201.69
637.598	188.69
637.804	198.69
638.009	195.69
638.215	208.69
638.421	191.69
638.626	192.69
638.832	201.69
639.037	201.69
639.243	201.69
639.448	187.69
639.654	182.69
639.859	205.69
640.065	189.69
640.27	198.69
640.475	208.69
640.681	197.69
640.886	208.69
641.091	185.69
641.297	190.69
641.502	190.69
641.707	197.69
641.913	202.69
642.118	192.69
642.323	182.69
642.528	186.69
642.733	184.69
642.939	197.69
643.144	189.69
643.349	198.69
643.554	175.69
643.759	174.69
643.964	194.69
644.169	192.69
644.374	199.69
644.579	190.69
644.784	185.69
644.989	193.69
645.194	181.69
645.399	177.69
645.604	188.69
645.809	193.69
646.014	187.69
646.219	183.69
646.423	179.69
646.628	174.69
646.833	191.69
647.038	190.69
647.243	186.69
647.447	194.69
647.652	189.69
647.857	175.69
648.062	186.69
648.266	190.69
648.471	179.69
648.676	189.69
648.88	199.69
649.085	198.69
649.289	187.69
649.494	193.69
649.698	203.69
649.903	210.69
650.107	172.69
650.312	192.69
650.516	175.69
650.721	173.69
650.925	159.69
651.13	165.69
651.334	170.69
651.539	172.69
651.743	166.69
651.947	171.69
652.152	153.69
652.356	144.69
652.56	165.69
652.764	165.69
652.969	168.69
653.173	173.69
653.377	159.69
653.581	153.69
653.785	151.69
653.99	148.69
654.194	157.69
654.398	140.69
654.602	153.69
654.806	154.69
655.01	160.69
655.214	153.69
655.418	146.69
655.622	154.69
655.826	150.69
656.03	153.69
656.234	160.69
656.438	160.69
656.642	154.69
656.846	143.69
657.049	127.69
657.253	138.69
657.457	137.69
657.661	137.69
657.865	127.69
658.068	118.69
658.272	118.69
658.476	104.69
658.68	118.69
658.883	115.69
659.087	111.69
659.291	114.69
659.494	108.69
659.698	117.69
659.901	118.69
660.105	101.69
660.309	85.69
660.512	84.69
660.716	111.69
660.919	98.69
661.123	96.69
661.326	91.69
661.53	109.69
661.733	95.69
661.936	99.69
662.14	102.69
662.343	93.69
662.546	93.69
662.75	88.69
662.953	100.69
663.156	87.69
663.36	94.69
663.563	83.69
663.766	84.69
663.969	86.69
664.173	79.69
664.376	88.69
664.579	81.69
664.782	71.69
664.985	82.69
665.188	82.69
665.391	77.69
665.594	81.69
665.797	86.69
666	79.69
666.203	87.69
666.406	85.69
666.609	79.69
666.812	107.69
667.015	85.69
667.218	98.69
667.421	83.69
667.624	83.69
667.827	68.69
668.03	79.69
668.232	83.69
668.435	88.69
668.638	87.69
668.841	75.69
669.043	89.69
669.246	89.69
669.449	73.69
669.651	80.69
669.854	83.69
670.057	82.69
670.259	102.69
670.462	80.69
670.665	98.69
670.867	89.69
671.07	72.69
671.272	97.69
671.475	91.69
671.677	88.69
671.88	83.69
672.082	93.69
672.284	84.69
672.487	92.69
672.689	78.69
672.892	87.69
