Data from 1966.PennyLincolnUp.Lamp.En5.5.200Scan.071719.P1.Scan2.head_HRD10591_14-18-49-219.txt Node
Date: Thu Jul 18 14:18:49 EDT 2019
User: cochatt
Spectrometer: HR+D1059
Trigger mode: 1
Integration Time (sec): 1.000000E-1
Scans to average: 1
Electric dark correction enabled: true
Nonlinearity correction enabled: false
Boxcar width: 0
XAxis mode: Wavelengths
Number of Pixels in Spectrum: 2048
>>>>>Begin Spectral Data<<<<<
223.165	-18.62
223.4	-18.62
223.635	-18.62
223.869	-8.62
224.104	-14.62
224.338	-7.62
224.573	-15.62
224.808	-19.62
225.042	-0.62
225.277	-2.62
225.511	-2.62
225.746	-6.62
225.98	0.38
226.215	12.38
226.449	10.38
226.683	20.38
226.918	26.38
227.152	27.38
227.387	20.38
227.621	31.38
227.856	43.38
228.09	59.38
228.324	46.38
228.559	64.38
228.793	79.38
229.027	96.38
229.262	94.38
229.496	126.38
229.73	115.38
229.964	168.38
230.199	136.38
230.433	116.38
230.667	102.38
230.901	107.38
231.136	126.38
231.37	109.38
231.604	108.38
231.838	96.38
232.072	111.38
232.306	107.38
232.541	126.38
232.775	113.38
233.009	123.38
233.243	111.38
233.477	110.38
233.711	123.38
233.945	124.38
234.179	115.38
234.413	106.38
234.647	115.38
234.881	111.38
235.115	114.38
235.349	129.38
235.583	116.38
235.817	124.38
236.051	132.38
236.285	129.38
236.519	141.38
236.753	128.38
236.987	142.38
237.221	181.38
237.455	262.38
237.689	193.38
237.922	147.38
238.156	139.38
238.39	122.38
238.624	119.38
238.858	127.38
239.091	137.38
239.325	129.38
239.559	125.38
239.793	138.38
240.027	129.38
240.26	158.38
240.494	156.38
240.728	147.38
240.961	145.38
241.195	137.38
241.429	139.38
241.662	153.38
241.896	144.38
242.13	131.38
242.363	131.38
242.597	153.38
242.83	139.38
243.064	139.38
243.298	135.38
243.531	151.38
243.765	138.38
243.998	142.38
244.232	146.38
244.465	140.38
244.699	148.38
244.932	154.38
245.166	143.38
245.399	138.38
245.633	160.38
245.866	157.38
246.099	151.38
246.333	151.38
246.566	167.38
246.8	156.38
247.033	166.38
247.266	156.38
247.5	160.38
247.733	200.38
247.966	159.38
248.2	163.38
248.433	172.38
248.666	193.38
248.899	192.38
249.133	204.38
249.366	204.38
249.599	204.38
249.832	175.38
250.066	190.38
250.299	201.38
250.532	202.38
250.765	212.38
250.998	215.38
251.231	232.38
251.465	224.38
251.698	203.38
251.931	207.38
252.164	214.38
252.397	202.38
252.63	189.38
252.863	214.38
253.096	209.38
253.329	238.38
253.562	244.38
253.795	246.38
254.028	221.38
254.261	229.38
254.494	216.38
254.727	255.38
254.96	274.38
255.193	265.38
255.426	252.38
255.659	228.38
255.892	231.38
256.124	228.38
256.357	249.38
256.59	217.38
256.823	209.38
257.056	205.38
257.289	220.38
257.521	201.38
257.754	207.38
257.987	210.38
258.22	215.38
258.452	229.38
258.685	224.38
258.918	230.38
259.151	209.38
259.383	217.38
259.616	221.38
259.849	209.38
260.081	230.38
260.314	236.38
260.547	266.38
260.779	255.38
261.012	248.38
261.244	238.38
261.477	223.38
261.71	220.38
261.942	240.38
262.175	241.38
262.407	238.38
262.64	217.38
262.872	219.38
263.105	214.38
263.337	221.38
263.57	227.38
263.802	203.38
264.035	215.38
264.267	216.38
264.499	208.38
264.732	220.38
264.964	205.38
265.197	215.38
265.429	221.38
265.661	214.38
265.894	222.38
266.126	208.38
266.358	209.38
266.591	209.38
266.823	223.38
267.055	247.38
267.287	234.38
267.52	218.38
267.752	221.38
267.984	220.38
268.216	236.38
268.448	237.38
268.681	236.38
268.913	248.38
269.145	275.38
269.377	277.38
269.609	261.38
269.841	260.38
270.073	294.38
270.306	313.38
270.538	328.38
270.77	317.38
271.002	325.38
271.234	298.38
271.466	317.38
271.698	321.38
271.93	304.38
272.162	314.38
272.394	316.38
272.626	300.38
272.858	299.38
273.09	289.38
273.322	273.38
273.553	280.38
273.785	284.38
274.017	257.38
274.249	271.38
274.481	260.38
274.713	261.38
274.945	282.38
275.176	277.38
275.408	272.38
275.64	279.38
275.872	261.38
276.104	274.38
276.335	265.38
276.567	285.38
276.799	295.38
277.031	317.38
277.262	342.38
277.494	341.38
277.726	325.38
277.957	293.38
278.189	280.38
278.421	265.38
278.652	273.38
278.884	281.38
279.115	272.38
279.347	277.38
279.579	265.38
279.81	265.38
280.042	271.38
280.273	280.38
280.505	259.38
280.736	268.38
280.968	272.38
281.199	266.38
281.431	260.38
281.662	279.38
281.894	288.38
282.125	302.38
282.356	279.38
282.588	308.38
282.819	320.38
283.051	299.38
283.282	285.38
283.513	274.38
283.745	284.38
283.976	274.38
284.207	292.38
284.439	279.38
284.67	283.38
284.901	293.38
285.132	269.38
285.364	277.38
285.595	280.38
285.826	279.38
286.057	277.38
286.288	295.38
286.52	285.38
286.751	282.38
286.982	280.38
287.213	279.38
287.444	283.38
287.675	293.38
287.906	312.38
288.138	303.38
288.369	310.38
288.6	330.38
288.831	334.38
289.062	296.38
289.293	299.38
289.524	293.38
289.755	298.38
289.986	290.38
290.217	299.38
290.448	299.38
290.679	279.38
290.91	305.38
291.141	298.38
291.371	282.38
291.602	301.38
291.833	311.38
292.064	288.38
292.295	306.38
292.526	289.38
292.757	280.38
292.987	302.38
293.218	305.38
293.449	309.38
293.68	303.38
293.91	267.38
294.141	293.38
294.372	316.38
294.603	313.38
294.833	301.38
295.064	305.38
295.295	295.38
295.525	308.38
295.756	303.38
295.987	315.38
296.217	327.38
296.448	347.38
296.679	323.38
296.909	304.38
297.14	294.38
297.37	305.38
297.601	323.38
297.831	286.38
298.062	311.38
298.292	321.38
298.523	327.38
298.753	311.38
298.984	310.38
299.214	323.38
299.445	335.38
299.675	312.38
299.905	315.38
300.136	321.38
300.366	312.38
300.597	324.38
300.827	311.38
301.057	341.38
301.288	320.38
301.518	333.38
301.748	330.38
301.979	342.38
302.209	330.38
302.439	327.38
302.669	335.38
302.9	343.38
303.13	356.38
303.36	331.38
303.59	352.38
303.82	348.38
304.051	356.38
304.281	352.38
304.511	327.38
304.741	333.38
304.971	339.38
305.201	317.38
305.431	340.38
305.661	332.38
305.891	341.38
306.121	322.38
306.352	342.38
306.582	333.38
306.812	342.38
307.042	349.38
307.272	357.38
307.502	335.38
307.731	312.38
307.961	326.38
308.191	338.38
308.421	341.38
308.651	341.38
308.881	352.38
309.111	332.38
309.341	341.38
309.571	351.38
309.8	364.38
310.03	373.38
310.26	369.38
310.49	385.38
310.72	379.38
310.949	390.38
311.179	395.38
311.409	397.38
311.639	392.38
311.868	388.38
312.098	373.38
312.328	387.38
312.557	389.38
312.787	435.38
313.017	429.38
313.246	403.38
313.476	354.38
313.706	387.38
313.935	396.38
314.165	412.38
314.394	424.38
314.624	399.38
314.853	379.38
315.083	378.38
315.312	383.38
315.542	378.38
315.771	373.38
316.001	380.38
316.23	378.38
316.46	368.38
316.689	379.38
316.919	389.38
317.148	404.38
317.377	401.38
317.607	397.38
317.836	389.38
318.065	385.38
318.295	371.38
318.524	371.38
318.753	383.38
318.983	392.38
319.212	386.38
319.441	386.38
319.67	406.38
319.9	387.38
320.129	410.38
320.358	375.38
320.587	398.38
320.816	420.38
321.046	395.38
321.275	413.38
321.504	409.38
321.733	409.38
321.962	411.38
322.191	416.38
322.42	456.38
322.649	466.38
322.878	465.38
323.108	474.38
323.337	470.38
323.566	483.38
323.795	533.38
324.024	573.38
324.253	684.38
324.482	963.38
324.71	1536.38
324.939	2267.38
325.168	1977.38
325.397	967.38
325.626	659.38
325.855	547.38
326.084	519.38
326.313	495.38
326.542	499.38
326.77	554.38
326.999	642.38
327.228	896.38
327.457	1354.38
327.686	1727.38
327.914	1129.38
328.143	712.38
328.372	635.38
328.6	611.38
328.829	569.38
329.058	577.38
329.287	611.38
329.515	572.38
329.744	531.38
329.972	522.38
330.201	536.38
330.43	590.38
330.658	602.38
330.887	633.38
331.115	612.38
331.344	539.38
331.572	516.38
331.801	516.38
332.03	502.38
332.258	487.38
332.486	458.38
332.715	461.38
332.943	467.38
333.172	477.38
333.4	481.38
333.629	483.38
333.857	487.38
334.085	539.38
334.314	521.38
334.542	579.38
334.771	573.38
334.999	532.38
335.227	497.38
335.455	502.38
335.684	477.38
335.912	457.38
336.14	465.38
336.369	467.38
336.597	464.38
336.825	469.38
337.053	464.38
337.281	467.38
337.51	463.38
337.738	462.38
337.966	467.38
338.194	461.38
338.422	468.38
338.65	465.38
338.878	460.38
339.106	459.38
339.334	438.38
339.562	435.38
339.79	423.38
340.018	453.38
340.246	440.38
340.474	464.38
340.702	439.38
340.93	441.38
341.158	451.38
341.386	430.38
341.614	449.38
341.842	445.38
342.07	449.38
342.298	443.38
342.526	436.38
342.754	437.38
342.981	437.38
343.209	429.38
343.437	446.38
343.665	459.38
343.893	437.38
344.12	464.38
344.348	468.38
344.576	487.38
344.804	483.38
345.031	456.38
345.259	476.38
345.487	469.38
345.714	460.38
345.942	425.38
346.17	448.38
346.397	439.38
346.625	425.38
346.853	437.38
347.08	437.38
347.308	453.38
347.535	450.38
347.763	464.38
347.99	427.38
348.218	459.38
348.445	439.38
348.673	446.38
348.9	447.38
349.128	428.38
349.355	423.38
349.583	425.38
349.81	417.38
350.037	429.38
350.265	433.38
350.492	438.38
350.72	437.38
350.947	415.38
351.174	442.38
351.402	436.38
351.629	467.38
351.856	454.38
352.083	466.38
352.311	460.38
352.538	465.38
352.765	465.38
352.992	456.38
353.22	451.38
353.447	448.38
353.674	435.38
353.901	421.38
354.128	421.38
354.355	424.38
354.583	423.38
354.81	428.38
355.037	384.38
355.264	429.38
355.491	402.38
355.718	407.38
355.945	429.38
356.172	413.38
356.399	409.38
356.626	421.38
356.853	414.38
357.08	421.38
357.307	432.38
357.534	415.38
357.761	421.38
357.988	428.38
358.215	429.38
358.441	403.38
358.668	417.38
358.895	415.38
359.122	407.38
359.349	432.38
359.576	428.38
359.802	469.38
360.029	499.38
360.256	488.38
360.483	482.38
360.709	448.38
360.936	440.38
361.163	455.38
361.39	456.38
361.616	462.38
361.843	437.38
362.07	447.38
362.296	450.38
362.523	443.38
362.749	439.38
362.976	431.38
363.203	426.38
363.429	423.38
363.656	453.38
363.882	425.38
364.109	425.38
364.335	419.38
364.562	431.38
364.788	416.38
365.015	432.38
365.241	425.38
365.468	439.38
365.694	433.38
365.92	436.38
366.147	440.38
366.373	430.38
366.599	431.38
366.826	435.38
367.052	412.38
367.278	439.38
367.505	425.38
367.731	432.38
367.957	436.38
368.184	421.38
368.41	451.38
368.636	438.38
368.862	458.38
369.089	429.38
369.315	438.38
369.541	432.38
369.767	437.38
369.993	439.38
370.219	428.38
370.445	447.38
370.672	430.38
370.898	445.38
371.124	448.38
371.35	451.38
371.576	437.38
371.802	440.38
372.028	435.38
372.254	448.38
372.48	431.38
372.706	435.38
372.932	407.38
373.158	438.38
373.384	435.38
373.61	421.38
373.835	431.38
374.061	435.38
374.287	431.38
374.513	441.38
374.739	445.38
374.965	458.38
375.191	448.38
375.416	416.38
375.642	439.38
375.868	460.38
376.094	448.38
376.319	425.38
376.545	429.38
376.771	451.38
376.997	436.38
377.222	440.38
377.448	431.38
377.674	427.38
377.899	416.38
378.125	421.38
378.35	429.38
378.576	417.38
378.802	431.38
379.027	441.38
379.253	440.38
379.478	430.38
379.704	424.38
379.929	414.38
380.155	432.38
380.38	407.38
380.606	433.38
380.831	428.38
381.057	450.38
381.282	420.38
381.507	435.38
381.733	450.38
381.958	454.38
382.184	471.38
382.409	459.38
382.634	446.38
382.86	446.38
383.085	440.38
383.31	450.38
383.535	463.38
383.761	453.38
383.986	465.38
384.211	467.38
384.436	464.38
384.662	461.38
384.887	473.38
385.112	449.38
385.337	470.38
385.562	463.38
385.787	479.38
386.013	471.38
386.238	491.38
386.463	516.38
386.688	477.38
386.913	478.38
387.138	488.38
387.363	486.38
387.588	478.38
387.813	481.38
388.038	478.38
388.263	484.38
388.488	492.38
388.713	486.38
388.938	498.38
389.163	487.38
389.387	488.38
389.612	506.38
389.837	494.38
390.062	465.38
390.287	472.38
390.512	479.38
390.736	474.38
390.961	480.38
391.186	497.38
391.411	511.38
391.636	481.38
391.86	491.38
392.085	495.38
392.31	495.38
392.534	482.38
392.759	495.38
392.984	472.38
393.208	493.38
393.433	517.38
393.658	513.38
393.882	492.38
394.107	506.38
394.331	498.38
394.556	499.38
394.78	492.38
395.005	484.38
395.229	488.38
395.454	511.38
395.678	523.38
395.903	506.38
396.127	536.38
396.352	541.38
396.576	509.38
396.801	523.38
397.025	518.38
397.249	522.38
397.474	515.38
397.698	515.38
397.922	561.38
398.147	553.38
398.371	549.38
398.595	559.38
398.82	559.38
399.044	566.38
399.268	589.38
399.492	624.38
399.717	663.38
399.941	684.38
400.165	711.38
400.389	697.38
400.613	662.38
400.837	624.38
401.062	592.38
401.286	587.38
401.51	579.38
401.734	543.38
401.958	551.38
402.182	563.38
402.406	576.38
402.63	589.38
402.854	571.38
403.078	550.38
403.302	621.38
403.526	592.38
403.75	584.38
403.974	582.38
404.198	546.38
404.422	591.38
404.645	591.38
404.869	599.38
405.093	663.38
405.317	673.38
405.541	703.38
405.765	643.38
405.988	622.38
406.212	641.38
406.436	647.38
406.66	666.38
406.883	639.38
407.107	647.38
407.331	723.38
407.555	791.38
407.778	781.38
408.002	703.38
408.226	678.38
408.449	644.38
408.673	661.38
408.896	692.38
409.12	723.38
409.344	695.38
409.567	589.38
409.791	603.38
410.014	597.38
410.238	594.38
410.461	607.38
410.685	589.38
410.908	613.38
411.132	671.38
411.355	685.38
411.578	632.38
411.802	601.38
412.025	623.38
412.249	586.38
412.472	633.38
412.695	669.38
412.919	652.38
413.142	594.38
413.365	586.38
413.589	567.38
413.812	549.38
414.035	565.38
414.258	559.38
414.482	545.38
414.705	554.38
414.928	552.38
415.151	580.38
415.374	573.38
415.597	551.38
415.821	572.38
416.044	553.38
416.267	550.38
416.49	557.38
416.713	548.38
416.936	541.38
417.159	543.38
417.382	563.38
417.605	536.38
417.828	582.38
418.051	591.38
418.274	591.38
418.497	548.38
418.72	552.38
418.943	559.38
419.166	592.38
419.389	620.38
419.611	605.38
419.834	590.38
420.057	569.38
420.28	599.38
420.503	592.38
420.726	584.38
420.948	602.38
421.171	631.38
421.394	680.38
421.617	603.38
421.839	585.38
422.062	579.38
422.285	579.38
422.507	648.38
422.73	732.38
422.953	743.38
423.175	637.38
423.398	619.38
423.621	597.38
423.843	621.38
424.066	617.38
424.288	614.38
424.511	634.38
424.733	696.38
424.956	805.38
425.178	754.38
425.401	767.38
425.623	784.38
425.846	687.38
426.068	645.38
426.291	623.38
426.513	613.38
426.735	623.38
426.958	705.38
427.18	740.38
427.402	917.38
427.625	999.38
427.847	871.38
428.069	746.38
428.292	689.38
428.514	604.38
428.736	615.38
428.958	620.38
429.181	587.38
429.403	565.38
429.625	585.38
429.847	631.38
430.069	721.38
430.292	683.38
430.514	611.38
430.736	596.38
430.958	567.38
431.18	558.38
431.402	571.38
431.624	563.38
431.846	536.38
432.068	542.38
432.29	543.38
432.512	542.38
432.734	560.38
432.956	539.38
433.178	569.38
433.4	568.38
433.622	555.38
433.844	553.38
434.066	547.38
434.287	564.38
434.509	557.38
434.731	571.38
434.953	561.38
435.175	622.38
435.397	635.38
435.618	640.38
435.84	676.38
436.062	770.38
436.284	873.38
436.505	693.38
436.727	648.38
436.949	613.38
437.17	584.38
437.392	548.38
437.614	593.38
437.835	619.38
438.057	733.38
438.278	865.38
438.5	848.38
438.721	923.38
438.943	906.38
439.165	733.38
439.386	643.38
439.608	636.38
439.829	639.38
440.05	667.38
440.272	708.38
440.493	667.38
440.715	599.38
440.936	583.38
441.158	603.38
441.379	583.38
441.6	612.38
441.822	619.38
442.043	631.38
442.264	760.38
442.486	838.38
442.707	700.38
442.928	616.38
443.149	628.38
443.371	664.38
443.592	725.38
443.813	807.38
444.034	904.38
444.255	719.38
444.476	672.38
444.698	643.38
444.919	641.38
445.14	744.38
445.361	729.38
445.582	716.38
445.803	761.38
446.024	889.38
446.245	865.38
446.466	816.38
446.687	652.38
446.908	607.38
447.129	613.38
447.35	583.38
447.571	564.38
447.792	579.38
448.013	573.38
448.234	597.38
448.455	664.38
448.675	779.38
448.896	901.38
449.117	791.38
449.338	709.38
449.559	849.38
449.779	972.38
450	744.38
450.221	631.38
450.442	576.38
450.662	587.38
450.883	560.38
451.104	587.38
451.324	577.38
451.545	535.38
451.766	527.38
451.986	519.38
452.207	508.38
452.428	501.38
452.648	494.38
452.869	511.38
453.089	517.38
453.31	523.38
453.53	525.38
453.751	532.38
453.971	545.38
454.192	538.38
454.412	534.38
454.633	495.38
454.853	522.38
455.073	503.38
455.294	537.38
455.514	611.38
455.734	606.38
455.955	525.38
456.175	489.38
456.395	485.38
456.616	508.38
456.836	481.38
457.056	484.38
457.276	467.38
457.497	516.38
457.717	499.38
457.937	519.38
458.157	500.38
458.377	504.38
458.598	529.38
458.818	591.38
459.038	691.38
459.258	709.38
459.478	617.38
459.698	572.38
459.918	553.38
460.138	550.38
460.358	570.38
460.578	557.38
460.798	568.38
461.018	579.38
461.238	585.38
461.458	581.38
461.678	552.38
461.898	573.38
462.118	559.38
462.338	596.38
462.558	579.38
462.777	601.38
462.997	602.38
463.217	617.38
463.437	631.38
463.657	611.38
463.876	620.38
464.096	602.38
464.316	601.38
464.536	622.38
464.755	602.38
464.975	621.38
465.195	615.38
465.414	719.38
465.634	639.38
465.854	576.38
466.073	559.38
466.293	547.38
466.512	547.38
466.732	539.38
466.951	553.38
467.171	551.38
467.391	555.38
467.61	536.38
467.829	544.38
468.049	550.38
468.268	545.38
468.488	518.38
468.707	539.38
468.927	516.38
469.146	520.38
469.365	511.38
469.585	528.38
469.804	525.38
470.023	563.38
470.243	527.38
470.462	541.38
470.681	574.38
470.901	559.38
471.12	534.38
471.339	544.38
471.558	526.38
471.777	536.38
471.997	519.38
472.216	569.38
472.435	595.38
472.654	568.38
472.873	552.38
473.092	556.38
473.311	530.38
473.53	548.38
473.749	549.38
473.968	590.38
474.187	755.38
474.406	714.38
474.625	592.38
474.844	558.38
475.063	573.38
475.282	557.38
475.501	530.38
475.72	560.38
475.939	561.38
476.158	554.38
476.377	554.38
476.596	555.38
476.814	572.38
477.033	575.38
477.252	563.38
477.471	580.38
477.69	577.38
477.908	597.38
478.127	594.38
478.346	583.38
478.564	613.38
478.783	613.38
479.002	618.38
479.22	593.38
479.439	627.38
479.658	643.38
479.876	656.38
480.095	677.38
480.313	709.38
480.532	680.38
480.751	671.38
480.969	702.38
481.188	750.38
481.406	785.38
481.624	705.38
481.843	681.38
482.061	667.38
482.28	651.38
482.498	654.38
482.717	640.38
482.935	650.38
483.153	638.38
483.372	640.38
483.59	648.38
483.808	648.38
484.027	625.38
484.245	659.38
484.463	669.38
484.681	638.38
484.9	655.38
485.118	661.38
485.336	654.38
485.554	650.38
485.772	685.38
485.99	695.38
486.209	677.38
486.427	666.38
486.645	687.38
486.863	734.38
487.081	683.38
487.299	702.38
487.517	699.38
487.735	683.38
487.953	676.38
488.171	703.38
488.389	656.38
488.607	681.38
488.825	708.38
489.043	705.38
489.261	696.38
489.479	703.38
489.696	707.38
489.914	702.38
490.132	722.38
490.35	716.38
490.568	730.38
490.786	735.38
491.003	731.38
491.221	754.38
491.439	760.38
491.657	760.38
491.874	772.38
492.092	785.38
492.31	773.38
492.527	805.38
492.745	810.38
492.963	828.38
493.18	802.38
493.398	803.38
493.615	848.38
493.833	816.38
494.05	803.38
494.268	823.38
494.485	797.38
494.703	807.38
494.92	829.38
495.138	831.38
495.355	804.38
495.573	826.38
495.79	829.38
496.008	841.38
496.225	832.38
496.442	836.38
496.66	849.38
496.877	804.38
497.094	814.38
497.312	834.38
497.529	847.38
497.746	865.38
497.963	857.38
498.181	865.38
498.398	873.38
498.615	924.38
498.832	935.38
499.049	959.38
499.267	960.38
499.484	1008.38
499.701	1055.38
499.918	1057.38
500.135	1111.38
500.352	1153.38
500.569	1147.38
500.786	1183.38
501.003	1173.38
501.22	1161.38
501.437	1121.38
501.654	1058.38
501.871	1061.38
502.088	1001.38
502.305	980.38
502.522	956.38
502.739	929.38
502.956	851.38
503.172	862.38
503.389	870.38
503.606	872.38
503.823	844.38
504.04	840.38
504.256	830.38
504.473	826.38
504.69	823.38
504.907	829.38
505.123	817.38
505.34	821.38
505.557	796.38
505.773	793.38
505.99	778.38
506.207	771.38
506.423	779.38
506.64	771.38
506.856	761.38
507.073	790.38
507.289	737.38
507.506	745.38
507.722	755.38
507.939	771.38
508.155	751.38
508.372	738.38
508.588	727.38
508.805	735.38
509.021	717.38
509.238	758.38
509.454	744.38
509.67	745.38
509.887	736.38
510.103	725.38
510.319	731.38
510.536	806.38
510.752	1287.38
510.968	1087.38
511.184	757.38
511.401	727.38
511.617	721.38
511.833	712.38
512.049	709.38
512.265	723.38
512.481	705.38
512.698	691.38
512.914	719.38
513.13	694.38
513.346	688.38
513.562	711.38
513.778	688.38
513.994	685.38
514.21	708.38
514.426	733.38
514.642	783.38
514.858	787.38
515.074	832.38
515.29	955.38
515.506	1336.38
515.721	1135.38
515.937	833.38
516.153	772.38
516.369	724.38
516.585	729.38
516.801	730.38
517.016	734.38
517.232	732.38
517.448	732.38
517.664	705.38
517.879	724.38
518.095	718.38
518.311	716.38
518.527	703.38
518.742	721.38
518.958	706.38
519.173	699.38
519.389	691.38
519.605	707.38
519.82	697.38
520.036	704.38
520.251	717.38
520.467	767.38
520.682	744.38
520.898	750.38
521.113	750.38
521.329	792.38
521.544	855.38
521.76	1098.38
521.975	1704.38
522.19	1704.38
522.406	977.38
522.621	748.38
522.836	715.38
523.052	657.38
523.267	673.38
523.482	647.38
523.698	637.38
523.913	604.38
524.128	635.38
524.343	635.38
524.559	618.38
524.774	611.38
524.989	612.38
525.204	615.38
525.419	617.38
525.634	581.38
525.849	583.38
526.064	591.38
526.28	572.38
526.495	587.38
526.71	558.38
526.925	582.38
527.14	568.38
527.355	599.38
527.57	564.38
527.785	571.38
527.999	593.38
528.214	559.38
528.429	572.38
528.644	576.38
528.859	566.38
529.074	563.38
529.289	622.38
529.503	674.38
529.718	654.38
529.933	608.38
530.148	585.38
530.363	557.38
530.577	568.38
530.792	581.38
531.007	553.38
531.221	563.38
531.436	543.38
531.651	540.38
531.865	553.38
532.08	589.38
532.295	570.38
532.509	536.38
532.724	547.38
532.938	540.38
533.153	530.38
533.367	528.38
533.582	567.38
533.796	538.38
534.011	567.38
534.225	535.38
534.44	523.38
534.654	558.38
534.868	536.38
535.083	523.38
535.297	557.38
535.511	552.38
535.726	534.38
535.94	567.38
536.154	535.38
536.369	549.38
536.583	512.38
536.797	516.38
537.011	535.38
537.225	536.38
537.44	525.38
537.654	500.38
537.868	543.38
538.082	516.38
538.296	507.38
538.51	531.38
538.724	537.38
538.938	525.38
539.153	535.38
539.367	543.38
539.581	542.38
539.795	511.38
540.009	514.38
540.222	508.38
540.436	528.38
540.65	522.38
540.864	541.38
541.078	523.38
541.292	545.38
541.506	510.38
541.72	524.38
541.934	512.38
542.147	495.38
542.361	523.38
542.575	512.38
542.789	523.38
543.002	495.38
543.216	525.38
543.43	513.38
543.644	506.38
543.857	515.38
544.071	534.38
544.285	507.38
544.498	508.38
544.712	491.38
544.925	517.38
545.139	520.38
545.352	504.38
545.566	511.38
545.779	488.38
545.993	503.38
546.206	515.38
546.42	516.38
546.633	516.38
546.847	522.38
547.06	498.38
547.274	493.38
547.487	511.38
547.7	475.38
547.914	495.38
548.127	486.38
548.34	512.38
548.554	489.38
548.767	499.38
548.98	525.38
549.193	517.38
549.407	510.38
549.62	490.38
549.833	492.38
550.046	489.38
550.259	478.38
550.473	501.38
550.686	478.38
550.899	488.38
551.112	481.38
551.325	492.38
551.538	479.38
551.751	485.38
551.964	475.38
552.177	487.38
552.39	473.38
552.603	510.38
552.816	525.38
553.029	491.38
553.242	499.38
553.455	511.38
553.667	525.38
553.88	529.38
554.093	528.38
554.306	513.38
554.519	488.38
554.732	503.38
554.944	479.38
555.157	462.38
555.37	486.38
555.583	476.38
555.795	447.38
556.008	465.38
556.221	453.38
556.433	472.38
556.646	457.38
556.859	472.38
557.071	444.38
557.284	466.38
557.496	440.38
557.709	454.38
557.921	462.38
558.134	451.38
558.346	448.38
558.559	443.38
558.771	453.38
558.984	447.38
559.196	441.38
559.409	437.38
559.621	439.38
559.833	448.38
560.046	437.38
560.258	447.38
560.47	454.38
560.683	453.38
560.895	432.38
561.107	443.38
561.32	435.38
561.532	442.38
561.744	438.38
561.956	429.38
562.168	441.38
562.381	469.38
562.593	447.38
562.805	471.38
563.017	444.38
563.229	449.38
563.441	441.38
563.653	445.38
563.865	453.38
564.077	437.38
564.289	447.38
564.501	472.38
564.713	463.38
564.925	486.38
565.137	483.38
565.349	505.38
565.561	473.38
565.773	475.38
565.985	499.38
566.197	484.38
566.408	499.38
566.62	548.38
566.832	547.38
567.044	565.38
567.255	569.38
567.467	559.38
567.679	571.38
567.891	613.38
568.102	588.38
568.314	576.38
568.526	538.38
568.737	526.38
568.949	527.38
569.161	505.38
569.372	471.38
569.584	461.38
569.795	465.38
570.007	468.38
570.218	503.38
570.43	484.38
570.641	444.38
570.853	444.38
571.064	463.38
571.276	435.38
571.487	439.38
571.698	446.38
571.91	409.38
572.121	430.38
572.333	413.38
572.544	404.38
572.755	402.38
572.966	400.38
573.178	398.38
573.389	405.38
573.6	391.38
573.811	396.38
574.023	415.38
574.234	383.38
574.445	393.38
574.656	380.38
574.867	380.38
575.078	396.38
575.289	384.38
575.501	391.38
575.712	402.38
575.923	390.38
576.134	373.38
576.345	344.38
576.556	385.38
576.767	375.38
576.978	374.38
577.188	383.38
577.399	378.38
577.61	365.38
577.821	371.38
578.032	377.38
578.243	416.38
578.454	604.38
578.665	458.38
578.875	369.38
579.086	369.38
579.297	368.38
579.508	372.38
579.718	373.38
579.929	365.38
580.14	365.38
580.35	364.38
580.561	341.38
580.772	335.38
580.982	339.38
581.193	340.38
581.403	351.38
581.614	340.38
581.825	352.38
582.035	347.38
582.246	357.38
582.456	353.38
582.667	331.38
582.877	349.38
583.087	355.38
583.298	361.38
583.508	352.38
583.719	341.38
583.929	325.38
584.139	350.38
584.35	361.38
584.56	327.38
584.77	329.38
584.981	346.38
585.191	349.38
585.401	360.38
585.611	355.38
585.821	355.38
586.032	357.38
586.242	335.38
586.452	350.38
586.662	343.38
586.872	360.38
587.082	357.38
587.292	326.38
587.502	335.38
587.713	325.38
587.923	342.38
588.133	333.38
588.343	343.38
588.553	325.38
588.762	333.38
588.972	319.38
589.182	315.38
589.392	328.38
589.602	337.38
589.812	343.38
590.022	332.38
590.232	321.38
590.441	329.38
590.651	336.38
590.861	321.38
591.071	340.38
591.281	345.38
591.49	352.38
591.7	355.38
591.91	347.38
592.119	352.38
592.329	349.38
592.539	350.38
592.748	333.38
592.958	341.38
593.167	342.38
593.377	372.38
593.587	361.38
593.796	360.38
594.006	360.38
594.215	336.38
594.424	350.38
594.634	341.38
594.843	332.38
595.053	355.38
595.262	355.38
595.472	325.38
595.681	323.38
595.89	329.38
596.1	319.38
596.309	321.38
596.518	350.38
596.727	335.38
596.937	316.38
597.146	308.38
597.355	316.38
597.564	310.38
597.774	312.38
597.983	314.38
598.192	300.38
598.401	303.38
598.61	321.38
598.819	304.38
599.028	298.38
599.237	307.38
599.446	302.38
599.655	286.38
599.864	318.38
600.073	295.38
600.282	301.38
600.491	294.38
600.7	314.38
600.909	295.38
601.118	310.38
601.327	282.38
601.536	293.38
601.745	294.38
601.953	280.38
602.162	283.38
602.371	272.38
602.58	289.38
602.789	271.38
602.997	287.38
603.206	296.38
603.415	282.38
603.623	283.38
603.832	279.38
604.041	274.38
604.249	281.38
604.458	284.38
604.666	295.38
604.875	277.38
605.084	279.38
605.292	286.38
605.501	291.38
605.709	282.38
605.918	275.38
606.126	290.38
606.334	279.38
606.543	268.38
606.751	265.38
606.96	261.38
607.168	274.38
607.376	272.38
607.585	269.38
607.793	275.38
608.001	281.38
608.21	279.38
608.418	272.38
608.626	269.38
608.834	279.38
609.043	280.38
609.251	258.38
609.459	257.38
609.667	259.38
609.875	267.38
610.083	279.38
610.291	256.38
610.499	263.38
610.707	270.38
610.916	276.38
611.124	286.38
611.332	285.38
611.54	261.38
611.748	264.38
611.955	287.38
612.163	276.38
612.371	265.38
612.579	262.38
612.787	288.38
612.995	283.38
613.203	274.38
613.411	265.38
613.618	261.38
613.826	268.38
614.034	267.38
614.242	262.38
614.449	263.38
614.657	248.38
614.865	268.38
615.072	266.38
615.28	264.38
615.488	270.38
615.695	267.38
615.903	262.38
616.111	253.38
616.318	275.38
616.526	268.38
616.733	258.38
616.941	268.38
617.148	251.38
617.356	248.38
617.563	266.38
617.771	251.38
617.978	237.38
618.185	262.38
618.393	255.38
618.6	249.38
618.807	263.38
619.015	275.38
619.222	271.38
619.429	261.38
619.637	263.38
619.844	253.38
620.051	263.38
620.258	254.38
620.466	235.38
620.673	240.38
620.88	259.38
621.087	243.38
621.294	258.38
621.501	260.38
621.708	250.38
621.915	249.38
622.122	246.38
622.329	224.38
622.536	232.38
622.743	253.38
622.95	247.38
623.157	245.38
623.364	244.38
623.571	236.38
623.778	227.38
623.985	247.38
624.192	253.38
624.399	217.38
624.606	243.38
624.812	240.38
625.019	239.38
625.226	246.38
625.433	237.38
625.639	234.38
625.846	234.38
626.053	240.38
626.259	232.38
626.466	237.38
626.673	230.38
626.879	224.38
627.086	223.38
627.293	223.38
627.499	229.38
627.706	218.38
627.912	223.38
628.119	224.38
628.325	235.38
628.532	228.38
628.738	208.38
628.945	220.38
629.151	208.38
629.357	215.38
629.564	221.38
629.77	212.38
629.976	245.38
630.183	212.38
630.389	190.38
630.595	222.38
630.802	209.38
631.008	215.38
631.214	231.38
631.42	225.38
631.627	222.38
631.833	230.38
632.039	203.38
632.245	204.38
632.451	218.38
632.657	200.38
632.863	217.38
633.069	205.38
633.275	222.38
633.481	205.38
633.688	193.38
633.893	193.38
634.099	190.38
634.305	208.38
634.511	200.38
634.717	217.38
634.923	199.38
635.129	195.38
635.335	213.38
635.541	208.38
635.747	187.38
635.952	208.38
636.158	189.38
636.364	185.38
636.57	211.38
636.775	218.38
636.981	208.38
637.187	217.38
637.392	211.38
637.598	186.38
637.804	211.38
638.009	203.38
638.215	203.38
638.421	180.38
638.626	193.38
638.832	198.38
639.037	187.38
639.243	205.38
639.448	193.38
639.654	201.38
639.859	187.38
640.065	201.38
640.27	183.38
640.475	179.38
640.681	192.38
640.886	197.38
641.091	207.38
641.297	192.38
641.502	192.38
641.707	191.38
641.913	175.38
642.118	175.38
642.323	182.38
642.528	185.38
642.733	171.38
642.939	192.38
643.144	179.38
643.349	193.38
643.554	184.38
643.759	183.38
643.964	156.38
644.169	187.38
644.374	166.38
644.579	195.38
644.784	185.38
644.989	190.38
645.194	173.38
645.399	184.38
645.604	168.38
645.809	162.38
646.014	192.38
646.219	179.38
646.423	180.38
646.628	168.38
646.833	163.38
647.038	173.38
647.243	177.38
647.447	193.38
647.652	189.38
647.857	180.38
648.062	171.38
648.266	193.38
648.471	186.38
648.676	185.38
648.88	190.38
649.085	194.38
649.289	179.38
649.494	190.38
649.698	224.38
649.903	210.38
650.107	181.38
650.312	186.38
650.516	178.38
650.721	175.38
650.925	161.38
651.13	165.38
651.334	167.38
651.539	163.38
651.743	166.38
651.947	162.38
652.152	167.38
652.356	159.38
652.56	152.38
652.764	141.38
652.969	152.38
653.173	154.38
653.377	143.38
653.581	129.38
653.785	135.38
653.99	140.38
654.194	141.38
654.398	161.38
654.602	158.38
654.806	149.38
655.01	150.38
655.214	157.38
655.418	150.38
655.622	140.38
655.826	160.38
656.03	137.38
656.234	148.38
656.438	146.38
656.642	145.38
656.846	148.38
657.049	133.38
657.253	141.38
657.457	125.38
657.661	134.38
657.865	131.38
658.068	122.38
658.272	127.38
658.476	129.38
658.68	101.38
658.883	119.38
659.087	101.38
659.291	105.38
659.494	92.38
659.698	95.38
659.901	104.38
660.105	101.38
660.309	90.38
660.512	95.38
660.716	107.38
660.919	94.38
661.123	98.38
661.326	90.38
661.53	116.38
661.733	94.38
661.936	97.38
662.14	70.38
662.343	76.38
662.546	78.38
662.75	84.38
662.953	92.38
663.156	89.38
663.36	95.38
663.563	87.38
663.766	76.38
663.969	84.38
664.173	79.38
664.376	84.38
664.579	85.38
664.782	98.38
664.985	77.38
665.188	94.38
665.391	89.38
665.594	87.38
665.797	96.38
666	85.38
666.203	85.38
666.406	90.38
666.609	65.38
666.812	76.38
667.015	86.38
667.218	85.38
667.421	85.38
667.624	85.38
667.827	85.38
668.03	85.38
668.232	68.38
668.435	92.38
668.638	85.38
668.841	81.38
669.043	63.38
669.246	95.38
669.449	86.38
669.651	68.38
669.854	87.38
670.057	77.38
670.259	71.38
670.462	81.38
670.665	76.38
670.867	79.38
671.07	95.38
671.272	77.38
671.475	73.38
671.677	71.38
671.88	92.38
672.082	77.38
672.284	79.38
672.487	79.38
672.689	85.38
672.892	86.38
