Data from 1966.PennyLincolnUp.Lamp.En5.5.200Scan.071719.P1.Scan2.head_HRD10591_14-17-30-113.txt Node
Date: Thu Jul 18 14:17:30 EDT 2019
User: cochatt
Spectrometer: HR+D1059
Trigger mode: 1
Integration Time (sec): 1.000000E-1
Scans to average: 1
Electric dark correction enabled: true
Nonlinearity correction enabled: false
Boxcar width: 0
XAxis mode: Wavelengths
Number of Pixels in Spectrum: 2048
>>>>>Begin Spectral Data<<<<<
223.165	-11.25
223.4	-11.25
223.635	-11.25
223.869	-18.25
224.104	-15.25
224.338	-15.25
224.573	-17.25
224.808	-6.25
225.042	2.75
225.277	-15.25
225.511	3.75
225.746	0.75
225.98	5.75
226.215	8.75
226.449	13.75
226.683	5.75
226.918	26.75
227.152	30.75
227.387	41.75
227.621	28.75
227.856	42.75
228.09	24.75
228.324	43.75
228.559	51.75
228.793	53.75
229.027	88.75
229.262	101.75
229.496	108.75
229.73	129.75
229.964	142.75
230.199	126.75
230.433	110.75
230.667	106.75
230.901	93.75
231.136	90.75
231.37	113.75
231.604	106.75
231.838	114.75
232.072	104.75
232.306	117.75
232.541	122.75
232.775	120.75
233.009	101.75
233.243	110.75
233.477	125.75
233.711	109.75
233.945	120.75
234.179	107.75
234.413	112.75
234.647	117.75
234.881	112.75
235.115	104.75
235.349	118.75
235.583	124.75
235.817	110.75
236.051	109.75
236.285	126.75
236.519	118.75
236.753	125.75
236.987	127.75
237.221	168.75
237.455	227.75
237.689	186.75
237.922	128.75
238.156	103.75
238.39	136.75
238.624	118.75
238.858	123.75
239.091	123.75
239.325	112.75
239.559	118.75
239.793	119.75
240.027	131.75
240.26	146.75
240.494	142.75
240.728	154.75
240.961	140.75
241.195	141.75
241.429	138.75
241.662	144.75
241.896	124.75
242.13	122.75
242.363	139.75
242.597	128.75
242.83	138.75
243.064	135.75
243.298	145.75
243.531	156.75
243.765	146.75
243.998	133.75
244.232	138.75
244.465	132.75
244.699	144.75
244.932	148.75
245.166	146.75
245.399	148.75
245.633	137.75
245.866	143.75
246.099	141.75
246.333	134.75
246.566	139.75
246.8	154.75
247.033	141.75
247.266	145.75
247.5	161.75
247.733	162.75
247.966	171.75
248.2	155.75
248.433	158.75
248.666	158.75
248.899	179.75
249.133	180.75
249.366	193.75
249.599	187.75
249.832	186.75
250.066	171.75
250.299	168.75
250.532	182.75
250.765	197.75
250.998	212.75
251.231	206.75
251.465	212.75
251.698	190.75
251.931	183.75
252.164	194.75
252.397	177.75
252.63	169.75
252.863	206.75
253.096	203.75
253.329	204.75
253.562	218.75
253.795	212.75
254.028	188.75
254.261	205.75
254.494	225.75
254.727	229.75
254.96	273.75
255.193	236.75
255.426	235.75
255.659	217.75
255.892	226.75
256.124	227.75
256.357	230.75
256.59	226.75
256.823	198.75
257.056	180.75
257.289	193.75
257.521	196.75
257.754	197.75
257.987	192.75
258.22	213.75
258.452	200.75
258.685	201.75
258.918	216.75
259.151	218.75
259.383	211.75
259.616	215.75
259.849	234.75
260.081	215.75
260.314	238.75
260.547	246.75
260.779	232.75
261.012	224.75
261.244	215.75
261.477	217.75
261.71	213.75
261.942	221.75
262.175	229.75
262.407	231.75
262.64	212.75
262.872	188.75
263.105	207.75
263.337	220.75
263.57	190.75
263.802	216.75
264.035	223.75
264.267	218.75
264.499	210.75
264.732	201.75
264.964	204.75
265.197	204.75
265.429	212.75
265.661	202.75
265.894	225.75
266.126	205.75
266.358	213.75
266.591	214.75
266.823	219.75
267.055	212.75
267.287	230.75
267.52	212.75
267.752	212.75
267.984	202.75
268.216	211.75
268.448	214.75
268.681	213.75
268.913	232.75
269.145	238.75
269.377	274.75
269.609	256.75
269.841	241.75
270.073	264.75
270.306	262.75
270.538	281.75
270.77	288.75
271.002	294.75
271.234	281.75
271.466	279.75
271.698	294.75
271.93	281.75
272.162	302.75
272.394	298.75
272.626	281.75
272.858	274.75
273.09	238.75
273.322	264.75
273.553	250.75
273.785	266.75
274.017	248.75
274.249	253.75
274.481	269.75
274.713	249.75
274.945	237.75
275.176	260.75
275.408	248.75
275.64	253.75
275.872	246.75
276.104	262.75
276.335	269.75
276.567	251.75
276.799	261.75
277.031	304.75
277.262	299.75
277.494	312.75
277.726	286.75
277.957	260.75
278.189	282.75
278.421	267.75
278.652	270.75
278.884	259.75
279.115	244.75
279.347	265.75
279.579	247.75
279.81	253.75
280.042	258.75
280.273	264.75
280.505	263.75
280.736	268.75
280.968	274.75
281.199	248.75
281.431	257.75
281.662	260.75
281.894	273.75
282.125	254.75
282.356	288.75
282.588	284.75
282.819	290.75
283.051	266.75
283.282	248.75
283.513	261.75
283.745	265.75
283.976	270.75
284.207	265.75
284.439	276.75
284.67	252.75
284.901	282.75
285.132	285.75
285.364	262.75
285.595	271.75
285.826	273.75
286.057	270.75
286.288	276.75
286.52	253.75
286.751	260.75
286.982	262.75
287.213	261.75
287.444	276.75
287.675	270.75
287.906	272.75
288.138	280.75
288.369	280.75
288.6	288.75
288.831	283.75
289.062	293.75
289.293	292.75
289.524	270.75
289.755	291.75
289.986	292.75
290.217	246.75
290.448	282.75
290.679	283.75
290.91	267.75
291.141	271.75
291.371	278.75
291.602	286.75
291.833	275.75
292.064	284.75
292.295	299.75
292.526	281.75
292.757	281.75
292.987	288.75
293.218	265.75
293.449	280.75
293.68	307.75
293.91	285.75
294.141	280.75
294.372	280.75
294.603	287.75
294.833	288.75
295.064	282.75
295.295	273.75
295.525	285.75
295.756	287.75
295.987	281.75
296.217	296.75
296.448	312.75
296.679	301.75
296.909	293.75
297.14	289.75
297.37	302.75
297.601	290.75
297.831	290.75
298.062	290.75
298.292	288.75
298.523	283.75
298.753	313.75
298.984	305.75
299.214	312.75
299.445	296.75
299.675	314.75
299.905	325.75
300.136	322.75
300.366	310.75
300.597	301.75
300.827	304.75
301.057	307.75
301.288	316.75
301.518	322.75
301.748	326.75
301.979	285.75
302.209	314.75
302.439	312.75
302.669	331.75
302.9	321.75
303.13	324.75
303.36	327.75
303.59	319.75
303.82	321.75
304.051	336.75
304.281	324.75
304.511	326.75
304.741	321.75
304.971	315.75
305.201	312.75
305.431	313.75
305.661	317.75
305.891	322.75
306.121	334.75
306.352	345.75
306.582	324.75
306.812	323.75
307.042	318.75
307.272	318.75
307.502	328.75
307.731	318.75
307.961	331.75
308.191	315.75
308.421	328.75
308.651	352.75
308.881	320.75
309.111	320.75
309.341	344.75
309.571	313.75
309.8	351.75
310.03	343.75
310.26	347.75
310.49	333.75
310.72	380.75
310.949	368.75
311.179	377.75
311.409	354.75
311.639	340.75
311.868	372.75
312.098	365.75
312.328	360.75
312.557	361.75
312.787	383.75
313.017	383.75
313.246	350.75
313.476	357.75
313.706	363.75
313.935	376.75
314.165	380.75
314.394	381.75
314.624	374.75
314.853	370.75
315.083	346.75
315.312	354.75
315.542	359.75
315.771	362.75
316.001	360.75
316.23	343.75
316.46	361.75
316.689	341.75
316.919	358.75
317.148	358.75
317.377	384.75
317.607	377.75
317.836	370.75
318.065	360.75
318.295	341.75
318.524	349.75
318.753	352.75
318.983	366.75
319.212	378.75
319.441	370.75
319.67	374.75
319.9	369.75
320.129	351.75
320.358	354.75
320.587	387.75
320.816	376.75
321.046	384.75
321.275	384.75
321.504	364.75
321.733	396.75
321.962	395.75
322.191	387.75
322.42	420.75
322.649	418.75
322.878	441.75
323.108	442.75
323.337	441.75
323.566	463.75
323.795	477.75
324.024	537.75
324.253	607.75
324.482	866.75
324.71	1318.75
324.939	1986.75
325.168	1734.75
325.397	888.75
325.626	584.75
325.855	520.75
326.084	500.75
326.313	479.75
326.542	477.75
326.77	518.75
326.999	609.75
327.228	789.75
327.457	1184.75
327.686	1499.75
327.914	973.75
328.143	648.75
328.372	556.75
328.6	548.75
328.829	506.75
329.058	525.75
329.287	538.75
329.515	496.75
329.744	499.75
329.972	482.75
330.201	493.75
330.43	518.75
330.658	542.75
330.887	572.75
331.115	569.75
331.344	486.75
331.572	469.75
331.801	478.75
332.03	451.75
332.258	430.75
332.486	427.75
332.715	433.75
332.943	460.75
333.172	436.75
333.4	444.75
333.629	451.75
333.857	460.75
334.085	477.75
334.314	476.75
334.542	539.75
334.771	530.75
334.999	479.75
335.227	458.75
335.455	444.75
335.684	446.75
335.912	452.75
336.14	428.75
336.369	421.75
336.597	427.75
336.825	421.75
337.053	416.75
337.281	432.75
337.51	424.75
337.738	423.75
337.966	413.75
338.194	435.75
338.422	432.75
338.65	420.75
338.878	420.75
339.106	413.75
339.334	430.75
339.562	425.75
339.79	409.75
340.018	415.75
340.246	412.75
340.474	436.75
340.702	414.75
340.93	442.75
341.158	416.75
341.386	402.75
341.614	433.75
341.842	420.75
342.07	405.75
342.298	416.75
342.526	421.75
342.754	401.75
342.981	396.75
343.209	396.75
343.437	412.75
343.665	421.75
343.893	432.75
344.12	430.75
344.348	440.75
344.576	443.75
344.804	438.75
345.031	437.75
345.259	448.75
345.487	430.75
345.714	435.75
345.942	413.75
346.17	441.75
346.397	414.75
346.625	416.75
346.853	405.75
347.08	399.75
347.308	384.75
347.535	431.75
347.763	432.75
347.99	421.75
348.218	431.75
348.445	420.75
348.673	405.75
348.9	432.75
349.128	406.75
349.355	409.75
349.583	400.75
349.81	402.75
350.037	392.75
350.265	402.75
350.492	415.75
350.72	395.75
350.947	381.75
351.174	433.75
351.402	443.75
351.629	432.75
351.856	412.75
352.083	428.75
352.311	438.75
352.538	420.75
352.765	421.75
352.992	429.75
353.22	415.75
353.447	407.75
353.674	399.75
353.901	411.75
354.128	374.75
354.355	392.75
354.583	400.75
354.81	407.75
355.037	404.75
355.264	395.75
355.491	398.75
355.718	382.75
355.945	397.75
356.172	380.75
356.399	395.75
356.626	382.75
356.853	399.75
357.08	387.75
357.307	392.75
357.534	397.75
357.761	388.75
357.988	381.75
358.215	407.75
358.441	376.75
358.668	383.75
358.895	378.75
359.122	405.75
359.349	420.75
359.576	426.75
359.802	423.75
360.029	461.75
360.256	449.75
360.483	460.75
360.709	413.75
360.936	414.75
361.163	414.75
361.39	448.75
361.616	412.75
361.843	406.75
362.07	412.75
362.296	437.75
362.523	434.75
362.749	432.75
362.976	407.75
363.203	412.75
363.429	399.75
363.656	390.75
363.882	399.75
364.109	410.75
364.335	404.75
364.562	411.75
364.788	418.75
365.015	406.75
365.241	414.75
365.468	406.75
365.694	422.75
365.92	423.75
366.147	410.75
366.373	396.75
366.599	395.75
366.826	391.75
367.052	385.75
367.278	395.75
367.505	383.75
367.731	400.75
367.957	396.75
368.184	407.75
368.41	416.75
368.636	428.75
368.862	418.75
369.089	426.75
369.315	417.75
369.541	395.75
369.767	395.75
369.993	392.75
370.219	396.75
370.445	416.75
370.672	411.75
370.898	401.75
371.124	424.75
371.35	394.75
371.576	411.75
371.802	419.75
372.028	419.75
372.254	428.75
372.48	396.75
372.706	398.75
372.932	418.75
373.158	396.75
373.384	423.75
373.61	402.75
373.835	416.75
374.061	401.75
374.287	405.75
374.513	406.75
374.739	426.75
374.965	418.75
375.191	428.75
375.416	403.75
375.642	422.75
375.868	426.75
376.094	423.75
376.319	424.75
376.545	408.75
376.771	390.75
376.997	420.75
377.222	418.75
377.448	409.75
377.674	391.75
377.899	428.75
378.125	421.75
378.35	441.75
378.576	424.75
378.802	407.75
379.027	412.75
379.253	432.75
379.478	412.75
379.704	422.75
379.929	420.75
380.155	393.75
380.38	409.75
380.606	407.75
380.831	433.75
381.057	407.75
381.282	429.75
381.507	414.75
381.733	435.75
381.958	448.75
382.184	428.75
382.409	419.75
382.634	413.75
382.86	421.75
383.085	445.75
383.31	414.75
383.535	428.75
383.761	438.75
383.986	437.75
384.211	428.75
384.436	443.75
384.662	444.75
384.887	434.75
385.112	451.75
385.337	446.75
385.562	462.75
385.787	461.75
386.013	467.75
386.238	494.75
386.463	471.75
386.688	456.75
386.913	464.75
387.138	459.75
387.363	457.75
387.588	451.75
387.813	470.75
388.038	452.75
388.263	444.75
388.488	460.75
388.713	430.75
388.938	470.75
389.163	470.75
389.387	474.75
389.612	459.75
389.837	461.75
390.062	452.75
390.287	454.75
390.512	465.75
390.736	476.75
390.961	459.75
391.186	462.75
391.411	466.75
391.636	476.75
391.86	471.75
392.085	487.75
392.31	486.75
392.534	473.75
392.759	470.75
392.984	452.75
393.208	462.75
393.433	488.75
393.658	486.75
393.882	469.75
394.107	467.75
394.331	459.75
394.556	446.75
394.78	462.75
395.005	472.75
395.229	445.75
395.454	492.75
395.678	492.75
395.903	475.75
396.127	503.75
396.352	524.75
396.576	500.75
396.801	481.75
397.025	512.75
397.249	501.75
397.474	517.75
397.698	491.75
397.922	520.75
398.147	525.75
398.371	519.75
398.595	516.75
398.82	538.75
399.044	534.75
399.268	536.75
399.492	596.75
399.717	652.75
399.941	660.75
400.165	684.75
400.389	673.75
400.613	606.75
400.837	553.75
401.062	546.75
401.286	560.75
401.51	555.75
401.734	546.75
401.958	550.75
402.182	530.75
402.406	542.75
402.63	564.75
402.854	553.75
403.078	554.75
403.302	551.75
403.526	576.75
403.75	568.75
403.974	560.75
404.198	551.75
404.422	559.75
404.645	558.75
404.869	572.75
405.093	592.75
405.317	633.75
405.541	692.75
405.765	620.75
405.988	589.75
406.212	589.75
406.436	606.75
406.66	620.75
406.883	605.75
407.107	636.75
407.331	673.75
407.555	754.75
407.778	698.75
408.002	663.75
408.226	615.75
408.449	628.75
408.673	621.75
408.896	653.75
409.12	690.75
409.344	648.75
409.567	599.75
409.791	574.75
410.014	573.75
410.238	565.75
410.461	551.75
410.685	586.75
410.908	572.75
411.132	610.75
411.355	636.75
411.578	617.75
411.802	563.75
412.025	564.75
412.249	597.75
412.472	579.75
412.695	611.75
412.919	619.75
413.142	581.75
413.365	545.75
413.589	561.75
413.812	540.75
414.035	548.75
414.258	525.75
414.482	545.75
414.705	537.75
414.928	533.75
415.151	538.75
415.374	530.75
415.597	531.75
415.821	514.75
416.044	530.75
416.267	540.75
416.49	516.75
416.713	517.75
416.936	537.75
417.159	520.75
417.382	540.75
417.605	550.75
417.828	534.75
418.051	557.75
418.274	540.75
418.497	535.75
418.72	531.75
418.943	517.75
419.166	517.75
419.389	570.75
419.611	563.75
419.834	574.75
420.057	583.75
420.28	549.75
420.503	533.75
420.726	566.75
420.948	577.75
421.171	594.75
421.394	648.75
421.617	558.75
421.839	560.75
422.062	567.75
422.285	563.75
422.507	619.75
422.73	681.75
422.953	668.75
423.175	602.75
423.398	572.75
423.621	549.75
423.843	586.75
424.066	586.75
424.288	571.75
424.511	612.75
424.733	633.75
424.956	702.75
425.178	715.75
425.401	715.75
425.623	746.75
425.846	648.75
426.068	588.75
426.291	596.75
426.513	581.75
426.735	607.75
426.958	650.75
427.18	718.75
427.402	840.75
427.625	922.75
427.847	786.75
428.069	714.75
428.292	637.75
428.514	605.75
428.736	572.75
428.958	535.75
429.181	546.75
429.403	540.75
429.625	568.75
429.847	572.75
430.069	662.75
430.292	662.75
430.514	576.75
430.736	548.75
430.958	546.75
431.18	526.75
431.402	520.75
431.624	534.75
431.846	498.75
432.068	505.75
432.29	507.75
432.512	510.75
432.734	530.75
432.956	536.75
433.178	524.75
433.4	530.75
433.622	524.75
433.844	522.75
434.066	523.75
434.287	545.75
434.509	507.75
434.731	530.75
434.953	567.75
435.175	579.75
435.397	570.75
435.618	570.75
435.84	640.75
436.062	733.75
436.284	789.75
436.505	641.75
436.727	601.75
436.949	573.75
437.17	558.75
437.392	546.75
437.614	560.75
437.835	609.75
438.057	681.75
438.278	787.75
438.5	802.75
438.721	896.75
438.943	826.75
439.165	691.75
439.386	609.75
439.608	597.75
439.829	598.75
440.05	580.75
440.272	668.75
440.493	640.75
440.715	586.75
440.936	552.75
441.158	556.75
441.379	548.75
441.6	564.75
441.822	599.75
442.043	612.75
442.264	714.75
442.486	740.75
442.707	652.75
442.928	610.75
443.149	628.75
443.371	630.75
443.592	667.75
443.813	766.75
444.034	846.75
444.255	705.75
444.476	601.75
444.698	617.75
444.919	593.75
445.14	706.75
445.361	610.75
445.582	646.75
445.803	706.75
446.024	816.75
446.245	809.75
446.466	710.75
446.687	614.75
446.908	603.75
447.129	567.75
447.35	554.75
447.571	526.75
447.792	533.75
448.013	530.75
448.234	568.75
448.455	613.75
448.675	734.75
448.896	860.75
449.117	739.75
449.338	666.75
449.559	775.75
449.779	892.75
450	692.75
450.221	600.75
450.442	542.75
450.662	518.75
450.883	520.75
451.104	559.75
451.324	550.75
451.545	520.75
451.766	506.75
451.986	490.75
452.207	482.75
452.428	475.75
452.648	485.75
452.869	493.75
453.089	494.75
453.31	503.75
453.53	494.75
453.751	487.75
453.971	495.75
454.192	488.75
454.412	492.75
454.633	473.75
454.853	453.75
455.073	455.75
455.294	520.75
455.514	574.75
455.734	574.75
455.955	490.75
456.175	480.75
456.395	456.75
456.616	448.75
456.836	446.75
457.056	471.75
457.276	459.75
457.497	469.75
457.717	462.75
457.937	461.75
458.157	484.75
458.377	475.75
458.598	499.75
458.818	574.75
459.038	636.75
459.258	643.75
459.478	601.75
459.698	539.75
459.918	493.75
460.138	497.75
460.358	537.75
460.578	535.75
460.798	516.75
461.018	541.75
461.238	528.75
461.458	550.75
461.678	529.75
461.898	533.75
462.118	544.75
462.338	571.75
462.558	564.75
462.777	552.75
462.997	588.75
463.217	625.75
463.437	578.75
463.657	576.75
463.876	569.75
464.096	576.75
464.316	563.75
464.536	571.75
464.755	577.75
464.975	576.75
465.195	610.75
465.414	670.75
465.634	590.75
465.854	557.75
466.073	533.75
466.293	486.75
466.512	521.75
466.732	504.75
466.951	525.75
467.171	511.75
467.391	492.75
467.61	514.75
467.829	531.75
468.049	533.75
468.268	509.75
468.488	487.75
468.707	459.75
468.927	484.75
469.146	497.75
469.365	480.75
469.585	484.75
469.804	508.75
470.023	536.75
470.243	483.75
470.462	518.75
470.681	520.75
470.901	508.75
471.12	515.75
471.339	501.75
471.558	522.75
471.777	532.75
471.997	509.75
472.216	518.75
472.435	550.75
472.654	529.75
472.873	515.75
473.092	488.75
473.311	495.75
473.53	506.75
473.749	517.75
473.968	568.75
474.187	640.75
474.406	680.75
474.625	571.75
474.844	532.75
475.063	537.75
475.282	513.75
475.501	506.75
475.72	528.75
475.939	525.75
476.158	526.75
476.377	514.75
476.596	522.75
476.814	526.75
477.033	561.75
477.252	528.75
477.471	548.75
477.69	535.75
477.908	541.75
478.127	569.75
478.346	580.75
478.564	555.75
478.783	562.75
479.002	585.75
479.22	598.75
479.439	604.75
479.658	630.75
479.876	616.75
480.095	609.75
480.313	650.75
480.532	611.75
480.751	636.75
480.969	646.75
481.188	691.75
481.406	728.75
481.624	626.75
481.843	627.75
482.061	610.75
482.28	639.75
482.498	618.75
482.717	615.75
482.935	603.75
483.153	606.75
483.372	604.75
483.59	565.75
483.808	592.75
484.027	597.75
484.245	600.75
484.463	600.75
484.681	632.75
484.9	592.75
485.118	612.75
485.336	611.75
485.554	598.75
485.772	611.75
485.99	626.75
486.209	628.75
486.427	628.75
486.645	644.75
486.863	669.75
487.081	658.75
487.299	634.75
487.517	651.75
487.735	643.75
487.953	638.75
488.171	646.75
488.389	647.75
488.607	648.75
488.825	663.75
489.043	653.75
489.261	648.75
489.479	636.75
489.696	635.75
489.914	658.75
490.132	688.75
490.35	677.75
490.568	684.75
490.786	690.75
491.003	699.75
491.221	732.75
491.439	702.75
491.657	732.75
491.874	719.75
492.092	746.75
492.31	730.75
492.527	732.75
492.745	749.75
492.963	748.75
493.18	769.75
493.398	747.75
493.615	767.75
493.833	748.75
494.05	766.75
494.268	749.75
494.485	749.75
494.703	762.75
494.92	756.75
495.138	756.75
495.355	746.75
495.573	762.75
495.79	775.75
496.008	795.75
496.225	763.75
496.442	769.75
496.66	782.75
496.877	760.75
497.094	772.75
497.312	782.75
497.529	796.75
497.746	787.75
497.963	824.75
498.181	866.75
498.398	857.75
498.615	861.75
498.832	880.75
499.049	884.75
499.267	913.75
499.484	970.75
499.701	955.75
499.918	1001.75
500.135	1053.75
500.352	1106.75
500.569	1129.75
500.786	1120.75
501.003	1084.75
501.22	1080.75
501.437	1061.75
501.654	1006.75
501.871	1010.75
502.088	964.75
502.305	908.75
502.522	898.75
502.739	853.75
502.956	847.75
503.172	846.75
503.389	830.75
503.606	828.75
503.823	805.75
504.04	786.75
504.256	782.75
504.473	780.75
504.69	796.75
504.907	790.75
505.123	762.75
505.34	762.75
505.557	755.75
505.773	752.75
505.99	743.75
506.207	743.75
506.423	738.75
506.64	726.75
506.856	689.75
507.073	710.75
507.289	712.75
507.506	698.75
507.722	707.75
507.939	728.75
508.155	726.75
508.372	700.75
508.588	666.75
508.805	682.75
509.021	675.75
509.238	700.75
509.454	683.75
509.67	700.75
509.887	688.75
510.103	692.75
510.319	670.75
510.536	773.75
510.752	1189.75
510.968	990.75
511.184	704.75
511.401	667.75
511.617	651.75
511.833	649.75
512.049	647.75
512.265	633.75
512.481	654.75
512.698	652.75
512.914	659.75
513.13	664.75
513.346	633.75
513.562	628.75
513.778	630.75
513.994	669.75
514.21	672.75
514.426	678.75
514.642	695.75
514.858	747.75
515.074	749.75
515.29	871.75
515.506	1222.75
515.721	1060.75
515.937	747.75
516.153	716.75
516.369	686.75
516.585	688.75
516.801	672.75
517.016	689.75
517.232	693.75
517.448	695.75
517.664	708.75
517.879	709.75
518.095	705.75
518.311	674.75
518.527	668.75
518.742	670.75
518.958	695.75
519.173	648.75
519.389	657.75
519.605	659.75
519.82	666.75
520.036	650.75
520.251	684.75
520.467	699.75
520.682	692.75
520.898	693.75
521.113	695.75
521.329	725.75
521.544	830.75
521.76	972.75
521.975	1517.75
522.19	1467.75
522.406	865.75
522.621	720.75
522.836	687.75
523.052	626.75
523.267	612.75
523.482	585.75
523.698	594.75
523.913	594.75
524.128	597.75
524.343	588.75
524.559	574.75
524.774	545.75
524.989	552.75
525.204	569.75
525.419	554.75
525.634	554.75
525.849	567.75
526.064	557.75
526.28	553.75
526.495	556.75
526.71	535.75
526.925	535.75
527.14	546.75
527.355	533.75
527.57	534.75
527.785	565.75
527.999	552.75
528.214	562.75
528.429	577.75
528.644	536.75
528.859	526.75
529.074	538.75
529.289	549.75
529.503	595.75
529.718	600.75
529.933	566.75
530.148	548.75
530.363	545.75
530.577	530.75
530.792	537.75
531.007	515.75
531.221	542.75
531.436	526.75
531.651	507.75
531.865	516.75
532.08	506.75
532.295	518.75
532.509	522.75
532.724	521.75
532.938	523.75
533.153	527.75
533.367	501.75
533.582	517.75
533.796	520.75
534.011	524.75
534.225	529.75
534.44	506.75
534.654	510.75
534.868	517.75
535.083	514.75
535.297	529.75
535.511	520.75
535.726	510.75
535.94	514.75
536.154	521.75
536.369	493.75
536.583	495.75
536.797	494.75
537.011	487.75
537.225	508.75
537.44	504.75
537.654	500.75
537.868	496.75
538.082	497.75
538.296	492.75
538.51	514.75
538.724	489.75
538.938	496.75
539.153	502.75
539.367	519.75
539.581	488.75
539.795	491.75
540.009	470.75
540.222	500.75
540.436	493.75
540.65	504.75
540.864	491.75
541.078	492.75
541.292	504.75
541.506	478.75
541.72	482.75
541.934	497.75
542.147	482.75
542.361	474.75
542.575	503.75
542.789	482.75
543.002	510.75
543.216	497.75
543.43	492.75
543.644	480.75
543.857	493.75
544.071	477.75
544.285	515.75
544.498	492.75
544.712	491.75
544.925	490.75
545.139	507.75
545.352	478.75
545.566	490.75
545.779	461.75
545.993	449.75
546.206	482.75
546.42	484.75
546.633	502.75
546.847	484.75
547.06	469.75
547.274	488.75
547.487	493.75
547.7	487.75
547.914	469.75
548.127	459.75
548.34	481.75
548.554	496.75
548.767	472.75
548.98	473.75
549.193	455.75
549.407	477.75
549.62	472.75
549.833	462.75
550.046	443.75
550.259	449.75
550.473	478.75
550.686	476.75
550.899	463.75
551.112	464.75
551.325	452.75
551.538	453.75
551.751	469.75
551.964	481.75
552.177	475.75
552.39	484.75
552.603	491.75
552.816	477.75
553.029	485.75
553.242	472.75
553.455	476.75
553.667	479.75
553.88	506.75
554.093	482.75
554.306	485.75
554.519	463.75
554.732	459.75
554.944	448.75
555.157	469.75
555.37	456.75
555.583	452.75
555.795	471.75
556.008	459.75
556.221	451.75
556.433	437.75
556.646	430.75
556.859	456.75
557.071	444.75
557.284	443.75
557.496	440.75
557.709	439.75
557.921	427.75
558.134	427.75
558.346	424.75
558.559	418.75
558.771	445.75
558.984	437.75
559.196	412.75
559.409	436.75
559.621	411.75
559.833	415.75
560.046	423.75
560.258	416.75
560.47	413.75
560.683	430.75
560.895	420.75
561.107	416.75
561.32	419.75
561.532	417.75
561.744	426.75
561.956	434.75
562.168	433.75
562.381	445.75
562.593	436.75
562.805	444.75
563.017	416.75
563.229	422.75
563.441	439.75
563.653	439.75
563.865	417.75
564.077	424.75
564.289	427.75
564.501	426.75
564.713	435.75
564.925	442.75
565.137	476.75
565.349	467.75
565.561	473.75
565.773	486.75
565.985	480.75
566.197	489.75
566.408	494.75
566.62	500.75
566.832	530.75
567.044	528.75
567.255	555.75
567.467	536.75
567.679	540.75
567.891	557.75
568.102	547.75
568.314	557.75
568.526	534.75
568.737	513.75
568.949	492.75
569.161	457.75
569.372	483.75
569.584	467.75
569.795	457.75
570.007	440.75
570.218	474.75
570.43	469.75
570.641	401.75
570.853	404.75
571.064	396.75
571.276	414.75
571.487	410.75
571.698	401.75
571.91	397.75
572.121	397.75
572.333	410.75
572.544	379.75
572.755	379.75
572.966	378.75
573.178	384.75
573.389	391.75
573.6	365.75
573.811	372.75
574.023	379.75
574.234	380.75
574.445	378.75
574.656	372.75
574.867	370.75
575.078	374.75
575.289	363.75
575.501	364.75
575.712	357.75
575.923	347.75
576.134	359.75
576.345	357.75
576.556	363.75
576.767	359.75
576.978	362.75
577.188	353.75
577.399	352.75
577.61	343.75
577.821	362.75
578.032	359.75
578.243	386.75
578.454	567.75
578.665	451.75
578.875	351.75
579.086	331.75
579.297	345.75
579.508	341.75
579.718	321.75
579.929	334.75
580.14	334.75
580.35	333.75
580.561	338.75
580.772	345.75
580.982	339.75
581.193	334.75
581.403	343.75
581.614	329.75
581.825	330.75
582.035	333.75
582.246	334.75
582.456	319.75
582.667	327.75
582.877	356.75
583.087	328.75
583.298	327.75
583.508	336.75
583.719	327.75
583.929	312.75
584.139	328.75
584.35	320.75
584.56	307.75
584.77	319.75
584.981	332.75
585.191	322.75
585.401	330.75
585.611	316.75
585.821	313.75
586.032	322.75
586.242	323.75
586.452	327.75
586.662	321.75
586.872	305.75
587.082	318.75
587.292	324.75
587.502	315.75
587.713	324.75
587.923	325.75
588.133	311.75
588.343	314.75
588.553	320.75
588.762	321.75
588.972	325.75
589.182	351.75
589.392	342.75
589.602	338.75
589.812	331.75
590.022	322.75
590.232	326.75
590.441	326.75
590.651	324.75
590.861	322.75
591.071	325.75
591.281	316.75
591.49	300.75
591.7	327.75
591.91	326.75
592.119	355.75
592.329	338.75
592.539	336.75
592.748	354.75
592.958	331.75
593.167	316.75
593.377	354.75
593.587	358.75
593.796	346.75
594.006	349.75
594.215	344.75
594.424	346.75
594.634	316.75
594.843	331.75
595.053	318.75
595.262	328.75
595.472	329.75
595.681	324.75
595.89	313.75
596.1	302.75
596.309	306.75
596.518	313.75
596.727	301.75
596.937	309.75
597.146	305.75
597.355	308.75
597.564	315.75
597.774	302.75
597.983	291.75
598.192	302.75
598.401	275.75
598.61	289.75
598.819	277.75
599.028	285.75
599.237	291.75
599.446	301.75
599.655	290.75
599.864	279.75
600.073	279.75
600.282	288.75
600.491	287.75
600.7	263.75
600.909	279.75
601.118	289.75
601.327	273.75
601.536	276.75
601.745	278.75
601.953	289.75
602.162	293.75
602.371	285.75
602.58	271.75
602.789	274.75
602.997	273.75
603.206	276.75
603.415	293.75
603.623	260.75
603.832	268.75
604.041	277.75
604.249	266.75
604.458	263.75
604.666	263.75
604.875	258.75
605.084	260.75
605.292	288.75
605.501	253.75
605.709	272.75
605.918	268.75
606.126	282.75
606.334	256.75
606.543	265.75
606.751	260.75
606.96	259.75
607.168	256.75
607.376	270.75
607.585	267.75
607.793	231.75
608.001	266.75
608.21	260.75
608.418	265.75
608.626	235.75
608.834	260.75
609.043	276.75
609.251	248.75
609.459	249.75
609.667	254.75
609.875	256.75
610.083	259.75
610.291	264.75
610.499	258.75
610.707	260.75
610.916	259.75
611.124	277.75
611.332	267.75
611.54	265.75
611.748	273.75
611.955	266.75
612.163	258.75
612.371	258.75
612.579	237.75
612.787	260.75
612.995	252.75
613.203	258.75
613.411	265.75
613.618	254.75
613.826	249.75
614.034	261.75
614.242	234.75
614.449	251.75
614.657	256.75
614.865	239.75
615.072	245.75
615.28	247.75
615.488	246.75
615.695	240.75
615.903	254.75
616.111	263.75
616.318	270.75
616.526	251.75
616.733	269.75
616.941	250.75
617.148	237.75
617.356	245.75
617.563	250.75
617.771	263.75
617.978	236.75
618.185	242.75
618.393	244.75
618.6	256.75
618.807	249.75
619.015	256.75
619.222	240.75
619.429	256.75
619.637	253.75
619.844	237.75
620.051	236.75
620.258	242.75
620.466	244.75
620.673	238.75
620.88	240.75
621.087	230.75
621.294	232.75
621.501	236.75
621.708	240.75
621.915	249.75
622.122	228.75
622.329	228.75
622.536	242.75
622.743	268.75
622.95	235.75
623.157	224.75
623.364	243.75
623.571	220.75
623.778	222.75
623.985	235.75
624.192	228.75
624.399	225.75
624.606	213.75
624.812	224.75
625.019	235.75
625.226	228.75
625.433	228.75
625.639	220.75
625.846	220.75
626.053	227.75
626.259	223.75
626.466	225.75
626.673	232.75
626.879	237.75
627.086	220.75
627.293	215.75
627.499	222.75
627.706	228.75
627.912	202.75
628.119	220.75
628.325	210.75
628.532	219.75
628.738	218.75
628.945	222.75
629.151	196.75
629.357	226.75
629.564	218.75
629.77	215.75
629.976	224.75
630.183	192.75
630.389	223.75
630.595	194.75
630.802	220.75
631.008	212.75
631.214	197.75
631.42	220.75
631.627	208.75
631.833	198.75
632.039	202.75
632.245	208.75
632.451	198.75
632.657	187.75
632.863	209.75
633.069	203.75
633.275	205.75
633.481	194.75
633.688	196.75
633.893	189.75
634.099	195.75
634.305	200.75
634.511	205.75
634.717	197.75
634.923	186.75
635.129	180.75
635.335	188.75
635.541	193.75
635.747	188.75
635.952	197.75
636.158	176.75
636.364	199.75
636.57	188.75
636.775	198.75
636.981	189.75
637.187	181.75
637.392	183.75
637.598	195.75
637.804	204.75
638.009	202.75
638.215	181.75
638.421	184.75
638.626	178.75
638.832	196.75
639.037	174.75
639.243	180.75
639.448	183.75
639.654	180.75
639.859	195.75
640.065	179.75
640.27	179.75
640.475	168.75
640.681	174.75
640.886	183.75
641.091	180.75
641.297	190.75
641.502	160.75
641.707	178.75
641.913	182.75
642.118	176.75
642.323	191.75
642.528	177.75
642.733	161.75
642.939	203.75
643.144	167.75
643.349	176.75
643.554	164.75
643.759	172.75
643.964	177.75
644.169	172.75
644.374	168.75
644.579	172.75
644.784	173.75
644.989	175.75
645.194	182.75
645.399	181.75
645.604	179.75
645.809	160.75
646.014	166.75
646.219	170.75
646.423	172.75
646.628	160.75
646.833	191.75
647.038	178.75
647.243	183.75
647.447	176.75
647.652	165.75
647.857	176.75
648.062	176.75
648.266	176.75
648.471	178.75
648.676	170.75
648.88	156.75
649.085	179.75
649.289	161.75
649.494	170.75
649.698	194.75
649.903	204.75
650.107	181.75
650.312	186.75
650.516	188.75
650.721	168.75
650.925	152.75
651.13	165.75
651.334	138.75
651.539	150.75
651.743	157.75
651.947	149.75
652.152	158.75
652.356	149.75
652.56	154.75
652.764	163.75
652.969	151.75
653.173	144.75
653.377	143.75
653.581	139.75
653.785	134.75
653.99	130.75
654.194	135.75
654.398	142.75
654.602	125.75
654.806	143.75
655.01	146.75
655.214	151.75
655.418	124.75
655.622	143.75
655.826	130.75
656.03	136.75
656.234	140.75
656.438	145.75
656.642	143.75
656.846	147.75
657.049	141.75
657.253	120.75
657.457	127.75
657.661	122.75
657.865	129.75
658.068	109.75
658.272	117.75
658.476	112.75
658.68	117.75
658.883	88.75
659.087	99.75
659.291	104.75
659.494	97.75
659.698	112.75
659.901	99.75
660.105	100.75
660.309	87.75
660.512	82.75
660.716	91.75
660.919	107.75
661.123	93.75
661.326	97.75
661.53	88.75
661.733	81.75
661.936	82.75
662.14	87.75
662.343	93.75
662.546	72.75
662.75	84.75
662.953	78.75
663.156	88.75
663.36	74.75
663.563	79.75
663.766	93.75
663.969	100.75
664.173	77.75
664.376	78.75
664.579	85.75
664.782	90.75
664.985	82.75
665.188	84.75
665.391	77.75
665.594	76.75
665.797	53.75
666	73.75
666.203	53.75
666.406	88.75
666.609	75.75
666.812	77.75
667.015	74.75
667.218	81.75
667.421	88.75
667.624	71.75
667.827	90.75
668.03	73.75
668.232	76.75
668.435	72.75
668.638	94.75
668.841	69.75
669.043	73.75
669.246	89.75
669.449	85.75
669.651	71.75
669.854	80.75
670.057	84.75
670.259	68.75
670.462	78.75
670.665	89.75
670.867	74.75
671.07	86.75
671.272	96.75
671.475	76.75
671.677	83.75
671.88	97.75
672.082	73.75
672.284	85.75
672.487	62.75
672.689	86.75
672.892	78.75
