Data from 1966.PennyLincolnUp.Lamp.En5.5.200Scan.071719.P1.Scan2.head_HRD10591_14-17-36-121.txt Node
Date: Thu Jul 18 14:17:36 EDT 2019
User: cochatt
Spectrometer: HR+D1059
Trigger mode: 1
Integration Time (sec): 1.000000E-1
Scans to average: 1
Electric dark correction enabled: true
Nonlinearity correction enabled: false
Boxcar width: 0
XAxis mode: Wavelengths
Number of Pixels in Spectrum: 2048
>>>>>Begin Spectral Data<<<<<
223.165	-22.12
223.4	-22.12
223.635	-22.12
223.869	-9.12
224.104	-7.12
224.338	-24.12
224.573	0.88
224.808	-14.12
225.042	10.88
225.277	-12.12
225.511	-3.12
225.746	-3.12
225.98	4.88
226.215	11.88
226.449	6.88
226.683	14.88
226.918	19.88
227.152	24.88
227.387	34.88
227.621	29.88
227.856	41.88
228.09	34.88
228.324	40.88
228.559	54.88
228.793	84.88
229.027	88.88
229.262	118.88
229.496	103.88
229.73	109.88
229.964	167.88
230.199	125.88
230.433	112.88
230.667	116.88
230.901	121.88
231.136	97.88
231.37	108.88
231.604	100.88
231.838	102.88
232.072	117.88
232.306	100.88
232.541	130.88
232.775	118.88
233.009	109.88
233.243	116.88
233.477	114.88
233.711	90.88
233.945	106.88
234.179	118.88
234.413	130.88
234.647	116.88
234.881	112.88
235.115	110.88
235.349	130.88
235.583	114.88
235.817	109.88
236.051	116.88
236.285	118.88
236.519	116.88
236.753	122.88
236.987	124.88
237.221	188.88
237.455	222.88
237.689	192.88
237.922	135.88
238.156	132.88
238.39	121.88
238.624	132.88
238.858	117.88
239.091	115.88
239.325	100.88
239.559	135.88
239.793	132.88
240.027	134.88
240.26	141.88
240.494	163.88
240.728	158.88
240.961	153.88
241.195	149.88
241.429	138.88
241.662	130.88
241.896	139.88
242.13	127.88
242.363	129.88
242.597	126.88
242.83	128.88
243.064	150.88
243.298	137.88
243.531	126.88
243.765	148.88
243.998	135.88
244.232	138.88
244.465	140.88
244.699	141.88
244.932	149.88
245.166	145.88
245.399	132.88
245.633	142.88
245.866	145.88
246.099	142.88
246.333	145.88
246.566	155.88
246.8	152.88
247.033	146.88
247.266	155.88
247.5	150.88
247.733	171.88
247.966	172.88
248.2	154.88
248.433	164.88
248.666	182.88
248.899	182.88
249.133	194.88
249.366	191.88
249.599	186.88
249.832	186.88
250.066	170.88
250.299	169.88
250.532	206.88
250.765	185.88
250.998	196.88
251.231	221.88
251.465	224.88
251.698	193.88
251.931	207.88
252.164	185.88
252.397	196.88
252.63	205.88
252.863	196.88
253.096	203.88
253.329	212.88
253.562	236.88
253.795	214.88
254.028	210.88
254.261	200.88
254.494	225.88
254.727	242.88
254.96	265.88
255.193	259.88
255.426	224.88
255.659	242.88
255.892	228.88
256.124	228.88
256.357	249.88
256.59	216.88
256.823	215.88
257.056	208.88
257.289	204.88
257.521	200.88
257.754	212.88
257.987	207.88
258.22	195.88
258.452	196.88
258.685	208.88
258.918	195.88
259.151	213.88
259.383	209.88
259.616	226.88
259.849	231.88
260.081	223.88
260.314	228.88
260.547	256.88
260.779	228.88
261.012	227.88
261.244	224.88
261.477	220.88
261.71	199.88
261.942	212.88
262.175	224.88
262.407	224.88
262.64	198.88
262.872	196.88
263.105	226.88
263.337	220.88
263.57	211.88
263.802	222.88
264.035	210.88
264.267	199.88
264.499	208.88
264.732	213.88
264.964	215.88
265.197	205.88
265.429	214.88
265.661	222.88
265.894	227.88
266.126	219.88
266.358	209.88
266.591	216.88
266.823	205.88
267.055	229.88
267.287	226.88
267.52	212.88
267.752	228.88
267.984	217.88
268.216	219.88
268.448	224.88
268.681	241.88
268.913	248.88
269.145	259.88
269.377	276.88
269.609	276.88
269.841	263.88
270.073	258.88
270.306	275.88
270.538	306.88
270.77	313.88
271.002	289.88
271.234	276.88
271.466	304.88
271.698	305.88
271.93	295.88
272.162	294.88
272.394	304.88
272.626	285.88
272.858	288.88
273.09	262.88
273.322	261.88
273.553	249.88
273.785	260.88
274.017	267.88
274.249	259.88
274.481	264.88
274.713	256.88
274.945	258.88
275.176	270.88
275.408	263.88
275.64	265.88
275.872	254.88
276.104	260.88
276.335	253.88
276.567	258.88
276.799	276.88
277.031	293.88
277.262	308.88
277.494	315.88
277.726	282.88
277.957	272.88
278.189	290.88
278.421	310.88
278.652	277.88
278.884	258.88
279.115	256.88
279.347	246.88
279.579	263.88
279.81	265.88
280.042	258.88
280.273	255.88
280.505	265.88
280.736	258.88
280.968	270.88
281.199	268.88
281.431	267.88
281.662	267.88
281.894	278.88
282.125	268.88
282.356	270.88
282.588	287.88
282.819	286.88
283.051	267.88
283.282	274.88
283.513	260.88
283.745	267.88
283.976	282.88
284.207	279.88
284.439	270.88
284.67	277.88
284.901	260.88
285.132	265.88
285.364	286.88
285.595	274.88
285.826	284.88
286.057	310.88
286.288	287.88
286.52	257.88
286.751	286.88
286.982	280.88
287.213	284.88
287.444	276.88
287.675	289.88
287.906	295.88
288.138	290.88
288.369	301.88
288.6	294.88
288.831	284.88
289.062	288.88
289.293	293.88
289.524	295.88
289.755	281.88
289.986	280.88
290.217	284.88
290.448	300.88
290.679	284.88
290.91	280.88
291.141	287.88
291.371	286.88
291.602	278.88
291.833	295.88
292.064	299.88
292.295	292.88
292.526	285.88
292.757	312.88
292.987	296.88
293.218	266.88
293.449	298.88
293.68	282.88
293.91	287.88
294.141	283.88
294.372	285.88
294.603	300.88
294.833	296.88
295.064	297.88
295.295	292.88
295.525	292.88
295.756	307.88
295.987	308.88
296.217	316.88
296.448	317.88
296.679	296.88
296.909	304.88
297.14	317.88
297.37	297.88
297.601	321.88
297.831	288.88
298.062	302.88
298.292	291.88
298.523	315.88
298.753	312.88
298.984	312.88
299.214	317.88
299.445	320.88
299.675	300.88
299.905	322.88
300.136	300.88
300.366	306.88
300.597	320.88
300.827	312.88
301.057	318.88
301.288	322.88
301.518	318.88
301.748	327.88
301.979	336.88
302.209	340.88
302.439	324.88
302.669	316.88
302.9	311.88
303.13	316.88
303.36	349.88
303.59	348.88
303.82	348.88
304.051	330.88
304.281	327.88
304.511	309.88
304.741	340.88
304.971	328.88
305.201	313.88
305.431	317.88
305.661	341.88
305.891	322.88
306.121	332.88
306.352	328.88
306.582	358.88
306.812	328.88
307.042	306.88
307.272	323.88
307.502	342.88
307.731	349.88
307.961	328.88
308.191	325.88
308.421	354.88
308.651	333.88
308.881	337.88
309.111	340.88
309.341	345.88
309.571	366.88
309.8	354.88
310.03	332.88
310.26	354.88
310.49	342.88
310.72	359.88
310.949	401.88
311.179	384.88
311.409	380.88
311.639	383.88
311.868	374.88
312.098	390.88
312.328	392.88
312.557	394.88
312.787	393.88
313.017	414.88
313.246	387.88
313.476	376.88
313.706	367.88
313.935	381.88
314.165	387.88
314.394	384.88
314.624	392.88
314.853	379.88
315.083	371.88
315.312	364.88
315.542	406.88
315.771	375.88
316.001	376.88
316.23	365.88
316.46	386.88
316.689	381.88
316.919	378.88
317.148	389.88
317.377	386.88
317.607	375.88
317.836	382.88
318.065	364.88
318.295	364.88
318.524	374.88
318.753	365.88
318.983	360.88
319.212	380.88
319.441	404.88
319.67	363.88
319.9	372.88
320.129	394.88
320.358	394.88
320.587	390.88
320.816	372.88
321.046	388.88
321.275	385.88
321.504	382.88
321.733	392.88
321.962	399.88
322.191	398.88
322.42	420.88
322.649	404.88
322.878	448.88
323.108	437.88
323.337	459.88
323.566	478.88
323.795	496.88
324.024	527.88
324.253	652.88
324.482	915.88
324.71	1401.88
324.939	2052.88
325.168	1819.88
325.397	884.88
325.626	595.88
325.855	501.88
326.084	489.88
326.313	463.88
326.542	484.88
326.77	498.88
326.999	611.88
327.228	818.88
327.457	1239.88
327.686	1550.88
327.914	1033.88
328.143	669.88
328.372	580.88
328.6	548.88
328.829	517.88
329.058	541.88
329.287	550.88
329.515	524.88
329.744	484.88
329.972	473.88
330.201	522.88
330.43	546.88
330.658	573.88
330.887	588.88
331.115	570.88
331.344	512.88
331.572	492.88
331.801	466.88
332.03	496.88
332.258	454.88
332.486	459.88
332.715	444.88
332.943	446.88
333.172	458.88
333.4	481.88
333.629	459.88
333.857	480.88
334.085	479.88
334.314	492.88
334.542	515.88
334.771	540.88
334.999	504.88
335.227	471.88
335.455	477.88
335.684	462.88
335.912	452.88
336.14	460.88
336.369	457.88
336.597	457.88
336.825	461.88
337.053	459.88
337.281	440.88
337.51	436.88
337.738	444.88
337.966	461.88
338.194	432.88
338.422	430.88
338.65	440.88
338.878	432.88
339.106	420.88
339.334	448.88
339.562	462.88
339.79	436.88
340.018	452.88
340.246	453.88
340.474	437.88
340.702	450.88
340.93	450.88
341.158	438.88
341.386	416.88
341.614	452.88
341.842	446.88
342.07	442.88
342.298	413.88
342.526	429.88
342.754	431.88
342.981	429.88
343.209	432.88
343.437	447.88
343.665	423.88
343.893	461.88
344.12	448.88
344.348	450.88
344.576	440.88
344.804	451.88
345.031	452.88
345.259	469.88
345.487	461.88
345.714	432.88
345.942	430.88
346.17	435.88
346.397	434.88
346.625	411.88
346.853	412.88
347.08	442.88
347.308	430.88
347.535	435.88
347.763	420.88
347.99	429.88
348.218	445.88
348.445	442.88
348.673	458.88
348.9	413.88
349.128	434.88
349.355	423.88
349.583	431.88
349.81	435.88
350.037	428.88
350.265	426.88
350.492	430.88
350.72	418.88
350.947	405.88
351.174	420.88
351.402	422.88
351.629	429.88
351.856	434.88
352.083	443.88
352.311	438.88
352.538	443.88
352.765	457.88
352.992	421.88
353.22	433.88
353.447	404.88
353.674	419.88
353.901	445.88
354.128	406.88
354.355	398.88
354.583	428.88
354.81	415.88
355.037	419.88
355.264	401.88
355.491	402.88
355.718	386.88
355.945	395.88
356.172	401.88
356.399	406.88
356.626	399.88
356.853	407.88
357.08	405.88
357.307	413.88
357.534	414.88
357.761	404.88
357.988	418.88
358.215	404.88
358.441	418.88
358.668	417.88
358.895	399.88
359.122	412.88
359.349	413.88
359.576	432.88
359.802	421.88
360.029	465.88
360.256	481.88
360.483	465.88
360.709	430.88
360.936	425.88
361.163	421.88
361.39	425.88
361.616	416.88
361.843	427.88
362.07	434.88
362.296	420.88
362.523	434.88
362.749	423.88
362.976	417.88
363.203	416.88
363.429	412.88
363.656	406.88
363.882	420.88
364.109	421.88
364.335	424.88
364.562	414.88
364.788	436.88
365.015	413.88
365.241	398.88
365.468	429.88
365.694	436.88
365.92	382.88
366.147	434.88
366.373	432.88
366.599	403.88
366.826	404.88
367.052	428.88
367.278	424.88
367.505	402.88
367.731	423.88
367.957	430.88
368.184	405.88
368.41	421.88
368.636	429.88
368.862	443.88
369.089	445.88
369.315	429.88
369.541	408.88
369.767	415.88
369.993	431.88
370.219	412.88
370.445	430.88
370.672	441.88
370.898	408.88
371.124	430.88
371.35	438.88
371.576	414.88
371.802	410.88
372.028	424.88
372.254	424.88
372.48	443.88
372.706	441.88
372.932	419.88
373.158	428.88
373.384	437.88
373.61	438.88
373.835	439.88
374.061	427.88
374.287	418.88
374.513	445.88
374.739	449.88
374.965	418.88
375.191	423.88
375.416	424.88
375.642	425.88
375.868	437.88
376.094	425.88
376.319	422.88
376.545	432.88
376.771	440.88
376.997	413.88
377.222	417.88
377.448	410.88
377.674	441.88
377.899	421.88
378.125	392.88
378.35	422.88
378.576	417.88
378.802	396.88
379.027	428.88
379.253	422.88
379.478	427.88
379.704	414.88
379.929	431.88
380.155	410.88
380.38	425.88
380.606	429.88
380.831	432.88
381.057	418.88
381.282	418.88
381.507	434.88
381.733	414.88
381.958	424.88
382.184	441.88
382.409	426.88
382.634	454.88
382.86	436.88
383.085	434.88
383.31	445.88
383.535	448.88
383.761	448.88
383.986	441.88
384.211	472.88
384.436	451.88
384.662	468.88
384.887	471.88
385.112	466.88
385.337	439.88
385.562	466.88
385.787	480.88
386.013	469.88
386.238	482.88
386.463	465.88
386.688	476.88
386.913	479.88
387.138	445.88
387.363	474.88
387.588	465.88
387.813	480.88
388.038	480.88
388.263	469.88
388.488	466.88
388.713	457.88
388.938	461.88
389.163	470.88
389.387	486.88
389.612	470.88
389.837	466.88
390.062	480.88
390.287	468.88
390.512	467.88
390.736	466.88
390.961	478.88
391.186	493.88
391.411	470.88
391.636	471.88
391.86	481.88
392.085	476.88
392.31	497.88
392.534	488.88
392.759	484.88
392.984	469.88
393.208	498.88
393.433	489.88
393.658	493.88
393.882	506.88
394.107	487.88
394.331	491.88
394.556	489.88
394.78	494.88
395.005	502.88
395.229	470.88
395.454	488.88
395.678	488.88
395.903	508.88
396.127	535.88
396.352	519.88
396.576	516.88
396.801	514.88
397.025	516.88
397.249	507.88
397.474	509.88
397.698	505.88
397.922	538.88
398.147	544.88
398.371	565.88
398.595	534.88
398.82	543.88
399.044	568.88
399.268	577.88
399.492	605.88
399.717	638.88
399.941	691.88
400.165	687.88
400.389	694.88
400.613	616.88
400.837	589.88
401.062	565.88
401.286	561.88
401.51	556.88
401.734	552.88
401.958	547.88
402.182	552.88
402.406	556.88
402.63	558.88
402.854	569.88
403.078	573.88
403.302	574.88
403.526	580.88
403.75	589.88
403.974	572.88
404.198	572.88
404.422	599.88
404.645	567.88
404.869	605.88
405.093	624.88
405.317	668.88
405.541	711.88
405.765	670.88
405.988	582.88
406.212	587.88
406.436	626.88
406.66	634.88
406.883	626.88
407.107	666.88
407.331	702.88
407.555	747.88
407.778	745.88
408.002	681.88
408.226	644.88
408.449	636.88
408.673	634.88
408.896	651.88
409.12	701.88
409.344	655.88
409.567	609.88
409.791	609.88
410.014	604.88
410.238	604.88
410.461	590.88
410.685	603.88
410.908	595.88
411.132	632.88
411.355	690.88
411.578	652.88
411.802	596.88
412.025	599.88
412.249	613.88
412.472	620.88
412.695	660.88
412.919	674.88
413.142	589.88
413.365	581.88
413.589	563.88
413.812	570.88
414.035	562.88
414.258	550.88
414.482	549.88
414.705	569.88
414.928	579.88
415.151	533.88
415.374	540.88
415.597	564.88
415.821	550.88
416.044	544.88
416.267	526.88
416.49	557.88
416.713	557.88
416.936	555.88
417.159	564.88
417.382	561.88
417.605	544.88
417.828	553.88
418.051	561.88
418.274	568.88
418.497	556.88
418.72	564.88
418.943	538.88
419.166	565.88
419.389	609.88
419.611	580.88
419.834	581.88
420.057	589.88
420.28	577.88
420.503	564.88
420.726	544.88
420.948	585.88
421.171	636.88
421.394	664.88
421.617	605.88
421.839	556.88
422.062	577.88
422.285	585.88
422.507	653.88
422.73	729.88
422.953	694.88
423.175	613.88
423.398	600.88
423.621	566.88
423.843	618.88
424.066	592.88
424.288	599.88
424.511	632.88
424.733	696.88
424.956	760.88
425.178	746.88
425.401	722.88
425.623	752.88
425.846	622.88
426.068	617.88
426.291	577.88
426.513	631.88
426.735	618.88
426.958	646.88
427.18	731.88
427.402	902.88
427.625	956.88
427.847	835.88
428.069	738.88
428.292	661.88
428.514	598.88
428.736	577.88
428.958	588.88
429.181	555.88
429.403	556.88
429.625	562.88
429.847	602.88
430.069	673.88
430.292	661.88
430.514	572.88
430.736	570.88
430.958	552.88
431.18	537.88
431.402	538.88
431.624	532.88
431.846	546.88
432.068	536.88
432.29	538.88
432.512	531.88
432.734	533.88
432.956	553.88
433.178	556.88
433.4	571.88
433.622	562.88
433.844	550.88
434.066	548.88
434.287	516.88
434.509	551.88
434.731	553.88
434.953	555.88
435.175	576.88
435.397	626.88
435.618	613.88
435.84	660.88
436.062	756.88
436.284	841.88
436.505	682.88
436.727	623.88
436.949	590.88
437.17	562.88
437.392	578.88
437.614	603.88
437.835	634.88
438.057	716.88
438.278	820.88
438.5	808.88
438.721	922.88
438.943	857.88
439.165	708.88
439.386	646.88
439.608	615.88
439.829	646.88
440.05	638.88
440.272	693.88
440.493	650.88
440.715	599.88
440.936	580.88
441.158	596.88
441.379	569.88
441.6	572.88
441.822	621.88
442.043	638.88
442.264	736.88
442.486	766.88
442.707	674.88
442.928	635.88
443.149	636.88
443.371	648.88
443.592	696.88
443.813	801.88
444.034	864.88
444.255	723.88
444.476	670.88
444.698	627.88
444.919	613.88
445.14	723.88
445.361	706.88
445.582	669.88
445.803	717.88
446.024	838.88
446.245	847.88
446.466	778.88
446.687	650.88
446.908	604.88
447.129	567.88
447.35	582.88
447.571	573.88
447.792	550.88
448.013	552.88
448.234	582.88
448.455	654.88
448.675	786.88
448.896	891.88
449.117	739.88
449.338	690.88
449.559	809.88
449.779	930.88
450	726.88
450.221	603.88
450.442	566.88
450.662	564.88
450.883	526.88
451.104	542.88
451.324	563.88
451.545	548.88
451.766	534.88
451.986	506.88
452.207	510.88
452.428	496.88
452.648	492.88
452.869	487.88
453.089	496.88
453.31	514.88
453.53	501.88
453.751	515.88
453.971	515.88
454.192	524.88
454.412	521.88
454.633	508.88
454.853	524.88
455.073	501.88
455.294	549.88
455.514	611.88
455.734	580.88
455.955	513.88
456.175	482.88
456.395	464.88
456.616	479.88
456.836	462.88
457.056	428.88
457.276	453.88
457.497	456.88
457.717	474.88
457.937	484.88
458.157	494.88
458.377	508.88
458.598	541.88
458.818	559.88
459.038	660.88
459.258	668.88
459.478	598.88
459.698	555.88
459.918	537.88
460.138	547.88
460.358	530.88
460.578	538.88
460.798	559.88
461.018	561.88
461.238	556.88
461.458	574.88
461.678	562.88
461.898	551.88
462.118	565.88
462.338	567.88
462.558	600.88
462.777	595.88
462.997	610.88
463.217	626.88
463.437	635.88
463.657	609.88
463.876	610.88
464.096	619.88
464.316	573.88
464.536	598.88
464.755	594.88
464.975	577.88
465.195	652.88
465.414	708.88
465.634	633.88
465.854	583.88
466.073	546.88
466.293	540.88
466.512	521.88
466.732	526.88
466.951	491.88
467.171	522.88
467.391	526.88
467.61	535.88
467.829	548.88
468.049	540.88
468.268	533.88
468.488	515.88
468.707	505.88
468.927	502.88
469.146	487.88
469.365	509.88
469.585	510.88
469.804	531.88
470.023	527.88
470.243	534.88
470.462	524.88
470.681	536.88
470.901	542.88
471.12	518.88
471.339	550.88
471.558	526.88
471.777	511.88
471.997	521.88
472.216	515.88
472.435	563.88
472.654	549.88
472.873	521.88
473.092	538.88
473.311	518.88
473.53	548.88
473.749	535.88
473.968	553.88
474.187	659.88
474.406	707.88
474.625	586.88
474.844	542.88
475.063	537.88
475.282	525.88
475.501	536.88
475.72	539.88
475.939	561.88
476.158	553.88
476.377	534.88
476.596	557.88
476.814	552.88
477.033	553.88
477.252	586.88
477.471	563.88
477.69	549.88
477.908	578.88
478.127	570.88
478.346	583.88
478.564	609.88
478.783	593.88
479.002	620.88
479.22	611.88
479.439	622.88
479.658	608.88
479.876	630.88
480.095	628.88
480.313	699.88
480.532	656.88
480.751	672.88
480.969	649.88
481.188	723.88
481.406	735.88
481.624	674.88
481.843	652.88
482.061	629.88
482.28	626.88
482.498	629.88
482.717	625.88
482.935	639.88
483.153	611.88
483.372	618.88
483.59	646.88
483.808	626.88
484.027	625.88
484.245	612.88
484.463	615.88
484.681	641.88
484.9	640.88
485.118	622.88
485.336	644.88
485.554	654.88
485.772	636.88
485.99	641.88
486.209	647.88
486.427	669.88
486.645	673.88
486.863	663.88
487.081	658.88
487.299	687.88
487.517	672.88
487.735	663.88
487.953	677.88
488.171	682.88
488.389	681.88
488.607	692.88
488.825	676.88
489.043	669.88
489.261	694.88
489.479	691.88
489.696	706.88
489.914	680.88
490.132	693.88
490.35	696.88
490.568	702.88
490.786	701.88
491.003	721.88
491.221	725.88
491.439	731.88
491.657	760.88
491.874	738.88
492.092	786.88
492.31	773.88
492.527	779.88
492.745	764.88
492.963	788.88
493.18	782.88
493.398	794.88
493.615	817.88
493.833	792.88
494.05	778.88
494.268	791.88
494.485	761.88
494.703	772.88
494.92	812.88
495.138	791.88
495.355	785.88
495.573	782.88
495.79	790.88
496.008	811.88
496.225	824.88
496.442	797.88
496.66	828.88
496.877	798.88
497.094	800.88
497.312	813.88
497.529	849.88
497.746	838.88
497.963	864.88
498.181	873.88
498.398	871.88
498.615	878.88
498.832	901.88
499.049	950.88
499.267	974.88
499.484	992.88
499.701	1020.88
499.918	1059.88
500.135	1116.88
500.352	1158.88
500.569	1159.88
500.786	1139.88
501.003	1145.88
501.22	1120.88
501.437	1104.88
501.654	1049.88
501.871	1044.88
502.088	964.88
502.305	958.88
502.522	924.88
502.739	945.88
502.956	888.88
503.172	853.88
503.389	864.88
503.606	851.88
503.823	831.88
504.04	821.88
504.256	824.88
504.473	797.88
504.69	815.88
504.907	837.88
505.123	800.88
505.34	816.88
505.557	793.88
505.773	772.88
505.99	766.88
506.207	774.88
506.423	773.88
506.64	772.88
506.856	745.88
507.073	729.88
507.289	732.88
507.506	732.88
507.722	726.88
507.939	757.88
508.155	732.88
508.372	747.88
508.588	704.88
508.805	716.88
509.021	713.88
509.238	713.88
509.454	710.88
509.67	716.88
509.887	691.88
510.103	714.88
510.319	723.88
510.536	797.88
510.752	1209.88
510.968	1006.88
511.184	726.88
511.401	678.88
511.617	674.88
511.833	684.88
512.049	676.88
512.265	678.88
512.481	677.88
512.698	673.88
512.914	664.88
513.13	680.88
513.346	652.88
513.562	666.88
513.778	664.88
513.994	662.88
514.21	644.88
514.426	696.88
514.642	743.88
514.858	781.88
515.074	768.88
515.29	892.88
515.506	1264.88
515.721	1056.88
515.937	806.88
516.153	734.88
516.369	704.88
516.585	700.88
516.801	723.88
517.016	707.88
517.232	722.88
517.448	710.88
517.664	722.88
517.879	725.88
518.095	711.88
518.311	708.88
518.527	692.88
518.742	706.88
518.958	680.88
519.173	685.88
519.389	678.88
519.605	669.88
519.82	683.88
520.036	692.88
520.251	697.88
520.467	715.88
520.682	706.88
520.898	729.88
521.113	722.88
521.329	757.88
521.544	836.88
521.76	998.88
521.975	1588.88
522.19	1554.88
522.406	916.88
522.621	741.88
522.836	715.88
523.052	636.88
523.267	634.88
523.482	606.88
523.698	597.88
523.913	642.88
524.128	628.88
524.343	601.88
524.559	617.88
524.774	584.88
524.989	593.88
525.204	597.88
525.419	595.88
525.634	599.88
525.849	585.88
526.064	583.88
526.28	573.88
526.495	572.88
526.71	576.88
526.925	546.88
527.14	555.88
527.355	564.88
527.57	565.88
527.785	555.88
527.999	572.88
528.214	552.88
528.429	557.88
528.644	565.88
528.859	557.88
529.074	564.88
529.289	573.88
529.503	638.88
529.718	624.88
529.933	570.88
530.148	566.88
530.363	558.88
530.577	567.88
530.792	564.88
531.007	573.88
531.221	541.88
531.436	580.88
531.651	540.88
531.865	536.88
532.08	506.88
532.295	518.88
532.509	536.88
532.724	544.88
532.938	546.88
533.153	532.88
533.367	524.88
533.582	556.88
533.796	515.88
534.011	541.88
534.225	523.88
534.44	521.88
534.654	530.88
534.868	525.88
535.083	538.88
535.297	516.88
535.511	517.88
535.726	525.88
535.94	545.88
536.154	556.88
536.369	544.88
536.583	526.88
536.797	514.88
537.011	506.88
537.225	521.88
537.44	507.88
537.654	517.88
537.868	521.88
538.082	540.88
538.296	524.88
538.51	537.88
538.724	499.88
538.938	509.88
539.153	511.88
539.367	532.88
539.581	532.88
539.795	504.88
540.009	544.88
540.222	488.88
540.436	512.88
540.65	525.88
540.864	514.88
541.078	518.88
541.292	525.88
541.506	510.88
541.72	501.88
541.934	512.88
542.147	516.88
542.361	518.88
542.575	497.88
542.789	510.88
543.002	508.88
543.216	523.88
543.43	514.88
543.644	492.88
543.857	508.88
544.071	519.88
544.285	508.88
544.498	491.88
544.712	488.88
544.925	515.88
545.139	525.88
545.352	488.88
545.566	500.88
545.779	496.88
545.993	493.88
546.206	495.88
546.42	506.88
546.633	508.88
546.847	487.88
547.06	492.88
547.274	504.88
547.487	482.88
547.7	473.88
547.914	500.88
548.127	478.88
548.34	505.88
548.554	499.88
548.767	502.88
548.98	502.88
549.193	485.88
549.407	489.88
549.62	482.88
549.833	514.88
550.046	507.88
550.259	492.88
550.473	502.88
550.686	499.88
550.899	486.88
551.112	486.88
551.325	482.88
551.538	484.88
551.751	469.88
551.964	473.88
552.177	467.88
552.39	472.88
552.603	499.88
552.816	516.88
553.029	501.88
553.242	493.88
553.455	496.88
553.667	500.88
553.88	521.88
554.093	511.88
554.306	501.88
554.519	484.88
554.732	488.88
554.944	491.88
555.157	476.88
555.37	480.88
555.583	453.88
555.795	462.88
556.008	446.88
556.221	451.88
556.433	452.88
556.646	445.88
556.859	435.88
557.071	448.88
557.284	455.88
557.496	450.88
557.709	449.88
557.921	437.88
558.134	431.88
558.346	451.88
558.559	427.88
558.771	426.88
558.984	437.88
559.196	444.88
559.409	438.88
559.621	430.88
559.833	430.88
560.046	411.88
560.258	434.88
560.47	436.88
560.683	426.88
560.895	436.88
561.107	451.88
561.32	427.88
561.532	438.88
561.744	423.88
561.956	440.88
562.168	432.88
562.381	426.88
562.593	466.88
562.805	445.88
563.017	439.88
563.229	447.88
563.441	458.88
563.653	440.88
563.865	458.88
564.077	469.88
564.289	450.88
564.501	460.88
564.713	458.88
564.925	477.88
565.137	484.88
565.349	501.88
565.561	481.88
565.773	484.88
565.985	481.88
566.197	506.88
566.408	538.88
566.62	544.88
566.832	545.88
567.044	550.88
567.255	556.88
567.467	563.88
567.679	582.88
567.891	574.88
568.102	572.88
568.314	573.88
568.526	540.88
568.737	519.88
568.949	500.88
569.161	497.88
569.372	470.88
569.584	452.88
569.795	448.88
570.007	447.88
570.218	478.88
570.43	459.88
570.641	437.88
570.853	426.88
571.064	425.88
571.276	432.88
571.487	432.88
571.698	410.88
571.91	416.88
572.121	416.88
572.333	413.88
572.544	392.88
572.755	396.88
572.966	379.88
573.178	379.88
573.389	406.88
573.6	399.88
573.811	389.88
574.023	376.88
574.234	386.88
574.445	378.88
574.656	372.88
574.867	368.88
575.078	389.88
575.289	369.88
575.501	371.88
575.712	381.88
575.923	355.88
576.134	356.88
576.345	365.88
576.556	355.88
576.767	362.88
576.978	364.88
577.188	380.88
577.399	356.88
577.61	374.88
577.821	373.88
578.032	383.88
578.243	384.88
578.454	580.88
578.665	445.88
578.875	376.88
579.086	341.88
579.297	344.88
579.508	356.88
579.718	371.88
579.929	338.88
580.14	335.88
580.35	354.88
580.561	353.88
580.772	362.88
580.982	336.88
581.193	347.88
581.403	334.88
581.614	331.88
581.825	342.88
582.035	346.88
582.246	316.88
582.456	326.88
582.667	355.88
582.877	335.88
583.087	347.88
583.298	326.88
583.508	341.88
583.719	333.88
583.929	334.88
584.139	322.88
584.35	323.88
584.56	352.88
584.77	349.88
584.981	342.88
585.191	355.88
585.401	315.88
585.611	321.88
585.821	333.88
586.032	330.88
586.242	334.88
586.452	329.88
586.662	319.88
586.872	338.88
587.082	338.88
587.292	348.88
587.502	323.88
587.713	311.88
587.923	317.88
588.133	333.88
588.343	336.88
588.553	313.88
588.762	324.88
588.972	311.88
589.182	354.88
589.392	339.88
589.602	336.88
589.812	340.88
590.022	339.88
590.232	328.88
590.441	345.88
590.651	353.88
590.861	323.88
591.071	314.88
591.281	315.88
591.49	340.88
591.7	346.88
591.91	324.88
592.119	328.88
592.329	353.88
592.539	355.88
592.748	345.88
592.958	353.88
593.167	320.88
593.377	347.88
593.587	361.88
593.796	330.88
594.006	360.88
594.215	350.88
594.424	361.88
594.634	347.88
594.843	345.88
595.053	333.88
595.262	340.88
595.472	345.88
595.681	334.88
595.89	330.88
596.1	342.88
596.309	329.88
596.518	338.88
596.727	327.88
596.937	308.88
597.146	314.88
597.355	321.88
597.564	312.88
597.774	327.88
597.983	317.88
598.192	305.88
598.401	291.88
598.61	293.88
598.819	299.88
599.028	306.88
599.237	297.88
599.446	291.88
599.655	297.88
599.864	302.88
600.073	291.88
600.282	300.88
600.491	301.88
600.7	299.88
600.909	280.88
601.118	295.88
601.327	297.88
601.536	302.88
601.745	281.88
601.953	293.88
602.162	267.88
602.371	263.88
602.58	283.88
602.789	292.88
602.997	284.88
603.206	281.88
603.415	273.88
603.623	276.88
603.832	282.88
604.041	283.88
604.249	278.88
604.458	263.88
604.666	270.88
604.875	270.88
605.084	270.88
605.292	264.88
605.501	289.88
605.709	260.88
605.918	282.88
606.126	270.88
606.334	271.88
606.543	290.88
606.751	279.88
606.96	259.88
607.168	256.88
607.376	258.88
607.585	273.88
607.793	280.88
608.001	281.88
608.21	250.88
608.418	272.88
608.626	288.88
608.834	261.88
609.043	283.88
609.251	262.88
609.459	256.88
609.667	267.88
609.875	264.88
610.083	275.88
610.291	265.88
610.499	254.88
610.707	276.88
610.916	276.88
611.124	258.88
611.332	265.88
611.54	246.88
611.748	265.88
611.955	274.88
612.163	258.88
612.371	265.88
612.579	244.88
612.787	256.88
612.995	265.88
613.203	261.88
613.411	246.88
613.618	252.88
613.826	271.88
614.034	252.88
614.242	256.88
614.449	260.88
614.657	233.88
614.865	248.88
615.072	265.88
615.28	235.88
615.488	266.88
615.695	252.88
615.903	243.88
616.111	249.88
616.318	264.88
616.526	243.88
616.733	270.88
616.941	256.88
617.148	264.88
617.356	254.88
617.563	262.88
617.771	240.88
617.978	265.88
618.185	253.88
618.393	260.88
618.6	244.88
618.807	263.88
619.015	254.88
619.222	240.88
619.429	241.88
619.637	224.88
619.844	260.88
620.051	260.88
620.258	228.88
620.466	241.88
620.673	232.88
620.88	232.88
621.087	245.88
621.294	237.88
621.501	236.88
621.708	254.88
621.915	243.88
622.122	244.88
622.329	251.88
622.536	251.88
622.743	258.88
622.95	232.88
623.157	250.88
623.364	245.88
623.571	238.88
623.778	237.88
623.985	236.88
624.192	228.88
624.399	222.88
624.606	249.88
624.812	229.88
625.019	237.88
625.226	227.88
625.433	232.88
625.639	228.88
625.846	227.88
626.053	246.88
626.259	236.88
626.466	202.88
626.673	227.88
626.879	225.88
627.086	207.88
627.293	213.88
627.499	219.88
627.706	220.88
627.912	203.88
628.119	237.88
628.325	225.88
628.532	233.88
628.738	246.88
628.945	243.88
629.151	227.88
629.357	228.88
629.564	207.88
629.77	217.88
629.976	211.88
630.183	202.88
630.389	212.88
630.595	214.88
630.802	195.88
631.008	203.88
631.214	211.88
631.42	192.88
631.627	219.88
631.833	204.88
632.039	180.88
632.245	205.88
632.451	203.88
632.657	209.88
632.863	210.88
633.069	196.88
633.275	194.88
633.481	194.88
633.688	197.88
633.893	205.88
634.099	222.88
634.305	204.88
634.511	198.88
634.717	203.88
634.923	180.88
635.129	198.88
635.335	198.88
635.541	190.88
635.747	205.88
635.952	212.88
636.158	201.88
636.364	197.88
636.57	212.88
636.775	211.88
636.981	185.88
637.187	186.88
637.392	200.88
637.598	186.88
637.804	193.88
638.009	199.88
638.215	183.88
638.421	195.88
638.626	195.88
638.832	191.88
639.037	195.88
639.243	194.88
639.448	176.88
639.654	200.88
639.859	180.88
640.065	186.88
640.27	201.88
640.475	184.88
640.681	189.88
640.886	185.88
641.091	182.88
641.297	192.88
641.502	173.88
641.707	185.88
641.913	181.88
642.118	185.88
642.323	173.88
642.528	164.88
642.733	182.88
642.939	188.88
643.144	168.88
643.349	198.88
643.554	174.88
643.759	180.88
643.964	177.88
644.169	173.88
644.374	193.88
644.579	180.88
644.784	166.88
644.989	178.88
645.194	181.88
645.399	192.88
645.604	171.88
645.809	186.88
646.014	176.88
646.219	178.88
646.423	166.88
646.628	166.88
646.833	167.88
647.038	179.88
647.243	171.88
647.447	189.88
647.652	185.88
647.857	185.88
648.062	189.88
648.266	178.88
648.471	173.88
648.676	193.88
648.88	172.88
649.085	176.88
649.289	176.88
649.494	177.88
649.698	208.88
649.903	188.88
650.107	171.88
650.312	174.88
650.516	157.88
650.721	167.88
650.925	159.88
651.13	167.88
651.334	143.88
651.539	153.88
651.743	177.88
651.947	166.88
652.152	158.88
652.356	153.88
652.56	154.88
652.764	138.88
652.969	150.88
653.173	153.88
653.377	138.88
653.581	140.88
653.785	134.88
653.99	131.88
654.194	155.88
654.398	135.88
654.602	127.88
654.806	145.88
655.01	141.88
655.214	145.88
655.418	136.88
655.622	141.88
655.826	147.88
656.03	142.88
656.234	148.88
656.438	142.88
656.642	137.88
656.846	154.88
657.049	139.88
657.253	139.88
657.457	134.88
657.661	118.88
657.865	120.88
658.068	121.88
658.272	113.88
658.476	119.88
658.68	102.88
658.883	114.88
659.087	98.88
659.291	104.88
659.494	86.88
659.698	96.88
659.901	107.88
660.105	94.88
660.309	85.88
660.512	91.88
660.716	82.88
660.919	100.88
661.123	88.88
661.326	80.88
661.53	80.88
661.733	91.88
661.936	94.88
662.14	75.88
662.343	82.88
662.546	74.88
662.75	81.88
662.953	88.88
663.156	72.88
663.36	85.88
663.563	88.88
663.766	74.88
663.969	80.88
664.173	83.88
664.376	97.88
664.579	74.88
664.782	84.88
664.985	74.88
665.188	90.88
665.391	75.88
665.594	64.88
665.797	90.88
666	86.88
666.203	89.88
666.406	82.88
666.609	77.88
666.812	92.88
667.015	91.88
667.218	76.88
667.421	85.88
667.624	83.88
667.827	77.88
668.03	103.88
668.232	70.88
668.435	73.88
668.638	86.88
668.841	83.88
669.043	88.88
669.246	73.88
669.449	84.88
669.651	82.88
669.854	74.88
670.057	105.88
670.259	76.88
670.462	72.88
670.665	78.88
670.867	74.88
671.07	78.88
671.272	74.88
671.475	88.88
671.677	84.88
671.88	71.88
672.082	77.88
672.284	81.88
672.487	91.88
672.689	77.88
672.892	71.88
