Data from 1966.PennyLincolnUp.Lamp.En5.5.200Scan.071719.P1._HRD10591_14-15-33-959.txt Node
Date: Thu Jul 18 14:15:33 EDT 2019
User: cochatt
Spectrometer: HR+D1059
Trigger mode: 1
Integration Time (sec): 1.000000E-1
Scans to average: 1
Electric dark correction enabled: true
Nonlinearity correction enabled: false
Boxcar width: 0
XAxis mode: Wavelengths
Number of Pixels in Spectrum: 2048
>>>>>Begin Spectral Data<<<<<
223.165	4.38
223.4	4.38
223.635	4.38
223.869	-23.62
224.104	-23.62
224.338	-15.62
224.573	-16.62
224.808	-19.62
225.042	-9.62
225.277	-10.62
225.511	5.38
225.746	-2.62
225.98	14.38
226.215	5.38
226.449	5.38
226.683	30.38
226.918	21.38
227.152	35.38
227.387	36.38
227.621	33.38
227.856	58.38
228.09	36.38
228.324	41.38
228.559	59.38
228.793	55.38
229.027	72.38
229.262	85.38
229.496	92.38
229.73	102.38
229.964	108.38
230.199	101.38
230.433	87.38
230.667	91.38
230.901	91.38
231.136	82.38
231.37	82.38
231.604	82.38
231.838	95.38
232.072	90.38
232.306	94.38
232.541	88.38
232.775	93.38
233.009	96.38
233.243	101.38
233.477	105.38
233.711	107.38
233.945	88.38
234.179	97.38
234.413	111.38
234.647	99.38
234.881	102.38
235.115	101.38
235.349	87.38
235.583	79.38
235.817	101.38
236.051	104.38
236.285	90.38
236.519	100.38
236.753	110.38
236.987	122.38
237.221	127.38
237.455	145.38
237.689	121.38
237.922	115.38
238.156	110.38
238.39	109.38
238.624	94.38
238.858	108.38
239.091	95.38
239.325	98.38
239.559	95.38
239.793	102.38
240.027	99.38
240.26	104.38
240.494	108.38
240.728	123.38
240.961	105.38
241.195	115.38
241.429	101.38
241.662	99.38
241.896	96.38
242.13	101.38
242.363	96.38
242.597	97.38
242.83	98.38
243.064	106.38
243.298	105.38
243.531	97.38
243.765	101.38
243.998	100.38
244.232	105.38
244.465	105.38
244.699	112.38
244.932	107.38
245.166	105.38
245.399	101.38
245.633	91.38
245.866	108.38
246.099	101.38
246.333	111.38
246.566	102.38
246.8	109.38
247.033	107.38
247.266	122.38
247.5	102.38
247.733	105.38
247.966	125.38
248.2	95.38
248.433	113.38
248.666	107.38
248.899	123.38
249.133	128.38
249.366	145.38
249.599	127.38
249.832	128.38
250.066	126.38
250.299	123.38
250.532	134.38
250.765	132.38
250.998	142.38
251.231	142.38
251.465	157.38
251.698	124.38
251.931	142.38
252.164	124.38
252.397	120.38
252.63	124.38
252.863	137.38
253.096	123.38
253.329	140.38
253.562	155.38
253.795	143.38
254.028	149.38
254.261	131.38
254.494	148.38
254.727	149.38
254.96	172.38
255.193	160.38
255.426	160.38
255.659	154.38
255.892	153.38
256.124	138.38
256.357	149.38
256.59	151.38
256.823	145.38
257.056	132.38
257.289	137.38
257.521	125.38
257.754	131.38
257.987	130.38
258.22	147.38
258.452	146.38
258.685	142.38
258.918	133.38
259.151	144.38
259.383	140.38
259.616	146.38
259.849	137.38
260.081	166.38
260.314	163.38
260.547	179.38
260.779	150.38
261.012	147.38
261.244	140.38
261.477	143.38
261.71	135.38
261.942	144.38
262.175	160.38
262.407	143.38
262.64	136.38
262.872	125.38
263.105	149.38
263.337	145.38
263.57	123.38
263.802	137.38
264.035	120.38
264.267	136.38
264.499	145.38
264.732	139.38
264.964	142.38
265.197	132.38
265.429	139.38
265.661	135.38
265.894	145.38
266.126	141.38
266.358	129.38
266.591	141.38
266.823	137.38
267.055	135.38
267.287	144.38
267.52	138.38
267.752	145.38
267.984	149.38
268.216	149.38
268.448	144.38
268.681	144.38
268.913	171.38
269.145	176.38
269.377	175.38
269.609	182.38
269.841	161.38
270.073	172.38
270.306	169.38
270.538	193.38
270.77	199.38
271.002	177.38
271.234	175.38
271.466	171.38
271.698	174.38
271.93	176.38
272.162	183.38
272.394	186.38
272.626	185.38
272.858	189.38
273.09	153.38
273.322	167.38
273.553	153.38
273.785	158.38
274.017	146.38
274.249	155.38
274.481	164.38
274.713	155.38
274.945	175.38
275.176	152.38
275.408	169.38
275.64	176.38
275.872	158.38
276.104	160.38
276.335	146.38
276.567	161.38
276.799	163.38
277.031	190.38
277.262	191.38
277.494	195.38
277.726	184.38
277.957	172.38
278.189	170.38
278.421	172.38
278.652	166.38
278.884	161.38
279.115	158.38
279.347	169.38
279.579	161.38
279.81	164.38
280.042	162.38
280.273	157.38
280.505	160.38
280.736	170.38
280.968	164.38
281.199	157.38
281.431	159.38
281.662	158.38
281.894	176.38
282.125	170.38
282.356	184.38
282.588	160.38
282.819	197.38
283.051	169.38
283.282	169.38
283.513	163.38
283.745	182.38
283.976	163.38
284.207	151.38
284.439	170.38
284.67	149.38
284.901	164.38
285.132	158.38
285.364	171.38
285.595	167.38
285.826	164.38
286.057	158.38
286.288	174.38
286.52	172.38
286.751	170.38
286.982	166.38
287.213	161.38
287.444	159.38
287.675	161.38
287.906	172.38
288.138	186.38
288.369	187.38
288.6	185.38
288.831	182.38
289.062	166.38
289.293	167.38
289.524	160.38
289.755	164.38
289.986	174.38
290.217	175.38
290.448	165.38
290.679	163.38
290.91	180.38
291.141	168.38
291.371	166.38
291.602	176.38
291.833	174.38
292.064	172.38
292.295	163.38
292.526	169.38
292.757	195.38
292.987	169.38
293.218	179.38
293.449	183.38
293.68	171.38
293.91	183.38
294.141	171.38
294.372	163.38
294.603	175.38
294.833	177.38
295.064	172.38
295.295	171.38
295.525	172.38
295.756	181.38
295.987	171.38
296.217	180.38
296.448	187.38
296.679	180.38
296.909	192.38
297.14	180.38
297.37	177.38
297.601	183.38
297.831	190.38
298.062	177.38
298.292	173.38
298.523	177.38
298.753	181.38
298.984	174.38
299.214	159.38
299.445	174.38
299.675	192.38
299.905	192.38
300.136	182.38
300.366	152.38
300.597	201.38
300.827	178.38
301.057	188.38
301.288	196.38
301.518	194.38
301.748	195.38
301.979	193.38
302.209	199.38
302.439	198.38
302.669	194.38
302.9	178.38
303.13	177.38
303.36	171.38
303.59	201.38
303.82	195.38
304.051	181.38
304.281	185.38
304.511	185.38
304.741	198.38
304.971	182.38
305.201	192.38
305.431	184.38
305.661	185.38
305.891	184.38
306.121	189.38
306.352	204.38
306.582	191.38
306.812	190.38
307.042	187.38
307.272	205.38
307.502	202.38
307.731	215.38
307.961	183.38
308.191	190.38
308.421	183.38
308.651	211.38
308.881	211.38
309.111	196.38
309.341	179.38
309.571	187.38
309.8	198.38
310.03	209.38
310.26	209.38
310.49	208.38
310.72	205.38
310.949	214.38
311.179	231.38
311.409	233.38
311.639	217.38
311.868	207.38
312.098	208.38
312.328	212.38
312.557	210.38
312.787	233.38
313.017	211.38
313.246	214.38
313.476	186.38
313.706	211.38
313.935	232.38
314.165	214.38
314.394	228.38
314.624	235.38
314.853	225.38
315.083	197.38
315.312	205.38
315.542	219.38
315.771	196.38
316.001	190.38
316.23	208.38
316.46	196.38
316.689	191.38
316.919	200.38
317.148	207.38
317.377	204.38
317.607	229.38
317.836	216.38
318.065	203.38
318.295	221.38
318.524	202.38
318.753	197.38
318.983	216.38
319.212	216.38
319.441	220.38
319.67	201.38
319.9	208.38
320.129	199.38
320.358	204.38
320.587	229.38
320.816	213.38
321.046	217.38
321.275	237.38
321.504	211.38
321.733	213.38
321.962	219.38
322.191	237.38
322.42	232.38
322.649	234.38
322.878	241.38
323.108	256.38
323.337	261.38
323.566	279.38
323.795	286.38
324.024	294.38
324.253	363.38
324.482	530.38
324.71	821.38
324.939	1077.38
325.168	881.38
325.397	469.38
325.626	310.38
325.855	275.38
326.084	265.38
326.313	261.38
326.542	249.38
326.77	298.38
326.999	351.38
327.228	470.38
327.457	718.38
327.686	800.38
327.914	519.38
328.143	371.38
328.372	328.38
328.6	316.38
328.829	294.38
329.058	308.38
329.287	320.38
329.515	281.38
329.744	283.38
329.972	272.38
330.201	279.38
330.43	319.38
330.658	345.38
330.887	348.38
331.115	347.38
331.344	282.38
331.572	272.38
331.801	260.38
332.03	256.38
332.258	253.38
332.486	240.38
332.715	241.38
332.943	262.38
333.172	237.38
333.4	259.38
333.629	259.38
333.857	271.38
334.085	257.38
334.314	285.38
334.542	311.38
334.771	323.38
334.999	281.38
335.227	285.38
335.455	257.38
335.684	219.38
335.912	226.38
336.14	240.38
336.369	247.38
336.597	241.38
336.825	253.38
337.053	239.38
337.281	229.38
337.51	235.38
337.738	243.38
337.966	229.38
338.194	234.38
338.422	223.38
338.65	248.38
338.878	222.38
339.106	225.38
339.334	236.38
339.562	228.38
339.79	230.38
340.018	238.38
340.246	239.38
340.474	234.38
340.702	244.38
340.93	221.38
341.158	221.38
341.386	215.38
341.614	225.38
341.842	224.38
342.07	227.38
342.298	209.38
342.526	228.38
342.754	229.38
342.981	227.38
343.209	216.38
343.437	213.38
343.665	221.38
343.893	217.38
344.12	232.38
344.348	232.38
344.576	240.38
344.804	232.38
345.031	225.38
345.259	252.38
345.487	229.38
345.714	220.38
345.942	217.38
346.17	206.38
346.397	209.38
346.625	215.38
346.853	217.38
347.08	227.38
347.308	234.38
347.535	238.38
347.763	231.38
347.99	212.38
348.218	223.38
348.445	241.38
348.673	230.38
348.9	211.38
349.128	215.38
349.355	210.38
349.583	217.38
349.81	221.38
350.037	214.38
350.265	209.38
350.492	213.38
350.72	217.38
350.947	224.38
351.174	225.38
351.402	228.38
351.629	224.38
351.856	228.38
352.083	230.38
352.311	251.38
352.538	243.38
352.765	253.38
352.992	234.38
353.22	201.38
353.447	221.38
353.674	226.38
353.901	219.38
354.128	196.38
354.355	207.38
354.583	219.38
354.81	217.38
355.037	216.38
355.264	193.38
355.491	204.38
355.718	214.38
355.945	199.38
356.172	222.38
356.399	220.38
356.626	207.38
356.853	211.38
357.08	207.38
357.307	203.38
357.534	210.38
357.761	209.38
357.988	207.38
358.215	209.38
358.441	207.38
358.668	208.38
358.895	207.38
359.122	213.38
359.349	207.38
359.576	222.38
359.802	233.38
360.029	257.38
360.256	267.38
360.483	237.38
360.709	214.38
360.936	233.38
361.163	217.38
361.39	220.38
361.616	219.38
361.843	198.38
362.07	229.38
362.296	228.38
362.523	222.38
362.749	219.38
362.976	212.38
363.203	227.38
363.429	238.38
363.656	217.38
363.882	200.38
364.109	203.38
364.335	202.38
364.562	182.38
364.788	200.38
365.015	211.38
365.241	207.38
365.468	221.38
365.694	203.38
365.92	218.38
366.147	228.38
366.373	206.38
366.599	214.38
366.826	196.38
367.052	200.38
367.278	218.38
367.505	216.38
367.731	210.38
367.957	210.38
368.184	220.38
368.41	200.38
368.636	212.38
368.862	224.38
369.089	216.38
369.315	211.38
369.541	208.38
369.767	214.38
369.993	235.38
370.219	212.38
370.445	215.38
370.672	208.38
370.898	214.38
371.124	207.38
371.35	198.38
371.576	208.38
371.802	211.38
372.028	207.38
372.254	208.38
372.48	196.38
372.706	212.38
372.932	202.38
373.158	211.38
373.384	215.38
373.61	216.38
373.835	212.38
374.061	212.38
374.287	207.38
374.513	201.38
374.739	220.38
374.965	215.38
375.191	192.38
375.416	213.38
375.642	209.38
375.868	224.38
376.094	218.38
376.319	204.38
376.545	211.38
376.771	209.38
376.997	208.38
377.222	212.38
377.448	209.38
377.674	210.38
377.899	213.38
378.125	202.38
378.35	201.38
378.576	203.38
378.802	213.38
379.027	207.38
379.253	208.38
379.478	212.38
379.704	214.38
379.929	192.38
380.155	195.38
380.38	192.38
380.606	206.38
380.831	215.38
381.057	208.38
381.282	192.38
381.507	217.38
381.733	210.38
381.958	208.38
382.184	212.38
382.409	216.38
382.634	198.38
382.86	215.38
383.085	210.38
383.31	213.38
383.535	215.38
383.761	213.38
383.986	220.38
384.211	217.38
384.436	212.38
384.662	216.38
384.887	224.38
385.112	223.38
385.337	228.38
385.562	223.38
385.787	217.38
386.013	234.38
386.238	245.38
386.463	216.38
386.688	219.38
386.913	217.38
387.138	224.38
387.363	235.38
387.588	221.38
387.813	212.38
388.038	205.38
388.263	220.38
388.488	215.38
388.713	212.38
388.938	222.38
389.163	227.38
389.387	212.38
389.612	222.38
389.837	216.38
390.062	224.38
390.287	216.38
390.512	226.38
390.736	218.38
390.961	232.38
391.186	221.38
391.411	231.38
391.636	241.38
391.86	215.38
392.085	236.38
392.31	241.38
392.534	236.38
392.759	240.38
392.984	245.38
393.208	205.38
393.433	227.38
393.658	231.38
393.882	232.38
394.107	228.38
394.331	204.38
394.556	219.38
394.78	221.38
395.005	222.38
395.229	240.38
395.454	234.38
395.678	235.38
395.903	244.38
396.127	254.38
396.352	247.38
396.576	232.38
396.801	224.38
397.025	224.38
397.249	214.38
397.474	229.38
397.698	248.38
397.922	253.38
398.147	251.38
398.371	238.38
398.595	254.38
398.82	257.38
399.044	243.38
399.268	261.38
399.492	270.38
399.717	295.38
399.941	286.38
400.165	290.38
400.389	295.38
400.613	253.38
400.837	250.38
401.062	236.38
401.286	259.38
401.51	261.38
401.734	248.38
401.958	234.38
402.182	264.38
402.406	269.38
402.63	287.38
402.854	267.38
403.078	272.38
403.302	264.38
403.526	256.38
403.75	271.38
403.974	257.38
404.198	250.38
404.422	256.38
404.645	279.38
404.869	273.38
405.093	297.38
405.317	310.38
405.541	314.38
405.765	287.38
405.988	281.38
406.212	287.38
406.436	295.38
406.66	308.38
406.883	296.38
407.107	278.38
407.331	306.38
407.555	334.38
407.778	327.38
408.002	317.38
408.226	281.38
408.449	283.38
408.673	276.38
408.896	259.38
409.12	279.38
409.344	300.38
409.567	267.38
409.791	272.38
410.014	262.38
410.238	246.38
410.461	262.38
410.685	258.38
410.908	257.38
411.132	269.38
411.355	290.38
411.578	277.38
411.802	259.38
412.025	263.38
412.249	262.38
412.472	288.38
412.695	292.38
412.919	271.38
413.142	266.38
413.365	241.38
413.589	275.38
413.812	256.38
414.035	250.38
414.258	251.38
414.482	266.38
414.705	236.38
414.928	236.38
415.151	260.38
415.374	260.38
415.597	237.38
415.821	239.38
416.044	238.38
416.267	248.38
416.49	263.38
416.713	252.38
416.936	233.38
417.159	250.38
417.382	224.38
417.605	257.38
417.828	271.38
418.051	275.38
418.274	251.38
418.497	255.38
418.72	243.38
418.943	257.38
419.166	260.38
419.389	264.38
419.611	282.38
419.834	273.38
420.057	270.38
420.28	262.38
420.503	259.38
420.726	267.38
420.948	257.38
421.171	293.38
421.394	292.38
421.617	263.38
421.839	252.38
422.062	278.38
422.285	274.38
422.507	284.38
422.73	316.38
422.953	317.38
423.175	265.38
423.398	275.38
423.621	277.38
423.843	269.38
424.066	271.38
424.288	282.38
424.511	286.38
424.733	325.38
424.956	329.38
425.178	328.38
425.401	325.38
425.623	335.38
425.846	284.38
426.068	282.38
426.291	252.38
426.513	281.38
426.735	279.38
426.958	296.38
427.18	318.38
427.402	368.38
427.625	399.38
427.847	400.38
428.069	312.38
428.292	289.38
428.514	283.38
428.736	265.38
428.958	259.38
429.181	269.38
429.403	248.38
429.625	271.38
429.847	284.38
430.069	283.38
430.292	280.38
430.514	259.38
430.736	250.38
430.958	249.38
431.18	246.38
431.402	260.38
431.624	224.38
431.846	229.38
432.068	251.38
432.29	261.38
432.512	251.38
432.734	261.38
432.956	247.38
433.178	268.38
433.4	260.38
433.622	267.38
433.844	251.38
434.066	223.38
434.287	242.38
434.509	265.38
434.731	241.38
434.953	265.38
435.175	260.38
435.397	279.38
435.618	279.38
435.84	303.38
436.062	326.38
436.284	339.38
436.505	299.38
436.727	272.38
436.949	262.38
437.17	267.38
437.392	250.38
437.614	279.38
437.835	273.38
438.057	340.38
438.278	378.38
438.5	345.38
438.721	385.38
438.943	351.38
439.165	279.38
439.386	267.38
439.608	284.38
439.829	272.38
440.05	281.38
440.272	339.38
440.493	308.38
440.715	293.38
440.936	269.38
441.158	277.38
441.379	269.38
441.6	270.38
441.822	257.38
442.043	291.38
442.264	323.38
442.486	343.38
442.707	290.38
442.928	281.38
443.149	286.38
443.371	286.38
443.592	317.38
443.813	368.38
444.034	357.38
444.255	299.38
444.476	283.38
444.698	277.38
444.919	284.38
445.14	363.38
445.361	328.38
445.582	314.38
445.803	343.38
446.024	377.38
446.245	382.38
446.466	333.38
446.687	299.38
446.908	279.38
447.129	256.38
447.35	276.38
447.571	254.38
447.792	255.38
448.013	253.38
448.234	284.38
448.455	280.38
448.675	331.38
448.896	385.38
449.117	325.38
449.338	302.38
449.559	358.38
449.779	390.38
450	319.38
450.221	259.38
450.442	263.38
450.662	256.38
450.883	252.38
451.104	254.38
451.324	259.38
451.545	248.38
451.766	238.38
451.986	232.38
452.207	222.38
452.428	218.38
452.648	238.38
452.869	225.38
453.089	247.38
453.31	265.38
453.53	248.38
453.751	249.38
453.971	228.38
454.192	249.38
454.412	236.38
454.633	245.38
454.853	238.38
455.073	228.38
455.294	255.38
455.514	277.38
455.734	275.38
455.955	228.38
456.175	220.38
456.395	221.38
456.616	215.38
456.836	219.38
457.056	215.38
457.276	228.38
457.497	237.38
457.717	239.38
457.937	240.38
458.157	220.38
458.377	228.38
458.598	255.38
458.818	291.38
459.038	317.38
459.258	301.38
459.478	272.38
459.698	252.38
459.918	240.38
460.138	232.38
460.358	251.38
460.578	232.38
460.798	241.38
461.018	248.38
461.238	253.38
461.458	246.38
461.678	244.38
461.898	244.38
462.118	248.38
462.338	244.38
462.558	235.38
462.777	260.38
462.997	259.38
463.217	281.38
463.437	260.38
463.657	244.38
463.876	251.38
464.096	255.38
464.316	261.38
464.536	262.38
464.755	269.38
464.975	284.38
465.195	297.38
465.414	333.38
465.634	295.38
465.854	276.38
466.073	261.38
466.293	264.38
466.512	251.38
466.732	248.38
466.951	241.38
467.171	235.38
467.391	249.38
467.61	267.38
467.829	265.38
468.049	255.38
468.268	254.38
468.488	264.38
468.707	240.38
468.927	225.38
469.146	219.38
469.365	225.38
469.585	232.38
469.804	268.38
470.023	253.38
470.243	253.38
470.462	252.38
470.681	259.38
470.901	254.38
471.12	242.38
471.339	251.38
471.558	264.38
471.777	253.38
471.997	223.38
472.216	244.38
472.435	295.38
472.654	271.38
472.873	256.38
473.092	244.38
473.311	255.38
473.53	254.38
473.749	246.38
473.968	262.38
474.187	311.38
474.406	328.38
474.625	263.38
474.844	263.38
475.063	246.38
475.282	246.38
475.501	231.38
475.72	240.38
475.939	239.38
476.158	255.38
476.377	236.38
476.596	240.38
476.814	261.38
477.033	255.38
477.252	259.38
477.471	275.38
477.69	243.38
477.908	253.38
478.127	263.38
478.346	269.38
478.564	252.38
478.783	252.38
479.002	285.38
479.22	270.38
479.439	281.38
479.658	284.38
479.876	284.38
480.095	292.38
480.313	296.38
480.532	299.38
480.751	274.38
480.969	308.38
481.188	352.38
481.406	408.38
481.624	315.38
481.843	309.38
482.061	277.38
482.28	292.38
482.498	270.38
482.717	278.38
482.935	280.38
483.153	274.38
483.372	288.38
483.59	276.38
483.808	278.38
484.027	286.38
484.245	267.38
484.463	281.38
484.681	284.38
484.9	284.38
485.118	289.38
485.336	279.38
485.554	286.38
485.772	286.38
485.99	278.38
486.209	283.38
486.427	265.38
486.645	316.38
486.863	321.38
487.081	314.38
487.299	293.38
487.517	296.38
487.735	290.38
487.953	289.38
488.171	280.38
488.389	285.38
488.607	318.38
488.825	327.38
489.043	295.38
489.261	291.38
489.479	312.38
489.696	310.38
489.914	311.38
490.132	283.38
490.35	307.38
490.568	305.38
490.786	308.38
491.003	337.38
491.221	325.38
491.439	352.38
491.657	347.38
491.874	342.38
492.092	368.38
492.31	371.38
492.527	367.38
492.745	366.38
492.963	361.38
493.18	350.38
493.398	367.38
493.615	352.38
493.833	358.38
494.05	352.38
494.268	362.38
494.485	344.38
494.703	336.38
494.92	331.38
495.138	352.38
495.355	357.38
495.573	343.38
495.79	350.38
496.008	365.38
496.225	363.38
496.442	330.38
496.66	328.38
496.877	339.38
497.094	355.38
497.312	328.38
497.529	333.38
497.746	352.38
497.963	351.38
498.181	373.38
498.398	371.38
498.615	366.38
498.832	385.38
499.049	377.38
499.267	390.38
499.484	386.38
499.701	413.38
499.918	419.38
500.135	423.38
500.352	465.38
500.569	442.38
500.786	446.38
501.003	459.38
501.22	451.38
501.437	433.38
501.654	433.38
501.871	431.38
502.088	402.38
502.305	381.38
502.522	379.38
502.739	359.38
502.956	364.38
503.172	353.38
503.389	363.38
503.606	355.38
503.823	350.38
504.04	343.38
504.256	353.38
504.473	330.38
504.69	336.38
504.907	336.38
505.123	338.38
505.34	333.38
505.557	340.38
505.773	330.38
505.99	344.38
506.207	331.38
506.423	334.38
506.64	341.38
506.856	341.38
507.073	325.38
507.289	325.38
507.506	315.38
507.722	335.38
507.939	352.38
508.155	340.38
508.372	321.38
508.588	315.38
508.805	318.38
509.021	329.38
509.238	317.38
509.454	315.38
509.67	317.38
509.887	316.38
510.103	309.38
510.319	322.38
510.536	398.38
510.752	775.38
510.968	555.38
511.184	324.38
511.401	298.38
511.617	320.38
511.833	303.38
512.049	304.38
512.265	289.38
512.481	310.38
512.698	295.38
512.914	301.38
513.13	292.38
513.346	292.38
513.562	308.38
513.778	300.38
513.994	285.38
514.21	311.38
514.426	323.38
514.642	337.38
514.858	365.38
515.074	388.38
515.29	529.38
515.506	856.38
515.721	652.38
515.937	391.38
516.153	362.38
516.369	304.38
516.585	301.38
516.801	293.38
517.016	304.38
517.232	307.38
517.448	287.38
517.664	301.38
517.879	306.38
518.095	309.38
518.311	309.38
518.527	293.38
518.742	299.38
518.958	282.38
519.173	282.38
519.389	287.38
519.605	304.38
519.82	304.38
520.036	301.38
520.251	297.38
520.467	329.38
520.682	342.38
520.898	336.38
521.113	361.38
521.329	391.38
521.544	454.38
521.76	617.38
521.975	1153.38
522.19	1097.38
522.406	520.38
522.621	357.38
522.836	313.38
523.052	301.38
523.267	279.38
523.482	261.38
523.698	277.38
523.913	293.38
524.128	271.38
524.343	283.38
524.559	275.38
524.774	259.38
524.989	273.38
525.204	269.38
525.419	256.38
525.634	257.38
525.849	248.38
526.064	262.38
526.28	248.38
526.495	259.38
526.71	238.38
526.925	243.38
527.14	237.38
527.355	238.38
527.57	241.38
527.785	249.38
527.999	243.38
528.214	228.38
528.429	224.38
528.644	245.38
528.859	261.38
529.074	253.38
529.289	274.38
529.503	344.38
529.718	334.38
529.933	250.38
530.148	249.38
530.363	248.38
530.577	240.38
530.792	248.38
531.007	243.38
531.221	224.38
531.436	219.38
531.651	228.38
531.865	227.38
532.08	233.38
532.295	229.38
532.509	230.38
532.724	238.38
532.938	229.38
533.153	238.38
533.367	222.38
533.582	239.38
533.796	246.38
534.011	252.38
534.225	232.38
534.44	237.38
534.654	237.38
534.868	240.38
535.083	239.38
535.297	229.38
535.511	237.38
535.726	261.38
535.94	233.38
536.154	231.38
536.369	225.38
536.583	237.38
536.797	245.38
537.011	221.38
537.225	229.38
537.44	219.38
537.654	243.38
537.868	226.38
538.082	228.38
538.296	227.38
538.51	222.38
538.724	228.38
538.938	231.38
539.153	232.38
539.367	263.38
539.581	234.38
539.795	225.38
540.009	230.38
540.222	238.38
540.436	247.38
540.65	234.38
540.864	246.38
541.078	229.38
541.292	234.38
541.506	246.38
541.72	228.38
541.934	236.38
542.147	235.38
542.361	244.38
542.575	215.38
542.789	220.38
543.002	221.38
543.216	214.38
543.43	229.38
543.644	229.38
543.857	220.38
544.071	233.38
544.285	243.38
544.498	251.38
544.712	236.38
544.925	229.38
545.139	217.38
545.352	218.38
545.566	230.38
545.779	234.38
545.993	223.38
546.206	236.38
546.42	223.38
546.633	231.38
546.847	225.38
547.06	233.38
547.274	222.38
547.487	212.38
547.7	222.38
547.914	233.38
548.127	216.38
548.34	221.38
548.554	223.38
548.767	231.38
548.98	239.38
549.193	231.38
549.407	217.38
549.62	218.38
549.833	209.38
550.046	215.38
550.259	215.38
550.473	208.38
550.686	201.38
550.899	230.38
551.112	222.38
551.325	212.38
551.538	228.38
551.751	220.38
551.964	215.38
552.177	212.38
552.39	215.38
552.603	216.38
552.816	221.38
553.029	211.38
553.242	207.38
553.455	244.38
553.667	216.38
553.88	232.38
554.093	239.38
554.306	237.38
554.519	233.38
554.732	239.38
554.944	213.38
555.157	214.38
555.37	213.38
555.583	206.38
555.795	201.38
556.008	221.38
556.221	214.38
556.433	208.38
556.646	229.38
556.859	211.38
557.071	199.38
557.284	197.38
557.496	202.38
557.709	209.38
557.921	195.38
558.134	207.38
558.346	204.38
558.559	202.38
558.771	200.38
558.984	209.38
559.196	190.38
559.409	195.38
559.621	184.38
559.833	214.38
560.046	202.38
560.258	199.38
560.47	192.38
560.683	212.38
560.895	192.38
561.107	200.38
561.32	199.38
561.532	193.38
561.744	203.38
561.956	202.38
562.168	209.38
562.381	212.38
562.593	209.38
562.805	197.38
563.017	197.38
563.229	197.38
563.441	204.38
563.653	195.38
563.865	197.38
564.077	185.38
564.289	206.38
564.501	209.38
564.713	202.38
564.925	197.38
565.137	223.38
565.349	205.38
565.561	219.38
565.773	210.38
565.985	216.38
566.197	196.38
566.408	230.38
566.62	210.38
566.832	231.38
567.044	216.38
567.255	238.38
567.467	231.38
567.679	223.38
567.891	227.38
568.102	243.38
568.314	229.38
568.526	214.38
568.737	214.38
568.949	191.38
569.161	204.38
569.372	196.38
569.584	216.38
569.795	209.38
570.007	200.38
570.218	231.38
570.43	223.38
570.641	197.38
570.853	200.38
571.064	172.38
571.276	201.38
571.487	195.38
571.698	177.38
571.91	194.38
572.121	176.38
572.333	184.38
572.544	168.38
572.755	183.38
572.966	185.38
573.178	183.38
573.389	168.38
573.6	167.38
573.811	184.38
574.023	170.38
574.234	189.38
574.445	170.38
574.656	182.38
574.867	169.38
575.078	173.38
575.289	189.38
575.501	164.38
575.712	185.38
575.923	180.38
576.134	183.38
576.345	172.38
576.556	179.38
576.767	183.38
576.978	180.38
577.188	174.38
577.399	184.38
577.61	163.38
577.821	167.38
578.032	183.38
578.243	209.38
578.454	388.38
578.665	264.38
578.875	171.38
579.086	170.38
579.297	168.38
579.508	177.38
579.718	169.38
579.929	189.38
580.14	155.38
580.35	161.38
580.561	160.38
580.772	152.38
580.982	161.38
581.193	144.38
581.403	155.38
581.614	159.38
581.825	158.38
582.035	160.38
582.246	159.38
582.456	157.38
582.667	164.38
582.877	158.38
583.087	160.38
583.298	163.38
583.508	157.38
583.719	169.38
583.929	162.38
584.139	153.38
584.35	154.38
584.56	157.38
584.77	167.38
584.981	151.38
585.191	173.38
585.401	183.38
585.611	151.38
585.821	157.38
586.032	156.38
586.242	148.38
586.452	161.38
586.662	163.38
586.872	163.38
587.082	155.38
587.292	167.38
587.502	160.38
587.713	144.38
587.923	157.38
588.133	171.38
588.343	152.38
588.553	147.38
588.762	165.38
588.972	146.38
589.182	169.38
589.392	172.38
589.602	176.38
589.812	164.38
590.022	163.38
590.232	144.38
590.441	163.38
590.651	173.38
590.861	163.38
591.071	162.38
591.281	152.38
591.49	161.38
591.7	148.38
591.91	161.38
592.119	151.38
592.329	148.38
592.539	154.38
592.748	160.38
592.958	177.38
593.167	164.38
593.377	176.38
593.587	170.38
593.796	177.38
594.006	160.38
594.215	166.38
594.424	172.38
594.634	143.38
594.843	173.38
595.053	149.38
595.262	161.38
595.472	157.38
595.681	162.38
595.89	156.38
596.1	155.38
596.309	143.38
596.518	151.38
596.727	155.38
596.937	160.38
597.146	149.38
597.355	164.38
597.564	156.38
597.774	154.38
597.983	159.38
598.192	149.38
598.401	147.38
598.61	141.38
598.819	151.38
599.028	159.38
599.237	157.38
599.446	140.38
599.655	132.38
599.864	134.38
600.073	157.38
600.282	153.38
600.491	152.38
600.7	156.38
600.909	144.38
601.118	166.38
601.327	155.38
601.536	130.38
601.745	127.38
601.953	140.38
602.162	156.38
602.371	141.38
602.58	155.38
602.789	159.38
602.997	150.38
603.206	137.38
603.415	137.38
603.623	138.38
603.832	141.38
604.041	143.38
604.249	131.38
604.458	133.38
604.666	147.38
604.875	141.38
605.084	129.38
605.292	151.38
605.501	155.38
605.709	151.38
605.918	149.38
606.126	144.38
606.334	153.38
606.543	156.38
606.751	145.38
606.96	131.38
607.168	131.38
607.376	140.38
607.585	148.38
607.793	158.38
608.001	135.38
608.21	150.38
608.418	151.38
608.626	141.38
608.834	145.38
609.043	156.38
609.251	135.38
609.459	149.38
609.667	135.38
609.875	143.38
610.083	128.38
610.291	131.38
610.499	139.38
610.707	144.38
610.916	149.38
611.124	140.38
611.332	143.38
611.54	164.38
611.748	140.38
611.955	144.38
612.163	139.38
612.371	152.38
612.579	157.38
612.787	155.38
612.995	136.38
613.203	157.38
613.411	148.38
613.618	135.38
613.826	135.38
614.034	152.38
614.242	135.38
614.449	142.38
614.657	163.38
614.865	135.38
615.072	149.38
615.28	135.38
615.488	144.38
615.695	139.38
615.903	142.38
616.111	145.38
616.318	156.38
616.526	140.38
616.733	130.38
616.941	136.38
617.148	156.38
617.356	145.38
617.563	121.38
617.771	144.38
617.978	151.38
618.185	137.38
618.393	144.38
618.6	137.38
618.807	133.38
619.015	141.38
619.222	142.38
619.429	144.38
619.637	143.38
619.844	134.38
620.051	142.38
620.258	129.38
620.466	144.38
620.673	119.38
620.88	140.38
621.087	158.38
621.294	125.38
621.501	136.38
621.708	131.38
621.915	135.38
622.122	136.38
622.329	146.38
622.536	127.38
622.743	155.38
622.95	155.38
623.157	128.38
623.364	142.38
623.571	131.38
623.778	128.38
623.985	137.38
624.192	146.38
624.399	136.38
624.606	136.38
624.812	129.38
625.019	127.38
625.226	130.38
625.433	151.38
625.639	146.38
625.846	119.38
626.053	127.38
626.259	127.38
626.466	131.38
626.673	130.38
626.879	108.38
627.086	133.38
627.293	131.38
627.499	125.38
627.706	138.38
627.912	137.38
628.119	128.38
628.325	134.38
628.532	137.38
628.738	139.38
628.945	128.38
629.151	141.38
629.357	126.38
629.564	127.38
629.77	141.38
629.976	129.38
630.183	125.38
630.389	121.38
630.595	127.38
630.802	127.38
631.008	118.38
631.214	128.38
631.42	124.38
631.627	122.38
631.833	125.38
632.039	123.38
632.245	115.38
632.451	129.38
632.657	117.38
632.863	111.38
633.069	117.38
633.275	128.38
633.481	117.38
633.688	122.38
633.893	125.38
634.099	123.38
634.305	110.38
634.511	119.38
634.717	117.38
634.923	119.38
635.129	137.38
635.335	122.38
635.541	117.38
635.747	131.38
635.952	123.38
636.158	128.38
636.364	119.38
636.57	123.38
636.775	131.38
636.981	132.38
637.187	109.38
637.392	119.38
637.598	133.38
637.804	118.38
638.009	108.38
638.215	121.38
638.421	119.38
638.626	120.38
638.832	115.38
639.037	101.38
639.243	118.38
639.448	103.38
639.654	107.38
639.859	105.38
640.065	119.38
640.27	127.38
640.475	119.38
640.681	126.38
640.886	106.38
641.091	117.38
641.297	131.38
641.502	124.38
641.707	117.38
641.913	107.38
642.118	111.38
642.323	119.38
642.528	115.38
642.733	114.38
642.939	123.38
643.144	114.38
643.349	112.38
643.554	105.38
643.759	119.38
643.964	98.38
644.169	110.38
644.374	114.38
644.579	115.38
644.784	126.38
644.989	116.38
645.194	119.38
645.399	119.38
645.604	116.38
645.809	111.38
646.014	127.38
646.219	119.38
646.423	123.38
646.628	117.38
646.833	111.38
647.038	110.38
647.243	124.38
647.447	115.38
647.652	124.38
647.857	124.38
648.062	123.38
648.266	123.38
648.471	124.38
648.676	121.38
648.88	118.38
649.085	124.38
649.289	114.38
649.494	125.38
649.698	134.38
649.903	127.38
650.107	120.38
650.312	125.38
650.516	119.38
650.721	127.38
650.925	117.38
651.13	111.38
651.334	102.38
651.539	121.38
651.743	119.38
651.947	90.38
652.152	115.38
652.356	103.38
652.56	106.38
652.764	112.38
652.969	102.38
653.173	109.38
653.377	113.38
653.581	101.38
653.785	104.38
653.99	101.38
654.194	115.38
654.398	101.38
654.602	100.38
654.806	108.38
655.01	112.38
655.214	113.38
655.418	105.38
655.622	108.38
655.826	117.38
656.03	109.38
656.234	105.38
656.438	100.38
656.642	108.38
656.846	119.38
657.049	121.38
657.253	116.38
657.457	108.38
657.661	105.38
657.865	103.38
658.068	80.38
658.272	94.38
658.476	95.38
658.68	88.38
658.883	90.38
659.087	93.38
659.291	113.38
659.494	100.38
659.698	83.38
659.901	75.38
660.105	78.38
660.309	87.38
660.512	91.38
660.716	94.38
660.919	98.38
661.123	100.38
661.326	92.38
661.53	93.38
661.733	94.38
661.936	96.38
662.14	90.38
662.343	85.38
662.546	86.38
662.75	80.38
662.953	101.38
663.156	68.38
663.36	93.38
663.563	92.38
663.766	82.38
663.969	87.38
664.173	86.38
664.376	88.38
664.579	73.38
664.782	83.38
664.985	99.38
665.188	87.38
665.391	66.38
665.594	87.38
665.797	94.38
666	81.38
666.203	87.38
666.406	80.38
666.609	70.38
666.812	97.38
667.015	92.38
667.218	78.38
667.421	74.38
667.624	85.38
667.827	87.38
668.03	82.38
668.232	89.38
668.435	73.38
668.638	82.38
668.841	92.38
669.043	85.38
669.246	88.38
669.449	78.38
669.651	96.38
669.854	95.38
670.057	100.38
670.259	92.38
670.462	80.38
670.665	77.38
670.867	77.38
671.07	86.38
671.272	94.38
671.475	89.38
671.677	84.38
671.88	86.38
672.082	77.38
672.284	83.38
672.487	80.38
672.689	83.38
672.892	92.38
