Data from 1966.PennyLincolnUp.Lamp.En5.5.200Scan.071719.P1.Scan2.head_HRD10591_14-19-24-265.txt Node
Date: Thu Jul 18 14:19:24 EDT 2019
User: cochatt
Spectrometer: HR+D1059
Trigger mode: 1
Integration Time (sec): 1.000000E-1
Scans to average: 1
Electric dark correction enabled: true
Nonlinearity correction enabled: false
Boxcar width: 0
XAxis mode: Wavelengths
Number of Pixels in Spectrum: 2048
>>>>>Begin Spectral Data<<<<<
223.165	-5.94
223.4	-5.94
223.635	-5.94
223.869	-11.94
224.104	-19.94
224.338	-20.94
224.573	-4.94
224.808	-18.94
225.042	-14.94
225.277	-2.94
225.511	8.06
225.746	6.06
225.98	-6.94
226.215	-3.94
226.449	17.06
226.683	19.06
226.918	33.06
227.152	28.06
227.387	33.06
227.621	24.06
227.856	43.06
228.09	38.06
228.324	45.06
228.559	53.06
228.793	53.06
229.027	92.06
229.262	120.06
229.496	125.06
229.73	137.06
229.964	154.06
230.199	139.06
230.433	118.06
230.667	111.06
230.901	119.06
231.136	104.06
231.37	116.06
231.604	120.06
231.838	113.06
232.072	116.06
232.306	116.06
232.541	120.06
232.775	123.06
233.009	123.06
233.243	117.06
233.477	111.06
233.711	129.06
233.945	121.06
234.179	122.06
234.413	130.06
234.647	117.06
234.881	110.06
235.115	113.06
235.349	123.06
235.583	126.06
235.817	113.06
236.051	141.06
236.285	131.06
236.519	130.06
236.753	139.06
236.987	149.06
237.221	189.06
237.455	240.06
237.689	186.06
237.922	151.06
238.156	135.06
238.39	146.06
238.624	133.06
238.858	119.06
239.091	121.06
239.325	126.06
239.559	118.06
239.793	124.06
240.027	139.06
240.26	141.06
240.494	160.06
240.728	149.06
240.961	157.06
241.195	150.06
241.429	147.06
241.662	119.06
241.896	122.06
242.13	141.06
242.363	121.06
242.597	152.06
242.83	132.06
243.064	152.06
243.298	133.06
243.531	137.06
243.765	148.06
243.998	147.06
244.232	133.06
244.465	155.06
244.699	157.06
244.932	142.06
245.166	143.06
245.399	154.06
245.633	140.06
245.866	151.06
246.099	145.06
246.333	138.06
246.566	153.06
246.8	163.06
247.033	155.06
247.266	162.06
247.5	161.06
247.733	161.06
247.966	186.06
248.2	183.06
248.433	174.06
248.666	189.06
248.899	187.06
249.133	215.06
249.366	217.06
249.599	204.06
249.832	186.06
250.066	201.06
250.299	191.06
250.532	190.06
250.765	204.06
250.998	236.06
251.231	238.06
251.465	222.06
251.698	206.06
251.931	225.06
252.164	197.06
252.397	202.06
252.63	197.06
252.863	199.06
253.096	213.06
253.329	247.06
253.562	221.06
253.795	216.06
254.028	233.06
254.261	231.06
254.494	236.06
254.727	275.06
254.96	301.06
255.193	284.06
255.426	265.06
255.659	243.06
255.892	243.06
256.124	247.06
256.357	246.06
256.59	235.06
256.823	220.06
257.056	217.06
257.289	215.06
257.521	225.06
257.754	208.06
257.987	218.06
258.22	218.06
258.452	217.06
258.685	200.06
258.918	217.06
259.151	216.06
259.383	219.06
259.616	248.06
259.849	238.06
260.081	245.06
260.314	262.06
260.547	267.06
260.779	264.06
261.012	250.06
261.244	249.06
261.477	241.06
261.71	229.06
261.942	227.06
262.175	249.06
262.407	239.06
262.64	217.06
262.872	215.06
263.105	222.06
263.337	218.06
263.57	213.06
263.802	228.06
264.035	225.06
264.267	206.06
264.499	201.06
264.732	213.06
264.964	231.06
265.197	203.06
265.429	230.06
265.661	211.06
265.894	223.06
266.126	222.06
266.358	224.06
266.591	219.06
266.823	234.06
267.055	232.06
267.287	240.06
267.52	232.06
267.752	213.06
267.984	231.06
268.216	228.06
268.448	231.06
268.681	261.06
268.913	255.06
269.145	284.06
269.377	283.06
269.609	291.06
269.841	289.06
270.073	275.06
270.306	289.06
270.538	322.06
270.77	324.06
271.002	306.06
271.234	287.06
271.466	307.06
271.698	319.06
271.93	322.06
272.162	335.06
272.394	318.06
272.626	304.06
272.858	309.06
273.09	279.06
273.322	292.06
273.553	285.06
273.785	266.06
274.017	268.06
274.249	266.06
274.481	271.06
274.713	286.06
274.945	277.06
275.176	271.06
275.408	284.06
275.64	272.06
275.872	280.06
276.104	275.06
276.335	266.06
276.567	275.06
276.799	293.06
277.031	309.06
277.262	327.06
277.494	324.06
277.726	326.06
277.957	301.06
278.189	297.06
278.421	283.06
278.652	283.06
278.884	271.06
279.115	281.06
279.347	279.06
279.579	281.06
279.81	277.06
280.042	280.06
280.273	273.06
280.505	281.06
280.736	272.06
280.968	265.06
281.199	273.06
281.431	271.06
281.662	255.06
281.894	269.06
282.125	270.06
282.356	292.06
282.588	315.06
282.819	308.06
283.051	287.06
283.282	279.06
283.513	280.06
283.745	303.06
283.976	293.06
284.207	292.06
284.439	288.06
284.67	277.06
284.901	282.06
285.132	282.06
285.364	279.06
285.595	290.06
285.826	297.06
286.057	280.06
286.288	286.06
286.52	279.06
286.751	307.06
286.982	294.06
287.213	291.06
287.444	314.06
287.675	285.06
287.906	295.06
288.138	323.06
288.369	320.06
288.6	324.06
288.831	316.06
289.062	305.06
289.293	297.06
289.524	290.06
289.755	287.06
289.986	301.06
290.217	284.06
290.448	289.06
290.679	287.06
290.91	315.06
291.141	292.06
291.371	297.06
291.602	299.06
291.833	299.06
292.064	311.06
292.295	314.06
292.526	293.06
292.757	307.06
292.987	303.06
293.218	307.06
293.449	297.06
293.68	301.06
293.91	298.06
294.141	299.06
294.372	301.06
294.603	302.06
294.833	315.06
295.064	300.06
295.295	303.06
295.525	294.06
295.756	299.06
295.987	319.06
296.217	314.06
296.448	357.06
296.679	309.06
296.909	310.06
297.14	313.06
297.37	323.06
297.601	308.06
297.831	291.06
298.062	309.06
298.292	297.06
298.523	319.06
298.753	305.06
298.984	299.06
299.214	322.06
299.445	334.06
299.675	320.06
299.905	333.06
300.136	313.06
300.366	329.06
300.597	317.06
300.827	353.06
301.057	317.06
301.288	332.06
301.518	334.06
301.748	327.06
301.979	330.06
302.209	350.06
302.439	347.06
302.669	345.06
302.9	337.06
303.13	351.06
303.36	336.06
303.59	346.06
303.82	353.06
304.051	346.06
304.281	373.06
304.511	327.06
304.741	341.06
304.971	335.06
305.201	348.06
305.431	331.06
305.661	341.06
305.891	323.06
306.121	331.06
306.352	347.06
306.582	356.06
306.812	344.06
307.042	353.06
307.272	360.06
307.502	355.06
307.731	340.06
307.961	343.06
308.191	351.06
308.421	329.06
308.651	354.06
308.881	355.06
309.111	374.06
309.341	348.06
309.571	373.06
309.8	379.06
310.03	388.06
310.26	386.06
310.49	385.06
310.72	389.06
310.949	403.06
311.179	397.06
311.409	402.06
311.639	394.06
311.868	400.06
312.098	394.06
312.328	390.06
312.557	425.06
312.787	424.06
313.017	414.06
313.246	404.06
313.476	394.06
313.706	370.06
313.935	417.06
314.165	390.06
314.394	398.06
314.624	412.06
314.853	392.06
315.083	393.06
315.312	373.06
315.542	391.06
315.771	395.06
316.001	388.06
316.23	382.06
316.46	398.06
316.689	386.06
316.919	406.06
317.148	390.06
317.377	410.06
317.607	390.06
317.836	414.06
318.065	372.06
318.295	397.06
318.524	400.06
318.753	395.06
318.983	386.06
319.212	406.06
319.441	385.06
319.67	409.06
319.9	397.06
320.129	381.06
320.358	391.06
320.587	408.06
320.816	387.06
321.046	409.06
321.275	416.06
321.504	417.06
321.733	426.06
321.962	419.06
322.191	427.06
322.42	452.06
322.649	447.06
322.878	467.06
323.108	470.06
323.337	524.06
323.566	509.06
323.795	543.06
324.024	573.06
324.253	710.06
324.482	990.06
324.71	1506.06
324.939	2329.06
325.168	2003.06
325.397	1002.06
325.626	676.06
325.855	561.06
326.084	521.06
326.313	503.06
326.542	524.06
326.77	548.06
326.999	649.06
327.228	902.06
327.457	1380.06
327.686	1753.06
327.914	1151.06
328.143	740.06
328.372	646.06
328.6	614.06
328.829	597.06
329.058	606.06
329.287	595.06
329.515	565.06
329.744	552.06
329.972	540.06
330.201	543.06
330.43	602.06
330.658	615.06
330.887	626.06
331.115	628.06
331.344	527.06
331.572	528.06
331.801	533.06
332.03	533.06
332.258	499.06
332.486	483.06
332.715	466.06
332.943	499.06
333.172	495.06
333.4	480.06
333.629	505.06
333.857	510.06
334.085	527.06
334.314	571.06
334.542	589.06
334.771	621.06
334.999	561.06
335.227	527.06
335.455	488.06
335.684	474.06
335.912	498.06
336.14	468.06
336.369	485.06
336.597	502.06
336.825	499.06
337.053	472.06
337.281	468.06
337.51	450.06
337.738	474.06
337.966	474.06
338.194	452.06
338.422	460.06
338.65	455.06
338.878	466.06
339.106	458.06
339.334	457.06
339.562	454.06
339.79	435.06
340.018	449.06
340.246	459.06
340.474	462.06
340.702	451.06
340.93	441.06
341.158	436.06
341.386	423.06
341.614	444.06
341.842	467.06
342.07	452.06
342.298	442.06
342.526	454.06
342.754	440.06
342.981	453.06
343.209	451.06
343.437	455.06
343.665	465.06
343.893	478.06
344.12	471.06
344.348	488.06
344.576	472.06
344.804	480.06
345.031	468.06
345.259	484.06
345.487	450.06
345.714	440.06
345.942	447.06
346.17	441.06
346.397	421.06
346.625	429.06
346.853	440.06
347.08	438.06
347.308	439.06
347.535	466.06
347.763	449.06
347.99	429.06
348.218	459.06
348.445	456.06
348.673	460.06
348.9	430.06
349.128	422.06
349.355	422.06
349.583	402.06
349.81	412.06
350.037	457.06
350.265	430.06
350.492	419.06
350.72	414.06
350.947	443.06
351.174	466.06
351.402	460.06
351.629	460.06
351.856	459.06
352.083	466.06
352.311	453.06
352.538	465.06
352.765	474.06
352.992	454.06
353.22	447.06
353.447	455.06
353.674	430.06
353.901	430.06
354.128	414.06
354.355	437.06
354.583	441.06
354.81	413.06
355.037	411.06
355.264	409.06
355.491	421.06
355.718	433.06
355.945	433.06
356.172	419.06
356.399	418.06
356.626	409.06
356.853	415.06
357.08	434.06
357.307	418.06
357.534	426.06
357.761	435.06
357.988	400.06
358.215	428.06
358.441	430.06
358.668	423.06
358.895	415.06
359.122	446.06
359.349	434.06
359.576	439.06
359.802	485.06
360.029	476.06
360.256	506.06
360.483	480.06
360.709	475.06
360.936	435.06
361.163	452.06
361.39	451.06
361.616	434.06
361.843	452.06
362.07	458.06
362.296	457.06
362.523	461.06
362.749	448.06
362.976	440.06
363.203	430.06
363.429	459.06
363.656	451.06
363.882	434.06
364.109	433.06
364.335	434.06
364.562	421.06
364.788	430.06
365.015	419.06
365.241	433.06
365.468	427.06
365.694	456.06
365.92	449.06
366.147	428.06
366.373	423.06
366.599	429.06
366.826	427.06
367.052	430.06
367.278	430.06
367.505	421.06
367.731	422.06
367.957	440.06
368.184	433.06
368.41	441.06
368.636	456.06
368.862	491.06
369.089	465.06
369.315	446.06
369.541	448.06
369.767	428.06
369.993	448.06
370.219	442.06
370.445	440.06
370.672	423.06
370.898	443.06
371.124	430.06
371.35	422.06
371.576	455.06
371.802	421.06
372.028	446.06
372.254	452.06
372.48	434.06
372.706	430.06
372.932	456.06
373.158	451.06
373.384	442.06
373.61	436.06
373.835	454.06
374.061	448.06
374.287	441.06
374.513	449.06
374.739	448.06
374.965	445.06
375.191	459.06
375.416	467.06
375.642	455.06
375.868	458.06
376.094	446.06
376.319	453.06
376.545	442.06
376.771	446.06
376.997	442.06
377.222	446.06
377.448	437.06
377.674	438.06
377.899	408.06
378.125	419.06
378.35	424.06
378.576	452.06
378.802	422.06
379.027	443.06
379.253	436.06
379.478	413.06
379.704	430.06
379.929	430.06
380.155	429.06
380.38	449.06
380.606	444.06
380.831	451.06
381.057	428.06
381.282	427.06
381.507	447.06
381.733	469.06
381.958	444.06
382.184	444.06
382.409	454.06
382.634	447.06
382.86	424.06
383.085	461.06
383.31	462.06
383.535	472.06
383.761	458.06
383.986	441.06
384.211	471.06
384.436	463.06
384.662	467.06
384.887	470.06
385.112	485.06
385.337	473.06
385.562	481.06
385.787	470.06
386.013	501.06
386.238	492.06
386.463	493.06
386.688	485.06
386.913	478.06
387.138	487.06
387.363	505.06
387.588	470.06
387.813	480.06
388.038	485.06
388.263	480.06
388.488	487.06
388.713	490.06
388.938	482.06
389.163	481.06
389.387	483.06
389.612	493.06
389.837	496.06
390.062	487.06
390.287	506.06
390.512	477.06
390.736	484.06
390.961	506.06
391.186	480.06
391.411	487.06
391.636	488.06
391.86	494.06
392.085	505.06
392.31	514.06
392.534	515.06
392.759	504.06
392.984	470.06
393.208	517.06
393.433	502.06
393.658	501.06
393.882	510.06
394.107	497.06
394.331	499.06
394.556	502.06
394.78	504.06
395.005	513.06
395.229	506.06
395.454	513.06
395.678	533.06
395.903	519.06
396.127	547.06
396.352	558.06
396.576	540.06
396.801	511.06
397.025	505.06
397.249	534.06
397.474	507.06
397.698	523.06
397.922	550.06
398.147	559.06
398.371	561.06
398.595	564.06
398.82	539.06
399.044	584.06
399.268	586.06
399.492	605.06
399.717	657.06
399.941	677.06
400.165	719.06
400.389	715.06
400.613	638.06
400.837	617.06
401.062	587.06
401.286	591.06
401.51	584.06
401.734	567.06
401.958	601.06
402.182	583.06
402.406	582.06
402.63	604.06
402.854	594.06
403.078	571.06
403.302	597.06
403.526	588.06
403.75	605.06
403.974	606.06
404.198	584.06
404.422	594.06
404.645	619.06
404.869	612.06
405.093	643.06
405.317	705.06
405.541	731.06
405.765	656.06
405.988	625.06
406.212	625.06
406.436	662.06
406.66	654.06
406.883	648.06
407.107	674.06
407.331	730.06
407.555	761.06
407.778	787.06
408.002	723.06
408.226	677.06
408.449	644.06
408.673	646.06
408.896	699.06
409.12	740.06
409.344	711.06
409.567	617.06
409.791	627.06
410.014	585.06
410.238	588.06
410.461	617.06
410.685	609.06
410.908	619.06
411.132	663.06
411.355	706.06
411.578	665.06
411.802	611.06
412.025	582.06
412.249	612.06
412.472	632.06
412.695	673.06
412.919	665.06
413.142	609.06
413.365	588.06
413.589	570.06
413.812	602.06
414.035	577.06
414.258	571.06
414.482	566.06
414.705	582.06
414.928	563.06
415.151	585.06
415.374	571.06
415.597	546.06
415.821	556.06
416.044	555.06
416.267	551.06
416.49	565.06
416.713	578.06
416.936	575.06
417.159	556.06
417.382	602.06
417.605	571.06
417.828	578.06
418.051	595.06
418.274	595.06
418.497	561.06
418.72	548.06
418.943	565.06
419.166	569.06
419.389	617.06
419.611	608.06
419.834	593.06
420.057	586.06
420.28	590.06
420.503	589.06
420.726	598.06
420.948	604.06
421.171	627.06
421.394	684.06
421.617	613.06
421.839	591.06
422.062	601.06
422.285	620.06
422.507	664.06
422.73	762.06
422.953	717.06
423.175	649.06
423.398	640.06
423.621	627.06
423.843	639.06
424.066	630.06
424.288	630.06
424.511	641.06
424.733	713.06
424.956	810.06
425.178	780.06
425.401	781.06
425.623	780.06
425.846	684.06
426.068	653.06
426.291	618.06
426.513	639.06
426.735	638.06
426.958	672.06
427.18	787.06
427.402	912.06
427.625	1041.06
427.847	890.06
428.069	778.06
428.292	701.06
428.514	633.06
428.736	613.06
428.958	606.06
429.181	595.06
429.403	605.06
429.625	605.06
429.847	623.06
430.069	706.06
430.292	707.06
430.514	630.06
430.736	587.06
430.958	569.06
431.18	563.06
431.402	568.06
431.624	582.06
431.846	552.06
432.068	521.06
432.29	558.06
432.512	561.06
432.734	561.06
432.956	568.06
433.178	590.06
433.4	579.06
433.622	576.06
433.844	542.06
434.066	549.06
434.287	577.06
434.509	559.06
434.731	591.06
434.953	573.06
435.175	597.06
435.397	640.06
435.618	632.06
435.84	689.06
436.062	790.06
436.284	881.06
436.505	719.06
436.727	639.06
436.949	612.06
437.17	573.06
437.392	596.06
437.614	618.06
437.835	614.06
438.057	750.06
438.278	875.06
438.5	852.06
438.721	940.06
438.943	927.06
439.165	722.06
439.386	641.06
439.608	657.06
439.829	641.06
440.05	660.06
440.272	731.06
440.493	698.06
440.715	636.06
440.936	591.06
441.158	578.06
441.379	604.06
441.6	613.06
441.822	638.06
442.043	685.06
442.264	767.06
442.486	801.06
442.707	683.06
442.928	634.06
443.149	649.06
443.371	683.06
443.592	740.06
443.813	847.06
444.034	908.06
444.255	761.06
444.476	695.06
444.698	637.06
444.919	634.06
445.14	765.06
445.361	725.06
445.582	691.06
445.803	747.06
446.024	870.06
446.245	889.06
446.466	787.06
446.687	689.06
446.908	645.06
447.129	594.06
447.35	595.06
447.571	589.06
447.792	584.06
448.013	554.06
448.234	578.06
448.455	665.06
448.675	799.06
448.896	922.06
449.117	785.06
449.338	743.06
449.559	866.06
449.779	982.06
450	791.06
450.221	638.06
450.442	605.06
450.662	565.06
450.883	597.06
451.104	618.06
451.324	561.06
451.545	553.06
451.766	535.06
451.986	524.06
452.207	531.06
452.428	535.06
452.648	509.06
452.869	521.06
453.089	533.06
453.31	546.06
453.53	523.06
453.751	527.06
453.971	522.06
454.192	538.06
454.412	542.06
454.633	524.06
454.853	508.06
455.073	516.06
455.294	549.06
455.514	615.06
455.734	586.06
455.955	510.06
456.175	528.06
456.395	482.06
456.616	493.06
456.836	473.06
457.056	503.06
457.276	497.06
457.497	510.06
457.717	519.06
457.937	505.06
458.157	515.06
458.377	533.06
458.598	549.06
458.818	600.06
459.038	683.06
459.258	711.06
459.478	615.06
459.698	583.06
459.918	555.06
460.138	556.06
460.358	562.06
460.578	576.06
460.798	577.06
461.018	583.06
461.238	589.06
461.458	564.06
461.678	558.06
461.898	578.06
462.118	575.06
462.338	595.06
462.558	583.06
462.777	596.06
462.997	638.06
463.217	609.06
463.437	635.06
463.657	626.06
463.876	619.06
464.096	602.06
464.316	610.06
464.536	617.06
464.755	627.06
464.975	631.06
465.195	630.06
465.414	697.06
465.634	643.06
465.854	597.06
466.073	567.06
466.293	566.06
466.512	552.06
466.732	528.06
466.951	542.06
467.171	535.06
467.391	538.06
467.61	552.06
467.829	555.06
468.049	556.06
468.268	531.06
468.488	561.06
468.707	542.06
468.927	501.06
469.146	533.06
469.365	523.06
469.585	547.06
469.804	522.06
470.023	582.06
470.243	546.06
470.462	539.06
470.681	589.06
470.901	563.06
471.12	567.06
471.339	557.06
471.558	555.06
471.777	546.06
471.997	552.06
472.216	552.06
472.435	562.06
472.654	567.06
472.873	574.06
473.092	541.06
473.311	555.06
473.53	530.06
473.749	553.06
473.968	606.06
474.187	723.06
474.406	718.06
474.625	598.06
474.844	571.06
475.063	581.06
475.282	566.06
475.501	549.06
475.72	567.06
475.939	565.06
476.158	556.06
476.377	551.06
476.596	579.06
476.814	587.06
477.033	571.06
477.252	587.06
477.471	589.06
477.69	588.06
477.908	587.06
478.127	592.06
478.346	586.06
478.564	610.06
478.783	619.06
479.002	632.06
479.22	620.06
479.439	647.06
479.658	660.06
479.876	672.06
480.095	675.06
480.313	718.06
480.532	700.06
480.751	672.06
480.969	698.06
481.188	742.06
481.406	790.06
481.624	697.06
481.843	696.06
482.061	660.06
482.28	672.06
482.498	659.06
482.717	669.06
482.935	650.06
483.153	643.06
483.372	631.06
483.59	644.06
483.808	648.06
484.027	652.06
484.245	657.06
484.463	667.06
484.681	670.06
484.9	673.06
485.118	664.06
485.336	678.06
485.554	656.06
485.772	691.06
485.99	666.06
486.209	677.06
486.427	671.06
486.645	686.06
486.863	689.06
487.081	684.06
487.299	699.06
487.517	684.06
487.735	698.06
487.953	692.06
488.171	703.06
488.389	702.06
488.607	697.06
488.825	700.06
489.043	687.06
489.261	706.06
489.479	714.06
489.696	698.06
489.914	708.06
490.132	718.06
490.35	711.06
490.568	759.06
490.786	755.06
491.003	744.06
491.221	766.06
491.439	761.06
491.657	774.06
491.874	807.06
492.092	817.06
492.31	783.06
492.527	807.06
492.745	783.06
492.963	812.06
493.18	823.06
493.398	825.06
493.615	812.06
493.833	819.06
494.05	825.06
494.268	838.06
494.485	821.06
494.703	786.06
494.92	831.06
495.138	830.06
495.355	868.06
495.573	825.06
495.79	854.06
496.008	850.06
496.225	819.06
496.442	806.06
496.66	831.06
496.877	831.06
497.094	843.06
497.312	851.06
497.529	839.06
497.746	867.06
497.963	886.06
498.181	903.06
498.398	929.06
498.615	909.06
498.832	941.06
499.049	963.06
499.267	981.06
499.484	1013.06
499.701	1053.06
499.918	1093.06
500.135	1126.06
500.352	1190.06
500.569	1205.06
500.786	1196.06
501.003	1208.06
501.22	1147.06
501.437	1137.06
501.654	1092.06
501.871	1076.06
502.088	1033.06
502.305	1010.06
502.522	947.06
502.739	935.06
502.956	898.06
503.172	903.06
503.389	886.06
503.606	897.06
503.823	853.06
504.04	877.06
504.256	851.06
504.473	827.06
504.69	890.06
504.907	850.06
505.123	819.06
505.34	810.06
505.557	787.06
505.773	808.06
505.99	797.06
506.207	775.06
506.423	813.06
506.64	792.06
506.856	788.06
507.073	771.06
507.289	798.06
507.506	777.06
507.722	751.06
507.939	771.06
508.155	790.06
508.372	749.06
508.588	757.06
508.805	720.06
509.021	730.06
509.238	744.06
509.454	782.06
509.67	735.06
509.887	739.06
510.103	715.06
510.319	726.06
510.536	836.06
510.752	1313.06
510.968	1078.06
511.184	749.06
511.401	737.06
511.617	716.06
511.833	723.06
512.049	711.06
512.265	716.06
512.481	732.06
512.698	680.06
512.914	682.06
513.13	708.06
513.346	689.06
513.562	685.06
513.778	705.06
513.994	701.06
514.21	733.06
514.426	749.06
514.642	784.06
514.858	773.06
515.074	823.06
515.29	967.06
515.506	1353.06
515.721	1143.06
515.937	813.06
516.153	763.06
516.369	761.06
516.585	755.06
516.801	719.06
517.016	705.06
517.232	716.06
517.448	739.06
517.664	733.06
517.879	746.06
518.095	719.06
518.311	734.06
518.527	722.06
518.742	726.06
518.958	701.06
519.173	696.06
519.389	715.06
519.605	699.06
519.82	680.06
520.036	718.06
520.251	725.06
520.467	776.06
520.682	759.06
520.898	773.06
521.113	782.06
521.329	822.06
521.544	903.06
521.76	1095.06
521.975	1710.06
522.19	1666.06
522.406	968.06
522.621	769.06
522.836	716.06
523.052	684.06
523.267	667.06
523.482	650.06
523.698	640.06
523.913	643.06
524.128	635.06
524.343	635.06
524.559	616.06
524.774	599.06
524.989	627.06
525.204	635.06
525.419	616.06
525.634	592.06
525.849	607.06
526.064	608.06
526.28	573.06
526.495	589.06
526.71	589.06
526.925	603.06
527.14	603.06
527.355	579.06
527.57	597.06
527.785	583.06
527.999	583.06
528.214	575.06
528.429	570.06
528.644	569.06
528.859	575.06
529.074	587.06
529.289	601.06
529.503	668.06
529.718	662.06
529.933	649.06
530.148	597.06
530.363	590.06
530.577	566.06
530.792	581.06
531.007	573.06
531.221	563.06
531.436	582.06
531.651	572.06
531.865	569.06
532.08	552.06
532.295	546.06
532.509	584.06
532.724	545.06
532.938	556.06
533.153	540.06
533.367	542.06
533.582	533.06
533.796	537.06
534.011	562.06
534.225	549.06
534.44	539.06
534.654	564.06
534.868	538.06
535.083	537.06
535.297	540.06
535.511	564.06
535.726	564.06
535.94	574.06
536.154	553.06
536.369	540.06
536.583	534.06
536.797	541.06
537.011	533.06
537.225	563.06
537.44	534.06
537.654	550.06
537.868	535.06
538.082	499.06
538.296	521.06
538.51	531.06
538.724	517.06
538.938	522.06
539.153	521.06
539.367	547.06
539.581	542.06
539.795	510.06
540.009	517.06
540.222	521.06
540.436	518.06
540.65	536.06
540.864	524.06
541.078	532.06
541.292	544.06
541.506	537.06
541.72	526.06
541.934	519.06
542.147	527.06
542.361	541.06
542.575	524.06
542.789	528.06
543.002	518.06
543.216	529.06
543.43	509.06
543.644	520.06
543.857	530.06
544.071	520.06
544.285	551.06
544.498	533.06
544.712	509.06
544.925	515.06
545.139	505.06
545.352	510.06
545.566	522.06
545.779	508.06
545.993	506.06
546.206	510.06
546.42	508.06
546.633	511.06
546.847	524.06
547.06	503.06
547.274	496.06
547.487	511.06
547.7	513.06
547.914	491.06
548.127	497.06
548.34	503.06
548.554	511.06
548.767	508.06
548.98	506.06
549.193	481.06
549.407	497.06
549.62	510.06
549.833	479.06
550.046	499.06
550.259	506.06
550.473	478.06
550.686	503.06
550.899	499.06
551.112	470.06
551.325	500.06
551.538	469.06
551.751	483.06
551.964	487.06
552.177	502.06
552.39	509.06
552.603	506.06
552.816	508.06
553.029	507.06
553.242	511.06
553.455	522.06
553.667	525.06
553.88	521.06
554.093	535.06
554.306	520.06
554.519	505.06
554.732	490.06
554.944	467.06
555.157	483.06
555.37	463.06
555.583	483.06
555.795	492.06
556.008	477.06
556.221	464.06
556.433	470.06
556.646	468.06
556.859	470.06
557.071	460.06
557.284	454.06
557.496	459.06
557.709	471.06
557.921	444.06
558.134	467.06
558.346	455.06
558.559	452.06
558.771	455.06
558.984	450.06
559.196	419.06
559.409	456.06
559.621	455.06
559.833	459.06
560.046	426.06
560.258	429.06
560.47	444.06
560.683	449.06
560.895	450.06
561.107	457.06
561.32	447.06
561.532	455.06
561.744	458.06
561.956	440.06
562.168	444.06
562.381	456.06
562.593	449.06
562.805	449.06
563.017	477.06
563.229	455.06
563.441	446.06
563.653	450.06
563.865	445.06
564.077	456.06
564.289	462.06
564.501	481.06
564.713	453.06
564.925	448.06
565.137	480.06
565.349	475.06
565.561	498.06
565.773	479.06
565.985	500.06
566.197	506.06
566.408	517.06
566.62	531.06
566.832	547.06
567.044	559.06
567.255	567.06
567.467	601.06
567.679	580.06
567.891	596.06
568.102	574.06
568.314	571.06
568.526	526.06
568.737	523.06
568.949	517.06
569.161	518.06
569.372	491.06
569.584	457.06
569.795	465.06
570.007	466.06
570.218	485.06
570.43	460.06
570.641	433.06
570.853	441.06
571.064	442.06
571.276	437.06
571.487	433.06
571.698	451.06
571.91	432.06
572.121	418.06
572.333	409.06
572.544	399.06
572.755	406.06
572.966	392.06
573.178	397.06
573.389	402.06
573.6	390.06
573.811	398.06
574.023	372.06
574.234	389.06
574.445	397.06
574.656	400.06
574.867	390.06
575.078	383.06
575.289	398.06
575.501	382.06
575.712	371.06
575.923	385.06
576.134	407.06
576.345	373.06
576.556	379.06
576.767	374.06
576.978	346.06
577.188	377.06
577.399	369.06
577.61	364.06
577.821	379.06
578.032	371.06
578.243	430.06
578.454	634.06
578.665	463.06
578.875	382.06
579.086	392.06
579.297	349.06
579.508	339.06
579.718	363.06
579.929	370.06
580.14	357.06
580.35	377.06
580.561	335.06
580.772	349.06
580.982	360.06
581.193	350.06
581.403	333.06
581.614	353.06
581.825	350.06
582.035	350.06
582.246	347.06
582.456	342.06
582.667	362.06
582.877	350.06
583.087	351.06
583.298	328.06
583.508	351.06
583.719	357.06
583.929	349.06
584.139	336.06
584.35	342.06
584.56	341.06
584.77	363.06
584.981	338.06
585.191	341.06
585.401	354.06
585.611	330.06
585.821	339.06
586.032	337.06
586.242	344.06
586.452	354.06
586.662	338.06
586.872	321.06
587.082	310.06
587.292	338.06
587.502	347.06
587.713	337.06
587.923	361.06
588.133	335.06
588.343	326.06
588.553	340.06
588.762	330.06
588.972	337.06
589.182	329.06
589.392	334.06
589.602	344.06
589.812	361.06
590.022	347.06
590.232	327.06
590.441	339.06
590.651	363.06
590.861	332.06
591.071	349.06
591.281	334.06
591.49	325.06
591.7	354.06
591.91	337.06
592.119	343.06
592.329	348.06
592.539	354.06
592.748	357.06
592.958	360.06
593.167	374.06
593.377	364.06
593.587	348.06
593.796	363.06
594.006	366.06
594.215	366.06
594.424	354.06
594.634	367.06
594.843	355.06
595.053	335.06
595.262	346.06
595.472	331.06
595.681	335.06
595.89	329.06
596.1	328.06
596.309	327.06
596.518	317.06
596.727	316.06
596.937	320.06
597.146	305.06
597.355	306.06
597.564	314.06
597.774	311.06
597.983	309.06
598.192	310.06
598.401	297.06
598.61	305.06
598.819	294.06
599.028	309.06
599.237	292.06
599.446	301.06
599.655	294.06
599.864	295.06
600.073	309.06
600.282	300.06
600.491	295.06
600.7	299.06
600.909	293.06
601.118	283.06
601.327	285.06
601.536	300.06
601.745	309.06
601.953	272.06
602.162	273.06
602.371	278.06
602.58	292.06
602.789	278.06
602.997	297.06
603.206	289.06
603.415	280.06
603.623	293.06
603.832	265.06
604.041	289.06
604.249	280.06
604.458	289.06
604.666	284.06
604.875	275.06
605.084	286.06
605.292	287.06
605.501	270.06
605.709	289.06
605.918	290.06
606.126	268.06
606.334	278.06
606.543	278.06
606.751	264.06
606.96	280.06
607.168	274.06
607.376	284.06
607.585	286.06
607.793	272.06
608.001	271.06
608.21	265.06
608.418	258.06
608.626	279.06
608.834	265.06
609.043	264.06
609.251	261.06
609.459	280.06
609.667	281.06
609.875	287.06
610.083	267.06
610.291	291.06
610.499	264.06
610.707	289.06
610.916	281.06
611.124	274.06
611.332	282.06
611.54	284.06
611.748	271.06
611.955	286.06
612.163	266.06
612.371	267.06
612.579	271.06
612.787	264.06
612.995	261.06
613.203	283.06
613.411	259.06
613.618	262.06
613.826	250.06
614.034	268.06
614.242	268.06
614.449	262.06
614.657	289.06
614.865	264.06
615.072	272.06
615.28	266.06
615.488	255.06
615.695	257.06
615.903	260.06
616.111	264.06
616.318	262.06
616.526	247.06
616.733	262.06
616.941	280.06
617.148	271.06
617.356	270.06
617.563	258.06
617.771	255.06
617.978	268.06
618.185	263.06
618.393	258.06
618.6	264.06
618.807	264.06
619.015	256.06
619.222	256.06
619.429	266.06
619.637	254.06
619.844	260.06
620.051	233.06
620.258	227.06
620.466	256.06
620.673	241.06
620.88	226.06
621.087	257.06
621.294	245.06
621.501	245.06
621.708	242.06
621.915	261.06
622.122	244.06
622.329	263.06
622.536	245.06
622.743	244.06
622.95	253.06
623.157	230.06
623.364	233.06
623.571	259.06
623.778	239.06
623.985	240.06
624.192	238.06
624.399	235.06
624.606	251.06
624.812	223.06
625.019	228.06
625.226	243.06
625.433	250.06
625.639	231.06
625.846	234.06
626.053	241.06
626.259	233.06
626.466	225.06
626.673	242.06
626.879	238.06
627.086	237.06
627.293	236.06
627.499	225.06
627.706	236.06
627.912	224.06
628.119	237.06
628.325	228.06
628.532	226.06
628.738	236.06
628.945	231.06
629.151	219.06
629.357	238.06
629.564	230.06
629.77	229.06
629.976	223.06
630.183	219.06
630.389	228.06
630.595	216.06
630.802	216.06
631.008	205.06
631.214	221.06
631.42	226.06
631.627	213.06
631.833	215.06
632.039	195.06
632.245	209.06
632.451	219.06
632.657	207.06
632.863	211.06
633.069	206.06
633.275	206.06
633.481	211.06
633.688	203.06
633.893	202.06
634.099	220.06
634.305	211.06
634.511	195.06
634.717	205.06
634.923	201.06
635.129	201.06
635.335	195.06
635.541	205.06
635.747	213.06
635.952	198.06
636.158	196.06
636.364	187.06
636.57	191.06
636.775	186.06
636.981	205.06
637.187	212.06
637.392	208.06
637.598	190.06
637.804	200.06
638.009	196.06
638.215	193.06
638.421	189.06
638.626	196.06
638.832	200.06
639.037	198.06
639.243	183.06
639.448	201.06
639.654	199.06
639.859	190.06
640.065	194.06
640.27	192.06
640.475	204.06
640.681	194.06
640.886	185.06
641.091	199.06
641.297	187.06
641.502	184.06
641.707	189.06
641.913	193.06
642.118	179.06
642.323	175.06
642.528	191.06
642.733	183.06
642.939	174.06
643.144	173.06
643.349	183.06
643.554	191.06
643.759	195.06
643.964	185.06
644.169	191.06
644.374	172.06
644.579	183.06
644.784	188.06
644.989	178.06
645.194	174.06
645.399	173.06
645.604	163.06
645.809	204.06
646.014	199.06
646.219	168.06
646.423	183.06
646.628	173.06
646.833	164.06
647.038	182.06
647.243	178.06
647.447	189.06
647.652	185.06
647.857	191.06
648.062	178.06
648.266	180.06
648.471	189.06
648.676	180.06
648.88	181.06
649.085	191.06
649.289	188.06
649.494	175.06
649.698	205.06
649.903	203.06
650.107	184.06
650.312	174.06
650.516	171.06
650.721	173.06
650.925	166.06
651.13	170.06
651.334	178.06
651.539	173.06
651.743	172.06
651.947	152.06
652.152	161.06
652.356	162.06
652.56	159.06
652.764	138.06
652.969	156.06
653.173	156.06
653.377	153.06
653.581	140.06
653.785	142.06
653.99	154.06
654.194	157.06
654.398	152.06
654.602	131.06
654.806	155.06
655.01	140.06
655.214	152.06
655.418	142.06
655.622	139.06
655.826	149.06
656.03	133.06
656.234	137.06
656.438	140.06
656.642	157.06
656.846	150.06
657.049	124.06
657.253	117.06
657.457	136.06
657.661	130.06
657.865	118.06
658.068	129.06
658.272	124.06
658.476	116.06
658.68	108.06
658.883	113.06
659.087	105.06
659.291	107.06
659.494	100.06
659.698	94.06
659.901	95.06
660.105	95.06
660.309	95.06
660.512	88.06
660.716	103.06
660.919	86.06
661.123	102.06
661.326	104.06
661.53	85.06
661.733	90.06
661.936	96.06
662.14	97.06
662.343	91.06
662.546	71.06
662.75	95.06
662.953	89.06
663.156	82.06
663.36	85.06
663.563	86.06
663.766	82.06
663.969	77.06
664.173	79.06
664.376	88.06
664.579	90.06
664.782	75.06
664.985	84.06
665.188	83.06
665.391	78.06
665.594	88.06
665.797	87.06
666	95.06
666.203	75.06
666.406	86.06
666.609	86.06
666.812	80.06
667.015	75.06
667.218	75.06
667.421	78.06
667.624	68.06
667.827	74.06
668.03	69.06
668.232	74.06
668.435	74.06
668.638	87.06
668.841	79.06
669.043	82.06
669.246	87.06
669.449	74.06
669.651	81.06
669.854	83.06
670.057	85.06
670.259	82.06
670.462	87.06
670.665	79.06
670.867	93.06
671.07	83.06
671.272	82.06
671.475	85.06
671.677	83.06
671.88	76.06
672.082	74.06
672.284	80.06
672.487	95.06
672.689	78.06
672.892	79.06
