Data from 1966.PennyLincolnUp.Lamp.En5.5.200Scan.071719.P1.Scan2.head_HRD10591_14-19-08-243.txt Node
Date: Thu Jul 18 14:19:08 EDT 2019
User: cochatt
Spectrometer: HR+D1059
Trigger mode: 1
Integration Time (sec): 1.000000E-1
Scans to average: 1
Electric dark correction enabled: true
Nonlinearity correction enabled: false
Boxcar width: 0
XAxis mode: Wavelengths
Number of Pixels in Spectrum: 2048
>>>>>Begin Spectral Data<<<<<
223.165	-14.31
223.4	-14.31
223.635	-14.31
223.869	-8.31
224.104	-16.31
224.338	-11.31
224.573	-34.31
224.808	-20.31
225.042	-0.31
225.277	-6.31
225.511	4.69
225.746	5.69
225.98	6.69
226.215	16.69
226.449	9.69
226.683	13.69
226.918	30.69
227.152	23.69
227.387	23.69
227.621	34.69
227.856	44.69
228.09	49.69
228.324	63.69
228.559	52.69
228.793	61.69
229.027	109.69
229.262	124.69
229.496	117.69
229.73	153.69
229.964	173.69
230.199	148.69
230.433	119.69
230.667	109.69
230.901	111.69
231.136	126.69
231.37	109.69
231.604	129.69
231.838	104.69
232.072	113.69
232.306	114.69
232.541	135.69
232.775	123.69
233.009	126.69
233.243	133.69
233.477	124.69
233.711	123.69
233.945	124.69
234.179	134.69
234.413	123.69
234.647	113.69
234.881	121.69
235.115	127.69
235.349	139.69
235.583	125.69
235.817	123.69
236.051	128.69
236.285	127.69
236.519	97.69
236.753	130.69
236.987	157.69
237.221	196.69
237.455	259.69
237.689	199.69
237.922	155.69
238.156	135.69
238.39	131.69
238.624	130.69
238.858	147.69
239.091	135.69
239.325	137.69
239.559	129.69
239.793	138.69
240.027	130.69
240.26	150.69
240.494	153.69
240.728	156.69
240.961	154.69
241.195	163.69
241.429	151.69
241.662	152.69
241.896	138.69
242.13	137.69
242.363	140.69
242.597	141.69
242.83	155.69
243.064	147.69
243.298	140.69
243.531	127.69
243.765	134.69
243.998	159.69
244.232	151.69
244.465	145.69
244.699	141.69
244.932	161.69
245.166	157.69
245.399	147.69
245.633	161.69
245.866	150.69
246.099	146.69
246.333	155.69
246.566	160.69
246.8	158.69
247.033	162.69
247.266	151.69
247.5	167.69
247.733	183.69
247.966	173.69
248.2	175.69
248.433	173.69
248.666	190.69
248.899	199.69
249.133	201.69
249.366	221.69
249.599	219.69
249.832	199.69
250.066	182.69
250.299	182.69
250.532	204.69
250.765	206.69
250.998	235.69
251.231	245.69
251.465	208.69
251.698	207.69
251.931	205.69
252.164	216.69
252.397	221.69
252.63	197.69
252.863	213.69
253.096	208.69
253.329	226.69
253.562	232.69
253.795	224.69
254.028	213.69
254.261	231.69
254.494	227.69
254.727	271.69
254.96	310.69
255.193	299.69
255.426	269.69
255.659	247.69
255.892	246.69
256.124	246.69
256.357	243.69
256.59	234.69
256.823	231.69
257.056	216.69
257.289	225.69
257.521	210.69
257.754	210.69
257.987	203.69
258.22	209.69
258.452	211.69
258.685	210.69
258.918	221.69
259.151	223.69
259.383	222.69
259.616	237.69
259.849	247.69
260.081	245.69
260.314	270.69
260.547	261.69
260.779	253.69
261.012	245.69
261.244	257.69
261.477	231.69
261.71	224.69
261.942	251.69
262.175	233.69
262.407	232.69
262.64	208.69
262.872	237.69
263.105	229.69
263.337	221.69
263.57	210.69
263.802	219.69
264.035	226.69
264.267	221.69
264.499	236.69
264.732	227.69
264.964	219.69
265.197	229.69
265.429	225.69
265.661	221.69
265.894	221.69
266.126	224.69
266.358	218.69
266.591	217.69
266.823	232.69
267.055	234.69
267.287	249.69
267.52	243.69
267.752	224.69
267.984	246.69
268.216	229.69
268.448	245.69
268.681	238.69
268.913	253.69
269.145	265.69
269.377	280.69
269.609	297.69
269.841	280.69
270.073	280.69
270.306	293.69
270.538	332.69
270.77	330.69
271.002	326.69
271.234	306.69
271.466	317.69
271.698	322.69
271.93	324.69
272.162	338.69
272.394	327.69
272.626	307.69
272.858	326.69
273.09	298.69
273.322	288.69
273.553	268.69
273.785	252.69
274.017	259.69
274.249	281.69
274.481	276.69
274.713	294.69
274.945	280.69
275.176	284.69
275.408	282.69
275.64	266.69
275.872	283.69
276.104	263.69
276.335	283.69
276.567	283.69
276.799	298.69
277.031	310.69
277.262	313.69
277.494	352.69
277.726	331.69
277.957	312.69
278.189	290.69
278.421	266.69
278.652	285.69
278.884	285.69
279.115	265.69
279.347	278.69
279.579	281.69
279.81	281.69
280.042	283.69
280.273	281.69
280.505	290.69
280.736	264.69
280.968	270.69
281.199	273.69
281.431	277.69
281.662	281.69
281.894	262.69
282.125	274.69
282.356	306.69
282.588	326.69
282.819	327.69
283.051	298.69
283.282	290.69
283.513	309.69
283.745	304.69
283.976	305.69
284.207	296.69
284.439	295.69
284.67	291.69
284.901	290.69
285.132	319.69
285.364	287.69
285.595	294.69
285.826	297.69
286.057	290.69
286.288	287.69
286.52	306.69
286.751	273.69
286.982	283.69
287.213	273.69
287.444	283.69
287.675	287.69
287.906	311.69
288.138	317.69
288.369	314.69
288.6	326.69
288.831	308.69
289.062	306.69
289.293	304.69
289.524	303.69
289.755	302.69
289.986	285.69
290.217	305.69
290.448	314.69
290.679	305.69
290.91	306.69
291.141	304.69
291.371	315.69
291.602	306.69
291.833	291.69
292.064	290.69
292.295	301.69
292.526	302.69
292.757	313.69
292.987	305.69
293.218	313.69
293.449	309.69
293.68	313.69
293.91	288.69
294.141	289.69
294.372	296.69
294.603	314.69
294.833	304.69
295.064	297.69
295.295	296.69
295.525	310.69
295.756	312.69
295.987	306.69
296.217	342.69
296.448	338.69
296.679	305.69
296.909	313.69
297.14	315.69
297.37	337.69
297.601	305.69
297.831	329.69
298.062	330.69
298.292	307.69
298.523	330.69
298.753	321.69
298.984	322.69
299.214	313.69
299.445	338.69
299.675	325.69
299.905	340.69
300.136	338.69
300.366	344.69
300.597	325.69
300.827	328.69
301.057	343.69
301.288	353.69
301.518	336.69
301.748	328.69
301.979	334.69
302.209	343.69
302.439	342.69
302.669	361.69
302.9	327.69
303.13	362.69
303.36	336.69
303.59	342.69
303.82	345.69
304.051	360.69
304.281	357.69
304.511	330.69
304.741	328.69
304.971	354.69
305.201	362.69
305.431	342.69
305.661	345.69
305.891	334.69
306.121	349.69
306.352	349.69
306.582	347.69
306.812	350.69
307.042	337.69
307.272	336.69
307.502	366.69
307.731	356.69
307.961	345.69
308.191	335.69
308.421	346.69
308.651	354.69
308.881	352.69
309.111	348.69
309.341	355.69
309.571	377.69
309.8	386.69
310.03	385.69
310.26	404.69
310.49	376.69
310.72	395.69
310.949	392.69
311.179	410.69
311.409	410.69
311.639	398.69
311.868	407.69
312.098	381.69
312.328	407.69
312.557	405.69
312.787	430.69
313.017	408.69
313.246	401.69
313.476	401.69
313.706	408.69
313.935	403.69
314.165	449.69
314.394	424.69
314.624	423.69
314.853	405.69
315.083	385.69
315.312	393.69
315.542	387.69
315.771	384.69
316.001	386.69
316.23	390.69
316.46	391.69
316.689	397.69
316.919	398.69
317.148	400.69
317.377	411.69
317.607	402.69
317.836	403.69
318.065	394.69
318.295	403.69
318.524	395.69
318.753	394.69
318.983	395.69
319.212	400.69
319.441	376.69
319.67	410.69
319.9	392.69
320.129	393.69
320.358	388.69
320.587	393.69
320.816	394.69
321.046	419.69
321.275	400.69
321.504	415.69
321.733	413.69
321.962	430.69
322.191	445.69
322.42	464.69
322.649	470.69
322.878	462.69
323.108	480.69
323.337	517.69
323.566	519.69
323.795	528.69
324.024	571.69
324.253	712.69
324.482	996.69
324.71	1549.69
324.939	2317.69
325.168	2010.69
325.397	992.69
325.626	666.69
325.855	545.69
326.084	521.69
326.313	539.69
326.542	530.69
326.77	545.69
326.999	671.69
327.228	929.69
327.457	1401.69
327.686	1776.69
327.914	1113.69
328.143	751.69
328.372	629.69
328.6	615.69
328.829	573.69
329.058	597.69
329.287	624.69
329.515	567.69
329.744	549.69
329.972	544.69
330.201	559.69
330.43	610.69
330.658	597.69
330.887	638.69
331.115	620.69
331.344	564.69
331.572	515.69
331.801	507.69
332.03	506.69
332.258	511.69
332.486	480.69
332.715	479.69
332.943	474.69
333.172	488.69
333.4	480.69
333.629	501.69
333.857	505.69
334.085	512.69
334.314	552.69
334.542	575.69
334.771	576.69
334.999	554.69
335.227	494.69
335.455	495.69
335.684	470.69
335.912	464.69
336.14	482.69
336.369	494.69
336.597	497.69
336.825	506.69
337.053	489.69
337.281	453.69
337.51	452.69
337.738	471.69
337.966	461.69
338.194	472.69
338.422	460.69
338.65	479.69
338.878	470.69
339.106	459.69
339.334	459.69
339.562	446.69
339.79	438.69
340.018	447.69
340.246	472.69
340.474	493.69
340.702	474.69
340.93	469.69
341.158	463.69
341.386	467.69
341.614	459.69
341.842	467.69
342.07	439.69
342.298	445.69
342.526	466.69
342.754	438.69
342.981	441.69
343.209	451.69
343.437	462.69
343.665	451.69
343.893	469.69
344.12	456.69
344.348	476.69
344.576	454.69
344.804	471.69
345.031	483.69
345.259	477.69
345.487	482.69
345.714	486.69
345.942	441.69
346.17	454.69
346.397	471.69
346.625	434.69
346.853	451.69
347.08	434.69
347.308	455.69
347.535	447.69
347.763	473.69
347.99	466.69
348.218	447.69
348.445	452.69
348.673	477.69
348.9	455.69
349.128	451.69
349.355	421.69
349.583	447.69
349.81	438.69
350.037	421.69
350.265	443.69
350.492	437.69
350.72	431.69
350.947	421.69
351.174	462.69
351.402	450.69
351.629	464.69
351.856	434.69
352.083	452.69
352.311	467.69
352.538	473.69
352.765	483.69
352.992	462.69
353.22	460.69
353.447	443.69
353.674	443.69
353.901	460.69
354.128	432.69
354.355	424.69
354.583	408.69
354.81	421.69
355.037	428.69
355.264	422.69
355.491	412.69
355.718	412.69
355.945	404.69
356.172	425.69
356.399	424.69
356.626	417.69
356.853	425.69
357.08	396.69
357.307	421.69
357.534	403.69
357.761	424.69
357.988	415.69
358.215	426.69
358.441	422.69
358.668	405.69
358.895	425.69
359.122	431.69
359.349	446.69
359.576	443.69
359.802	463.69
360.029	508.69
360.256	525.69
360.483	495.69
360.709	457.69
360.936	476.69
361.163	458.69
361.39	452.69
361.616	461.69
361.843	480.69
362.07	471.69
362.296	451.69
362.523	443.69
362.749	447.69
362.976	453.69
363.203	441.69
363.429	447.69
363.656	451.69
363.882	433.69
364.109	449.69
364.335	457.69
364.562	441.69
364.788	424.69
365.015	437.69
365.241	447.69
365.468	421.69
365.694	431.69
365.92	448.69
366.147	447.69
366.373	441.69
366.599	421.69
366.826	435.69
367.052	439.69
367.278	437.69
367.505	438.69
367.731	421.69
367.957	446.69
368.184	437.69
368.41	445.69
368.636	460.69
368.862	442.69
369.089	443.69
369.315	456.69
369.541	455.69
369.767	464.69
369.993	455.69
370.219	434.69
370.445	445.69
370.672	449.69
370.898	440.69
371.124	439.69
371.35	456.69
371.576	449.69
371.802	435.69
372.028	449.69
372.254	445.69
372.48	443.69
372.706	462.69
372.932	453.69
373.158	420.69
373.384	454.69
373.61	441.69
373.835	455.69
374.061	455.69
374.287	454.69
374.513	459.69
374.739	443.69
374.965	452.69
375.191	432.69
375.416	449.69
375.642	441.69
375.868	432.69
376.094	462.69
376.319	458.69
376.545	453.69
376.771	447.69
376.997	441.69
377.222	428.69
377.448	444.69
377.674	449.69
377.899	425.69
378.125	438.69
378.35	456.69
378.576	416.69
378.802	447.69
379.027	432.69
379.253	430.69
379.478	439.69
379.704	439.69
379.929	430.69
380.155	455.69
380.38	427.69
380.606	441.69
380.831	450.69
381.057	440.69
381.282	454.69
381.507	453.69
381.733	450.69
381.958	429.69
382.184	441.69
382.409	455.69
382.634	463.69
382.86	473.69
383.085	451.69
383.31	483.69
383.535	472.69
383.761	474.69
383.986	456.69
384.211	496.69
384.436	449.69
384.662	492.69
384.887	463.69
385.112	465.69
385.337	478.69
385.562	488.69
385.787	502.69
386.013	513.69
386.238	468.69
386.463	535.69
386.688	514.69
386.913	489.69
387.138	496.69
387.363	514.69
387.588	483.69
387.813	499.69
388.038	484.69
388.263	489.69
388.488	496.69
388.713	493.69
388.938	486.69
389.163	501.69
389.387	490.69
389.612	497.69
389.837	505.69
390.062	490.69
390.287	493.69
390.512	514.69
390.736	477.69
390.961	482.69
391.186	501.69
391.411	505.69
391.636	512.69
391.86	513.69
392.085	528.69
392.31	518.69
392.534	507.69
392.759	513.69
392.984	496.69
393.208	510.69
393.433	491.69
393.658	497.69
393.882	496.69
394.107	505.69
394.331	525.69
394.556	485.69
394.78	502.69
395.005	509.69
395.229	504.69
395.454	496.69
395.678	519.69
395.903	543.69
396.127	562.69
396.352	540.69
396.576	511.69
396.801	509.69
397.025	535.69
397.249	517.69
397.474	557.69
397.698	515.69
397.922	561.69
398.147	575.69
398.371	573.69
398.595	571.69
398.82	573.69
399.044	593.69
399.268	605.69
399.492	645.69
399.717	658.69
399.941	704.69
400.165	699.69
400.389	754.69
400.613	674.69
400.837	633.69
401.062	603.69
401.286	586.69
401.51	577.69
401.734	573.69
401.958	562.69
402.182	585.69
402.406	603.69
402.63	618.69
402.854	581.69
403.078	579.69
403.302	596.69
403.526	581.69
403.75	618.69
403.974	606.69
404.198	588.69
404.422	608.69
404.645	607.69
404.869	603.69
405.093	639.69
405.317	699.69
405.541	710.69
405.765	673.69
405.988	607.69
406.212	643.69
406.436	638.69
406.66	677.69
406.883	657.69
407.107	661.69
407.331	706.69
407.555	808.69
407.778	799.69
408.002	725.69
408.226	675.69
408.449	670.69
408.673	668.69
408.896	702.69
409.12	706.69
409.344	698.69
409.567	635.69
409.791	631.69
410.014	604.69
410.238	587.69
410.461	615.69
410.685	634.69
410.908	627.69
411.132	653.69
411.355	701.69
411.578	642.69
411.802	619.69
412.025	605.69
412.249	602.69
412.472	642.69
412.695	674.69
412.919	681.69
413.142	638.69
413.365	582.69
413.589	579.69
413.812	586.69
414.035	574.69
414.258	582.69
414.482	572.69
414.705	578.69
414.928	569.69
415.151	567.69
415.374	581.69
415.597	562.69
415.821	567.69
416.044	568.69
416.267	568.69
416.49	561.69
416.713	546.69
416.936	558.69
417.159	565.69
417.382	577.69
417.605	575.69
417.828	585.69
418.051	587.69
418.274	572.69
418.497	551.69
418.72	578.69
418.943	548.69
419.166	586.69
419.389	638.69
419.611	609.69
419.834	607.69
420.057	605.69
420.28	622.69
420.503	601.69
420.726	576.69
420.948	611.69
421.171	647.69
421.394	686.69
421.617	624.69
421.839	617.69
422.062	604.69
422.285	608.69
422.507	674.69
422.73	754.69
422.953	752.69
423.175	656.69
423.398	615.69
423.621	634.69
423.843	658.69
424.066	643.69
424.288	641.69
424.511	651.69
424.733	711.69
424.956	809.69
425.178	763.69
425.401	751.69
425.623	811.69
425.846	718.69
426.068	654.69
426.291	643.69
426.513	638.69
426.735	655.69
426.958	690.69
427.18	797.69
427.402	921.69
427.625	1020.69
427.847	888.69
428.069	794.69
428.292	704.69
428.514	624.69
428.736	595.69
428.958	602.69
429.181	597.69
429.403	598.69
429.625	602.69
429.847	619.69
430.069	728.69
430.292	731.69
430.514	612.69
430.736	592.69
430.958	589.69
431.18	573.69
431.402	570.69
431.624	571.69
431.846	547.69
432.068	565.69
432.29	549.69
432.512	563.69
432.734	571.69
432.956	577.69
433.178	590.69
433.4	590.69
433.622	555.69
433.844	555.69
434.066	560.69
434.287	539.69
434.509	573.69
434.731	589.69
434.953	583.69
435.175	614.69
435.397	630.69
435.618	637.69
435.84	698.69
436.062	784.69
436.284	881.69
436.505	715.69
436.727	647.69
436.949	607.69
437.17	629.69
437.392	567.69
437.614	616.69
437.835	647.69
438.057	721.69
438.278	854.69
438.5	859.69
438.721	938.69
438.943	931.69
439.165	746.69
439.386	665.69
439.608	659.69
439.829	613.69
440.05	693.69
440.272	729.69
440.493	674.69
440.715	631.69
440.936	644.69
441.158	617.69
441.379	602.69
441.6	600.69
441.822	637.69
442.043	695.69
442.264	789.69
442.486	829.69
442.707	718.69
442.928	667.69
443.149	667.69
443.371	698.69
443.592	744.69
443.813	833.69
444.034	921.69
444.255	733.69
444.476	679.69
444.698	651.69
444.919	650.69
445.14	774.69
445.361	718.69
445.582	685.69
445.803	761.69
446.024	899.69
446.245	892.69
446.466	808.69
446.687	682.69
446.908	654.69
447.129	599.69
447.35	620.69
447.571	596.69
447.792	569.69
448.013	592.69
448.234	613.69
448.455	653.69
448.675	828.69
448.896	911.69
449.117	769.69
449.338	779.69
449.559	860.69
449.779	982.69
450	759.69
450.221	649.69
450.442	581.69
450.662	600.69
450.883	569.69
451.104	588.69
451.324	582.69
451.545	559.69
451.766	544.69
451.986	539.69
452.207	517.69
452.428	536.69
452.648	540.69
452.869	522.69
453.089	562.69
453.31	549.69
453.53	524.69
453.751	538.69
453.971	526.69
454.192	576.69
454.412	520.69
454.633	527.69
454.853	510.69
455.073	514.69
455.294	555.69
455.514	626.69
455.734	602.69
455.955	521.69
456.175	489.69
456.395	507.69
456.616	504.69
456.836	533.69
457.056	526.69
457.276	494.69
457.497	496.69
457.717	508.69
457.937	502.69
458.157	523.69
458.377	523.69
458.598	541.69
458.818	585.69
459.038	668.69
459.258	711.69
459.478	600.69
459.698	553.69
459.918	562.69
460.138	570.69
460.358	562.69
460.578	580.69
460.798	588.69
461.018	587.69
461.238	569.69
461.458	569.69
461.678	555.69
461.898	569.69
462.118	589.69
462.338	617.69
462.558	593.69
462.777	591.69
462.997	640.69
463.217	616.69
463.437	675.69
463.657	652.69
463.876	626.69
464.096	621.69
464.316	618.69
464.536	621.69
464.755	633.69
464.975	628.69
465.195	666.69
465.414	758.69
465.634	677.69
465.854	602.69
466.073	581.69
466.293	577.69
466.512	546.69
466.732	565.69
466.951	541.69
467.171	539.69
467.391	519.69
467.61	559.69
467.829	534.69
468.049	570.69
468.268	557.69
468.488	517.69
468.707	519.69
468.927	511.69
469.146	521.69
469.365	546.69
469.585	526.69
469.804	531.69
470.023	561.69
470.243	565.69
470.462	561.69
470.681	583.69
470.901	578.69
471.12	554.69
471.339	556.69
471.558	569.69
471.777	537.69
471.997	557.69
472.216	547.69
472.435	599.69
472.654	587.69
472.873	534.69
473.092	536.69
473.311	542.69
473.53	530.69
473.749	553.69
473.968	617.69
474.187	736.69
474.406	729.69
474.625	625.69
474.844	561.69
475.063	555.69
475.282	549.69
475.501	586.69
475.72	566.69
475.939	560.69
476.158	566.69
476.377	571.69
476.596	575.69
476.814	595.69
477.033	592.69
477.252	583.69
477.471	586.69
477.69	600.69
477.908	614.69
478.127	608.69
478.346	590.69
478.564	617.69
478.783	622.69
479.002	608.69
479.22	621.69
479.439	667.69
479.658	677.69
479.876	650.69
480.095	688.69
480.313	710.69
480.532	695.69
480.751	681.69
480.969	687.69
481.188	763.69
481.406	812.69
481.624	727.69
481.843	681.69
482.061	647.69
482.28	651.69
482.498	679.69
482.717	649.69
482.935	667.69
483.153	639.69
483.372	655.69
483.59	647.69
483.808	655.69
484.027	641.69
484.245	650.69
484.463	642.69
484.681	665.69
484.9	658.69
485.118	661.69
485.336	672.69
485.554	681.69
485.772	681.69
485.99	679.69
486.209	669.69
486.427	686.69
486.645	697.69
486.863	719.69
487.081	706.69
487.299	690.69
487.517	711.69
487.735	690.69
487.953	676.69
488.171	693.69
488.389	703.69
488.607	701.69
488.825	703.69
489.043	708.69
489.261	711.69
489.479	710.69
489.696	728.69
489.914	730.69
490.132	730.69
490.35	758.69
490.568	742.69
490.786	739.69
491.003	775.69
491.221	757.69
491.439	787.69
491.657	790.69
491.874	769.69
492.092	798.69
492.31	815.69
492.527	830.69
492.745	835.69
492.963	803.69
493.18	805.69
493.398	842.69
493.615	828.69
493.833	813.69
494.05	824.69
494.268	813.69
494.485	824.69
494.703	811.69
494.92	844.69
495.138	832.69
495.355	803.69
495.573	841.69
495.79	825.69
496.008	832.69
496.225	832.69
496.442	838.69
496.66	817.69
496.877	801.69
497.094	852.69
497.312	852.69
497.529	867.69
497.746	877.69
497.963	889.69
498.181	922.69
498.398	941.69
498.615	951.69
498.832	943.69
499.049	934.69
499.267	971.69
499.484	1005.69
499.701	1061.69
499.918	1093.69
500.135	1155.69
500.352	1165.69
500.569	1192.69
500.786	1203.69
501.003	1195.69
501.22	1149.69
501.437	1145.69
501.654	1107.69
501.871	1075.69
502.088	1039.69
502.305	1001.69
502.522	973.69
502.739	945.69
502.956	904.69
503.172	883.69
503.389	873.69
503.606	897.69
503.823	899.69
504.04	865.69
504.256	869.69
504.473	851.69
504.69	861.69
504.907	819.69
505.123	811.69
505.34	817.69
505.557	794.69
505.773	807.69
505.99	817.69
506.207	805.69
506.423	802.69
506.64	793.69
506.856	792.69
507.073	808.69
507.289	785.69
507.506	775.69
507.722	766.69
507.939	825.69
508.155	773.69
508.372	768.69
508.588	745.69
508.805	760.69
509.021	752.69
509.238	764.69
509.454	758.69
509.67	773.69
509.887	737.69
510.103	743.69
510.319	750.69
510.536	837.69
510.752	1322.69
510.968	1095.69
511.184	755.69
511.401	707.69
511.617	730.69
511.833	730.69
512.049	719.69
512.265	711.69
512.481	702.69
512.698	715.69
512.914	717.69
513.13	711.69
513.346	690.69
513.562	670.69
513.778	718.69
513.994	700.69
514.21	710.69
514.426	768.69
514.642	793.69
514.858	819.69
515.074	870.69
515.29	973.69
515.506	1358.69
515.721	1128.69
515.937	855.69
516.153	787.69
516.369	745.69
516.585	759.69
516.801	746.69
517.016	739.69
517.232	746.69
517.448	744.69
517.664	743.69
517.879	747.69
518.095	736.69
518.311	743.69
518.527	727.69
518.742	718.69
518.958	697.69
519.173	719.69
519.389	717.69
519.605	706.69
519.82	717.69
520.036	718.69
520.251	739.69
520.467	759.69
520.682	771.69
520.898	759.69
521.113	782.69
521.329	825.69
521.544	887.69
521.76	1067.69
521.975	1755.69
522.19	1689.69
522.406	975.69
522.621	775.69
522.836	745.69
523.052	697.69
523.267	679.69
523.482	668.69
523.698	653.69
523.913	654.69
524.128	662.69
524.343	619.69
524.559	605.69
524.774	613.69
524.989	625.69
525.204	620.69
525.419	609.69
525.634	604.69
525.849	596.69
526.064	581.69
526.28	613.69
526.495	580.69
526.71	610.69
526.925	589.69
527.14	589.69
527.355	576.69
527.57	572.69
527.785	602.69
527.999	584.69
528.214	575.69
528.429	571.69
528.644	579.69
528.859	585.69
529.074	575.69
529.289	607.69
529.503	659.69
529.718	677.69
529.933	623.69
530.148	601.69
530.363	585.69
530.577	583.69
530.792	570.69
531.007	562.69
531.221	567.69
531.436	565.69
531.651	592.69
531.865	560.69
532.08	559.69
532.295	570.69
532.509	566.69
532.724	559.69
532.938	558.69
533.153	547.69
533.367	554.69
533.582	537.69
533.796	573.69
534.011	558.69
534.225	553.69
534.44	544.69
534.654	541.69
534.868	544.69
535.083	530.69
535.297	536.69
535.511	561.69
535.726	557.69
535.94	575.69
536.154	551.69
536.369	551.69
536.583	523.69
536.797	552.69
537.011	525.69
537.225	521.69
537.44	530.69
537.654	525.69
537.868	524.69
538.082	541.69
538.296	528.69
538.51	540.69
538.724	538.69
538.938	544.69
539.153	547.69
539.367	546.69
539.581	537.69
539.795	527.69
540.009	517.69
540.222	516.69
540.436	532.69
540.65	537.69
540.864	541.69
541.078	562.69
541.292	530.69
541.506	543.69
541.72	522.69
541.934	545.69
542.147	541.69
542.361	533.69
542.575	522.69
542.789	525.69
543.002	521.69
543.216	524.69
543.43	540.69
543.644	538.69
543.857	516.69
544.071	517.69
544.285	534.69
544.498	519.69
544.712	524.69
544.925	519.69
545.139	517.69
545.352	526.69
545.566	510.69
545.779	518.69
545.993	493.69
546.206	504.69
546.42	517.69
546.633	530.69
546.847	516.69
547.06	496.69
547.274	519.69
547.487	505.69
547.7	491.69
547.914	521.69
548.127	531.69
548.34	512.69
548.554	490.69
548.767	527.69
548.98	503.69
549.193	493.69
549.407	504.69
549.62	491.69
549.833	496.69
550.046	499.69
550.259	485.69
550.473	514.69
550.686	499.69
550.899	501.69
551.112	496.69
551.325	502.69
551.538	506.69
551.751	498.69
551.964	495.69
552.177	510.69
552.39	500.69
552.603	513.69
552.816	524.69
553.029	504.69
553.242	510.69
553.455	518.69
553.667	519.69
553.88	527.69
554.093	493.69
554.306	515.69
554.519	510.69
554.732	495.69
554.944	513.69
555.157	502.69
555.37	488.69
555.583	498.69
555.795	480.69
556.008	460.69
556.221	479.69
556.433	468.69
556.646	479.69
556.859	478.69
557.071	474.69
557.284	452.69
557.496	472.69
557.709	459.69
557.921	463.69
558.134	457.69
558.346	442.69
558.559	445.69
558.771	460.69
558.984	444.69
559.196	467.69
559.409	437.69
559.621	445.69
559.833	440.69
560.046	446.69
560.258	452.69
560.47	435.69
560.683	425.69
560.895	440.69
561.107	468.69
561.32	460.69
561.532	445.69
561.744	457.69
561.956	454.69
562.168	447.69
562.381	461.69
562.593	447.69
562.805	465.69
563.017	475.69
563.229	464.69
563.441	477.69
563.653	459.69
563.865	459.69
564.077	478.69
564.289	454.69
564.501	465.69
564.713	494.69
564.925	483.69
565.137	508.69
565.349	485.69
565.561	490.69
565.773	505.69
565.985	521.69
566.197	519.69
566.408	527.69
566.62	543.69
566.832	560.69
567.044	585.69
567.255	562.69
567.467	588.69
567.679	590.69
567.891	594.69
568.102	583.69
568.314	561.69
568.526	543.69
568.737	523.69
568.949	513.69
569.161	487.69
569.372	498.69
569.584	492.69
569.795	466.69
570.007	457.69
570.218	492.69
570.43	487.69
570.641	452.69
570.853	466.69
571.064	443.69
571.276	446.69
571.487	447.69
571.698	432.69
571.91	424.69
572.121	420.69
572.333	404.69
572.544	403.69
572.755	405.69
572.966	401.69
573.178	407.69
573.389	419.69
573.6	403.69
573.811	411.69
574.023	400.69
574.234	415.69
574.445	378.69
574.656	384.69
574.867	375.69
575.078	391.69
575.289	377.69
575.501	384.69
575.712	392.69
575.923	380.69
576.134	379.69
576.345	386.69
576.556	408.69
576.767	378.69
576.978	390.69
577.188	383.69
577.399	364.69
577.61	389.69
577.821	382.69
578.032	373.69
578.243	404.69
578.454	607.69
578.665	473.69
578.875	382.69
579.086	370.69
579.297	375.69
579.508	367.69
579.718	364.69
579.929	360.69
580.14	349.69
580.35	361.69
580.561	366.69
580.772	342.69
580.982	338.69
581.193	350.69
581.403	353.69
581.614	354.69
581.825	354.69
582.035	365.69
582.246	364.69
582.456	348.69
582.667	355.69
582.877	353.69
583.087	354.69
583.298	340.69
583.508	346.69
583.719	348.69
583.929	351.69
584.139	343.69
584.35	343.69
584.56	345.69
584.77	353.69
584.981	356.69
585.191	346.69
585.401	352.69
585.611	340.69
585.821	352.69
586.032	342.69
586.242	344.69
586.452	339.69
586.662	357.69
586.872	335.69
587.082	335.69
587.292	324.69
587.502	354.69
587.713	350.69
587.923	339.69
588.133	364.69
588.343	337.69
588.553	347.69
588.762	350.69
588.972	333.69
589.182	349.69
589.392	323.69
589.602	337.69
589.812	339.69
590.022	338.69
590.232	330.69
590.441	347.69
590.651	324.69
590.861	335.69
591.071	339.69
591.281	354.69
591.49	348.69
591.7	355.69
591.91	339.69
592.119	343.69
592.329	339.69
592.539	357.69
592.748	375.69
592.958	348.69
593.167	370.69
593.377	368.69
593.587	363.69
593.796	370.69
594.006	347.69
594.215	384.69
594.424	367.69
594.634	361.69
594.843	357.69
595.053	365.69
595.262	338.69
595.472	335.69
595.681	330.69
595.89	335.69
596.1	343.69
596.309	322.69
596.518	297.69
596.727	303.69
596.937	321.69
597.146	324.69
597.355	319.69
597.564	306.69
597.774	325.69
597.983	329.69
598.192	318.69
598.401	319.69
598.61	300.69
598.819	309.69
599.028	309.69
599.237	322.69
599.446	297.69
599.655	317.69
599.864	307.69
600.073	283.69
600.282	299.69
600.491	297.69
600.7	298.69
600.909	290.69
601.118	306.69
601.327	301.69
601.536	311.69
601.745	278.69
601.953	289.69
602.162	311.69
602.371	295.69
602.58	296.69
602.789	293.69
602.997	305.69
603.206	298.69
603.415	270.69
603.623	290.69
603.832	296.69
604.041	282.69
604.249	301.69
604.458	283.69
604.666	273.69
604.875	286.69
605.084	289.69
605.292	280.69
605.501	295.69
605.709	271.69
605.918	285.69
606.126	278.69
606.334	281.69
606.543	294.69
606.751	286.69
606.96	293.69
607.168	271.69
607.376	277.69
607.585	280.69
607.793	305.69
608.001	280.69
608.21	276.69
608.418	287.69
608.626	273.69
608.834	270.69
609.043	267.69
609.251	287.69
609.459	282.69
609.667	277.69
609.875	276.69
610.083	271.69
610.291	278.69
610.499	263.69
610.707	266.69
610.916	291.69
611.124	282.69
611.332	262.69
611.54	270.69
611.748	273.69
611.955	287.69
612.163	281.69
612.371	294.69
612.579	282.69
612.787	281.69
612.995	266.69
613.203	275.69
613.411	267.69
613.618	289.69
613.826	248.69
614.034	270.69
614.242	265.69
614.449	275.69
614.657	284.69
614.865	265.69
615.072	284.69
615.28	271.69
615.488	265.69
615.695	259.69
615.903	255.69
616.111	284.69
616.318	257.69
616.526	280.69
616.733	265.69
616.941	274.69
617.148	289.69
617.356	279.69
617.563	246.69
617.771	246.69
617.978	269.69
618.185	256.69
618.393	268.69
618.6	257.69
618.807	268.69
619.015	253.69
619.222	265.69
619.429	257.69
619.637	254.69
619.844	254.69
620.051	250.69
620.258	254.69
620.466	255.69
620.673	245.69
620.88	231.69
621.087	246.69
621.294	247.69
621.501	259.69
621.708	254.69
621.915	251.69
622.122	250.69
622.329	248.69
622.536	256.69
622.743	255.69
622.95	257.69
623.157	248.69
623.364	256.69
623.571	250.69
623.778	262.69
623.985	257.69
624.192	240.69
624.399	267.69
624.606	238.69
624.812	224.69
625.019	231.69
625.226	253.69
625.433	255.69
625.639	245.69
625.846	228.69
626.053	235.69
626.259	229.69
626.466	221.69
626.673	237.69
626.879	235.69
627.086	253.69
627.293	238.69
627.499	236.69
627.706	226.69
627.912	229.69
628.119	235.69
628.325	254.69
628.532	216.69
628.738	222.69
628.945	218.69
629.151	209.69
629.357	228.69
629.564	234.69
629.77	231.69
629.976	222.69
630.183	230.69
630.389	227.69
630.595	226.69
630.802	215.69
631.008	226.69
631.214	233.69
631.42	210.69
631.627	223.69
631.833	227.69
632.039	208.69
632.245	211.69
632.451	229.69
632.657	217.69
632.863	221.69
633.069	211.69
633.275	205.69
633.481	218.69
633.688	197.69
633.893	205.69
634.099	218.69
634.305	206.69
634.511	227.69
634.717	197.69
634.923	193.69
635.129	197.69
635.335	207.69
635.541	211.69
635.747	213.69
635.952	207.69
636.158	221.69
636.364	209.69
636.57	208.69
636.775	221.69
636.981	192.69
637.187	211.69
637.392	206.69
637.598	200.69
637.804	191.69
638.009	191.69
638.215	210.69
638.421	201.69
638.626	206.69
638.832	173.69
639.037	207.69
639.243	197.69
639.448	184.69
639.654	197.69
639.859	206.69
640.065	193.69
640.27	193.69
640.475	187.69
640.681	174.69
640.886	191.69
641.091	199.69
641.297	195.69
641.502	197.69
641.707	183.69
641.913	183.69
642.118	201.69
642.323	206.69
642.528	206.69
642.733	192.69
642.939	185.69
643.144	179.69
643.349	193.69
643.554	184.69
643.759	177.69
643.964	178.69
644.169	187.69
644.374	202.69
644.579	191.69
644.784	193.69
644.989	183.69
645.194	193.69
645.399	170.69
645.604	177.69
645.809	202.69
646.014	190.69
646.219	183.69
646.423	180.69
646.628	177.69
646.833	173.69
647.038	179.69
647.243	199.69
647.447	163.69
647.652	181.69
647.857	181.69
648.062	166.69
648.266	191.69
648.471	202.69
648.676	171.69
648.88	184.69
649.085	201.69
649.289	168.69
649.494	199.69
649.698	207.69
649.903	203.69
650.107	189.69
650.312	170.69
650.516	194.69
650.721	170.69
650.925	177.69
651.13	171.69
651.334	184.69
651.539	181.69
651.743	163.69
651.947	186.69
652.152	164.69
652.356	159.69
652.56	167.69
652.764	178.69
652.969	147.69
653.173	153.69
653.377	159.69
653.581	154.69
653.785	153.69
653.99	162.69
654.194	147.69
654.398	160.69
654.602	146.69
654.806	152.69
655.01	163.69
655.214	155.69
655.418	137.69
655.622	150.69
655.826	146.69
656.03	135.69
656.234	166.69
656.438	154.69
656.642	153.69
656.846	144.69
657.049	128.69
657.253	131.69
657.457	128.69
657.661	125.69
657.865	114.69
658.068	129.69
658.272	123.69
658.476	128.69
658.68	134.69
658.883	112.69
659.087	112.69
659.291	108.69
659.494	105.69
659.698	107.69
659.901	110.69
660.105	110.69
660.309	101.69
660.512	87.69
660.716	101.69
660.919	91.69
661.123	102.69
661.326	98.69
661.53	89.69
661.733	103.69
661.936	99.69
662.14	106.69
662.343	104.69
662.546	85.69
662.75	102.69
662.953	78.69
663.156	97.69
663.36	82.69
663.563	73.69
663.766	93.69
663.969	87.69
664.173	88.69
664.376	102.69
664.579	90.69
664.782	73.69
664.985	78.69
665.188	92.69
665.391	83.69
665.594	89.69
665.797	87.69
666	87.69
666.203	81.69
666.406	82.69
666.609	94.69
666.812	93.69
667.015	96.69
667.218	90.69
667.421	90.69
667.624	95.69
667.827	88.69
668.03	94.69
668.232	86.69
668.435	95.69
668.638	86.69
668.841	80.69
669.043	96.69
669.246	80.69
669.449	85.69
669.651	96.69
669.854	74.69
670.057	84.69
670.259	81.69
670.462	87.69
670.665	91.69
670.867	80.69
671.07	75.69
671.272	82.69
671.475	90.69
671.677	89.69
671.88	92.69
672.082	91.69
672.284	98.69
672.487	91.69
672.689	88.69
672.892	77.69
