Data from 1966.PennyLincolnUp.Lamp.En5.5.200Scan.071719.P1._HRD10591_14-13-11-913.txt Node
Date: Thu Jul 18 14:13:11 EDT 2019
User: cochatt
Spectrometer: HR+D1059
Trigger mode: 1
Integration Time (sec): 1.000000E-1
Scans to average: 1
Electric dark correction enabled: true
Nonlinearity correction enabled: false
Boxcar width: 0
XAxis mode: Wavelengths
Number of Pixels in Spectrum: 2048
>>>>>Begin Spectral Data<<<<<
223.165	6.06
223.4	6.06
223.635	6.06
223.869	-23.94
224.104	-30.94
224.338	-16.94
224.573	-3.94
224.808	-18.94
225.042	-9.94
225.277	-1.94
225.511	2.06
225.746	6.06
225.98	5.06
226.215	14.06
226.449	20.06
226.683	5.06
226.918	15.06
227.152	33.06
227.387	42.06
227.621	30.06
227.856	44.06
228.09	41.06
228.324	38.06
228.559	62.06
228.793	56.06
229.027	61.06
229.262	82.06
229.496	80.06
229.73	102.06
229.964	106.06
230.199	85.06
230.433	88.06
230.667	96.06
230.901	85.06
231.136	89.06
231.37	92.06
231.604	85.06
231.838	102.06
232.072	80.06
232.306	85.06
232.541	93.06
232.775	96.06
233.009	85.06
233.243	75.06
233.477	94.06
233.711	88.06
233.945	80.06
234.179	98.06
234.413	90.06
234.647	101.06
234.881	97.06
235.115	86.06
235.349	82.06
235.583	79.06
235.817	93.06
236.051	93.06
236.285	98.06
236.519	83.06
236.753	120.06
236.987	97.06
237.221	119.06
237.455	135.06
237.689	114.06
237.922	104.06
238.156	90.06
238.39	95.06
238.624	87.06
238.858	95.06
239.091	89.06
239.325	83.06
239.559	92.06
239.793	100.06
240.027	102.06
240.26	102.06
240.494	119.06
240.728	106.06
240.961	105.06
241.195	97.06
241.429	94.06
241.662	107.06
241.896	97.06
242.13	86.06
242.363	99.06
242.597	95.06
242.83	111.06
243.064	91.06
243.298	116.06
243.531	82.06
243.765	98.06
243.998	100.06
244.232	98.06
244.465	93.06
244.699	111.06
244.932	93.06
245.166	112.06
245.399	108.06
245.633	97.06
245.866	96.06
246.099	83.06
246.333	104.06
246.566	107.06
246.8	103.06
247.033	102.06
247.266	113.06
247.5	116.06
247.733	111.06
247.966	127.06
248.2	120.06
248.433	109.06
248.666	110.06
248.899	140.06
249.133	119.06
249.366	135.06
249.599	123.06
249.832	124.06
250.066	133.06
250.299	120.06
250.532	133.06
250.765	125.06
250.998	139.06
251.231	142.06
251.465	129.06
251.698	133.06
251.931	134.06
252.164	111.06
252.397	123.06
252.63	114.06
252.863	122.06
253.096	136.06
253.329	139.06
253.562	130.06
253.795	129.06
254.028	135.06
254.261	140.06
254.494	151.06
254.727	161.06
254.96	174.06
255.193	156.06
255.426	157.06
255.659	132.06
255.892	135.06
256.124	146.06
256.357	143.06
256.59	137.06
256.823	137.06
257.056	109.06
257.289	137.06
257.521	131.06
257.754	125.06
257.987	126.06
258.22	127.06
258.452	124.06
258.685	133.06
258.918	129.06
259.151	119.06
259.383	126.06
259.616	126.06
259.849	132.06
260.081	151.06
260.314	162.06
260.547	151.06
260.779	148.06
261.012	152.06
261.244	153.06
261.477	148.06
261.71	124.06
261.942	137.06
262.175	140.06
262.407	142.06
262.64	138.06
262.872	131.06
263.105	123.06
263.337	124.06
263.57	116.06
263.802	141.06
264.035	127.06
264.267	133.06
264.499	134.06
264.732	145.06
264.964	130.06
265.197	139.06
265.429	140.06
265.661	137.06
265.894	141.06
266.126	130.06
266.358	133.06
266.591	130.06
266.823	145.06
267.055	139.06
267.287	148.06
267.52	155.06
267.752	129.06
267.984	142.06
268.216	129.06
268.448	127.06
268.681	147.06
268.913	138.06
269.145	164.06
269.377	170.06
269.609	154.06
269.841	163.06
270.073	160.06
270.306	162.06
270.538	184.06
270.77	184.06
271.002	157.06
271.234	162.06
271.466	175.06
271.698	175.06
271.93	183.06
272.162	177.06
272.394	180.06
272.626	167.06
272.858	161.06
273.09	168.06
273.322	160.06
273.553	144.06
273.785	141.06
274.017	148.06
274.249	152.06
274.481	144.06
274.713	148.06
274.945	153.06
275.176	153.06
275.408	157.06
275.64	152.06
275.872	154.06
276.104	159.06
276.335	159.06
276.567	156.06
276.799	169.06
277.031	181.06
277.262	189.06
277.494	165.06
277.726	170.06
277.957	164.06
278.189	155.06
278.421	155.06
278.652	160.06
278.884	177.06
279.115	165.06
279.347	153.06
279.579	155.06
279.81	157.06
280.042	170.06
280.273	141.06
280.505	164.06
280.736	161.06
280.968	165.06
281.199	163.06
281.431	154.06
281.662	154.06
281.894	144.06
282.125	158.06
282.356	174.06
282.588	171.06
282.819	180.06
283.051	157.06
283.282	155.06
283.513	161.06
283.745	142.06
283.976	172.06
284.207	151.06
284.439	179.06
284.67	179.06
284.901	162.06
285.132	163.06
285.364	151.06
285.595	151.06
285.826	149.06
286.057	163.06
286.288	158.06
286.52	148.06
286.751	160.06
286.982	142.06
287.213	162.06
287.444	163.06
287.675	154.06
287.906	177.06
288.138	177.06
288.369	161.06
288.6	170.06
288.831	173.06
289.062	158.06
289.293	165.06
289.524	171.06
289.755	161.06
289.986	167.06
290.217	168.06
290.448	174.06
290.679	167.06
290.91	168.06
291.141	163.06
291.371	159.06
291.602	179.06
291.833	169.06
292.064	169.06
292.295	164.06
292.526	166.06
292.757	181.06
292.987	163.06
293.218	177.06
293.449	161.06
293.68	163.06
293.91	166.06
294.141	181.06
294.372	166.06
294.603	172.06
294.833	177.06
295.064	166.06
295.295	165.06
295.525	159.06
295.756	175.06
295.987	172.06
296.217	169.06
296.448	177.06
296.679	170.06
296.909	168.06
297.14	163.06
297.37	165.06
297.601	159.06
297.831	170.06
298.062	192.06
298.292	163.06
298.523	168.06
298.753	158.06
298.984	178.06
299.214	150.06
299.445	165.06
299.675	171.06
299.905	174.06
300.136	176.06
300.366	171.06
300.597	186.06
300.827	164.06
301.057	177.06
301.288	179.06
301.518	186.06
301.748	184.06
301.979	203.06
302.209	191.06
302.439	179.06
302.669	182.06
302.9	179.06
303.13	188.06
303.36	181.06
303.59	190.06
303.82	187.06
304.051	185.06
304.281	164.06
304.511	177.06
304.741	185.06
304.971	183.06
305.201	167.06
305.431	195.06
305.661	178.06
305.891	190.06
306.121	175.06
306.352	178.06
306.582	191.06
306.812	187.06
307.042	178.06
307.272	190.06
307.502	185.06
307.731	188.06
307.961	178.06
308.191	189.06
308.421	185.06
308.651	184.06
308.881	193.06
309.111	199.06
309.341	165.06
309.571	198.06
309.8	182.06
310.03	205.06
310.26	205.06
310.49	182.06
310.72	205.06
310.949	195.06
311.179	218.06
311.409	200.06
311.639	207.06
311.868	188.06
312.098	205.06
312.328	198.06
312.557	218.06
312.787	213.06
313.017	204.06
313.246	202.06
313.476	205.06
313.706	209.06
313.935	197.06
314.165	226.06
314.394	218.06
314.624	218.06
314.853	202.06
315.083	204.06
315.312	203.06
315.542	194.06
315.771	192.06
316.001	192.06
316.23	207.06
316.46	191.06
316.689	205.06
316.919	196.06
317.148	211.06
317.377	217.06
317.607	202.06
317.836	188.06
318.065	186.06
318.295	200.06
318.524	207.06
318.753	195.06
318.983	202.06
319.212	204.06
319.441	196.06
319.67	209.06
319.9	207.06
320.129	186.06
320.358	204.06
320.587	193.06
320.816	196.06
321.046	212.06
321.275	208.06
321.504	214.06
321.733	216.06
321.962	221.06
322.191	232.06
322.42	231.06
322.649	210.06
322.878	217.06
323.108	248.06
323.337	242.06
323.566	242.06
323.795	267.06
324.024	280.06
324.253	353.06
324.482	517.06
324.71	707.06
324.939	969.06
325.168	777.06
325.397	401.06
325.626	281.06
325.855	253.06
326.084	243.06
326.313	247.06
326.542	257.06
326.77	276.06
326.999	319.06
327.228	411.06
327.457	632.06
327.686	705.06
327.914	455.06
328.143	319.06
328.372	298.06
328.6	285.06
328.829	274.06
329.058	290.06
329.287	293.06
329.515	283.06
329.744	255.06
329.972	246.06
330.201	279.06
330.43	308.06
330.658	307.06
330.887	325.06
331.115	302.06
331.344	271.06
331.572	251.06
331.801	259.06
332.03	245.06
332.258	253.06
332.486	246.06
332.715	232.06
332.943	246.06
333.172	226.06
333.4	240.06
333.629	226.06
333.857	226.06
334.085	260.06
334.314	267.06
334.542	290.06
334.771	300.06
334.999	257.06
335.227	256.06
335.455	246.06
335.684	229.06
335.912	229.06
336.14	232.06
336.369	233.06
336.597	243.06
336.825	245.06
337.053	230.06
337.281	231.06
337.51	204.06
337.738	243.06
337.966	224.06
338.194	223.06
338.422	215.06
338.65	214.06
338.878	225.06
339.106	215.06
339.334	216.06
339.562	225.06
339.79	220.06
340.018	221.06
340.246	232.06
340.474	220.06
340.702	215.06
340.93	226.06
341.158	214.06
341.386	208.06
341.614	230.06
341.842	212.06
342.07	210.06
342.298	219.06
342.526	199.06
342.754	193.06
342.981	213.06
343.209	229.06
343.437	213.06
343.665	203.06
343.893	220.06
344.12	224.06
344.348	232.06
344.576	236.06
344.804	219.06
345.031	230.06
345.259	218.06
345.487	220.06
345.714	229.06
345.942	229.06
346.17	219.06
346.397	214.06
346.625	215.06
346.853	211.06
347.08	211.06
347.308	221.06
347.535	205.06
347.763	228.06
347.99	207.06
348.218	219.06
348.445	221.06
348.673	222.06
348.9	208.06
349.128	211.06
349.355	210.06
349.583	224.06
349.81	195.06
350.037	219.06
350.265	206.06
350.492	204.06
350.72	207.06
350.947	198.06
351.174	213.06
351.402	228.06
351.629	221.06
351.856	217.06
352.083	213.06
352.311	215.06
352.538	219.06
352.765	230.06
352.992	208.06
353.22	227.06
353.447	210.06
353.674	204.06
353.901	216.06
354.128	203.06
354.355	199.06
354.583	216.06
354.81	201.06
355.037	207.06
355.264	219.06
355.491	203.06
355.718	193.06
355.945	188.06
356.172	189.06
356.399	201.06
356.626	200.06
356.853	189.06
357.08	198.06
357.307	210.06
357.534	196.06
357.761	199.06
357.988	195.06
358.215	184.06
358.441	214.06
358.668	192.06
358.895	207.06
359.122	211.06
359.349	191.06
359.576	226.06
359.802	244.06
360.029	247.06
360.256	259.06
360.483	233.06
360.709	210.06
360.936	228.06
361.163	211.06
361.39	210.06
361.616	204.06
361.843	214.06
362.07	201.06
362.296	220.06
362.523	229.06
362.749	222.06
362.976	212.06
363.203	199.06
363.429	218.06
363.656	219.06
363.882	195.06
364.109	207.06
364.335	214.06
364.562	206.06
364.788	204.06
365.015	196.06
365.241	211.06
365.468	197.06
365.694	199.06
365.92	213.06
366.147	200.06
366.373	218.06
366.599	196.06
366.826	191.06
367.052	211.06
367.278	185.06
367.505	205.06
367.731	206.06
367.957	192.06
368.184	201.06
368.41	219.06
368.636	213.06
368.862	199.06
369.089	203.06
369.315	203.06
369.541	202.06
369.767	201.06
369.993	191.06
370.219	197.06
370.445	207.06
370.672	214.06
370.898	194.06
371.124	206.06
371.35	209.06
371.576	187.06
371.802	194.06
372.028	193.06
372.254	186.06
372.48	195.06
372.706	197.06
372.932	213.06
373.158	187.06
373.384	214.06
373.61	211.06
373.835	198.06
374.061	208.06
374.287	199.06
374.513	209.06
374.739	213.06
374.965	205.06
375.191	197.06
375.416	194.06
375.642	205.06
375.868	190.06
376.094	200.06
376.319	198.06
376.545	193.06
376.771	199.06
376.997	184.06
377.222	197.06
377.448	190.06
377.674	198.06
377.899	210.06
378.125	196.06
378.35	196.06
378.576	196.06
378.802	207.06
379.027	207.06
379.253	219.06
379.478	212.06
379.704	218.06
379.929	198.06
380.155	202.06
380.38	197.06
380.606	225.06
380.831	197.06
381.057	204.06
381.282	209.06
381.507	204.06
381.733	202.06
381.958	207.06
382.184	215.06
382.409	202.06
382.634	202.06
382.86	197.06
383.085	212.06
383.31	211.06
383.535	213.06
383.761	218.06
383.986	213.06
384.211	214.06
384.436	225.06
384.662	219.06
384.887	210.06
385.112	192.06
385.337	219.06
385.562	212.06
385.787	213.06
386.013	206.06
386.238	207.06
386.463	217.06
386.688	211.06
386.913	226.06
387.138	215.06
387.363	209.06
387.588	203.06
387.813	215.06
388.038	215.06
388.263	217.06
388.488	208.06
388.713	209.06
388.938	216.06
389.163	230.06
389.387	205.06
389.612	202.06
389.837	200.06
390.062	219.06
390.287	221.06
390.512	210.06
390.736	207.06
390.961	216.06
391.186	211.06
391.411	214.06
391.636	222.06
391.86	211.06
392.085	211.06
392.31	212.06
392.534	228.06
392.759	217.06
392.984	217.06
393.208	217.06
393.433	232.06
393.658	234.06
393.882	217.06
394.107	218.06
394.331	231.06
394.556	210.06
394.78	228.06
395.005	237.06
395.229	213.06
395.454	216.06
395.678	244.06
395.903	244.06
396.127	231.06
396.352	243.06
396.576	211.06
396.801	226.06
397.025	226.06
397.249	221.06
397.474	238.06
397.698	242.06
397.922	236.06
398.147	252.06
398.371	237.06
398.595	242.06
398.82	236.06
399.044	229.06
399.268	246.06
399.492	265.06
399.717	278.06
399.941	292.06
400.165	300.06
400.389	280.06
400.613	265.06
400.837	261.06
401.062	251.06
401.286	247.06
401.51	241.06
401.734	238.06
401.958	249.06
402.182	228.06
402.406	249.06
402.63	242.06
402.854	265.06
403.078	247.06
403.302	243.06
403.526	264.06
403.75	236.06
403.974	242.06
404.198	234.06
404.422	250.06
404.645	269.06
404.869	235.06
405.093	261.06
405.317	298.06
405.541	282.06
405.765	291.06
405.988	263.06
406.212	257.06
406.436	302.06
406.66	299.06
406.883	276.06
407.107	284.06
407.331	292.06
407.555	322.06
407.778	314.06
408.002	307.06
408.226	287.06
408.449	263.06
408.673	280.06
408.896	282.06
409.12	284.06
409.344	286.06
409.567	258.06
409.791	253.06
410.014	240.06
410.238	257.06
410.461	270.06
410.685	247.06
410.908	245.06
411.132	265.06
411.355	293.06
411.578	264.06
411.802	249.06
412.025	259.06
412.249	261.06
412.472	247.06
412.695	292.06
412.919	269.06
413.142	271.06
413.365	229.06
413.589	242.06
413.812	233.06
414.035	245.06
414.258	241.06
414.482	232.06
414.705	234.06
414.928	252.06
415.151	232.06
415.374	240.06
415.597	238.06
415.821	244.06
416.044	251.06
416.267	230.06
416.49	245.06
416.713	245.06
416.936	234.06
417.159	238.06
417.382	241.06
417.605	247.06
417.828	262.06
418.051	237.06
418.274	229.06
418.497	258.06
418.72	249.06
418.943	225.06
419.166	229.06
419.389	251.06
419.611	275.06
419.834	262.06
420.057	254.06
420.28	250.06
420.503	246.06
420.726	241.06
420.948	261.06
421.171	273.06
421.394	269.06
421.617	270.06
421.839	249.06
422.062	253.06
422.285	216.06
422.507	291.06
422.73	284.06
422.953	305.06
423.175	271.06
423.398	277.06
423.621	260.06
423.843	282.06
424.066	261.06
424.288	269.06
424.511	268.06
424.733	290.06
424.956	327.06
425.178	319.06
425.401	314.06
425.623	317.06
425.846	259.06
426.068	269.06
426.291	273.06
426.513	236.06
426.735	265.06
426.958	290.06
427.18	315.06
427.402	371.06
427.625	410.06
427.847	345.06
428.069	307.06
428.292	271.06
428.514	265.06
428.736	252.06
428.958	253.06
429.181	222.06
429.403	239.06
429.625	229.06
429.847	263.06
430.069	305.06
430.292	293.06
430.514	264.06
430.736	244.06
430.958	247.06
431.18	241.06
431.402	229.06
431.624	237.06
431.846	231.06
432.068	236.06
432.29	235.06
432.512	242.06
432.734	243.06
432.956	253.06
433.178	250.06
433.4	238.06
433.622	241.06
433.844	249.06
434.066	241.06
434.287	234.06
434.509	253.06
434.731	238.06
434.953	263.06
435.175	261.06
435.397	268.06
435.618	253.06
435.84	288.06
436.062	316.06
436.284	350.06
436.505	314.06
436.727	262.06
436.949	249.06
437.17	255.06
437.392	253.06
437.614	263.06
437.835	271.06
438.057	297.06
438.278	344.06
438.5	357.06
438.721	363.06
438.943	335.06
439.165	278.06
439.386	275.06
439.608	269.06
439.829	267.06
440.05	297.06
440.272	297.06
440.493	261.06
440.715	262.06
440.936	254.06
441.158	234.06
441.379	260.06
441.6	264.06
441.822	263.06
442.043	299.06
442.264	334.06
442.486	332.06
442.707	308.06
442.928	273.06
443.149	279.06
443.371	276.06
443.592	301.06
443.813	365.06
444.034	365.06
444.255	313.06
444.476	271.06
444.698	277.06
444.919	266.06
445.14	360.06
445.361	325.06
445.582	291.06
445.803	349.06
446.024	358.06
446.245	369.06
446.466	319.06
446.687	276.06
446.908	254.06
447.129	257.06
447.35	259.06
447.571	243.06
447.792	234.06
448.013	226.06
448.234	254.06
448.455	276.06
448.675	326.06
448.896	350.06
449.117	328.06
449.338	296.06
449.559	363.06
449.779	380.06
450	286.06
450.221	252.06
450.442	257.06
450.662	229.06
450.883	245.06
451.104	266.06
451.324	230.06
451.545	242.06
451.766	215.06
451.986	236.06
452.207	211.06
452.428	222.06
452.648	225.06
452.869	227.06
453.089	231.06
453.31	236.06
453.53	217.06
453.751	225.06
453.971	236.06
454.192	237.06
454.412	229.06
454.633	215.06
454.853	237.06
455.073	213.06
455.294	230.06
455.514	265.06
455.734	243.06
455.955	224.06
456.175	230.06
456.395	198.06
456.616	213.06
456.836	215.06
457.056	214.06
457.276	202.06
457.497	208.06
457.717	208.06
457.937	213.06
458.157	220.06
458.377	213.06
458.598	238.06
458.818	276.06
459.038	303.06
459.258	333.06
459.478	258.06
459.698	226.06
459.918	229.06
460.138	222.06
460.358	234.06
460.578	235.06
460.798	226.06
461.018	243.06
461.238	242.06
461.458	217.06
461.678	234.06
461.898	237.06
462.118	233.06
462.338	235.06
462.558	223.06
462.777	247.06
462.997	257.06
463.217	252.06
463.437	261.06
463.657	242.06
463.876	243.06
464.096	258.06
464.316	254.06
464.536	265.06
464.755	267.06
464.975	285.06
465.195	287.06
465.414	323.06
465.634	300.06
465.854	245.06
466.073	245.06
466.293	228.06
466.512	236.06
466.732	226.06
466.951	244.06
467.171	236.06
467.391	229.06
467.61	234.06
467.829	259.06
468.049	245.06
468.268	251.06
468.488	230.06
468.707	218.06
468.927	219.06
469.146	237.06
469.365	238.06
469.585	225.06
469.804	236.06
470.023	236.06
470.243	235.06
470.462	226.06
470.681	259.06
470.901	238.06
471.12	218.06
471.339	227.06
471.558	217.06
471.777	236.06
471.997	236.06
472.216	249.06
472.435	257.06
472.654	250.06
472.873	230.06
473.092	233.06
473.311	236.06
473.53	231.06
473.749	242.06
473.968	257.06
474.187	302.06
474.406	314.06
474.625	257.06
474.844	233.06
475.063	228.06
475.282	221.06
475.501	241.06
475.72	229.06
475.939	226.06
476.158	235.06
476.377	247.06
476.596	229.06
476.814	233.06
477.033	249.06
477.252	237.06
477.471	252.06
477.69	241.06
477.908	241.06
478.127	255.06
478.346	264.06
478.564	263.06
478.783	253.06
479.002	261.06
479.22	271.06
479.439	272.06
479.658	287.06
479.876	269.06
480.095	282.06
480.313	302.06
480.532	276.06
480.751	294.06
480.969	291.06
481.188	359.06
481.406	367.06
481.624	310.06
481.843	275.06
482.061	290.06
482.28	267.06
482.498	287.06
482.717	248.06
482.935	274.06
483.153	257.06
483.372	267.06
483.59	259.06
483.808	259.06
484.027	261.06
484.245	272.06
484.463	258.06
484.681	288.06
484.9	272.06
485.118	263.06
485.336	279.06
485.554	270.06
485.772	283.06
485.99	279.06
486.209	280.06
486.427	278.06
486.645	272.06
486.863	293.06
487.081	293.06
487.299	293.06
487.517	298.06
487.735	281.06
487.953	293.06
488.171	295.06
488.389	259.06
488.607	282.06
488.825	280.06
489.043	310.06
489.261	290.06
489.479	284.06
489.696	301.06
489.914	286.06
490.132	285.06
490.35	292.06
490.568	306.06
490.786	326.06
491.003	308.06
491.221	310.06
491.439	333.06
491.657	333.06
491.874	344.06
492.092	346.06
492.31	333.06
492.527	348.06
492.745	335.06
492.963	347.06
493.18	346.06
493.398	354.06
493.615	336.06
493.833	335.06
494.05	344.06
494.268	359.06
494.485	355.06
494.703	338.06
494.92	338.06
495.138	327.06
495.355	337.06
495.573	339.06
495.79	345.06
496.008	346.06
496.225	333.06
496.442	309.06
496.66	341.06
496.877	308.06
497.094	340.06
497.312	339.06
497.529	349.06
497.746	338.06
497.963	346.06
498.181	326.06
498.398	345.06
498.615	349.06
498.832	359.06
499.049	363.06
499.267	375.06
499.484	381.06
499.701	397.06
499.918	414.06
500.135	417.06
500.352	451.06
500.569	445.06
500.786	429.06
501.003	437.06
501.22	425.06
501.437	407.06
501.654	425.06
501.871	412.06
502.088	397.06
502.305	360.06
502.522	356.06
502.739	356.06
502.956	346.06
503.172	339.06
503.389	344.06
503.606	330.06
503.823	332.06
504.04	332.06
504.256	334.06
504.473	321.06
504.69	327.06
504.907	327.06
505.123	322.06
505.34	328.06
505.557	322.06
505.773	319.06
505.99	295.06
506.207	321.06
506.423	320.06
506.64	297.06
506.856	332.06
507.073	315.06
507.289	298.06
507.506	316.06
507.722	310.06
507.939	336.06
508.155	309.06
508.372	305.06
508.588	311.06
508.805	290.06
509.021	290.06
509.238	308.06
509.454	307.06
509.67	290.06
509.887	301.06
510.103	297.06
510.319	322.06
510.536	384.06
510.752	708.06
510.968	499.06
511.184	318.06
511.401	279.06
511.617	286.06
511.833	294.06
512.049	299.06
512.265	282.06
512.481	281.06
512.698	297.06
512.914	286.06
513.13	280.06
513.346	273.06
513.562	251.06
513.778	290.06
513.994	292.06
514.21	301.06
514.426	307.06
514.642	336.06
514.858	340.06
515.074	366.06
515.29	466.06
515.506	757.06
515.721	588.06
515.937	357.06
516.153	305.06
516.369	312.06
516.585	294.06
516.801	300.06
517.016	292.06
517.232	283.06
517.448	285.06
517.664	288.06
517.879	294.06
518.095	291.06
518.311	290.06
518.527	292.06
518.742	279.06
518.958	285.06
519.173	290.06
519.389	285.06
519.605	280.06
519.82	287.06
520.036	279.06
520.251	307.06
520.467	306.06
520.682	322.06
520.898	332.06
521.113	336.06
521.329	353.06
521.544	416.06
521.76	586.06
521.975	1025.06
522.19	993.06
522.406	482.06
522.621	355.06
522.836	306.06
523.052	295.06
523.267	265.06
523.482	277.06
523.698	271.06
523.913	269.06
524.128	266.06
524.343	250.06
524.559	247.06
524.774	238.06
524.989	245.06
525.204	255.06
525.419	277.06
525.634	253.06
525.849	249.06
526.064	238.06
526.28	234.06
526.495	237.06
526.71	232.06
526.925	224.06
527.14	249.06
527.355	234.06
527.57	235.06
527.785	222.06
527.999	217.06
528.214	222.06
528.429	229.06
528.644	251.06
528.859	250.06
529.074	259.06
529.289	244.06
529.503	315.06
529.718	285.06
529.933	259.06
530.148	253.06
530.363	257.06
530.577	242.06
530.792	249.06
531.007	234.06
531.221	238.06
531.436	226.06
531.651	226.06
531.865	216.06
532.08	232.06
532.295	235.06
532.509	227.06
532.724	217.06
532.938	236.06
533.153	213.06
533.367	215.06
533.582	225.06
533.796	231.06
534.011	218.06
534.225	217.06
534.44	225.06
534.654	230.06
534.868	218.06
535.083	228.06
535.297	236.06
535.511	214.06
535.726	231.06
535.94	246.06
536.154	241.06
536.369	226.06
536.583	232.06
536.797	218.06
537.011	215.06
537.225	220.06
537.44	225.06
537.654	222.06
537.868	207.06
538.082	230.06
538.296	209.06
538.51	218.06
538.724	227.06
538.938	237.06
539.153	236.06
539.367	246.06
539.581	221.06
539.795	227.06
540.009	219.06
540.222	216.06
540.436	234.06
540.65	227.06
540.864	249.06
541.078	221.06
541.292	228.06
541.506	222.06
541.72	237.06
541.934	231.06
542.147	207.06
542.361	212.06
542.575	236.06
542.789	221.06
543.002	214.06
543.216	229.06
543.43	231.06
543.644	221.06
543.857	235.06
544.071	234.06
544.285	245.06
544.498	235.06
544.712	243.06
544.925	220.06
545.139	238.06
545.352	245.06
545.566	211.06
545.779	211.06
545.993	223.06
546.206	235.06
546.42	225.06
546.633	212.06
546.847	211.06
547.06	221.06
547.274	221.06
547.487	234.06
547.7	207.06
547.914	217.06
548.127	219.06
548.34	219.06
548.554	210.06
548.767	216.06
548.98	210.06
549.193	230.06
549.407	226.06
549.62	226.06
549.833	222.06
550.046	217.06
550.259	218.06
550.473	201.06
550.686	209.06
550.899	217.06
551.112	210.06
551.325	226.06
551.538	218.06
551.751	207.06
551.964	209.06
552.177	211.06
552.39	222.06
552.603	213.06
552.816	222.06
553.029	215.06
553.242	244.06
553.455	230.06
553.667	218.06
553.88	225.06
554.093	232.06
554.306	225.06
554.519	228.06
554.732	229.06
554.944	229.06
555.157	195.06
555.37	221.06
555.583	206.06
555.795	213.06
556.008	211.06
556.221	196.06
556.433	205.06
556.646	213.06
556.859	205.06
557.071	203.06
557.284	197.06
557.496	203.06
557.709	204.06
557.921	214.06
558.134	210.06
558.346	209.06
558.559	192.06
558.771	178.06
558.984	196.06
559.196	207.06
559.409	201.06
559.621	214.06
559.833	195.06
560.046	189.06
560.258	204.06
560.47	188.06
560.683	193.06
560.895	197.06
561.107	206.06
561.32	184.06
561.532	187.06
561.744	199.06
561.956	206.06
562.168	183.06
562.381	200.06
562.593	198.06
562.805	202.06
563.017	210.06
563.229	204.06
563.441	197.06
563.653	195.06
563.865	206.06
564.077	206.06
564.289	207.06
564.501	192.06
564.713	197.06
564.925	204.06
565.137	217.06
565.349	209.06
565.561	205.06
565.773	196.06
565.985	197.06
566.197	232.06
566.408	231.06
566.62	222.06
566.832	237.06
567.044	241.06
567.255	232.06
567.467	244.06
567.679	227.06
567.891	245.06
568.102	239.06
568.314	220.06
568.526	219.06
568.737	219.06
568.949	210.06
569.161	215.06
569.372	193.06
569.584	195.06
569.795	207.06
570.007	221.06
570.218	246.06
570.43	221.06
570.641	191.06
570.853	197.06
571.064	177.06
571.276	191.06
571.487	180.06
571.698	193.06
571.91	182.06
572.121	184.06
572.333	182.06
572.544	177.06
572.755	178.06
572.966	182.06
573.178	180.06
573.389	173.06
573.6	170.06
573.811	194.06
574.023	161.06
574.234	180.06
574.445	167.06
574.656	178.06
574.867	166.06
575.078	164.06
575.289	164.06
575.501	180.06
575.712	163.06
575.923	181.06
576.134	181.06
576.345	185.06
576.556	174.06
576.767	191.06
576.978	177.06
577.188	174.06
577.399	165.06
577.61	168.06
577.821	169.06
578.032	167.06
578.243	201.06
578.454	345.06
578.665	227.06
578.875	174.06
579.086	169.06
579.297	171.06
579.508	168.06
579.718	174.06
579.929	150.06
580.14	163.06
580.35	168.06
580.561	173.06
580.772	157.06
580.982	155.06
581.193	167.06
581.403	168.06
581.614	166.06
581.825	151.06
582.035	150.06
582.246	180.06
582.456	173.06
582.667	147.06
582.877	169.06
583.087	161.06
583.298	153.06
583.508	161.06
583.719	179.06
583.929	166.06
584.139	159.06
584.35	156.06
584.56	144.06
584.77	158.06
584.981	166.06
585.191	162.06
585.401	162.06
585.611	153.06
585.821	157.06
586.032	153.06
586.242	163.06
586.452	176.06
586.662	151.06
586.872	179.06
587.082	150.06
587.292	139.06
587.502	144.06
587.713	133.06
587.923	158.06
588.133	160.06
588.343	142.06
588.553	164.06
588.762	166.06
588.972	159.06
589.182	187.06
589.392	167.06
589.602	148.06
589.812	164.06
590.022	158.06
590.232	167.06
590.441	161.06
590.651	165.06
590.861	156.06
591.071	158.06
591.281	142.06
591.49	156.06
591.7	155.06
591.91	154.06
592.119	142.06
592.329	169.06
592.539	158.06
592.748	173.06
592.958	157.06
593.167	153.06
593.377	172.06
593.587	149.06
593.796	169.06
594.006	160.06
594.215	181.06
594.424	171.06
594.634	163.06
594.843	167.06
595.053	168.06
595.262	161.06
595.472	154.06
595.681	151.06
595.89	163.06
596.1	154.06
596.309	163.06
596.518	166.06
596.727	149.06
596.937	165.06
597.146	165.06
597.355	143.06
597.564	142.06
597.774	166.06
597.983	139.06
598.192	144.06
598.401	155.06
598.61	139.06
598.819	159.06
599.028	156.06
599.237	140.06
599.446	148.06
599.655	139.06
599.864	153.06
600.073	149.06
600.282	149.06
600.491	126.06
600.7	134.06
600.909	162.06
601.118	161.06
601.327	137.06
601.536	133.06
601.745	154.06
601.953	123.06
602.162	149.06
602.371	155.06
602.58	155.06
602.789	138.06
602.997	146.06
603.206	144.06
603.415	142.06
603.623	142.06
603.832	137.06
604.041	129.06
604.249	140.06
604.458	142.06
604.666	153.06
604.875	135.06
605.084	156.06
605.292	153.06
605.501	133.06
605.709	150.06
605.918	140.06
606.126	143.06
606.334	146.06
606.543	137.06
606.751	139.06
606.96	141.06
607.168	141.06
607.376	126.06
607.585	145.06
607.793	145.06
608.001	130.06
608.21	143.06
608.418	131.06
608.626	137.06
608.834	134.06
609.043	148.06
609.251	125.06
609.459	145.06
609.667	131.06
609.875	149.06
610.083	137.06
610.291	147.06
610.499	129.06
610.707	147.06
610.916	143.06
611.124	134.06
611.332	142.06
611.54	166.06
611.748	141.06
611.955	134.06
612.163	129.06
612.371	133.06
612.579	143.06
612.787	157.06
612.995	142.06
613.203	149.06
613.411	161.06
613.618	130.06
613.826	141.06
614.034	144.06
614.242	129.06
614.449	126.06
614.657	150.06
614.865	125.06
615.072	131.06
615.28	130.06
615.488	149.06
615.695	137.06
615.903	133.06
616.111	130.06
616.318	149.06
616.526	143.06
616.733	142.06
616.941	140.06
617.148	146.06
617.356	143.06
617.563	130.06
617.771	128.06
617.978	143.06
618.185	135.06
618.393	143.06
618.6	143.06
618.807	156.06
619.015	134.06
619.222	130.06
619.429	147.06
619.637	137.06
619.844	142.06
620.051	131.06
620.258	136.06
620.466	137.06
620.673	141.06
620.88	134.06
621.087	127.06
621.294	139.06
621.501	136.06
621.708	134.06
621.915	132.06
622.122	134.06
622.329	127.06
622.536	138.06
622.743	139.06
622.95	125.06
623.157	126.06
623.364	134.06
623.571	137.06
623.778	131.06
623.985	125.06
624.192	129.06
624.399	132.06
624.606	134.06
624.812	140.06
625.019	118.06
625.226	113.06
625.433	127.06
625.639	128.06
625.846	119.06
626.053	130.06
626.259	126.06
626.466	128.06
626.673	131.06
626.879	114.06
627.086	135.06
627.293	147.06
627.499	131.06
627.706	135.06
627.912	122.06
628.119	124.06
628.325	140.06
628.532	129.06
628.738	128.06
628.945	125.06
629.151	134.06
629.357	128.06
629.564	131.06
629.77	130.06
629.976	134.06
630.183	127.06
630.389	115.06
630.595	121.06
630.802	121.06
631.008	109.06
631.214	117.06
631.42	137.06
631.627	129.06
631.833	128.06
632.039	122.06
632.245	114.06
632.451	113.06
632.657	129.06
632.863	118.06
633.069	113.06
633.275	137.06
633.481	120.06
633.688	118.06
633.893	114.06
634.099	118.06
634.305	101.06
634.511	104.06
634.717	110.06
634.923	111.06
635.129	103.06
635.335	111.06
635.541	138.06
635.747	120.06
635.952	107.06
636.158	105.06
636.364	118.06
636.57	129.06
636.775	111.06
636.981	127.06
637.187	119.06
637.392	120.06
637.598	121.06
637.804	121.06
638.009	110.06
638.215	120.06
638.421	122.06
638.626	106.06
638.832	106.06
639.037	115.06
639.243	118.06
639.448	108.06
639.654	121.06
639.859	119.06
640.065	120.06
640.27	119.06
640.475	104.06
640.681	108.06
640.886	126.06
641.091	108.06
641.297	113.06
641.502	110.06
641.707	112.06
641.913	107.06
642.118	113.06
642.323	115.06
642.528	120.06
642.733	110.06
642.939	121.06
643.144	114.06
643.349	106.06
643.554	118.06
643.759	115.06
643.964	115.06
644.169	109.06
644.374	95.06
644.579	131.06
644.784	114.06
644.989	108.06
645.194	97.06
645.399	101.06
645.604	120.06
645.809	104.06
646.014	122.06
646.219	114.06
646.423	103.06
646.628	113.06
646.833	111.06
647.038	121.06
647.243	118.06
647.447	121.06
647.652	104.06
647.857	109.06
648.062	108.06
648.266	119.06
648.471	119.06
648.676	113.06
648.88	112.06
649.085	123.06
649.289	114.06
649.494	114.06
649.698	129.06
649.903	120.06
650.107	120.06
650.312	106.06
650.516	108.06
650.721	118.06
650.925	107.06
651.13	102.06
651.334	91.06
651.539	100.06
651.743	109.06
651.947	104.06
652.152	106.06
652.356	107.06
652.56	123.06
652.764	96.06
652.969	119.06
653.173	102.06
653.377	104.06
653.581	104.06
653.785	101.06
653.99	113.06
654.194	104.06
654.398	102.06
654.602	98.06
654.806	108.06
655.01	125.06
655.214	107.06
655.418	122.06
655.622	97.06
655.826	122.06
656.03	100.06
656.234	113.06
656.438	102.06
656.642	119.06
656.846	107.06
657.049	107.06
657.253	88.06
657.457	102.06
657.661	91.06
657.865	109.06
658.068	116.06
658.272	107.06
658.476	91.06
658.68	86.06
658.883	84.06
659.087	82.06
659.291	85.06
659.494	81.06
659.698	89.06
659.901	79.06
660.105	86.06
660.309	71.06
660.512	94.06
660.716	83.06
660.919	92.06
661.123	87.06
661.326	85.06
661.53	93.06
661.733	87.06
661.936	119.06
662.14	73.06
662.343	101.06
662.546	83.06
662.75	85.06
662.953	87.06
663.156	85.06
663.36	79.06
663.563	82.06
663.766	90.06
663.969	78.06
664.173	81.06
664.376	85.06
664.579	86.06
664.782	95.06
664.985	77.06
665.188	85.06
665.391	83.06
665.594	74.06
665.797	82.06
666	91.06
666.203	84.06
666.406	89.06
666.609	87.06
666.812	107.06
667.015	84.06
667.218	87.06
667.421	84.06
667.624	69.06
667.827	69.06
668.03	71.06
668.232	94.06
668.435	86.06
668.638	85.06
668.841	86.06
669.043	77.06
669.246	75.06
669.449	84.06
669.651	76.06
669.854	91.06
670.057	93.06
670.259	83.06
670.462	96.06
670.665	78.06
670.867	86.06
671.07	96.06
671.272	74.06
671.475	80.06
671.677	85.06
671.88	85.06
672.082	84.06
672.284	83.06
672.487	95.06
672.689	77.06
672.892	73.06
