Data from 1966.PennyLincolnUp.Lamp.En5.5.200Scan.071719.P1.Scan2.head_HRD10591_14-19-07-242.txt Node
Date: Thu Jul 18 14:19:07 EDT 2019
User: cochatt
Spectrometer: HR+D1059
Trigger mode: 1
Integration Time (sec): 1.000000E-1
Scans to average: 1
Electric dark correction enabled: true
Nonlinearity correction enabled: false
Boxcar width: 0
XAxis mode: Wavelengths
Number of Pixels in Spectrum: 2048
>>>>>Begin Spectral Data<<<<<
223.165	-9.25
223.4	-9.25
223.635	-9.25
223.869	-30.25
224.104	-21.25
224.338	-7.25
224.573	-16.25
224.808	-0.25
225.042	-0.25
225.277	-14.25
225.511	8.75
225.746	11.75
225.98	6.75
226.215	15.75
226.449	12.75
226.683	8.75
226.918	10.75
227.152	23.75
227.387	22.75
227.621	27.75
227.856	40.75
228.09	50.75
228.324	47.75
228.559	54.75
228.793	58.75
229.027	106.75
229.262	101.75
229.496	103.75
229.73	139.75
229.964	159.75
230.199	143.75
230.433	114.75
230.667	105.75
230.901	100.75
231.136	102.75
231.37	118.75
231.604	118.75
231.838	106.75
232.072	108.75
232.306	121.75
232.541	110.75
232.775	116.75
233.009	116.75
233.243	107.75
233.477	108.75
233.711	96.75
233.945	134.75
234.179	112.75
234.413	131.75
234.647	114.75
234.881	101.75
235.115	110.75
235.349	109.75
235.583	115.75
235.817	137.75
236.051	124.75
236.285	126.75
236.519	130.75
236.753	142.75
236.987	138.75
237.221	178.75
237.455	250.75
237.689	188.75
237.922	137.75
238.156	141.75
238.39	132.75
238.624	136.75
238.858	120.75
239.091	119.75
239.325	121.75
239.559	129.75
239.793	130.75
240.027	135.75
240.26	147.75
240.494	178.75
240.728	171.75
240.961	140.75
241.195	154.75
241.429	149.75
241.662	136.75
241.896	135.75
242.13	133.75
242.363	128.75
242.597	139.75
242.83	128.75
243.064	127.75
243.298	145.75
243.531	148.75
243.765	142.75
243.998	142.75
244.232	143.75
244.465	169.75
244.699	139.75
244.932	143.75
245.166	156.75
245.399	151.75
245.633	141.75
245.866	152.75
246.099	151.75
246.333	152.75
246.566	144.75
246.8	163.75
247.033	141.75
247.266	159.75
247.5	175.75
247.733	178.75
247.966	178.75
248.2	166.75
248.433	180.75
248.666	168.75
248.899	172.75
249.133	209.75
249.366	234.75
249.599	202.75
249.832	201.75
250.066	194.75
250.299	180.75
250.532	198.75
250.765	219.75
250.998	209.75
251.231	228.75
251.465	219.75
251.698	199.75
251.931	205.75
252.164	203.75
252.397	203.75
252.63	203.75
252.863	227.75
253.096	221.75
253.329	220.75
253.562	220.75
253.795	236.75
254.028	231.75
254.261	207.75
254.494	231.75
254.727	265.75
254.96	269.75
255.193	280.75
255.426	271.75
255.659	249.75
255.892	233.75
256.124	230.75
256.357	259.75
256.59	242.75
256.823	227.75
257.056	223.75
257.289	209.75
257.521	227.75
257.754	213.75
257.987	215.75
258.22	227.75
258.452	211.75
258.685	207.75
258.918	213.75
259.151	201.75
259.383	220.75
259.616	216.75
259.849	239.75
260.081	250.75
260.314	270.75
260.547	269.75
260.779	247.75
261.012	243.75
261.244	246.75
261.477	222.75
261.71	209.75
261.942	240.75
262.175	231.75
262.407	238.75
262.64	230.75
262.872	214.75
263.105	209.75
263.337	214.75
263.57	219.75
263.802	216.75
264.035	208.75
264.267	224.75
264.499	195.75
264.732	210.75
264.964	219.75
265.197	209.75
265.429	222.75
265.661	232.75
265.894	212.75
266.126	227.75
266.358	235.75
266.591	228.75
266.823	230.75
267.055	233.75
267.287	231.75
267.52	224.75
267.752	219.75
267.984	232.75
268.216	230.75
268.448	252.75
268.681	264.75
268.913	259.75
269.145	254.75
269.377	278.75
269.609	274.75
269.841	282.75
270.073	269.75
270.306	305.75
270.538	315.75
270.77	323.75
271.002	302.75
271.234	313.75
271.466	316.75
271.698	328.75
271.93	350.75
272.162	331.75
272.394	327.75
272.626	320.75
272.858	322.75
273.09	299.75
273.322	285.75
273.553	266.75
273.785	266.75
274.017	285.75
274.249	282.75
274.481	287.75
274.713	286.75
274.945	279.75
275.176	268.75
275.408	280.75
275.64	271.75
275.872	266.75
276.104	272.75
276.335	271.75
276.567	282.75
276.799	291.75
277.031	320.75
277.262	320.75
277.494	329.75
277.726	306.75
277.957	310.75
278.189	285.75
278.421	282.75
278.652	286.75
278.884	276.75
279.115	280.75
279.347	262.75
279.579	280.75
279.81	283.75
280.042	267.75
280.273	268.75
280.505	287.75
280.736	288.75
280.968	287.75
281.199	271.75
281.431	268.75
281.662	279.75
281.894	279.75
282.125	289.75
282.356	289.75
282.588	310.75
282.819	328.75
283.051	287.75
283.282	277.75
283.513	279.75
283.745	271.75
283.976	291.75
284.207	298.75
284.439	310.75
284.67	304.75
284.901	286.75
285.132	296.75
285.364	285.75
285.595	282.75
285.826	299.75
286.057	304.75
286.288	290.75
286.52	302.75
286.751	288.75
286.982	286.75
287.213	293.75
287.444	296.75
287.675	303.75
287.906	312.75
288.138	324.75
288.369	305.75
288.6	323.75
288.831	318.75
289.062	304.75
289.293	285.75
289.524	304.75
289.755	293.75
289.986	321.75
290.217	298.75
290.448	319.75
290.679	308.75
290.91	307.75
291.141	307.75
291.371	308.75
291.602	308.75
291.833	299.75
292.064	290.75
292.295	281.75
292.526	308.75
292.757	299.75
292.987	309.75
293.218	298.75
293.449	330.75
293.68	311.75
293.91	305.75
294.141	323.75
294.372	306.75
294.603	300.75
294.833	315.75
295.064	320.75
295.295	323.75
295.525	306.75
295.756	310.75
295.987	321.75
296.217	330.75
296.448	342.75
296.679	320.75
296.909	314.75
297.14	311.75
297.37	310.75
297.601	310.75
297.831	319.75
298.062	329.75
298.292	320.75
298.523	335.75
298.753	316.75
298.984	328.75
299.214	314.75
299.445	331.75
299.675	331.75
299.905	336.75
300.136	321.75
300.366	326.75
300.597	330.75
300.827	341.75
301.057	343.75
301.288	354.75
301.518	336.75
301.748	336.75
301.979	337.75
302.209	355.75
302.439	363.75
302.669	337.75
302.9	332.75
303.13	323.75
303.36	336.75
303.59	336.75
303.82	362.75
304.051	347.75
304.281	339.75
304.511	343.75
304.741	338.75
304.971	337.75
305.201	353.75
305.431	340.75
305.661	348.75
305.891	352.75
306.121	340.75
306.352	355.75
306.582	347.75
306.812	335.75
307.042	341.75
307.272	358.75
307.502	364.75
307.731	359.75
307.961	347.75
308.191	333.75
308.421	342.75
308.651	335.75
308.881	357.75
309.111	365.75
309.341	365.75
309.571	364.75
309.8	372.75
310.03	386.75
310.26	412.75
310.49	400.75
310.72	393.75
310.949	404.75
311.179	410.75
311.409	393.75
311.639	373.75
311.868	393.75
312.098	401.75
312.328	392.75
312.557	423.75
312.787	411.75
313.017	419.75
313.246	399.75
313.476	383.75
313.706	403.75
313.935	410.75
314.165	426.75
314.394	411.75
314.624	412.75
314.853	402.75
315.083	399.75
315.312	396.75
315.542	390.75
315.771	390.75
316.001	385.75
316.23	393.75
316.46	385.75
316.689	381.75
316.919	396.75
317.148	406.75
317.377	417.75
317.607	425.75
317.836	409.75
318.065	384.75
318.295	400.75
318.524	395.75
318.753	400.75
318.983	403.75
319.212	399.75
319.441	382.75
319.67	384.75
319.9	398.75
320.129	410.75
320.358	417.75
320.587	411.75
320.816	401.75
321.046	434.75
321.275	412.75
321.504	422.75
321.733	413.75
321.962	437.75
322.191	442.75
322.42	447.75
322.649	455.75
322.878	471.75
323.108	476.75
323.337	517.75
323.566	528.75
323.795	538.75
324.024	560.75
324.253	703.75
324.482	1000.75
324.71	1570.75
324.939	2366.75
325.168	2057.75
325.397	993.75
325.626	672.75
325.855	564.75
326.084	503.75
326.313	522.75
326.542	539.75
326.77	566.75
326.999	674.75
327.228	926.75
327.457	1424.75
327.686	1800.75
327.914	1126.75
328.143	745.75
328.372	662.75
328.6	612.75
328.829	602.75
329.058	585.75
329.287	622.75
329.515	576.75
329.744	531.75
329.972	540.75
330.201	553.75
330.43	616.75
330.658	627.75
330.887	672.75
331.115	608.75
331.344	531.75
331.572	512.75
331.801	503.75
332.03	488.75
332.258	490.75
332.486	498.75
332.715	484.75
332.943	468.75
333.172	502.75
333.4	499.75
333.629	517.75
333.857	513.75
334.085	554.75
334.314	552.75
334.542	574.75
334.771	601.75
334.999	559.75
335.227	500.75
335.455	506.75
335.684	495.75
335.912	475.75
336.14	475.75
336.369	480.75
336.597	510.75
336.825	496.75
337.053	475.75
337.281	472.75
337.51	467.75
337.738	467.75
337.966	463.75
338.194	469.75
338.422	476.75
338.65	483.75
338.878	458.75
339.106	448.75
339.334	467.75
339.562	465.75
339.79	448.75
340.018	465.75
340.246	464.75
340.474	466.75
340.702	449.75
340.93	458.75
341.158	469.75
341.386	441.75
341.614	478.75
341.842	462.75
342.07	447.75
342.298	446.75
342.526	459.75
342.754	427.75
342.981	434.75
343.209	436.75
343.437	463.75
343.665	455.75
343.893	469.75
344.12	471.75
344.348	499.75
344.576	460.75
344.804	488.75
345.031	483.75
345.259	495.75
345.487	468.75
345.714	469.75
345.942	437.75
346.17	443.75
346.397	459.75
346.625	463.75
346.853	434.75
347.08	443.75
347.308	451.75
347.535	458.75
347.763	442.75
347.99	450.75
348.218	471.75
348.445	464.75
348.673	450.75
348.9	447.75
349.128	438.75
349.355	435.75
349.583	424.75
349.81	412.75
350.037	426.75
350.265	426.75
350.492	425.75
350.72	420.75
350.947	451.75
351.174	441.75
351.402	457.75
351.629	440.75
351.856	475.75
352.083	462.75
352.311	475.75
352.538	480.75
352.765	456.75
352.992	448.75
353.22	448.75
353.447	451.75
353.674	434.75
353.901	437.75
354.128	418.75
354.355	435.75
354.583	430.75
354.81	438.75
355.037	438.75
355.264	422.75
355.491	399.75
355.718	426.75
355.945	407.75
356.172	405.75
356.399	414.75
356.626	431.75
356.853	409.75
357.08	418.75
357.307	447.75
357.534	431.75
357.761	427.75
357.988	415.75
358.215	415.75
358.441	423.75
358.668	430.75
358.895	432.75
359.122	446.75
359.349	446.75
359.576	479.75
359.802	458.75
360.029	500.75
360.256	518.75
360.483	497.75
360.709	460.75
360.936	473.75
361.163	442.75
361.39	431.75
361.616	449.75
361.843	444.75
362.07	430.75
362.296	458.75
362.523	434.75
362.749	452.75
362.976	440.75
363.203	452.75
363.429	436.75
363.656	425.75
363.882	434.75
364.109	450.75
364.335	427.75
364.562	414.75
364.788	427.75
365.015	433.75
365.241	433.75
365.468	456.75
365.694	444.75
365.92	446.75
366.147	434.75
366.373	436.75
366.599	446.75
366.826	449.75
367.052	395.75
367.278	430.75
367.505	467.75
367.731	433.75
367.957	440.75
368.184	434.75
368.41	444.75
368.636	464.75
368.862	462.75
369.089	447.75
369.315	443.75
369.541	422.75
369.767	450.75
369.993	438.75
370.219	438.75
370.445	462.75
370.672	442.75
370.898	436.75
371.124	429.75
371.35	451.75
371.576	430.75
371.802	439.75
372.028	432.75
372.254	427.75
372.48	448.75
372.706	475.75
372.932	447.75
373.158	459.75
373.384	428.75
373.61	442.75
373.835	464.75
374.061	459.75
374.287	458.75
374.513	468.75
374.739	469.75
374.965	444.75
375.191	470.75
375.416	442.75
375.642	447.75
375.868	440.75
376.094	439.75
376.319	464.75
376.545	468.75
376.771	455.75
376.997	447.75
377.222	447.75
377.448	453.75
377.674	437.75
377.899	441.75
378.125	434.75
378.35	439.75
378.576	442.75
378.802	423.75
379.027	416.75
379.253	454.75
379.478	432.75
379.704	456.75
379.929	435.75
380.155	436.75
380.38	433.75
380.606	427.75
380.831	460.75
381.057	453.75
381.282	448.75
381.507	436.75
381.733	457.75
381.958	452.75
382.184	474.75
382.409	438.75
382.634	456.75
382.86	445.75
383.085	464.75
383.31	454.75
383.535	483.75
383.761	460.75
383.986	478.75
384.211	480.75
384.436	474.75
384.662	458.75
384.887	474.75
385.112	482.75
385.337	481.75
385.562	482.75
385.787	494.75
386.013	526.75
386.238	508.75
386.463	519.75
386.688	479.75
386.913	483.75
387.138	484.75
387.363	492.75
387.588	487.75
387.813	503.75
388.038	505.75
388.263	478.75
388.488	472.75
388.713	491.75
388.938	509.75
389.163	500.75
389.387	510.75
389.612	460.75
389.837	467.75
390.062	498.75
390.287	488.75
390.512	480.75
390.736	488.75
390.961	491.75
391.186	507.75
391.411	509.75
391.636	504.75
391.86	507.75
392.085	536.75
392.31	519.75
392.534	512.75
392.759	516.75
392.984	501.75
393.208	500.75
393.433	538.75
393.658	496.75
393.882	521.75
394.107	496.75
394.331	504.75
394.556	514.75
394.78	508.75
395.005	511.75
395.229	502.75
395.454	506.75
395.678	532.75
395.903	528.75
396.127	546.75
396.352	542.75
396.576	534.75
396.801	538.75
397.025	511.75
397.249	540.75
397.474	547.75
397.698	534.75
397.922	539.75
398.147	580.75
398.371	553.75
398.595	572.75
398.82	566.75
399.044	602.75
399.268	622.75
399.492	626.75
399.717	679.75
399.941	704.75
400.165	714.75
400.389	723.75
400.613	674.75
400.837	607.75
401.062	580.75
401.286	602.75
401.51	596.75
401.734	591.75
401.958	590.75
402.182	594.75
402.406	602.75
402.63	599.75
402.854	595.75
403.078	598.75
403.302	585.75
403.526	612.75
403.75	610.75
403.974	609.75
404.198	609.75
404.422	616.75
404.645	592.75
404.869	593.75
405.093	653.75
405.317	695.75
405.541	748.75
405.765	675.75
405.988	629.75
406.212	640.75
406.436	691.75
406.66	694.75
406.883	665.75
407.107	649.75
407.331	732.75
407.555	791.75
407.778	794.75
408.002	740.75
408.226	692.75
408.449	684.75
408.673	668.75
408.896	717.75
409.12	720.75
409.344	674.75
409.567	625.75
409.791	619.75
410.014	615.75
410.238	593.75
410.461	603.75
410.685	628.75
410.908	634.75
411.132	649.75
411.355	726.75
411.578	659.75
411.802	613.75
412.025	607.75
412.249	609.75
412.472	654.75
412.695	720.75
412.919	670.75
413.142	622.75
413.365	589.75
413.589	593.75
413.812	576.75
414.035	573.75
414.258	583.75
414.482	559.75
414.705	559.75
414.928	586.75
415.151	562.75
415.374	565.75
415.597	548.75
415.821	582.75
416.044	561.75
416.267	584.75
416.49	566.75
416.713	564.75
416.936	555.75
417.159	576.75
417.382	564.75
417.605	566.75
417.828	597.75
418.051	610.75
418.274	579.75
418.497	570.75
418.72	550.75
418.943	571.75
419.166	574.75
419.389	625.75
419.611	632.75
419.834	612.75
420.057	605.75
420.28	615.75
420.503	603.75
420.726	597.75
420.948	627.75
421.171	662.75
421.394	678.75
421.617	619.75
421.839	606.75
422.062	616.75
422.285	601.75
422.507	680.75
422.73	790.75
422.953	750.75
423.175	667.75
423.398	635.75
423.621	634.75
423.843	656.75
424.066	652.75
424.288	638.75
424.511	658.75
424.733	729.75
424.956	820.75
425.178	781.75
425.401	796.75
425.623	794.75
425.846	698.75
426.068	646.75
426.291	640.75
426.513	647.75
426.735	645.75
426.958	713.75
427.18	786.75
427.402	955.75
427.625	1052.75
427.847	920.75
428.069	792.75
428.292	677.75
428.514	643.75
428.736	620.75
428.958	598.75
429.181	582.75
429.403	617.75
429.625	622.75
429.847	633.75
430.069	716.75
430.292	718.75
430.514	624.75
430.736	585.75
430.958	575.75
431.18	548.75
431.402	574.75
431.624	546.75
431.846	564.75
432.068	574.75
432.29	565.75
432.512	561.75
432.734	574.75
432.956	571.75
433.178	575.75
433.4	600.75
433.622	554.75
433.844	568.75
434.066	578.75
434.287	564.75
434.509	574.75
434.731	566.75
434.953	591.75
435.175	595.75
435.397	643.75
435.618	651.75
435.84	678.75
436.062	814.75
436.284	889.75
436.505	742.75
436.727	662.75
436.949	599.75
437.17	589.75
437.392	610.75
437.614	607.75
437.835	665.75
438.057	755.75
438.278	854.75
438.5	885.75
438.721	960.75
438.943	912.75
439.165	740.75
439.386	673.75
439.608	652.75
439.829	660.75
440.05	680.75
440.272	735.75
440.493	692.75
440.715	633.75
440.936	640.75
441.158	626.75
441.379	618.75
441.6	632.75
441.822	626.75
442.043	695.75
442.264	815.75
442.486	848.75
442.707	710.75
442.928	672.75
443.149	686.75
443.371	712.75
443.592	765.75
443.813	844.75
444.034	898.75
444.255	741.75
444.476	683.75
444.698	651.75
444.919	672.75
445.14	766.75
445.361	723.75
445.582	719.75
445.803	781.75
446.024	922.75
446.245	918.75
446.466	823.75
446.687	688.75
446.908	644.75
447.129	611.75
447.35	597.75
447.571	603.75
447.792	583.75
448.013	584.75
448.234	600.75
448.455	666.75
448.675	803.75
448.896	952.75
449.117	778.75
449.338	727.75
449.559	842.75
449.779	992.75
450	754.75
450.221	649.75
450.442	629.75
450.662	584.75
450.883	588.75
451.104	616.75
451.324	576.75
451.545	558.75
451.766	553.75
451.986	544.75
452.207	536.75
452.428	526.75
452.648	548.75
452.869	555.75
453.089	538.75
453.31	554.75
453.53	527.75
453.751	502.75
453.971	531.75
454.192	572.75
454.412	537.75
454.633	526.75
454.853	528.75
455.073	521.75
455.294	562.75
455.514	607.75
455.734	631.75
455.955	525.75
456.175	518.75
456.395	477.75
456.616	512.75
456.836	514.75
457.056	469.75
457.276	497.75
457.497	512.75
457.717	475.75
457.937	519.75
458.157	531.75
458.377	508.75
458.598	556.75
458.818	607.75
459.038	700.75
459.258	732.75
459.478	607.75
459.698	566.75
459.918	558.75
460.138	554.75
460.358	583.75
460.578	551.75
460.798	562.75
461.018	600.75
461.238	571.75
461.458	597.75
461.678	577.75
461.898	568.75
462.118	550.75
462.338	588.75
462.558	585.75
462.777	615.75
462.997	635.75
463.217	642.75
463.437	662.75
463.657	630.75
463.876	610.75
464.096	630.75
464.316	622.75
464.536	610.75
464.755	611.75
464.975	609.75
465.195	679.75
465.414	737.75
465.634	662.75
465.854	593.75
466.073	595.75
466.293	591.75
466.512	573.75
466.732	527.75
466.951	557.75
467.171	536.75
467.391	535.75
467.61	564.75
467.829	564.75
468.049	563.75
468.268	545.75
468.488	534.75
468.707	538.75
468.927	515.75
469.146	520.75
469.365	511.75
469.585	532.75
469.804	529.75
470.023	564.75
470.243	562.75
470.462	555.75
470.681	551.75
470.901	573.75
471.12	571.75
471.339	542.75
471.558	561.75
471.777	556.75
471.997	552.75
472.216	547.75
472.435	607.75
472.654	589.75
472.873	560.75
473.092	556.75
473.311	542.75
473.53	540.75
473.749	547.75
473.968	585.75
474.187	733.75
474.406	743.75
474.625	625.75
474.844	585.75
475.063	548.75
475.282	569.75
475.501	571.75
475.72	577.75
475.939	576.75
476.158	574.75
476.377	578.75
476.596	575.75
476.814	576.75
477.033	579.75
477.252	587.75
477.471	585.75
477.69	612.75
477.908	607.75
478.127	615.75
478.346	618.75
478.564	628.75
478.783	627.75
479.002	634.75
479.22	647.75
479.439	654.75
479.658	675.75
479.876	673.75
480.095	668.75
480.313	716.75
480.532	682.75
480.751	664.75
480.969	712.75
481.188	790.75
481.406	831.75
481.624	716.75
481.843	705.75
482.061	693.75
482.28	675.75
482.498	658.75
482.717	647.75
482.935	658.75
483.153	658.75
483.372	651.75
483.59	672.75
483.808	658.75
484.027	638.75
484.245	674.75
484.463	645.75
484.681	668.75
484.9	653.75
485.118	665.75
485.336	680.75
485.554	672.75
485.772	656.75
485.99	683.75
486.209	706.75
486.427	695.75
486.645	696.75
486.863	720.75
487.081	719.75
487.299	715.75
487.517	707.75
487.735	676.75
487.953	697.75
488.171	692.75
488.389	710.75
488.607	717.75
488.825	740.75
489.043	728.75
489.261	721.75
489.479	712.75
489.696	724.75
489.914	692.75
490.132	715.75
490.35	750.75
490.568	766.75
490.786	750.75
491.003	773.75
491.221	764.75
491.439	784.75
491.657	799.75
491.874	783.75
492.092	800.75
492.31	808.75
492.527	823.75
492.745	848.75
492.963	824.75
493.18	820.75
493.398	853.75
493.615	865.75
493.833	825.75
494.05	824.75
494.268	844.75
494.485	824.75
494.703	836.75
494.92	842.75
495.138	830.75
495.355	849.75
495.573	864.75
495.79	846.75
496.008	866.75
496.225	840.75
496.442	847.75
496.66	849.75
496.877	822.75
497.094	866.75
497.312	843.75
497.529	844.75
497.746	883.75
497.963	874.75
498.181	923.75
498.398	888.75
498.615	929.75
498.832	948.75
499.049	953.75
499.267	1007.75
499.484	1042.75
499.701	1076.75
499.918	1093.75
500.135	1144.75
500.352	1230.75
500.569	1214.75
500.786	1242.75
501.003	1238.75
501.22	1178.75
501.437	1107.75
501.654	1121.75
501.871	1077.75
502.088	1064.75
502.305	1009.75
502.522	975.75
502.739	953.75
502.956	917.75
503.172	890.75
503.389	918.75
503.606	888.75
503.823	869.75
504.04	840.75
504.256	874.75
504.473	854.75
504.69	839.75
504.907	867.75
505.123	818.75
505.34	846.75
505.557	827.75
505.773	810.75
505.99	815.75
506.207	808.75
506.423	803.75
506.64	798.75
506.856	775.75
507.073	796.75
507.289	780.75
507.506	786.75
507.722	790.75
507.939	826.75
508.155	786.75
508.372	777.75
508.588	751.75
508.805	752.75
509.021	752.75
509.238	784.75
509.454	769.75
509.67	742.75
509.887	751.75
510.103	731.75
510.319	741.75
510.536	830.75
510.752	1327.75
510.968	1099.75
511.184	777.75
511.401	713.75
511.617	734.75
511.833	742.75
512.049	719.75
512.265	702.75
512.481	702.75
512.698	723.75
512.914	702.75
513.13	700.75
513.346	711.75
513.562	702.75
513.778	718.75
513.994	730.75
514.21	743.75
514.426	740.75
514.642	795.75
514.858	821.75
515.074	853.75
515.29	976.75
515.506	1368.75
515.721	1144.75
515.937	827.75
516.153	767.75
516.369	774.75
516.585	735.75
516.801	739.75
517.016	748.75
517.232	755.75
517.448	731.75
517.664	740.75
517.879	747.75
518.095	724.75
518.311	747.75
518.527	719.75
518.742	739.75
518.958	755.75
519.173	737.75
519.389	699.75
519.605	699.75
519.82	705.75
520.036	737.75
520.251	737.75
520.467	740.75
520.682	745.75
520.898	779.75
521.113	798.75
521.329	832.75
521.544	926.75
521.76	1088.75
521.975	1766.75
522.19	1723.75
522.406	984.75
522.621	810.75
522.836	715.75
523.052	696.75
523.267	680.75
523.482	651.75
523.698	656.75
523.913	673.75
524.128	653.75
524.343	624.75
524.559	615.75
524.774	620.75
524.989	621.75
525.204	619.75
525.419	638.75
525.634	608.75
525.849	603.75
526.064	616.75
526.28	600.75
526.495	581.75
526.71	582.75
526.925	604.75
527.14	581.75
527.355	598.75
527.57	585.75
527.785	579.75
527.999	571.75
528.214	575.75
528.429	565.75
528.644	577.75
528.859	574.75
529.074	585.75
529.289	610.75
529.503	686.75
529.718	653.75
529.933	618.75
530.148	600.75
530.363	609.75
530.577	590.75
530.792	580.75
531.007	563.75
531.221	574.75
531.436	590.75
531.651	592.75
531.865	582.75
532.08	568.75
532.295	561.75
532.509	558.75
532.724	568.75
532.938	565.75
533.153	539.75
533.367	566.75
533.582	574.75
533.796	571.75
534.011	572.75
534.225	556.75
534.44	569.75
534.654	563.75
534.868	550.75
535.083	539.75
535.297	559.75
535.511	560.75
535.726	556.75
535.94	578.75
536.154	550.75
536.369	560.75
536.583	533.75
536.797	547.75
537.011	555.75
537.225	555.75
537.44	524.75
537.654	542.75
537.868	530.75
538.082	532.75
538.296	560.75
538.51	550.75
538.724	551.75
538.938	549.75
539.153	512.75
539.367	537.75
539.581	534.75
539.795	549.75
540.009	540.75
540.222	534.75
540.436	528.75
540.65	533.75
540.864	530.75
541.078	538.75
541.292	550.75
541.506	533.75
541.72	534.75
541.934	516.75
542.147	542.75
542.361	534.75
542.575	501.75
542.789	520.75
543.002	545.75
543.216	522.75
543.43	523.75
543.644	538.75
543.857	534.75
544.071	520.75
544.285	537.75
544.498	515.75
544.712	523.75
544.925	537.75
545.139	518.75
545.352	520.75
545.566	507.75
545.779	515.75
545.993	514.75
546.206	516.75
546.42	529.75
546.633	522.75
546.847	516.75
547.06	494.75
547.274	504.75
547.487	500.75
547.7	513.75
547.914	498.75
548.127	518.75
548.34	508.75
548.554	506.75
548.767	516.75
548.98	522.75
549.193	507.75
549.407	513.75
549.62	492.75
549.833	502.75
550.046	512.75
550.259	507.75
550.473	497.75
550.686	524.75
550.899	526.75
551.112	507.75
551.325	497.75
551.538	491.75
551.751	501.75
551.964	498.75
552.177	481.75
552.39	508.75
552.603	532.75
552.816	529.75
553.029	524.75
553.242	521.75
553.455	532.75
553.667	535.75
553.88	532.75
554.093	539.75
554.306	500.75
554.519	537.75
554.732	497.75
554.944	510.75
555.157	472.75
555.37	486.75
555.583	501.75
555.795	495.75
556.008	473.75
556.221	453.75
556.433	477.75
556.646	466.75
556.859	470.75
557.071	480.75
557.284	469.75
557.496	460.75
557.709	473.75
557.921	460.75
558.134	443.75
558.346	466.75
558.559	455.75
558.771	461.75
558.984	461.75
559.196	447.75
559.409	444.75
559.621	462.75
559.833	453.75
560.046	456.75
560.258	443.75
560.47	453.75
560.683	474.75
560.895	462.75
561.107	453.75
561.32	450.75
561.532	456.75
561.744	441.75
561.956	453.75
562.168	470.75
562.381	446.75
562.593	464.75
562.805	434.75
563.017	443.75
563.229	456.75
563.441	456.75
563.653	428.75
563.865	461.75
564.077	444.75
564.289	463.75
564.501	474.75
564.713	464.75
564.925	458.75
565.137	508.75
565.349	487.75
565.561	518.75
565.773	526.75
565.985	544.75
566.197	515.75
566.408	515.75
566.62	548.75
566.832	554.75
567.044	574.75
567.255	566.75
567.467	571.75
567.679	564.75
567.891	623.75
568.102	605.75
568.314	592.75
568.526	560.75
568.737	515.75
568.949	506.75
569.161	509.75
569.372	488.75
569.584	461.75
569.795	463.75
570.007	469.75
570.218	513.75
570.43	494.75
570.641	458.75
570.853	468.75
571.064	457.75
571.276	445.75
571.487	441.75
571.698	439.75
571.91	419.75
572.121	426.75
572.333	402.75
572.544	413.75
572.755	418.75
572.966	419.75
573.178	409.75
573.389	387.75
573.6	424.75
573.811	379.75
574.023	408.75
574.234	390.75
574.445	409.75
574.656	398.75
574.867	375.75
575.078	395.75
575.289	401.75
575.501	406.75
575.712	411.75
575.923	381.75
576.134	371.75
576.345	385.75
576.556	379.75
576.767	383.75
576.978	374.75
577.188	373.75
577.399	386.75
577.61	380.75
577.821	392.75
578.032	370.75
578.243	410.75
578.454	625.75
578.665	474.75
578.875	366.75
579.086	351.75
579.297	374.75
579.508	372.75
579.718	359.75
579.929	350.75
580.14	375.75
580.35	346.75
580.561	366.75
580.772	367.75
580.982	350.75
581.193	361.75
581.403	375.75
581.614	361.75
581.825	347.75
582.035	363.75
582.246	344.75
582.456	357.75
582.667	357.75
582.877	351.75
583.087	353.75
583.298	341.75
583.508	362.75
583.719	343.75
583.929	339.75
584.139	360.75
584.35	351.75
584.56	335.75
584.77	359.75
584.981	352.75
585.191	352.75
585.401	342.75
585.611	337.75
585.821	360.75
586.032	348.75
586.242	339.75
586.452	327.75
586.662	320.75
586.872	338.75
587.082	340.75
587.292	331.75
587.502	340.75
587.713	339.75
587.923	345.75
588.133	341.75
588.343	334.75
588.553	319.75
588.762	356.75
588.972	340.75
589.182	345.75
589.392	327.75
589.602	297.75
589.812	338.75
590.022	334.75
590.232	332.75
590.441	326.75
590.651	344.75
590.861	338.75
591.071	355.75
591.281	352.75
591.49	343.75
591.7	352.75
591.91	330.75
592.119	352.75
592.329	331.75
592.539	374.75
592.748	340.75
592.958	377.75
593.167	371.75
593.377	360.75
593.587	366.75
593.796	362.75
594.006	366.75
594.215	338.75
594.424	352.75
594.634	348.75
594.843	330.75
595.053	353.75
595.262	354.75
595.472	357.75
595.681	331.75
595.89	320.75
596.1	339.75
596.309	331.75
596.518	325.75
596.727	299.75
596.937	331.75
597.146	312.75
597.355	344.75
597.564	302.75
597.774	296.75
597.983	313.75
598.192	310.75
598.401	320.75
598.61	327.75
598.819	312.75
599.028	310.75
599.237	321.75
599.446	324.75
599.655	305.75
599.864	311.75
600.073	296.75
600.282	303.75
600.491	304.75
600.7	309.75
600.909	278.75
601.118	295.75
601.327	289.75
601.536	295.75
601.745	284.75
601.953	296.75
602.162	286.75
602.371	299.75
602.58	288.75
602.789	298.75
602.997	287.75
603.206	288.75
603.415	291.75
603.623	283.75
603.832	272.75
604.041	288.75
604.249	298.75
604.458	291.75
604.666	266.75
604.875	282.75
605.084	280.75
605.292	277.75
605.501	287.75
605.709	272.75
605.918	270.75
606.126	264.75
606.334	290.75
606.543	289.75
606.751	286.75
606.96	283.75
607.168	283.75
607.376	278.75
607.585	283.75
607.793	283.75
608.001	303.75
608.21	268.75
608.418	258.75
608.626	267.75
608.834	279.75
609.043	276.75
609.251	262.75
609.459	263.75
609.667	261.75
609.875	272.75
610.083	288.75
610.291	281.75
610.499	275.75
610.707	260.75
610.916	280.75
611.124	280.75
611.332	288.75
611.54	272.75
611.748	278.75
611.955	263.75
612.163	261.75
612.371	276.75
612.579	272.75
612.787	273.75
612.995	274.75
613.203	269.75
613.411	268.75
613.618	271.75
613.826	256.75
614.034	271.75
614.242	265.75
614.449	258.75
614.657	264.75
614.865	262.75
615.072	269.75
615.28	263.75
615.488	258.75
615.695	271.75
615.903	274.75
616.111	266.75
616.318	258.75
616.526	271.75
616.733	278.75
616.941	258.75
617.148	276.75
617.356	264.75
617.563	254.75
617.771	244.75
617.978	256.75
618.185	269.75
618.393	264.75
618.6	250.75
618.807	268.75
619.015	267.75
619.222	264.75
619.429	259.75
619.637	251.75
619.844	256.75
620.051	262.75
620.258	257.75
620.466	273.75
620.673	258.75
620.88	231.75
621.087	248.75
621.294	241.75
621.501	240.75
621.708	265.75
621.915	234.75
622.122	263.75
622.329	249.75
622.536	240.75
622.743	244.75
622.95	231.75
623.157	236.75
623.364	254.75
623.571	244.75
623.778	247.75
623.985	255.75
624.192	228.75
624.399	229.75
624.606	260.75
624.812	226.75
625.019	240.75
625.226	235.75
625.433	242.75
625.639	223.75
625.846	224.75
626.053	225.75
626.259	238.75
626.466	229.75
626.673	224.75
626.879	241.75
627.086	219.75
627.293	229.75
627.499	230.75
627.706	248.75
627.912	235.75
628.119	226.75
628.325	241.75
628.532	231.75
628.738	219.75
628.945	218.75
629.151	215.75
629.357	208.75
629.564	208.75
629.77	213.75
629.976	213.75
630.183	212.75
630.389	212.75
630.595	210.75
630.802	190.75
631.008	201.75
631.214	216.75
631.42	206.75
631.627	225.75
631.833	233.75
632.039	214.75
632.245	208.75
632.451	203.75
632.657	215.75
632.863	195.75
633.069	202.75
633.275	207.75
633.481	194.75
633.688	203.75
633.893	212.75
634.099	206.75
634.305	200.75
634.511	207.75
634.717	214.75
634.923	213.75
635.129	209.75
635.335	186.75
635.541	196.75
635.747	220.75
635.952	207.75
636.158	208.75
636.364	202.75
636.57	201.75
636.775	189.75
636.981	195.75
637.187	202.75
637.392	191.75
637.598	201.75
637.804	200.75
638.009	199.75
638.215	206.75
638.421	190.75
638.626	196.75
638.832	182.75
639.037	173.75
639.243	191.75
639.448	184.75
639.654	199.75
639.859	174.75
640.065	179.75
640.27	196.75
640.475	186.75
640.681	169.75
640.886	185.75
641.091	184.75
641.297	186.75
641.502	177.75
641.707	178.75
641.913	201.75
642.118	179.75
642.323	174.75
642.528	190.75
642.733	176.75
642.939	176.75
643.144	191.75
643.349	178.75
643.554	172.75
643.759	186.75
643.964	171.75
644.169	180.75
644.374	181.75
644.579	202.75
644.784	189.75
644.989	189.75
645.194	165.75
645.399	176.75
645.604	176.75
645.809	170.75
646.014	190.75
646.219	193.75
646.423	167.75
646.628	188.75
646.833	179.75
647.038	154.75
647.243	185.75
647.447	187.75
647.652	185.75
647.857	163.75
648.062	181.75
648.266	182.75
648.471	171.75
648.676	192.75
648.88	182.75
649.085	193.75
649.289	189.75
649.494	188.75
649.698	184.75
649.903	218.75
650.107	205.75
650.312	192.75
650.516	183.75
650.721	161.75
650.925	160.75
651.13	151.75
651.334	144.75
651.539	164.75
651.743	155.75
651.947	157.75
652.152	155.75
652.356	137.75
652.56	148.75
652.764	165.75
652.969	146.75
653.173	145.75
653.377	141.75
653.581	154.75
653.785	154.75
653.99	155.75
654.194	151.75
654.398	153.75
654.602	146.75
654.806	141.75
655.01	148.75
655.214	140.75
655.418	137.75
655.622	124.75
655.826	124.75
656.03	141.75
656.234	140.75
656.438	141.75
656.642	142.75
656.846	130.75
657.049	137.75
657.253	126.75
657.457	125.75
657.661	119.75
657.865	109.75
658.068	121.75
658.272	123.75
658.476	111.75
658.68	107.75
658.883	110.75
659.087	88.75
659.291	100.75
659.494	97.75
659.698	101.75
659.901	107.75
660.105	88.75
660.309	84.75
660.512	90.75
660.716	107.75
660.919	93.75
661.123	76.75
661.326	73.75
661.53	95.75
661.733	94.75
661.936	100.75
662.14	86.75
662.343	80.75
662.546	74.75
662.75	80.75
662.953	84.75
663.156	86.75
663.36	83.75
663.563	72.75
663.766	102.75
663.969	71.75
664.173	76.75
664.376	73.75
664.579	85.75
664.782	87.75
664.985	76.75
665.188	81.75
665.391	71.75
665.594	80.75
665.797	84.75
666	80.75
666.203	79.75
666.406	66.75
666.609	68.75
666.812	96.75
667.015	80.75
667.218	78.75
667.421	73.75
667.624	84.75
667.827	83.75
668.03	81.75
668.232	74.75
668.435	86.75
668.638	75.75
668.841	90.75
669.043	83.75
669.246	95.75
669.449	63.75
669.651	90.75
669.854	80.75
670.057	77.75
670.259	76.75
670.462	82.75
670.665	80.75
670.867	72.75
671.07	77.75
671.272	95.75
671.475	82.75
671.677	82.75
671.88	78.75
672.082	86.75
672.284	75.75
672.487	68.75
672.689	88.75
672.892	75.75
