Data from 1966.PennyLincolnUp.Lamp.En5.5.200Scan.071719.P1._HRD10591_14-12-58-914.txt Node
Date: Thu Jul 18 14:12:58 EDT 2019
User: cochatt
Spectrometer: HR+D1059
Trigger mode: 1
Integration Time (sec): 1.000000E-1
Scans to average: 1
Electric dark correction enabled: true
Nonlinearity correction enabled: false
Boxcar width: 0
XAxis mode: Wavelengths
Number of Pixels in Spectrum: 2048
>>>>>Begin Spectral Data<<<<<
223.165	-2.12
223.4	-2.12
223.635	-2.12
223.869	-24.12
224.104	-25.12
224.338	-3.12
224.573	-13.12
224.808	-14.12
225.042	11.88
225.277	-7.12
225.511	-7.12
225.746	-6.12
225.98	-5.12
226.215	3.88
226.449	22.88
226.683	26.88
226.918	20.88
227.152	20.88
227.387	36.88
227.621	32.88
227.856	37.88
228.09	51.88
228.324	49.88
228.559	59.88
228.793	66.88
229.027	82.88
229.262	79.88
229.496	89.88
229.73	101.88
229.964	96.88
230.199	98.88
230.433	85.88
230.667	84.88
230.901	90.88
231.136	81.88
231.37	84.88
231.604	102.88
231.838	96.88
232.072	84.88
232.306	94.88
232.541	88.88
232.775	88.88
233.009	91.88
233.243	105.88
233.477	106.88
233.711	88.88
233.945	102.88
234.179	77.88
234.413	93.88
234.647	84.88
234.881	86.88
235.115	109.88
235.349	80.88
235.583	89.88
235.817	101.88
236.051	85.88
236.285	89.88
236.519	97.88
236.753	92.88
236.987	97.88
237.221	131.88
237.455	137.88
237.689	127.88
237.922	109.88
238.156	90.88
238.39	94.88
238.624	92.88
238.858	87.88
239.091	103.88
239.325	96.88
239.559	88.88
239.793	101.88
240.027	95.88
240.26	105.88
240.494	115.88
240.728	99.88
240.961	93.88
241.195	115.88
241.429	100.88
241.662	93.88
241.896	112.88
242.13	80.88
242.363	84.88
242.597	91.88
242.83	97.88
243.064	99.88
243.298	104.88
243.531	95.88
243.765	114.88
243.998	112.88
244.232	94.88
244.465	100.88
244.699	112.88
244.932	84.88
245.166	125.88
245.399	109.88
245.633	105.88
245.866	101.88
246.099	94.88
246.333	95.88
246.566	85.88
246.8	95.88
247.033	105.88
247.266	101.88
247.5	109.88
247.733	124.88
247.966	116.88
248.2	108.88
248.433	107.88
248.666	114.88
248.899	126.88
249.133	123.88
249.366	136.88
249.599	117.88
249.832	111.88
250.066	118.88
250.299	112.88
250.532	122.88
250.765	130.88
250.998	141.88
251.231	142.88
251.465	141.88
251.698	116.88
251.931	104.88
252.164	132.88
252.397	126.88
252.63	131.88
252.863	120.88
253.096	124.88
253.329	137.88
253.562	140.88
253.795	140.88
254.028	132.88
254.261	124.88
254.494	145.88
254.727	154.88
254.96	166.88
255.193	160.88
255.426	135.88
255.659	134.88
255.892	130.88
256.124	141.88
256.357	132.88
256.59	133.88
256.823	142.88
257.056	124.88
257.289	131.88
257.521	134.88
257.754	125.88
257.987	128.88
258.22	124.88
258.452	109.88
258.685	124.88
258.918	130.88
259.151	134.88
259.383	137.88
259.616	140.88
259.849	137.88
260.081	144.88
260.314	137.88
260.547	144.88
260.779	149.88
261.012	134.88
261.244	128.88
261.477	125.88
261.71	128.88
261.942	136.88
262.175	138.88
262.407	142.88
262.64	128.88
262.872	139.88
263.105	132.88
263.337	129.88
263.57	139.88
263.802	123.88
264.035	126.88
264.267	110.88
264.499	122.88
264.732	140.88
264.964	119.88
265.197	120.88
265.429	130.88
265.661	129.88
265.894	122.88
266.126	128.88
266.358	140.88
266.591	127.88
266.823	123.88
267.055	118.88
267.287	134.88
267.52	145.88
267.752	124.88
267.984	128.88
268.216	134.88
268.448	130.88
268.681	148.88
268.913	146.88
269.145	155.88
269.377	153.88
269.609	153.88
269.841	144.88
270.073	157.88
270.306	166.88
270.538	177.88
270.77	188.88
271.002	157.88
271.234	164.88
271.466	175.88
271.698	146.88
271.93	178.88
272.162	168.88
272.394	177.88
272.626	180.88
272.858	155.88
273.09	138.88
273.322	155.88
273.553	146.88
273.785	148.88
274.017	149.88
274.249	146.88
274.481	150.88
274.713	152.88
274.945	134.88
275.176	150.88
275.408	154.88
275.64	156.88
275.872	153.88
276.104	150.88
276.335	168.88
276.567	155.88
276.799	156.88
277.031	189.88
277.262	184.88
277.494	186.88
277.726	177.88
277.957	173.88
278.189	166.88
278.421	147.88
278.652	152.88
278.884	160.88
279.115	145.88
279.347	151.88
279.579	167.88
279.81	161.88
280.042	148.88
280.273	150.88
280.505	143.88
280.736	160.88
280.968	144.88
281.199	137.88
281.431	156.88
281.662	145.88
281.894	154.88
282.125	153.88
282.356	146.88
282.588	176.88
282.819	150.88
283.051	146.88
283.282	159.88
283.513	146.88
283.745	153.88
283.976	178.88
284.207	138.88
284.439	147.88
284.67	155.88
284.901	156.88
285.132	154.88
285.364	144.88
285.595	156.88
285.826	151.88
286.057	161.88
286.288	142.88
286.52	160.88
286.751	154.88
286.982	171.88
287.213	165.88
287.444	156.88
287.675	168.88
287.906	157.88
288.138	176.88
288.369	164.88
288.6	166.88
288.831	169.88
289.062	159.88
289.293	156.88
289.524	167.88
289.755	153.88
289.986	153.88
290.217	153.88
290.448	159.88
290.679	157.88
290.91	168.88
291.141	162.88
291.371	148.88
291.602	170.88
291.833	161.88
292.064	149.88
292.295	162.88
292.526	170.88
292.757	165.88
292.987	152.88
293.218	146.88
293.449	168.88
293.68	155.88
293.91	183.88
294.141	154.88
294.372	160.88
294.603	177.88
294.833	175.88
295.064	161.88
295.295	173.88
295.525	166.88
295.756	166.88
295.987	176.88
296.217	179.88
296.448	176.88
296.679	173.88
296.909	152.88
297.14	148.88
297.37	154.88
297.601	151.88
297.831	153.88
298.062	153.88
298.292	167.88
298.523	180.88
298.753	158.88
298.984	165.88
299.214	182.88
299.445	160.88
299.675	169.88
299.905	166.88
300.136	156.88
300.366	179.88
300.597	169.88
300.827	172.88
301.057	177.88
301.288	176.88
301.518	171.88
301.748	161.88
301.979	161.88
302.209	173.88
302.439	174.88
302.669	170.88
302.9	167.88
303.13	180.88
303.36	188.88
303.59	176.88
303.82	180.88
304.051	190.88
304.281	187.88
304.511	180.88
304.741	184.88
304.971	169.88
305.201	176.88
305.431	186.88
305.661	192.88
305.891	184.88
306.121	172.88
306.352	185.88
306.582	192.88
306.812	178.88
307.042	172.88
307.272	176.88
307.502	204.88
307.731	189.88
307.961	174.88
308.191	165.88
308.421	174.88
308.651	187.88
308.881	190.88
309.111	188.88
309.341	185.88
309.571	199.88
309.8	193.88
310.03	178.88
310.26	194.88
310.49	192.88
310.72	190.88
310.949	209.88
311.179	214.88
311.409	187.88
311.639	192.88
311.868	199.88
312.098	194.88
312.328	204.88
312.557	197.88
312.787	221.88
313.017	205.88
313.246	199.88
313.476	196.88
313.706	201.88
313.935	192.88
314.165	205.88
314.394	200.88
314.624	215.88
314.853	208.88
315.083	197.88
315.312	202.88
315.542	203.88
315.771	190.88
316.001	189.88
316.23	180.88
316.46	183.88
316.689	192.88
316.919	182.88
317.148	200.88
317.377	197.88
317.607	198.88
317.836	198.88
318.065	182.88
318.295	194.88
318.524	196.88
318.753	182.88
318.983	188.88
319.212	201.88
319.441	207.88
319.67	198.88
319.9	196.88
320.129	200.88
320.358	197.88
320.587	181.88
320.816	219.88
321.046	191.88
321.275	205.88
321.504	196.88
321.733	205.88
321.962	189.88
322.191	205.88
322.42	230.88
322.649	212.88
322.878	241.88
323.108	248.88
323.337	228.88
323.566	246.88
323.795	261.88
324.024	281.88
324.253	347.88
324.482	492.88
324.71	732.88
324.939	935.88
325.168	765.88
325.397	391.88
325.626	291.88
325.855	240.88
326.084	245.88
326.313	240.88
326.542	253.88
326.77	265.88
326.999	334.88
327.228	429.88
327.457	631.88
327.686	686.88
327.914	472.88
328.143	330.88
328.372	310.88
328.6	278.88
328.829	282.88
329.058	297.88
329.287	283.88
329.515	275.88
329.744	245.88
329.972	249.88
330.201	274.88
330.43	308.88
330.658	299.88
330.887	318.88
331.115	285.88
331.344	255.88
331.572	228.88
331.801	230.88
332.03	244.88
332.258	242.88
332.486	221.88
332.715	229.88
332.943	218.88
333.172	221.88
333.4	239.88
333.629	229.88
333.857	250.88
334.085	235.88
334.314	268.88
334.542	294.88
334.771	285.88
334.999	260.88
335.227	257.88
335.455	212.88
335.684	234.88
335.912	222.88
336.14	229.88
336.369	213.88
336.597	246.88
336.825	222.88
337.053	213.88
337.281	226.88
337.51	221.88
337.738	220.88
337.966	220.88
338.194	220.88
338.422	215.88
338.65	217.88
338.878	210.88
339.106	229.88
339.334	222.88
339.562	211.88
339.79	209.88
340.018	214.88
340.246	213.88
340.474	215.88
340.702	216.88
340.93	206.88
341.158	217.88
341.386	211.88
341.614	196.88
341.842	212.88
342.07	234.88
342.298	215.88
342.526	212.88
342.754	208.88
342.981	198.88
343.209	202.88
343.437	210.88
343.665	220.88
343.893	214.88
344.12	227.88
344.348	225.88
344.576	221.88
344.804	232.88
345.031	225.88
345.259	233.88
345.487	218.88
345.714	213.88
345.942	194.88
346.17	227.88
346.397	205.88
346.625	218.88
346.853	206.88
347.08	213.88
347.308	216.88
347.535	216.88
347.763	215.88
347.99	203.88
348.218	214.88
348.445	213.88
348.673	220.88
348.9	211.88
349.128	217.88
349.355	200.88
349.583	194.88
349.81	200.88
350.037	202.88
350.265	206.88
350.492	194.88
350.72	197.88
350.947	214.88
351.174	204.88
351.402	214.88
351.629	195.88
351.856	224.88
352.083	212.88
352.311	213.88
352.538	217.88
352.765	233.88
352.992	203.88
353.22	216.88
353.447	190.88
353.674	212.88
353.901	220.88
354.128	187.88
354.355	194.88
354.583	214.88
354.81	194.88
355.037	197.88
355.264	193.88
355.491	189.88
355.718	192.88
355.945	186.88
356.172	197.88
356.399	191.88
356.626	195.88
356.853	197.88
357.08	204.88
357.307	212.88
357.534	189.88
357.761	202.88
357.988	212.88
358.215	194.88
358.441	190.88
358.668	188.88
358.895	203.88
359.122	180.88
359.349	203.88
359.576	197.88
359.802	240.88
360.029	226.88
360.256	244.88
360.483	240.88
360.709	214.88
360.936	196.88
361.163	203.88
361.39	202.88
361.616	205.88
361.843	210.88
362.07	211.88
362.296	203.88
362.523	196.88
362.749	213.88
362.976	197.88
363.203	206.88
363.429	209.88
363.656	190.88
363.882	216.88
364.109	204.88
364.335	199.88
364.562	183.88
364.788	198.88
365.015	205.88
365.241	205.88
365.468	215.88
365.694	201.88
365.92	209.88
366.147	218.88
366.373	209.88
366.599	201.88
366.826	186.88
367.052	198.88
367.278	197.88
367.505	198.88
367.731	178.88
367.957	194.88
368.184	179.88
368.41	197.88
368.636	201.88
368.862	214.88
369.089	219.88
369.315	206.88
369.541	202.88
369.767	195.88
369.993	189.88
370.219	202.88
370.445	203.88
370.672	198.88
370.898	202.88
371.124	202.88
371.35	182.88
371.576	199.88
371.802	190.88
372.028	194.88
372.254	213.88
372.48	209.88
372.706	198.88
372.932	178.88
373.158	194.88
373.384	222.88
373.61	204.88
373.835	184.88
374.061	188.88
374.287	195.88
374.513	210.88
374.739	198.88
374.965	204.88
375.191	217.88
375.416	200.88
375.642	210.88
375.868	212.88
376.094	195.88
376.319	188.88
376.545	194.88
376.771	211.88
376.997	188.88
377.222	189.88
377.448	198.88
377.674	204.88
377.899	194.88
378.125	197.88
378.35	198.88
378.576	203.88
378.802	200.88
379.027	202.88
379.253	206.88
379.478	206.88
379.704	206.88
379.929	196.88
380.155	185.88
380.38	197.88
380.606	198.88
380.831	193.88
381.057	210.88
381.282	204.88
381.507	196.88
381.733	204.88
381.958	206.88
382.184	201.88
382.409	218.88
382.634	182.88
382.86	204.88
383.085	201.88
383.31	192.88
383.535	219.88
383.761	211.88
383.986	212.88
384.211	214.88
384.436	210.88
384.662	208.88
384.887	227.88
385.112	204.88
385.337	199.88
385.562	196.88
385.787	208.88
386.013	205.88
386.238	204.88
386.463	217.88
386.688	214.88
386.913	211.88
387.138	199.88
387.363	202.88
387.588	210.88
387.813	206.88
388.038	213.88
388.263	200.88
388.488	216.88
388.713	209.88
388.938	215.88
389.163	210.88
389.387	212.88
389.612	211.88
389.837	216.88
390.062	218.88
390.287	210.88
390.512	206.88
390.736	201.88
390.961	201.88
391.186	214.88
391.411	224.88
391.636	222.88
391.86	218.88
392.085	225.88
392.31	221.88
392.534	218.88
392.759	216.88
392.984	206.88
393.208	210.88
393.433	226.88
393.658	213.88
393.882	216.88
394.107	199.88
394.331	205.88
394.556	211.88
394.78	215.88
395.005	223.88
395.229	228.88
395.454	210.88
395.678	213.88
395.903	240.88
396.127	238.88
396.352	230.88
396.576	231.88
396.801	236.88
397.025	228.88
397.249	236.88
397.474	213.88
397.698	240.88
397.922	235.88
398.147	224.88
398.371	245.88
398.595	235.88
398.82	227.88
399.044	225.88
399.268	233.88
399.492	260.88
399.717	278.88
399.941	280.88
400.165	294.88
400.389	291.88
400.613	267.88
400.837	255.88
401.062	244.88
401.286	241.88
401.51	230.88
401.734	256.88
401.958	235.88
402.182	257.88
402.406	268.88
402.63	256.88
402.854	266.88
403.078	257.88
403.302	244.88
403.526	244.88
403.75	250.88
403.974	246.88
404.198	261.88
404.422	238.88
404.645	258.88
404.869	266.88
405.093	261.88
405.317	275.88
405.541	285.88
405.765	255.88
405.988	294.88
406.212	283.88
406.436	287.88
406.66	281.88
406.883	276.88
407.107	276.88
407.331	299.88
407.555	324.88
407.778	314.88
408.002	282.88
408.226	269.88
408.449	277.88
408.673	273.88
408.896	281.88
409.12	294.88
409.344	281.88
409.567	265.88
409.791	247.88
410.014	261.88
410.238	257.88
410.461	251.88
410.685	252.88
410.908	253.88
411.132	278.88
411.355	301.88
411.578	258.88
411.802	244.88
412.025	268.88
412.249	247.88
412.472	250.88
412.695	286.88
412.919	262.88
413.142	263.88
413.365	260.88
413.589	262.88
413.812	250.88
414.035	229.88
414.258	243.88
414.482	247.88
414.705	234.88
414.928	236.88
415.151	253.88
415.374	244.88
415.597	237.88
415.821	237.88
416.044	244.88
416.267	240.88
416.49	228.88
416.713	235.88
416.936	245.88
417.159	238.88
417.382	243.88
417.605	245.88
417.828	261.88
418.051	238.88
418.274	252.88
418.497	232.88
418.72	246.88
418.943	244.88
419.166	227.88
419.389	249.88
419.611	258.88
419.834	270.88
420.057	252.88
420.28	267.88
420.503	249.88
420.726	235.88
420.948	275.88
421.171	274.88
421.394	296.88
421.617	247.88
421.839	247.88
422.062	252.88
422.285	254.88
422.507	283.88
422.73	306.88
422.953	287.88
423.175	246.88
423.398	262.88
423.621	265.88
423.843	257.88
424.066	261.88
424.288	255.88
424.511	272.88
424.733	308.88
424.956	328.88
425.178	327.88
425.401	322.88
425.623	322.88
425.846	286.88
426.068	265.88
426.291	268.88
426.513	257.88
426.735	274.88
426.958	292.88
427.18	321.88
427.402	372.88
427.625	383.88
427.847	365.88
428.069	310.88
428.292	267.88
428.514	250.88
428.736	262.88
428.958	257.88
429.181	252.88
429.403	241.88
429.625	245.88
429.847	280.88
430.069	284.88
430.292	307.88
430.514	259.88
430.736	251.88
430.958	235.88
431.18	235.88
431.402	224.88
431.624	219.88
431.846	242.88
432.068	230.88
432.29	233.88
432.512	235.88
432.734	241.88
432.956	226.88
433.178	238.88
433.4	225.88
433.622	228.88
433.844	232.88
434.066	223.88
434.287	228.88
434.509	230.88
434.731	244.88
434.953	258.88
435.175	252.88
435.397	269.88
435.618	276.88
435.84	266.88
436.062	326.88
436.284	341.88
436.505	298.88
436.727	277.88
436.949	262.88
437.17	260.88
437.392	256.88
437.614	246.88
437.835	291.88
438.057	316.88
438.278	367.88
438.5	328.88
438.721	366.88
438.943	343.88
439.165	280.88
439.386	281.88
439.608	276.88
439.829	262.88
440.05	298.88
440.272	306.88
440.493	276.88
440.715	263.88
440.936	259.88
441.158	248.88
441.379	244.88
441.6	256.88
441.822	269.88
442.043	298.88
442.264	313.88
442.486	322.88
442.707	289.88
442.928	270.88
443.149	288.88
443.371	278.88
443.592	306.88
443.813	343.88
444.034	373.88
444.255	285.88
444.476	268.88
444.698	264.88
444.919	267.88
445.14	346.88
445.361	320.88
445.582	282.88
445.803	314.88
446.024	368.88
446.245	360.88
446.466	324.88
446.687	276.88
446.908	275.88
447.129	241.88
447.35	246.88
447.571	232.88
447.792	264.88
448.013	245.88
448.234	268.88
448.455	280.88
448.675	330.88
448.896	372.88
449.117	309.88
449.338	308.88
449.559	346.88
449.779	387.88
450	308.88
450.221	261.88
450.442	231.88
450.662	240.88
450.883	244.88
451.104	254.88
451.324	249.88
451.545	234.88
451.766	225.88
451.986	230.88
452.207	219.88
452.428	240.88
452.648	235.88
452.869	230.88
453.089	215.88
453.31	228.88
453.53	221.88
453.751	230.88
453.971	229.88
454.192	252.88
454.412	250.88
454.633	229.88
454.853	221.88
455.073	220.88
455.294	228.88
455.514	264.88
455.734	255.88
455.955	219.88
456.175	214.88
456.395	201.88
456.616	201.88
456.836	218.88
457.056	201.88
457.276	196.88
457.497	210.88
457.717	213.88
457.937	217.88
458.157	216.88
458.377	220.88
458.598	221.88
458.818	280.88
459.038	300.88
459.258	308.88
459.478	254.88
459.698	257.88
459.918	237.88
460.138	250.88
460.358	229.88
460.578	239.88
460.798	235.88
461.018	244.88
461.238	226.88
461.458	227.88
461.678	244.88
461.898	246.88
462.118	240.88
462.338	244.88
462.558	240.88
462.777	258.88
462.997	274.88
463.217	256.88
463.437	274.88
463.657	265.88
463.876	250.88
464.096	248.88
464.316	260.88
464.536	240.88
464.755	260.88
464.975	256.88
465.195	287.88
465.414	339.88
465.634	288.88
465.854	264.88
466.073	238.88
466.293	225.88
466.512	227.88
466.732	236.88
466.951	229.88
467.171	222.88
467.391	230.88
467.61	226.88
467.829	246.88
468.049	251.88
468.268	248.88
468.488	244.88
468.707	228.88
468.927	199.88
469.146	218.88
469.365	218.88
469.585	228.88
469.804	225.88
470.023	250.88
470.243	232.88
470.462	235.88
470.681	258.88
470.901	237.88
471.12	245.88
471.339	225.88
471.558	244.88
471.777	232.88
471.997	233.88
472.216	242.88
472.435	268.88
472.654	245.88
472.873	229.88
473.092	224.88
473.311	223.88
473.53	228.88
473.749	241.88
473.968	258.88
474.187	318.88
474.406	292.88
474.625	254.88
474.844	245.88
475.063	229.88
475.282	228.88
475.501	227.88
475.72	230.88
475.939	248.88
476.158	248.88
476.377	215.88
476.596	240.88
476.814	235.88
477.033	230.88
477.252	236.88
477.471	254.88
477.69	244.88
477.908	246.88
478.127	258.88
478.346	249.88
478.564	244.88
478.783	237.88
479.002	256.88
479.22	259.88
479.439	269.88
479.658	287.88
479.876	261.88
480.095	283.88
480.313	292.88
480.532	283.88
480.751	283.88
480.969	281.88
481.188	355.88
481.406	372.88
481.624	319.88
481.843	266.88
482.061	267.88
482.28	268.88
482.498	272.88
482.717	256.88
482.935	246.88
483.153	283.88
483.372	278.88
483.59	269.88
483.808	283.88
484.027	265.88
484.245	268.88
484.463	272.88
484.681	276.88
484.9	267.88
485.118	279.88
485.336	266.88
485.554	264.88
485.772	285.88
485.99	270.88
486.209	276.88
486.427	254.88
486.645	299.88
486.863	297.88
487.081	288.88
487.299	286.88
487.517	288.88
487.735	282.88
487.953	286.88
488.171	273.88
488.389	276.88
488.607	286.88
488.825	301.88
489.043	273.88
489.261	277.88
489.479	278.88
489.696	286.88
489.914	286.88
490.132	285.88
490.35	292.88
490.568	297.88
490.786	319.88
491.003	308.88
491.221	292.88
491.439	311.88
491.657	310.88
491.874	343.88
492.092	328.88
492.31	342.88
492.527	326.88
492.745	337.88
492.963	315.88
493.18	332.88
493.398	353.88
493.615	330.88
493.833	339.88
494.05	318.88
494.268	324.88
494.485	332.88
494.703	329.88
494.92	337.88
495.138	342.88
495.355	332.88
495.573	341.88
495.79	345.88
496.008	326.88
496.225	340.88
496.442	335.88
496.66	338.88
496.877	328.88
497.094	330.88
497.312	323.88
497.529	332.88
497.746	352.88
497.963	343.88
498.181	343.88
498.398	371.88
498.615	356.88
498.832	373.88
499.049	365.88
499.267	386.88
499.484	376.88
499.701	398.88
499.918	404.88
500.135	432.88
500.352	424.88
500.569	453.88
500.786	434.88
501.003	446.88
501.22	444.88
501.437	396.88
501.654	402.88
501.871	397.88
502.088	382.88
502.305	363.88
502.522	351.88
502.739	342.88
502.956	328.88
503.172	350.88
503.389	344.88
503.606	338.88
503.823	345.88
504.04	330.88
504.256	338.88
504.473	320.88
504.69	327.88
504.907	335.88
505.123	324.88
505.34	327.88
505.557	308.88
505.773	312.88
505.99	336.88
506.207	325.88
506.423	326.88
506.64	316.88
506.856	314.88
507.073	314.88
507.289	297.88
507.506	316.88
507.722	303.88
507.939	312.88
508.155	302.88
508.372	303.88
508.588	325.88
508.805	289.88
509.021	290.88
509.238	298.88
509.454	304.88
509.67	300.88
509.887	290.88
510.103	318.88
510.319	305.88
510.536	369.88
510.752	700.88
510.968	514.88
511.184	304.88
511.401	291.88
511.617	289.88
511.833	287.88
512.049	283.88
512.265	283.88
512.481	274.88
512.698	276.88
512.914	273.88
513.13	258.88
513.346	277.88
513.562	276.88
513.778	265.88
513.994	279.88
514.21	290.88
514.426	317.88
514.642	350.88
514.858	351.88
515.074	380.88
515.29	475.88
515.506	762.88
515.721	572.88
515.937	351.88
516.153	318.88
516.369	291.88
516.585	295.88
516.801	270.88
517.016	293.88
517.232	292.88
517.448	296.88
517.664	285.88
517.879	306.88
518.095	290.88
518.311	280.88
518.527	260.88
518.742	276.88
518.958	271.88
519.173	284.88
519.389	264.88
519.605	283.88
519.82	282.88
520.036	296.88
520.251	292.88
520.467	312.88
520.682	319.88
520.898	322.88
521.113	338.88
521.329	369.88
521.544	417.88
521.76	547.88
521.975	1024.88
522.19	1024.88
522.406	475.88
522.621	351.88
522.836	297.88
523.052	280.88
523.267	271.88
523.482	269.88
523.698	264.88
523.913	281.88
524.128	258.88
524.343	258.88
524.559	260.88
524.774	243.88
524.989	247.88
525.204	265.88
525.419	250.88
525.634	253.88
525.849	253.88
526.064	249.88
526.28	236.88
526.495	261.88
526.71	222.88
526.925	240.88
527.14	220.88
527.355	240.88
527.57	220.88
527.785	233.88
527.999	254.88
528.214	250.88
528.429	251.88
528.644	240.88
528.859	221.88
529.074	237.88
529.289	249.88
529.503	299.88
529.718	291.88
529.933	244.88
530.148	237.88
530.363	246.88
530.577	240.88
530.792	225.88
531.007	220.88
531.221	220.88
531.436	242.88
531.651	224.88
531.865	225.88
532.08	231.88
532.295	222.88
532.509	228.88
532.724	229.88
532.938	240.88
533.153	211.88
533.367	237.88
533.582	231.88
533.796	225.88
534.011	212.88
534.225	225.88
534.44	226.88
534.654	219.88
534.868	223.88
535.083	211.88
535.297	222.88
535.511	230.88
535.726	236.88
535.94	217.88
536.154	225.88
536.369	237.88
536.583	228.88
536.797	227.88
537.011	220.88
537.225	204.88
537.44	224.88
537.654	220.88
537.868	204.88
538.082	194.88
538.296	233.88
538.51	218.88
538.724	231.88
538.938	222.88
539.153	220.88
539.367	221.88
539.581	222.88
539.795	208.88
540.009	209.88
540.222	217.88
540.436	220.88
540.65	235.88
540.864	227.88
541.078	228.88
541.292	208.88
541.506	240.88
541.72	224.88
541.934	229.88
542.147	243.88
542.361	235.88
542.575	236.88
542.789	214.88
543.002	217.88
543.216	221.88
543.43	214.88
543.644	233.88
543.857	210.88
544.071	229.88
544.285	236.88
544.498	216.88
544.712	228.88
544.925	225.88
545.139	228.88
545.352	219.88
545.566	218.88
545.779	217.88
545.993	230.88
546.206	226.88
546.42	230.88
546.633	217.88
546.847	207.88
547.06	212.88
547.274	216.88
547.487	211.88
547.7	215.88
547.914	222.88
548.127	211.88
548.34	205.88
548.554	213.88
548.767	192.88
548.98	217.88
549.193	220.88
549.407	226.88
549.62	220.88
549.833	213.88
550.046	212.88
550.259	206.88
550.473	220.88
550.686	212.88
550.899	209.88
551.112	224.88
551.325	211.88
551.538	202.88
551.751	217.88
551.964	197.88
552.177	200.88
552.39	208.88
552.603	206.88
552.816	210.88
553.029	207.88
553.242	197.88
553.455	206.88
553.667	213.88
553.88	211.88
554.093	208.88
554.306	221.88
554.519	191.88
554.732	206.88
554.944	192.88
555.157	220.88
555.37	208.88
555.583	193.88
555.795	205.88
556.008	205.88
556.221	196.88
556.433	200.88
556.646	212.88
556.859	204.88
557.071	194.88
557.284	197.88
557.496	187.88
557.709	201.88
557.921	195.88
558.134	176.88
558.346	195.88
558.559	198.88
558.771	206.88
558.984	196.88
559.196	200.88
559.409	183.88
559.621	197.88
559.833	205.88
560.046	196.88
560.258	197.88
560.47	205.88
560.683	192.88
560.895	195.88
561.107	184.88
561.32	186.88
561.532	182.88
561.744	188.88
561.956	185.88
562.168	179.88
562.381	188.88
562.593	189.88
562.805	181.88
563.017	189.88
563.229	193.88
563.441	197.88
563.653	192.88
563.865	186.88
564.077	203.88
564.289	186.88
564.501	190.88
564.713	195.88
564.925	187.88
565.137	205.88
565.349	192.88
565.561	192.88
565.773	198.88
565.985	196.88
566.197	227.88
566.408	209.88
566.62	205.88
566.832	214.88
567.044	216.88
567.255	215.88
567.467	236.88
567.679	236.88
567.891	244.88
568.102	229.88
568.314	212.88
568.526	213.88
568.737	218.88
568.949	208.88
569.161	195.88
569.372	187.88
569.584	202.88
569.795	188.88
570.007	209.88
570.218	225.88
570.43	196.88
570.641	203.88
570.853	194.88
571.064	179.88
571.276	194.88
571.487	186.88
571.698	174.88
571.91	186.88
572.121	180.88
572.333	175.88
572.544	170.88
572.755	174.88
572.966	170.88
573.178	178.88
573.389	163.88
573.6	160.88
573.811	158.88
574.023	165.88
574.234	185.88
574.445	170.88
574.656	196.88
574.867	163.88
575.078	171.88
575.289	186.88
575.501	181.88
575.712	168.88
575.923	170.88
576.134	168.88
576.345	154.88
576.556	165.88
576.767	169.88
576.978	173.88
577.188	180.88
577.399	165.88
577.61	166.88
577.821	175.88
578.032	162.88
578.243	192.88
578.454	332.88
578.665	231.88
578.875	169.88
579.086	160.88
579.297	161.88
579.508	156.88
579.718	178.88
579.929	165.88
580.14	169.88
580.35	140.88
580.561	143.88
580.772	173.88
580.982	154.88
581.193	143.88
581.403	166.88
581.614	157.88
581.825	151.88
582.035	146.88
582.246	154.88
582.456	142.88
582.667	156.88
582.877	164.88
583.087	153.88
583.298	146.88
583.508	153.88
583.719	169.88
583.929	157.88
584.139	153.88
584.35	152.88
584.56	158.88
584.77	156.88
584.981	167.88
585.191	158.88
585.401	156.88
585.611	165.88
585.821	163.88
586.032	152.88
586.242	146.88
586.452	156.88
586.662	155.88
586.872	139.88
587.082	152.88
587.292	140.88
587.502	149.88
587.713	164.88
587.923	165.88
588.133	164.88
588.343	155.88
588.553	152.88
588.762	163.88
588.972	166.88
589.182	184.88
589.392	182.88
589.602	138.88
589.812	174.88
590.022	177.88
590.232	165.88
590.441	156.88
590.651	160.88
590.861	149.88
591.071	152.88
591.281	159.88
591.49	145.88
591.7	169.88
591.91	156.88
592.119	157.88
592.329	144.88
592.539	159.88
592.748	156.88
592.958	163.88
593.167	164.88
593.377	137.88
593.587	164.88
593.796	173.88
594.006	150.88
594.215	153.88
594.424	160.88
594.634	150.88
594.843	158.88
595.053	156.88
595.262	156.88
595.472	166.88
595.681	140.88
595.89	154.88
596.1	152.88
596.309	134.88
596.518	148.88
596.727	161.88
596.937	142.88
597.146	158.88
597.355	147.88
597.564	134.88
597.774	132.88
597.983	135.88
598.192	138.88
598.401	161.88
598.61	145.88
598.819	140.88
599.028	138.88
599.237	132.88
599.446	148.88
599.655	150.88
599.864	152.88
600.073	133.88
600.282	144.88
600.491	129.88
600.7	144.88
600.909	154.88
601.118	137.88
601.327	153.88
601.536	141.88
601.745	148.88
601.953	136.88
602.162	139.88
602.371	151.88
602.58	142.88
602.789	135.88
602.997	125.88
603.206	148.88
603.415	140.88
603.623	140.88
603.832	142.88
604.041	131.88
604.249	139.88
604.458	141.88
604.666	143.88
604.875	137.88
605.084	145.88
605.292	140.88
605.501	148.88
605.709	139.88
605.918	136.88
606.126	149.88
606.334	144.88
606.543	142.88
606.751	138.88
606.96	137.88
607.168	140.88
607.376	124.88
607.585	146.88
607.793	134.88
608.001	134.88
608.21	137.88
608.418	144.88
608.626	155.88
608.834	140.88
609.043	149.88
609.251	148.88
609.459	139.88
609.667	154.88
609.875	146.88
610.083	140.88
610.291	124.88
610.499	149.88
610.707	153.88
610.916	127.88
611.124	132.88
611.332	150.88
611.54	148.88
611.748	140.88
611.955	117.88
612.163	138.88
612.371	133.88
612.579	133.88
612.787	137.88
612.995	146.88
613.203	148.88
613.411	137.88
613.618	132.88
613.826	137.88
614.034	133.88
614.242	132.88
614.449	140.88
614.657	134.88
614.865	132.88
615.072	141.88
615.28	133.88
615.488	156.88
615.695	149.88
615.903	142.88
616.111	141.88
616.318	133.88
616.526	143.88
616.733	142.88
616.941	146.88
617.148	140.88
617.356	133.88
617.563	140.88
617.771	148.88
617.978	130.88
618.185	128.88
618.393	138.88
618.6	140.88
618.807	145.88
619.015	120.88
619.222	156.88
619.429	130.88
619.637	136.88
619.844	132.88
620.051	148.88
620.258	140.88
620.466	137.88
620.673	126.88
620.88	120.88
621.087	119.88
621.294	131.88
621.501	120.88
621.708	118.88
621.915	123.88
622.122	137.88
622.329	128.88
622.536	134.88
622.743	128.88
622.95	156.88
623.157	139.88
623.364	118.88
623.571	116.88
623.778	138.88
623.985	124.88
624.192	132.88
624.399	141.88
624.606	137.88
624.812	119.88
625.019	134.88
625.226	123.88
625.433	134.88
625.639	132.88
625.846	134.88
626.053	132.88
626.259	119.88
626.466	116.88
626.673	110.88
626.879	118.88
627.086	129.88
627.293	122.88
627.499	120.88
627.706	106.88
627.912	127.88
628.119	126.88
628.325	115.88
628.532	125.88
628.738	126.88
628.945	135.88
629.151	132.88
629.357	123.88
629.564	128.88
629.77	112.88
629.976	132.88
630.183	125.88
630.389	116.88
630.595	125.88
630.802	129.88
631.008	110.88
631.214	119.88
631.42	134.88
631.627	128.88
631.833	105.88
632.039	106.88
632.245	119.88
632.451	118.88
632.657	114.88
632.863	116.88
633.069	127.88
633.275	105.88
633.481	115.88
633.688	134.88
633.893	113.88
634.099	118.88
634.305	129.88
634.511	125.88
634.717	102.88
634.923	138.88
635.129	115.88
635.335	117.88
635.541	120.88
635.747	121.88
635.952	120.88
636.158	116.88
636.364	127.88
636.57	118.88
636.775	116.88
636.981	115.88
637.187	117.88
637.392	112.88
637.598	108.88
637.804	111.88
638.009	118.88
638.215	118.88
638.421	122.88
638.626	128.88
638.832	134.88
639.037	125.88
639.243	112.88
639.448	126.88
639.654	109.88
639.859	114.88
640.065	112.88
640.27	109.88
640.475	125.88
640.681	120.88
640.886	122.88
641.091	118.88
641.297	116.88
641.502	101.88
641.707	115.88
641.913	114.88
642.118	105.88
642.323	110.88
642.528	117.88
642.733	120.88
642.939	126.88
643.144	107.88
643.349	108.88
643.554	115.88
643.759	106.88
643.964	121.88
644.169	116.88
644.374	107.88
644.579	109.88
644.784	121.88
644.989	122.88
645.194	122.88
645.399	113.88
645.604	123.88
645.809	106.88
646.014	87.88
646.219	118.88
646.423	109.88
646.628	104.88
646.833	118.88
647.038	100.88
647.243	96.88
647.447	118.88
647.652	124.88
647.857	104.88
648.062	110.88
648.266	104.88
648.471	120.88
648.676	101.88
648.88	104.88
649.085	105.88
649.289	100.88
649.494	118.88
649.698	122.88
649.903	114.88
650.107	108.88
650.312	104.88
650.516	122.88
650.721	117.88
650.925	122.88
651.13	107.88
651.334	104.88
651.539	103.88
651.743	108.88
651.947	92.88
652.152	115.88
652.356	107.88
652.56	96.88
652.764	106.88
652.969	96.88
653.173	103.88
653.377	113.88
653.581	109.88
653.785	95.88
653.99	104.88
654.194	107.88
654.398	93.88
654.602	102.88
654.806	109.88
655.01	112.88
655.214	108.88
655.418	102.88
655.622	88.88
655.826	101.88
656.03	98.88
656.234	102.88
656.438	114.88
656.642	108.88
656.846	107.88
657.049	118.88
657.253	105.88
657.457	96.88
657.661	91.88
657.865	102.88
658.068	90.88
658.272	93.88
658.476	77.88
658.68	93.88
658.883	90.88
659.087	90.88
659.291	92.88
659.494	76.88
659.698	75.88
659.901	73.88
660.105	91.88
660.309	92.88
660.512	96.88
660.716	94.88
660.919	99.88
661.123	98.88
661.326	86.88
661.53	80.88
661.733	92.88
661.936	82.88
662.14	74.88
662.343	82.88
662.546	77.88
662.75	75.88
662.953	77.88
663.156	85.88
663.36	86.88
663.563	89.88
663.766	73.88
663.969	66.88
664.173	91.88
664.376	73.88
664.579	85.88
664.782	83.88
664.985	84.88
665.188	78.88
665.391	74.88
665.594	84.88
665.797	70.88
666	86.88
666.203	93.88
666.406	82.88
666.609	77.88
666.812	84.88
667.015	83.88
667.218	79.88
667.421	73.88
667.624	72.88
667.827	78.88
668.03	79.88
668.232	85.88
668.435	86.88
668.638	74.88
668.841	95.88
669.043	88.88
669.246	86.88
669.449	81.88
669.651	78.88
669.854	84.88
670.057	86.88
670.259	91.88
670.462	72.88
670.665	80.88
670.867	86.88
671.07	89.88
671.272	85.88
671.475	76.88
671.677	76.88
671.88	89.88
672.082	86.88
672.284	75.88
672.487	73.88
672.689	84.88
672.892	89.88
