Data from 1966.PennyLincolnUp.Lamp.En5.5.200Scan.071719.P1._HRD10591_14-13-47-913.txt Node
Date: Thu Jul 18 14:13:47 EDT 2019
User: cochatt
Spectrometer: HR+D1059
Trigger mode: 1
Integration Time (sec): 1.000000E-1
Scans to average: 1
Electric dark correction enabled: true
Nonlinearity correction enabled: false
Boxcar width: 0
XAxis mode: Wavelengths
Number of Pixels in Spectrum: 2048
>>>>>Begin Spectral Data<<<<<
223.165	-9.12
223.4	-9.12
223.635	-9.12
223.869	-25.12
224.104	-12.12
224.338	-16.12
224.573	1.88
224.808	-22.12
225.042	-13.12
225.277	1.88
225.511	1.88
225.746	4.88
225.98	16.88
226.215	6.88
226.449	-1.12
226.683	7.88
226.918	25.88
227.152	30.88
227.387	28.88
227.621	42.88
227.856	49.88
228.09	53.88
228.324	44.88
228.559	53.88
228.793	53.88
229.027	81.88
229.262	82.88
229.496	81.88
229.73	112.88
229.964	112.88
230.199	103.88
230.433	97.88
230.667	101.88
230.901	91.88
231.136	72.88
231.37	89.88
231.604	96.88
231.838	95.88
232.072	103.88
232.306	99.88
232.541	106.88
232.775	83.88
233.009	99.88
233.243	99.88
233.477	87.88
233.711	91.88
233.945	97.88
234.179	93.88
234.413	105.88
234.647	100.88
234.881	104.88
235.115	106.88
235.349	92.88
235.583	98.88
235.817	91.88
236.051	103.88
236.285	101.88
236.519	93.88
236.753	118.88
236.987	90.88
237.221	122.88
237.455	125.88
237.689	125.88
237.922	118.88
238.156	96.88
238.39	110.88
238.624	101.88
238.858	107.88
239.091	115.88
239.325	95.88
239.559	81.88
239.793	96.88
240.027	106.88
240.26	94.88
240.494	107.88
240.728	110.88
240.961	110.88
241.195	104.88
241.429	95.88
241.662	101.88
241.896	93.88
242.13	99.88
242.363	106.88
242.597	96.88
242.83	104.88
243.064	104.88
243.298	104.88
243.531	98.88
243.765	92.88
243.998	95.88
244.232	106.88
244.465	109.88
244.699	104.88
244.932	108.88
245.166	105.88
245.399	106.88
245.633	109.88
245.866	102.88
246.099	101.88
246.333	113.88
246.566	105.88
246.8	111.88
247.033	107.88
247.266	106.88
247.5	111.88
247.733	110.88
247.966	99.88
248.2	123.88
248.433	129.88
248.666	130.88
248.899	134.88
249.133	125.88
249.366	123.88
249.599	137.88
249.832	128.88
250.066	129.88
250.299	115.88
250.532	130.88
250.765	137.88
250.998	147.88
251.231	137.88
251.465	130.88
251.698	118.88
251.931	135.88
252.164	111.88
252.397	129.88
252.63	137.88
252.863	120.88
253.096	147.88
253.329	131.88
253.562	143.88
253.795	148.88
254.028	133.88
254.261	137.88
254.494	151.88
254.727	163.88
254.96	161.88
255.193	165.88
255.426	154.88
255.659	147.88
255.892	144.88
256.124	142.88
256.357	153.88
256.59	129.88
256.823	142.88
257.056	139.88
257.289	138.88
257.521	114.88
257.754	129.88
257.987	119.88
258.22	129.88
258.452	120.88
258.685	148.88
258.918	138.88
259.151	133.88
259.383	146.88
259.616	133.88
259.849	151.88
260.081	144.88
260.314	139.88
260.547	143.88
260.779	142.88
261.012	136.88
261.244	137.88
261.477	154.88
261.71	140.88
261.942	147.88
262.175	160.88
262.407	146.88
262.64	130.88
262.872	129.88
263.105	150.88
263.337	135.88
263.57	142.88
263.802	123.88
264.035	115.88
264.267	143.88
264.499	133.88
264.732	154.88
264.964	135.88
265.197	117.88
265.429	133.88
265.661	138.88
265.894	126.88
266.126	142.88
266.358	137.88
266.591	134.88
266.823	145.88
267.055	128.88
267.287	126.88
267.52	133.88
267.752	145.88
267.984	127.88
268.216	156.88
268.448	146.88
268.681	158.88
268.913	138.88
269.145	149.88
269.377	177.88
269.609	160.88
269.841	153.88
270.073	156.88
270.306	161.88
270.538	175.88
270.77	175.88
271.002	169.88
271.234	164.88
271.466	166.88
271.698	172.88
271.93	173.88
272.162	191.88
272.394	190.88
272.626	170.88
272.858	167.88
273.09	156.88
273.322	156.88
273.553	141.88
273.785	154.88
274.017	147.88
274.249	156.88
274.481	154.88
274.713	155.88
274.945	162.88
275.176	153.88
275.408	142.88
275.64	169.88
275.872	157.88
276.104	159.88
276.335	151.88
276.567	166.88
276.799	186.88
277.031	190.88
277.262	183.88
277.494	182.88
277.726	181.88
277.957	167.88
278.189	162.88
278.421	146.88
278.652	154.88
278.884	163.88
279.115	149.88
279.347	150.88
279.579	162.88
279.81	153.88
280.042	179.88
280.273	159.88
280.505	168.88
280.736	164.88
280.968	158.88
281.199	153.88
281.431	173.88
281.662	156.88
281.894	162.88
282.125	161.88
282.356	167.88
282.588	175.88
282.819	174.88
283.051	146.88
283.282	156.88
283.513	171.88
283.745	163.88
283.976	159.88
284.207	177.88
284.439	166.88
284.67	163.88
284.901	151.88
285.132	154.88
285.364	158.88
285.595	157.88
285.826	155.88
286.057	169.88
286.288	165.88
286.52	156.88
286.751	163.88
286.982	173.88
287.213	178.88
287.444	168.88
287.675	164.88
287.906	174.88
288.138	185.88
288.369	173.88
288.6	185.88
288.831	177.88
289.062	190.88
289.293	164.88
289.524	170.88
289.755	171.88
289.986	165.88
290.217	171.88
290.448	159.88
290.679	168.88
290.91	177.88
291.141	161.88
291.371	173.88
291.602	166.88
291.833	158.88
292.064	165.88
292.295	187.88
292.526	175.88
292.757	173.88
292.987	170.88
293.218	173.88
293.449	170.88
293.68	154.88
293.91	160.88
294.141	171.88
294.372	173.88
294.603	164.88
294.833	168.88
295.064	172.88
295.295	165.88
295.525	172.88
295.756	173.88
295.987	185.88
296.217	201.88
296.448	179.88
296.679	175.88
296.909	176.88
297.14	159.88
297.37	176.88
297.601	161.88
297.831	181.88
298.062	163.88
298.292	175.88
298.523	172.88
298.753	170.88
298.984	171.88
299.214	174.88
299.445	178.88
299.675	174.88
299.905	194.88
300.136	181.88
300.366	170.88
300.597	165.88
300.827	191.88
301.057	198.88
301.288	192.88
301.518	192.88
301.748	187.88
301.979	190.88
302.209	190.88
302.439	176.88
302.669	178.88
302.9	200.88
303.13	188.88
303.36	182.88
303.59	175.88
303.82	187.88
304.051	190.88
304.281	194.88
304.511	183.88
304.741	183.88
304.971	177.88
305.201	172.88
305.431	183.88
305.661	191.88
305.891	195.88
306.121	174.88
306.352	177.88
306.582	197.88
306.812	182.88
307.042	191.88
307.272	185.88
307.502	176.88
307.731	172.88
307.961	188.88
308.191	207.88
308.421	198.88
308.651	197.88
308.881	176.88
309.111	200.88
309.341	174.88
309.571	198.88
309.8	198.88
310.03	222.88
310.26	201.88
310.49	219.88
310.72	211.88
310.949	214.88
311.179	220.88
311.409	204.88
311.639	217.88
311.868	208.88
312.098	206.88
312.328	202.88
312.557	225.88
312.787	228.88
313.017	239.88
313.246	208.88
313.476	191.88
313.706	208.88
313.935	209.88
314.165	209.88
314.394	232.88
314.624	223.88
314.853	208.88
315.083	197.88
315.312	195.88
315.542	201.88
315.771	215.88
316.001	189.88
316.23	209.88
316.46	198.88
316.689	203.88
316.919	205.88
317.148	205.88
317.377	223.88
317.607	219.88
317.836	209.88
318.065	209.88
318.295	198.88
318.524	190.88
318.753	197.88
318.983	200.88
319.212	214.88
319.441	215.88
319.67	203.88
319.9	202.88
320.129	187.88
320.358	211.88
320.587	219.88
320.816	194.88
321.046	219.88
321.275	208.88
321.504	210.88
321.733	229.88
321.962	204.88
322.191	210.88
322.42	223.88
322.649	221.88
322.878	250.88
323.108	233.88
323.337	245.88
323.566	247.88
323.795	275.88
324.024	295.88
324.253	366.88
324.482	530.88
324.71	725.88
324.939	983.88
325.168	809.88
325.397	431.88
325.626	287.88
325.855	265.88
326.084	249.88
326.313	267.88
326.542	261.88
326.77	275.88
326.999	331.88
327.228	465.88
327.457	649.88
327.686	721.88
327.914	497.88
328.143	349.88
328.372	329.88
328.6	298.88
328.829	307.88
329.058	282.88
329.287	290.88
329.515	263.88
329.744	248.88
329.972	268.88
330.201	293.88
330.43	311.88
330.658	320.88
330.887	322.88
331.115	334.88
331.344	274.88
331.572	267.88
331.801	261.88
332.03	256.88
332.258	245.88
332.486	233.88
332.715	245.88
332.943	230.88
333.172	238.88
333.4	247.88
333.629	251.88
333.857	269.88
334.085	264.88
334.314	263.88
334.542	285.88
334.771	295.88
334.999	269.88
335.227	254.88
335.455	226.88
335.684	219.88
335.912	238.88
336.14	212.88
336.369	230.88
336.597	227.88
336.825	242.88
337.053	234.88
337.281	219.88
337.51	221.88
337.738	242.88
337.966	241.88
338.194	224.88
338.422	242.88
338.65	233.88
338.878	231.88
339.106	228.88
339.334	229.88
339.562	238.88
339.79	214.88
340.018	220.88
340.246	219.88
340.474	223.88
340.702	238.88
340.93	237.88
341.158	231.88
341.386	241.88
341.614	219.88
341.842	205.88
342.07	205.88
342.298	212.88
342.526	214.88
342.754	222.88
342.981	210.88
343.209	215.88
343.437	217.88
343.665	213.88
343.893	217.88
344.12	234.88
344.348	225.88
344.576	224.88
344.804	233.88
345.031	234.88
345.259	247.88
345.487	244.88
345.714	218.88
345.942	231.88
346.17	220.88
346.397	214.88
346.625	214.88
346.853	217.88
347.08	210.88
347.308	230.88
347.535	231.88
347.763	230.88
347.99	230.88
348.218	229.88
348.445	226.88
348.673	225.88
348.9	227.88
349.128	221.88
349.355	194.88
349.583	219.88
349.81	229.88
350.037	199.88
350.265	209.88
350.492	219.88
350.72	211.88
350.947	216.88
351.174	225.88
351.402	224.88
351.629	230.88
351.856	222.88
352.083	225.88
352.311	233.88
352.538	240.88
352.765	240.88
352.992	217.88
353.22	206.88
353.447	201.88
353.674	223.88
353.901	209.88
354.128	211.88
354.355	209.88
354.583	211.88
354.81	204.88
355.037	205.88
355.264	223.88
355.491	224.88
355.718	194.88
355.945	204.88
356.172	201.88
356.399	206.88
356.626	197.88
356.853	211.88
357.08	199.88
357.307	184.88
357.534	189.88
357.761	196.88
357.988	197.88
358.215	206.88
358.441	212.88
358.668	195.88
358.895	185.88
359.122	218.88
359.349	222.88
359.576	221.88
359.802	225.88
360.029	245.88
360.256	251.88
360.483	237.88
360.709	216.88
360.936	228.88
361.163	216.88
361.39	222.88
361.616	220.88
361.843	219.88
362.07	221.88
362.296	219.88
362.523	216.88
362.749	213.88
362.976	200.88
363.203	197.88
363.429	219.88
363.656	218.88
363.882	209.88
364.109	196.88
364.335	210.88
364.562	223.88
364.788	216.88
365.015	198.88
365.241	209.88
365.468	216.88
365.694	231.88
365.92	232.88
366.147	216.88
366.373	220.88
366.599	203.88
366.826	201.88
367.052	189.88
367.278	199.88
367.505	220.88
367.731	217.88
367.957	209.88
368.184	205.88
368.41	213.88
368.636	217.88
368.862	216.88
369.089	211.88
369.315	203.88
369.541	202.88
369.767	204.88
369.993	210.88
370.219	201.88
370.445	191.88
370.672	193.88
370.898	202.88
371.124	211.88
371.35	208.88
371.576	213.88
371.802	208.88
372.028	211.88
372.254	210.88
372.48	191.88
372.706	201.88
372.932	193.88
373.158	215.88
373.384	222.88
373.61	189.88
373.835	203.88
374.061	213.88
374.287	220.88
374.513	208.88
374.739	202.88
374.965	204.88
375.191	223.88
375.416	203.88
375.642	223.88
375.868	217.88
376.094	233.88
376.319	213.88
376.545	203.88
376.771	205.88
376.997	209.88
377.222	210.88
377.448	207.88
377.674	219.88
377.899	222.88
378.125	207.88
378.35	204.88
378.576	217.88
378.802	205.88
379.027	203.88
379.253	213.88
379.478	204.88
379.704	200.88
379.929	209.88
380.155	209.88
380.38	214.88
380.606	190.88
380.831	184.88
381.057	209.88
381.282	198.88
381.507	192.88
381.733	218.88
381.958	204.88
382.184	212.88
382.409	210.88
382.634	213.88
382.86	212.88
383.085	193.88
383.31	205.88
383.535	217.88
383.761	210.88
383.986	214.88
384.211	222.88
384.436	203.88
384.662	191.88
384.887	186.88
385.112	218.88
385.337	223.88
385.562	234.88
385.787	223.88
386.013	224.88
386.238	229.88
386.463	236.88
386.688	210.88
386.913	213.88
387.138	210.88
387.363	203.88
387.588	217.88
387.813	200.88
388.038	233.88
388.263	214.88
388.488	225.88
388.713	215.88
388.938	227.88
389.163	232.88
389.387	223.88
389.612	223.88
389.837	223.88
390.062	224.88
390.287	213.88
390.512	206.88
390.736	216.88
390.961	215.88
391.186	224.88
391.411	211.88
391.636	222.88
391.86	226.88
392.085	229.88
392.31	228.88
392.534	218.88
392.759	236.88
392.984	230.88
393.208	220.88
393.433	229.88
393.658	211.88
393.882	226.88
394.107	229.88
394.331	221.88
394.556	224.88
394.78	214.88
395.005	220.88
395.229	203.88
395.454	228.88
395.678	229.88
395.903	227.88
396.127	237.88
396.352	237.88
396.576	233.88
396.801	250.88
397.025	221.88
397.249	221.88
397.474	229.88
397.698	237.88
397.922	232.88
398.147	237.88
398.371	256.88
398.595	226.88
398.82	246.88
399.044	244.88
399.268	262.88
399.492	268.88
399.717	275.88
399.941	276.88
400.165	293.88
400.389	283.88
400.613	265.88
400.837	258.88
401.062	263.88
401.286	247.88
401.51	253.88
401.734	261.88
401.958	257.88
402.182	263.88
402.406	255.88
402.63	269.88
402.854	247.88
403.078	249.88
403.302	273.88
403.526	242.88
403.75	275.88
403.974	238.88
404.198	251.88
404.422	255.88
404.645	271.88
404.869	266.88
405.093	273.88
405.317	282.88
405.541	306.88
405.765	289.88
405.988	279.88
406.212	270.88
406.436	291.88
406.66	304.88
406.883	266.88
407.107	282.88
407.331	287.88
407.555	347.88
407.778	339.88
408.002	316.88
408.226	287.88
408.449	280.88
408.673	278.88
408.896	299.88
409.12	297.88
409.344	282.88
409.567	253.88
409.791	258.88
410.014	257.88
410.238	257.88
410.461	249.88
410.685	258.88
410.908	266.88
411.132	287.88
411.355	290.88
411.578	279.88
411.802	255.88
412.025	251.88
412.249	270.88
412.472	268.88
412.695	299.88
412.919	286.88
413.142	270.88
413.365	249.88
413.589	247.88
413.812	242.88
414.035	253.88
414.258	230.88
414.482	256.88
414.705	238.88
414.928	231.88
415.151	234.88
415.374	250.88
415.597	249.88
415.821	257.88
416.044	258.88
416.267	246.88
416.49	246.88
416.713	236.88
416.936	253.88
417.159	256.88
417.382	243.88
417.605	246.88
417.828	247.88
418.051	258.88
418.274	256.88
418.497	261.88
418.72	231.88
418.943	240.88
419.166	263.88
419.389	254.88
419.611	255.88
419.834	255.88
420.057	257.88
420.28	261.88
420.503	277.88
420.726	274.88
420.948	266.88
421.171	291.88
421.394	297.88
421.617	250.88
421.839	259.88
422.062	264.88
422.285	250.88
422.507	287.88
422.73	330.88
422.953	311.88
423.175	273.88
423.398	262.88
423.621	273.88
423.843	283.88
424.066	285.88
424.288	265.88
424.511	295.88
424.733	288.88
424.956	342.88
425.178	320.88
425.401	319.88
425.623	331.88
425.846	283.88
426.068	279.88
426.291	275.88
426.513	275.88
426.735	285.88
426.958	304.88
427.18	318.88
427.402	387.88
427.625	412.88
427.847	361.88
428.069	304.88
428.292	282.88
428.514	274.88
428.736	253.88
428.958	254.88
429.181	259.88
429.403	241.88
429.625	243.88
429.847	265.88
430.069	302.88
430.292	305.88
430.514	262.88
430.736	253.88
430.958	264.88
431.18	247.88
431.402	238.88
431.624	235.88
431.846	242.88
432.068	257.88
432.29	241.88
432.512	251.88
432.734	248.88
432.956	257.88
433.178	259.88
433.4	260.88
433.622	261.88
433.844	241.88
434.066	247.88
434.287	239.88
434.509	238.88
434.731	246.88
434.953	263.88
435.175	278.88
435.397	263.88
435.618	270.88
435.84	265.88
436.062	331.88
436.284	337.88
436.505	289.88
436.727	279.88
436.949	261.88
437.17	263.88
437.392	250.88
437.614	263.88
437.835	267.88
438.057	334.88
438.278	340.88
438.5	332.88
438.721	402.88
438.943	362.88
439.165	291.88
439.386	285.88
439.608	282.88
439.829	273.88
440.05	283.88
440.272	301.88
440.493	300.88
440.715	257.88
440.936	259.88
441.158	247.88
441.379	258.88
441.6	263.88
441.822	280.88
442.043	285.88
442.264	312.88
442.486	344.88
442.707	287.88
442.928	271.88
443.149	289.88
443.371	309.88
443.592	306.88
443.813	331.88
444.034	362.88
444.255	318.88
444.476	279.88
444.698	284.88
444.919	270.88
445.14	354.88
445.361	306.88
445.582	293.88
445.803	326.88
446.024	363.88
446.245	367.88
446.466	339.88
446.687	279.88
446.908	290.88
447.129	245.88
447.35	246.88
447.571	275.88
447.792	265.88
448.013	250.88
448.234	277.88
448.455	304.88
448.675	339.88
448.896	365.88
449.117	311.88
449.338	301.88
449.559	361.88
449.779	387.88
450	313.88
450.221	268.88
450.442	257.88
450.662	269.88
450.883	242.88
451.104	276.88
451.324	253.88
451.545	227.88
451.766	240.88
451.986	235.88
452.207	208.88
452.428	225.88
452.648	232.88
452.869	222.88
453.089	241.88
453.31	251.88
453.53	261.88
453.751	208.88
453.971	241.88
454.192	242.88
454.412	253.88
454.633	229.88
454.853	225.88
455.073	224.88
455.294	242.88
455.514	285.88
455.734	245.88
455.955	240.88
456.175	240.88
456.395	220.88
456.616	223.88
456.836	227.88
457.056	227.88
457.276	207.88
457.497	214.88
457.717	193.88
457.937	225.88
458.157	206.88
458.377	235.88
458.598	241.88
458.818	275.88
459.038	310.88
459.258	296.88
459.478	261.88
459.698	235.88
459.918	242.88
460.138	224.88
460.358	227.88
460.578	239.88
460.798	226.88
461.018	241.88
461.238	251.88
461.458	248.88
461.678	231.88
461.898	239.88
462.118	245.88
462.338	245.88
462.558	243.88
462.777	247.88
462.997	265.88
463.217	275.88
463.437	263.88
463.657	275.88
463.876	283.88
464.096	258.88
464.316	267.88
464.536	260.88
464.755	268.88
464.975	266.88
465.195	299.88
465.414	359.88
465.634	295.88
465.854	270.88
466.073	255.88
466.293	243.88
466.512	235.88
466.732	236.88
466.951	233.88
467.171	229.88
467.391	220.88
467.61	262.88
467.829	240.88
468.049	238.88
468.268	267.88
468.488	229.88
468.707	229.88
468.927	220.88
469.146	225.88
469.365	245.88
469.585	221.88
469.804	215.88
470.023	250.88
470.243	235.88
470.462	240.88
470.681	253.88
470.901	245.88
471.12	232.88
471.339	240.88
471.558	240.88
471.777	246.88
471.997	253.88
472.216	245.88
472.435	267.88
472.654	252.88
472.873	245.88
473.092	229.88
473.311	246.88
473.53	237.88
473.749	237.88
473.968	265.88
474.187	323.88
474.406	298.88
474.625	274.88
474.844	244.88
475.063	239.88
475.282	243.88
475.501	234.88
475.72	263.88
475.939	230.88
476.158	246.88
476.377	259.88
476.596	238.88
476.814	257.88
477.033	247.88
477.252	267.88
477.471	254.88
477.69	232.88
477.908	256.88
478.127	251.88
478.346	272.88
478.564	267.88
478.783	252.88
479.002	277.88
479.22	273.88
479.439	280.88
479.658	280.88
479.876	282.88
480.095	269.88
480.313	298.88
480.532	281.88
480.751	278.88
480.969	288.88
481.188	339.88
481.406	381.88
481.624	313.88
481.843	275.88
482.061	289.88
482.28	269.88
482.498	254.88
482.717	264.88
482.935	258.88
483.153	267.88
483.372	288.88
483.59	263.88
483.808	272.88
484.027	276.88
484.245	267.88
484.463	275.88
484.681	273.88
484.9	278.88
485.118	275.88
485.336	279.88
485.554	289.88
485.772	294.88
485.99	285.88
486.209	299.88
486.427	279.88
486.645	294.88
486.863	305.88
487.081	307.88
487.299	300.88
487.517	291.88
487.735	293.88
487.953	288.88
488.171	278.88
488.389	307.88
488.607	286.88
488.825	290.88
489.043	275.88
489.261	281.88
489.479	277.88
489.696	303.88
489.914	286.88
490.132	298.88
490.35	313.88
490.568	306.88
490.786	330.88
491.003	337.88
491.221	328.88
491.439	354.88
491.657	341.88
491.874	338.88
492.092	358.88
492.31	349.88
492.527	333.88
492.745	321.88
492.963	348.88
493.18	344.88
493.398	339.88
493.615	356.88
493.833	334.88
494.05	356.88
494.268	358.88
494.485	351.88
494.703	341.88
494.92	344.88
495.138	332.88
495.355	334.88
495.573	342.88
495.79	335.88
496.008	346.88
496.225	334.88
496.442	333.88
496.66	334.88
496.877	346.88
497.094	336.88
497.312	333.88
497.529	355.88
497.746	362.88
497.963	348.88
498.181	355.88
498.398	352.88
498.615	365.88
498.832	370.88
499.049	377.88
499.267	355.88
499.484	375.88
499.701	411.88
499.918	414.88
500.135	434.88
500.352	439.88
500.569	450.88
500.786	454.88
501.003	435.88
501.22	451.88
501.437	421.88
501.654	414.88
501.871	433.88
502.088	409.88
502.305	384.88
502.522	369.88
502.739	349.88
502.956	346.88
503.172	342.88
503.389	337.88
503.606	350.88
503.823	349.88
504.04	327.88
504.256	327.88
504.473	326.88
504.69	335.88
504.907	330.88
505.123	334.88
505.34	338.88
505.557	328.88
505.773	333.88
505.99	332.88
506.207	326.88
506.423	324.88
506.64	328.88
506.856	331.88
507.073	307.88
507.289	314.88
507.506	312.88
507.722	321.88
507.939	318.88
508.155	319.88
508.372	323.88
508.588	290.88
508.805	313.88
509.021	318.88
509.238	300.88
509.454	317.88
509.67	295.88
509.887	329.88
510.103	303.88
510.319	340.88
510.536	389.88
510.752	733.88
510.968	525.88
511.184	324.88
511.401	265.88
511.617	296.88
511.833	272.88
512.049	288.88
512.265	302.88
512.481	302.88
512.698	273.88
512.914	293.88
513.13	285.88
513.346	289.88
513.562	275.88
513.778	297.88
513.994	305.88
514.21	289.88
514.426	306.88
514.642	342.88
514.858	351.88
515.074	379.88
515.29	445.88
515.506	827.88
515.721	649.88
515.937	392.88
516.153	326.88
516.369	283.88
516.585	305.88
516.801	289.88
517.016	293.88
517.232	296.88
517.448	309.88
517.664	277.88
517.879	295.88
518.095	305.88
518.311	290.88
518.527	293.88
518.742	302.88
518.958	301.88
519.173	283.88
519.389	287.88
519.605	287.88
519.82	295.88
520.036	305.88
520.251	307.88
520.467	333.88
520.682	303.88
520.898	325.88
521.113	338.88
521.329	370.88
521.544	434.88
521.76	560.88
521.975	1090.88
522.19	1065.88
522.406	505.88
522.621	351.88
522.836	299.88
523.052	287.88
523.267	286.88
523.482	283.88
523.698	285.88
523.913	268.88
524.128	293.88
524.343	265.88
524.559	243.88
524.774	246.88
524.989	254.88
525.204	271.88
525.419	264.88
525.634	265.88
525.849	258.88
526.064	249.88
526.28	243.88
526.495	215.88
526.71	246.88
526.925	230.88
527.14	256.88
527.355	230.88
527.57	247.88
527.785	246.88
527.999	225.88
528.214	236.88
528.429	242.88
528.644	247.88
528.859	242.88
529.074	241.88
529.289	279.88
529.503	311.88
529.718	306.88
529.933	262.88
530.148	253.88
530.363	237.88
530.577	259.88
530.792	255.88
531.007	242.88
531.221	222.88
531.436	226.88
531.651	227.88
531.865	220.88
532.08	243.88
532.295	240.88
532.509	238.88
532.724	208.88
532.938	263.88
533.153	215.88
533.367	232.88
533.582	238.88
533.796	249.88
534.011	211.88
534.225	237.88
534.44	230.88
534.654	228.88
534.868	223.88
535.083	222.88
535.297	232.88
535.511	220.88
535.726	237.88
535.94	260.88
536.154	238.88
536.369	228.88
536.583	221.88
536.797	234.88
537.011	221.88
537.225	219.88
537.44	223.88
537.654	233.88
537.868	217.88
538.082	232.88
538.296	230.88
538.51	233.88
538.724	218.88
538.938	246.88
539.153	235.88
539.367	231.88
539.581	231.88
539.795	223.88
540.009	219.88
540.222	213.88
540.436	231.88
540.65	230.88
540.864	241.88
541.078	243.88
541.292	237.88
541.506	234.88
541.72	239.88
541.934	231.88
542.147	228.88
542.361	236.88
542.575	220.88
542.789	229.88
543.002	208.88
543.216	213.88
543.43	243.88
543.644	239.88
543.857	234.88
544.071	230.88
544.285	221.88
544.498	236.88
544.712	234.88
544.925	231.88
545.139	229.88
545.352	234.88
545.566	229.88
545.779	224.88
545.993	221.88
546.206	208.88
546.42	234.88
546.633	231.88
546.847	229.88
547.06	192.88
547.274	228.88
547.487	219.88
547.7	227.88
547.914	221.88
548.127	224.88
548.34	215.88
548.554	215.88
548.767	229.88
548.98	212.88
549.193	230.88
549.407	230.88
549.62	224.88
549.833	232.88
550.046	209.88
550.259	219.88
550.473	217.88
550.686	219.88
550.899	215.88
551.112	220.88
551.325	218.88
551.538	210.88
551.751	231.88
551.964	219.88
552.177	210.88
552.39	218.88
552.603	226.88
552.816	224.88
553.029	229.88
553.242	230.88
553.455	209.88
553.667	222.88
553.88	235.88
554.093	224.88
554.306	230.88
554.519	231.88
554.732	216.88
554.944	212.88
555.157	214.88
555.37	211.88
555.583	202.88
555.795	202.88
556.008	191.88
556.221	205.88
556.433	204.88
556.646	201.88
556.859	199.88
557.071	213.88
557.284	202.88
557.496	183.88
557.709	204.88
557.921	201.88
558.134	211.88
558.346	215.88
558.559	183.88
558.771	198.88
558.984	184.88
559.196	193.88
559.409	184.88
559.621	197.88
559.833	199.88
560.046	188.88
560.258	201.88
560.47	187.88
560.683	191.88
560.895	198.88
561.107	206.88
561.32	201.88
561.532	183.88
561.744	206.88
561.956	201.88
562.168	200.88
562.381	201.88
562.593	194.88
562.805	196.88
563.017	203.88
563.229	189.88
563.441	195.88
563.653	210.88
563.865	194.88
564.077	199.88
564.289	201.88
564.501	196.88
564.713	200.88
564.925	205.88
565.137	204.88
565.349	208.88
565.561	206.88
565.773	215.88
565.985	198.88
566.197	220.88
566.408	223.88
566.62	214.88
566.832	233.88
567.044	237.88
567.255	230.88
567.467	249.88
567.679	239.88
567.891	228.88
568.102	242.88
568.314	228.88
568.526	247.88
568.737	211.88
568.949	203.88
569.161	188.88
569.372	201.88
569.584	214.88
569.795	208.88
570.007	210.88
570.218	236.88
570.43	230.88
570.641	201.88
570.853	192.88
571.064	193.88
571.276	187.88
571.487	197.88
571.698	185.88
571.91	178.88
572.121	196.88
572.333	178.88
572.544	195.88
572.755	193.88
572.966	174.88
573.178	189.88
573.389	173.88
573.6	177.88
573.811	185.88
574.023	171.88
574.234	181.88
574.445	189.88
574.656	185.88
574.867	180.88
575.078	171.88
575.289	171.88
575.501	167.88
575.712	178.88
575.923	175.88
576.134	167.88
576.345	184.88
576.556	171.88
576.767	162.88
576.978	162.88
577.188	174.88
577.399	186.88
577.61	179.88
577.821	161.88
578.032	187.88
578.243	216.88
578.454	352.88
578.665	247.88
578.875	183.88
579.086	170.88
579.297	161.88
579.508	159.88
579.718	178.88
579.929	173.88
580.14	169.88
580.35	172.88
580.561	153.88
580.772	163.88
580.982	163.88
581.193	166.88
581.403	165.88
581.614	165.88
581.825	160.88
582.035	165.88
582.246	165.88
582.456	172.88
582.667	153.88
582.877	164.88
583.087	169.88
583.298	158.88
583.508	177.88
583.719	172.88
583.929	162.88
584.139	172.88
584.35	160.88
584.56	158.88
584.77	153.88
584.981	149.88
585.191	158.88
585.401	163.88
585.611	157.88
585.821	174.88
586.032	149.88
586.242	155.88
586.452	144.88
586.662	164.88
586.872	168.88
587.082	155.88
587.292	166.88
587.502	162.88
587.713	175.88
587.923	171.88
588.133	166.88
588.343	169.88
588.553	140.88
588.762	162.88
588.972	178.88
589.182	179.88
589.392	174.88
589.602	166.88
589.812	187.88
590.022	169.88
590.232	164.88
590.441	159.88
590.651	154.88
590.861	153.88
591.071	154.88
591.281	151.88
591.49	162.88
591.7	156.88
591.91	167.88
592.119	146.88
592.329	164.88
592.539	161.88
592.748	154.88
592.958	169.88
593.167	167.88
593.377	169.88
593.587	165.88
593.796	166.88
594.006	171.88
594.215	164.88
594.424	167.88
594.634	177.88
594.843	171.88
595.053	162.88
595.262	151.88
595.472	170.88
595.681	155.88
595.89	155.88
596.1	145.88
596.309	157.88
596.518	147.88
596.727	153.88
596.937	164.88
597.146	163.88
597.355	147.88
597.564	155.88
597.774	157.88
597.983	151.88
598.192	144.88
598.401	162.88
598.61	153.88
598.819	162.88
599.028	154.88
599.237	137.88
599.446	144.88
599.655	158.88
599.864	158.88
600.073	139.88
600.282	158.88
600.491	155.88
600.7	162.88
600.909	161.88
601.118	153.88
601.327	152.88
601.536	142.88
601.745	138.88
601.953	159.88
602.162	155.88
602.371	160.88
602.58	147.88
602.789	158.88
602.997	145.88
603.206	140.88
603.415	175.88
603.623	157.88
603.832	136.88
604.041	136.88
604.249	137.88
604.458	153.88
604.666	144.88
604.875	139.88
605.084	144.88
605.292	120.88
605.501	154.88
605.709	151.88
605.918	145.88
606.126	153.88
606.334	145.88
606.543	133.88
606.751	157.88
606.96	139.88
607.168	125.88
607.376	141.88
607.585	155.88
607.793	136.88
608.001	154.88
608.21	144.88
608.418	141.88
608.626	129.88
608.834	137.88
609.043	135.88
609.251	145.88
609.459	126.88
609.667	138.88
609.875	147.88
610.083	130.88
610.291	146.88
610.499	129.88
610.707	153.88
610.916	142.88
611.124	163.88
611.332	137.88
611.54	147.88
611.748	156.88
611.955	146.88
612.163	155.88
612.371	141.88
612.579	147.88
612.787	134.88
612.995	153.88
613.203	145.88
613.411	155.88
613.618	153.88
613.826	125.88
614.034	139.88
614.242	173.88
614.449	135.88
614.657	137.88
614.865	149.88
615.072	157.88
615.28	129.88
615.488	154.88
615.695	145.88
615.903	145.88
616.111	155.88
616.318	149.88
616.526	127.88
616.733	137.88
616.941	136.88
617.148	151.88
617.356	130.88
617.563	134.88
617.771	148.88
617.978	136.88
618.185	148.88
618.393	145.88
618.6	144.88
618.807	136.88
619.015	130.88
619.222	133.88
619.429	155.88
619.637	127.88
619.844	131.88
620.051	128.88
620.258	143.88
620.466	129.88
620.673	137.88
620.88	129.88
621.087	133.88
621.294	131.88
621.501	141.88
621.708	137.88
621.915	130.88
622.122	146.88
622.329	128.88
622.536	133.88
622.743	143.88
622.95	118.88
623.157	139.88
623.364	137.88
623.571	130.88
623.778	129.88
623.985	129.88
624.192	134.88
624.399	137.88
624.606	130.88
624.812	136.88
625.019	137.88
625.226	149.88
625.433	145.88
625.639	133.88
625.846	130.88
626.053	133.88
626.259	137.88
626.466	151.88
626.673	125.88
626.879	137.88
627.086	137.88
627.293	137.88
627.499	139.88
627.706	128.88
627.912	121.88
628.119	143.88
628.325	154.88
628.532	139.88
628.738	134.88
628.945	126.88
629.151	114.88
629.357	115.88
629.564	114.88
629.77	140.88
629.976	134.88
630.183	128.88
630.389	127.88
630.595	136.88
630.802	134.88
631.008	120.88
631.214	122.88
631.42	131.88
631.627	143.88
631.833	122.88
632.039	114.88
632.245	119.88
632.451	117.88
632.657	129.88
632.863	118.88
633.069	115.88
633.275	139.88
633.481	125.88
633.688	121.88
633.893	134.88
634.099	109.88
634.305	121.88
634.511	128.88
634.717	114.88
634.923	123.88
635.129	123.88
635.335	120.88
635.541	106.88
635.747	125.88
635.952	133.88
636.158	108.88
636.364	125.88
636.57	118.88
636.775	115.88
636.981	116.88
637.187	125.88
637.392	111.88
637.598	123.88
637.804	109.88
638.009	133.88
638.215	122.88
638.421	118.88
638.626	127.88
638.832	113.88
639.037	125.88
639.243	125.88
639.448	118.88
639.654	122.88
639.859	105.88
640.065	127.88
640.27	125.88
640.475	114.88
640.681	113.88
640.886	124.88
641.091	122.88
641.297	132.88
641.502	118.88
641.707	111.88
641.913	102.88
642.118	116.88
642.323	127.88
642.528	127.88
642.733	125.88
642.939	115.88
643.144	118.88
643.349	113.88
643.554	104.88
643.759	129.88
643.964	111.88
644.169	131.88
644.374	119.88
644.579	113.88
644.784	113.88
644.989	122.88
645.194	111.88
645.399	127.88
645.604	121.88
645.809	129.88
646.014	120.88
646.219	125.88
646.423	125.88
646.628	119.88
646.833	121.88
647.038	115.88
647.243	125.88
647.447	108.88
647.652	113.88
647.857	125.88
648.062	114.88
648.266	125.88
648.471	115.88
648.676	129.88
648.88	136.88
649.085	126.88
649.289	122.88
649.494	116.88
649.698	145.88
649.903	111.88
650.107	122.88
650.312	117.88
650.516	111.88
650.721	105.88
650.925	112.88
651.13	119.88
651.334	117.88
651.539	113.88
651.743	104.88
651.947	95.88
652.152	125.88
652.356	113.88
652.56	112.88
652.764	104.88
652.969	125.88
653.173	101.88
653.377	112.88
653.581	112.88
653.785	100.88
653.99	101.88
654.194	125.88
654.398	109.88
654.602	106.88
654.806	115.88
655.01	109.88
655.214	111.88
655.418	89.88
655.622	105.88
655.826	110.88
656.03	98.88
656.234	115.88
656.438	114.88
656.642	132.88
656.846	110.88
657.049	119.88
657.253	102.88
657.457	85.88
657.661	105.88
657.865	100.88
658.068	104.88
658.272	99.88
658.476	77.88
658.68	96.88
658.883	100.88
659.087	99.88
659.291	91.88
659.494	102.88
659.698	93.88
659.901	85.88
660.105	88.88
660.309	95.88
660.512	96.88
660.716	84.88
660.919	90.88
661.123	93.88
661.326	91.88
661.53	94.88
661.733	88.88
661.936	93.88
662.14	95.88
662.343	81.88
662.546	83.88
662.75	99.88
662.953	99.88
663.156	86.88
663.36	93.88
663.563	96.88
663.766	95.88
663.969	92.88
664.173	79.88
664.376	85.88
664.579	87.88
664.782	89.88
664.985	79.88
665.188	83.88
665.391	79.88
665.594	79.88
665.797	79.88
666	94.88
666.203	86.88
666.406	90.88
666.609	76.88
666.812	80.88
667.015	65.88
667.218	70.88
667.421	94.88
667.624	79.88
667.827	85.88
668.03	74.88
668.232	81.88
668.435	77.88
668.638	74.88
668.841	83.88
669.043	74.88
669.246	80.88
669.449	70.88
669.651	94.88
669.854	85.88
670.057	90.88
670.259	82.88
670.462	76.88
670.665	90.88
670.867	93.88
671.07	83.88
671.272	96.88
671.475	89.88
671.677	92.88
671.88	79.88
672.082	90.88
672.284	105.88
672.487	90.88
672.689	83.88
672.892	83.88
