Data from 1966.PennyLincolnUp.Lamp.En5.5.200Scan.071719.P1.Scan2.head_HRD10591_14-18-25-186.txt Node
Date: Thu Jul 18 14:18:25 EDT 2019
User: cochatt
Spectrometer: HR+D1059
Trigger mode: 1
Integration Time (sec): 1.000000E-1
Scans to average: 1
Electric dark correction enabled: true
Nonlinearity correction enabled: false
Boxcar width: 0
XAxis mode: Wavelengths
Number of Pixels in Spectrum: 2048
>>>>>Begin Spectral Data<<<<<
223.165	-11.25
223.4	-11.25
223.635	-11.25
223.869	-9.25
224.104	-33.25
224.338	-17.25
224.573	-0.25
224.808	-4.25
225.042	-22.25
225.277	12.75
225.511	-11.25
225.746	-5.25
225.98	7.75
226.215	11.75
226.449	22.75
226.683	24.75
226.918	13.75
227.152	20.75
227.387	30.75
227.621	22.75
227.856	43.75
228.09	50.75
228.324	50.75
228.559	51.75
228.793	62.75
229.027	93.75
229.262	119.75
229.496	120.75
229.73	151.75
229.964	158.75
230.199	121.75
230.433	114.75
230.667	116.75
230.901	116.75
231.136	102.75
231.37	114.75
231.604	93.75
231.838	114.75
232.072	122.75
232.306	114.75
232.541	116.75
232.775	130.75
233.009	119.75
233.243	103.75
233.477	125.75
233.711	113.75
233.945	106.75
234.179	126.75
234.413	117.75
234.647	138.75
234.881	130.75
235.115	126.75
235.349	114.75
235.583	122.75
235.817	116.75
236.051	139.75
236.285	131.75
236.519	122.75
236.753	124.75
236.987	139.75
237.221	186.75
237.455	250.75
237.689	208.75
237.922	132.75
238.156	143.75
238.39	117.75
238.624	141.75
238.858	132.75
239.091	135.75
239.325	120.75
239.559	116.75
239.793	116.75
240.027	135.75
240.26	147.75
240.494	158.75
240.728	157.75
240.961	148.75
241.195	143.75
241.429	144.75
241.662	120.75
241.896	136.75
242.13	135.75
242.363	139.75
242.597	136.75
242.83	130.75
243.064	141.75
243.298	151.75
243.531	129.75
243.765	134.75
243.998	156.75
244.232	145.75
244.465	141.75
244.699	157.75
244.932	154.75
245.166	137.75
245.399	153.75
245.633	130.75
245.866	158.75
246.099	158.75
246.333	146.75
246.566	151.75
246.8	164.75
247.033	152.75
247.266	159.75
247.5	150.75
247.733	172.75
247.966	181.75
248.2	163.75
248.433	168.75
248.666	175.75
248.899	196.75
249.133	190.75
249.366	208.75
249.599	204.75
249.832	186.75
250.066	179.75
250.299	174.75
250.532	191.75
250.765	196.75
250.998	224.75
251.231	231.75
251.465	216.75
251.698	202.75
251.931	198.75
252.164	200.75
252.397	187.75
252.63	198.75
252.863	206.75
253.096	213.75
253.329	207.75
253.562	231.75
253.795	230.75
254.028	213.75
254.261	212.75
254.494	223.75
254.727	227.75
254.96	272.75
255.193	267.75
255.426	259.75
255.659	238.75
255.892	217.75
256.124	243.75
256.357	226.75
256.59	221.75
256.823	211.75
257.056	206.75
257.289	206.75
257.521	179.75
257.754	217.75
257.987	203.75
258.22	212.75
258.452	203.75
258.685	212.75
258.918	200.75
259.151	202.75
259.383	232.75
259.616	226.75
259.849	234.75
260.081	237.75
260.314	236.75
260.547	273.75
260.779	248.75
261.012	245.75
261.244	230.75
261.477	207.75
261.71	223.75
261.942	224.75
262.175	247.75
262.407	220.75
262.64	210.75
262.872	231.75
263.105	224.75
263.337	216.75
263.57	221.75
263.802	204.75
264.035	208.75
264.267	229.75
264.499	208.75
264.732	216.75
264.964	225.75
265.197	209.75
265.429	233.75
265.661	226.75
265.894	234.75
266.126	216.75
266.358	239.75
266.591	227.75
266.823	222.75
267.055	239.75
267.287	232.75
267.52	232.75
267.752	236.75
267.984	235.75
268.216	232.75
268.448	227.75
268.681	229.75
268.913	250.75
269.145	286.75
269.377	260.75
269.609	273.75
269.841	285.75
270.073	288.75
270.306	312.75
270.538	301.75
270.77	299.75
271.002	295.75
271.234	278.75
271.466	306.75
271.698	311.75
271.93	302.75
272.162	328.75
272.394	299.75
272.626	298.75
272.858	289.75
273.09	278.75
273.322	266.75
273.553	251.75
273.785	259.75
274.017	284.75
274.249	279.75
274.481	276.75
274.713	268.75
274.945	274.75
275.176	261.75
275.408	264.75
275.64	269.75
275.872	263.75
276.104	271.75
276.335	260.75
276.567	298.75
276.799	286.75
277.031	296.75
277.262	310.75
277.494	316.75
277.726	307.75
277.957	285.75
278.189	278.75
278.421	258.75
278.652	274.75
278.884	252.75
279.115	278.75
279.347	272.75
279.579	243.75
279.81	259.75
280.042	282.75
280.273	273.75
280.505	259.75
280.736	269.75
280.968	258.75
281.199	270.75
281.431	259.75
281.662	279.75
281.894	276.75
282.125	273.75
282.356	299.75
282.588	292.75
282.819	313.75
283.051	288.75
283.282	262.75
283.513	270.75
283.745	275.75
283.976	288.75
284.207	282.75
284.439	283.75
284.67	283.75
284.901	301.75
285.132	277.75
285.364	295.75
285.595	266.75
285.826	281.75
286.057	274.75
286.288	281.75
286.52	267.75
286.751	278.75
286.982	284.75
287.213	288.75
287.444	278.75
287.675	294.75
287.906	294.75
288.138	310.75
288.369	312.75
288.6	309.75
288.831	309.75
289.062	301.75
289.293	280.75
289.524	289.75
289.755	303.75
289.986	292.75
290.217	269.75
290.448	282.75
290.679	294.75
290.91	262.75
291.141	294.75
291.371	298.75
291.602	294.75
291.833	287.75
292.064	303.75
292.295	294.75
292.526	297.75
292.757	312.75
292.987	286.75
293.218	282.75
293.449	281.75
293.68	293.75
293.91	287.75
294.141	290.75
294.372	302.75
294.603	295.75
294.833	302.75
295.064	296.75
295.295	307.75
295.525	301.75
295.756	287.75
295.987	298.75
296.217	298.75
296.448	334.75
296.679	286.75
296.909	307.75
297.14	280.75
297.37	294.75
297.601	310.75
297.831	301.75
298.062	314.75
298.292	312.75
298.523	291.75
298.753	326.75
298.984	306.75
299.214	329.75
299.445	280.75
299.675	296.75
299.905	312.75
300.136	301.75
300.366	312.75
300.597	316.75
300.827	335.75
301.057	347.75
301.288	335.75
301.518	325.75
301.748	331.75
301.979	322.75
302.209	327.75
302.439	331.75
302.669	328.75
302.9	349.75
303.13	323.75
303.36	352.75
303.59	345.75
303.82	343.75
304.051	319.75
304.281	330.75
304.511	319.75
304.741	316.75
304.971	322.75
305.201	328.75
305.431	319.75
305.661	327.75
305.891	334.75
306.121	322.75
306.352	342.75
306.582	338.75
306.812	343.75
307.042	330.75
307.272	344.75
307.502	331.75
307.731	331.75
307.961	339.75
308.191	341.75
308.421	337.75
308.651	329.75
308.881	343.75
309.111	351.75
309.341	330.75
309.571	352.75
309.8	365.75
310.03	369.75
310.26	377.75
310.49	386.75
310.72	370.75
310.949	391.75
311.179	390.75
311.409	386.75
311.639	371.75
311.868	388.75
312.098	365.75
312.328	390.75
312.557	412.75
312.787	410.75
313.017	406.75
313.246	389.75
313.476	386.75
313.706	366.75
313.935	380.75
314.165	370.75
314.394	395.75
314.624	401.75
314.853	384.75
315.083	391.75
315.312	382.75
315.542	374.75
315.771	364.75
316.001	364.75
316.23	360.75
316.46	373.75
316.689	394.75
316.919	392.75
317.148	393.75
317.377	405.75
317.607	380.75
317.836	382.75
318.065	377.75
318.295	361.75
318.524	373.75
318.753	375.75
318.983	382.75
319.212	377.75
319.441	381.75
319.67	383.75
319.9	382.75
320.129	375.75
320.358	379.75
320.587	392.75
320.816	390.75
321.046	395.75
321.275	392.75
321.504	406.75
321.733	402.75
321.962	389.75
322.191	430.75
322.42	428.75
322.649	417.75
322.878	439.75
323.108	473.75
323.337	479.75
323.566	494.75
323.795	512.75
324.024	578.75
324.253	665.75
324.482	922.75
324.71	1466.75
324.939	2192.75
325.168	1907.75
325.397	954.75
325.626	621.75
325.855	553.75
326.084	490.75
326.313	470.75
326.542	519.75
326.77	536.75
326.999	652.75
327.228	851.75
327.457	1312.75
327.686	1648.75
327.914	1058.75
328.143	682.75
328.372	655.75
328.6	579.75
328.829	554.75
329.058	571.75
329.287	592.75
329.515	551.75
329.744	514.75
329.972	504.75
330.201	534.75
330.43	567.75
330.658	589.75
330.887	620.75
331.115	600.75
331.344	522.75
331.572	500.75
331.801	487.75
332.03	477.75
332.258	493.75
332.486	458.75
332.715	458.75
332.943	459.75
333.172	454.75
333.4	486.75
333.629	471.75
333.857	473.75
334.085	479.75
334.314	518.75
334.542	544.75
334.771	568.75
334.999	518.75
335.227	499.75
335.455	474.75
335.684	467.75
335.912	464.75
336.14	469.75
336.369	436.75
336.597	450.75
336.825	466.75
337.053	461.75
337.281	438.75
337.51	445.75
337.738	451.75
337.966	457.75
338.194	457.75
338.422	444.75
338.65	443.75
338.878	428.75
339.106	428.75
339.334	446.75
339.562	452.75
339.79	472.75
340.018	448.75
340.246	450.75
340.474	438.75
340.702	444.75
340.93	462.75
341.158	457.75
341.386	441.75
341.614	453.75
341.842	445.75
342.07	438.75
342.298	420.75
342.526	435.75
342.754	425.75
342.981	422.75
343.209	444.75
343.437	433.75
343.665	455.75
343.893	446.75
344.12	435.75
344.348	464.75
344.576	451.75
344.804	470.75
345.031	446.75
345.259	465.75
345.487	462.75
345.714	427.75
345.942	431.75
346.17	455.75
346.397	430.75
346.625	421.75
346.853	433.75
347.08	413.75
347.308	440.75
347.535	441.75
347.763	443.75
347.99	436.75
348.218	435.75
348.445	443.75
348.673	443.75
348.9	408.75
349.128	411.75
349.355	414.75
349.583	415.75
349.81	416.75
350.037	428.75
350.265	422.75
350.492	434.75
350.72	428.75
350.947	422.75
351.174	460.75
351.402	445.75
351.629	444.75
351.856	441.75
352.083	441.75
352.311	434.75
352.538	460.75
352.765	430.75
352.992	452.75
353.22	420.75
353.447	435.75
353.674	431.75
353.901	410.75
354.128	414.75
354.355	400.75
354.583	419.75
354.81	400.75
355.037	398.75
355.264	397.75
355.491	399.75
355.718	407.75
355.945	406.75
356.172	393.75
356.399	403.75
356.626	404.75
356.853	416.75
357.08	396.75
357.307	406.75
357.534	402.75
357.761	390.75
357.988	419.75
358.215	426.75
358.441	413.75
358.668	391.75
358.895	391.75
359.122	409.75
359.349	428.75
359.576	421.75
359.802	457.75
360.029	463.75
360.256	501.75
360.483	462.75
360.709	438.75
360.936	436.75
361.163	430.75
361.39	437.75
361.616	474.75
361.843	414.75
362.07	413.75
362.296	437.75
362.523	445.75
362.749	462.75
362.976	429.75
363.203	424.75
363.429	428.75
363.656	431.75
363.882	433.75
364.109	424.75
364.335	431.75
364.562	423.75
364.788	423.75
365.015	421.75
365.241	428.75
365.468	435.75
365.694	423.75
365.92	446.75
366.147	430.75
366.373	434.75
366.599	403.75
366.826	411.75
367.052	416.75
367.278	437.75
367.505	413.75
367.731	430.75
367.957	423.75
368.184	429.75
368.41	423.75
368.636	449.75
368.862	433.75
369.089	419.75
369.315	435.75
369.541	424.75
369.767	431.75
369.993	428.75
370.219	432.75
370.445	405.75
370.672	393.75
370.898	418.75
371.124	411.75
371.35	410.75
371.576	426.75
371.802	411.75
372.028	443.75
372.254	427.75
372.48	422.75
372.706	409.75
372.932	420.75
373.158	436.75
373.384	439.75
373.61	435.75
373.835	437.75
374.061	456.75
374.287	427.75
374.513	451.75
374.739	449.75
374.965	454.75
375.191	447.75
375.416	442.75
375.642	430.75
375.868	425.75
376.094	422.75
376.319	428.75
376.545	447.75
376.771	422.75
376.997	410.75
377.222	426.75
377.448	430.75
377.674	421.75
377.899	439.75
378.125	432.75
378.35	447.75
378.576	416.75
378.802	435.75
379.027	422.75
379.253	426.75
379.478	417.75
379.704	437.75
379.929	438.75
380.155	439.75
380.38	426.75
380.606	432.75
380.831	414.75
381.057	438.75
381.282	447.75
381.507	441.75
381.733	453.75
381.958	440.75
382.184	443.75
382.409	466.75
382.634	423.75
382.86	440.75
383.085	446.75
383.31	444.75
383.535	439.75
383.761	434.75
383.986	464.75
384.211	429.75
384.436	450.75
384.662	457.75
384.887	465.75
385.112	470.75
385.337	458.75
385.562	454.75
385.787	478.75
386.013	480.75
386.238	488.75
386.463	492.75
386.688	483.75
386.913	465.75
387.138	462.75
387.363	474.75
387.588	471.75
387.813	486.75
388.038	460.75
388.263	472.75
388.488	466.75
388.713	477.75
388.938	487.75
389.163	481.75
389.387	485.75
389.612	464.75
389.837	487.75
390.062	495.75
390.287	487.75
390.512	461.75
390.736	487.75
390.961	474.75
391.186	477.75
391.411	484.75
391.636	491.75
391.86	472.75
392.085	489.75
392.31	482.75
392.534	493.75
392.759	502.75
392.984	465.75
393.208	484.75
393.433	482.75
393.658	486.75
393.882	471.75
394.107	472.75
394.331	462.75
394.556	500.75
394.78	509.75
395.005	486.75
395.229	492.75
395.454	522.75
395.678	508.75
395.903	528.75
396.127	522.75
396.352	519.75
396.576	499.75
396.801	515.75
397.025	494.75
397.249	505.75
397.474	494.75
397.698	522.75
397.922	539.75
398.147	543.75
398.371	556.75
398.595	549.75
398.82	546.75
399.044	551.75
399.268	586.75
399.492	611.75
399.717	642.75
399.941	677.75
400.165	685.75
400.389	709.75
400.613	626.75
400.837	574.75
401.062	566.75
401.286	549.75
401.51	547.75
401.734	552.75
401.958	567.75
402.182	557.75
402.406	564.75
402.63	557.75
402.854	567.75
403.078	559.75
403.302	571.75
403.526	581.75
403.75	578.75
403.974	566.75
404.198	555.75
404.422	575.75
404.645	557.75
404.869	598.75
405.093	628.75
405.317	658.75
405.541	727.75
405.765	640.75
405.988	614.75
406.212	613.75
406.436	616.75
406.66	638.75
406.883	618.75
407.107	650.75
407.331	678.75
407.555	759.75
407.778	780.75
408.002	690.75
408.226	648.75
408.449	652.75
408.673	641.75
408.896	665.75
409.12	688.75
409.344	671.75
409.567	600.75
409.791	600.75
410.014	580.75
410.238	589.75
410.461	576.75
410.685	574.75
410.908	585.75
411.132	621.75
411.355	669.75
411.578	627.75
411.802	595.75
412.025	584.75
412.249	584.75
412.472	620.75
412.695	636.75
412.919	636.75
413.142	601.75
413.365	576.75
413.589	573.75
413.812	568.75
414.035	543.75
414.258	547.75
414.482	538.75
414.705	554.75
414.928	563.75
415.151	549.75
415.374	542.75
415.597	559.75
415.821	553.75
416.044	565.75
416.267	556.75
416.49	538.75
416.713	534.75
416.936	539.75
417.159	556.75
417.382	567.75
417.605	569.75
417.828	555.75
418.051	578.75
418.274	557.75
418.497	568.75
418.72	561.75
418.943	555.75
419.166	564.75
419.389	610.75
419.611	595.75
419.834	543.75
420.057	586.75
420.28	593.75
420.503	558.75
420.726	582.75
420.948	597.75
421.171	636.75
421.394	666.75
421.617	607.75
421.839	575.75
422.062	595.75
422.285	596.75
422.507	647.75
422.73	735.75
422.953	712.75
423.175	636.75
423.398	586.75
423.621	587.75
423.843	602.75
424.066	610.75
424.288	628.75
424.511	645.75
424.733	706.75
424.956	782.75
425.178	733.75
425.401	732.75
425.623	770.75
425.846	657.75
426.068	623.75
426.291	612.75
426.513	638.75
426.735	619.75
426.958	669.75
427.18	748.75
427.402	873.75
427.625	981.75
427.847	861.75
428.069	762.75
428.292	649.75
428.514	588.75
428.736	593.75
428.958	580.75
429.181	555.75
429.403	576.75
429.625	566.75
429.847	596.75
430.069	660.75
430.292	677.75
430.514	573.75
430.736	536.75
430.958	543.75
431.18	547.75
431.402	535.75
431.624	549.75
431.846	512.75
432.068	547.75
432.29	540.75
432.512	563.75
432.734	526.75
432.956	549.75
433.178	563.75
433.4	563.75
433.622	546.75
433.844	537.75
434.066	542.75
434.287	553.75
434.509	572.75
434.731	559.75
434.953	571.75
435.175	573.75
435.397	618.75
435.618	628.75
435.84	674.75
436.062	791.75
436.284	837.75
436.505	703.75
436.727	623.75
436.949	612.75
437.17	592.75
437.392	583.75
437.614	587.75
437.835	622.75
438.057	717.75
438.278	855.75
438.5	825.75
438.721	932.75
438.943	886.75
439.165	692.75
439.386	632.75
439.608	613.75
439.829	624.75
440.05	638.75
440.272	703.75
440.493	655.75
440.715	626.75
440.936	575.75
441.158	588.75
441.379	582.75
441.6	613.75
441.822	604.75
442.043	656.75
442.264	739.75
442.486	794.75
442.707	698.75
442.928	622.75
443.149	637.75
443.371	662.75
443.592	691.75
443.813	825.75
444.034	870.75
444.255	732.75
444.476	641.75
444.698	639.75
444.919	597.75
445.14	761.75
445.361	677.75
445.582	667.75
445.803	758.75
446.024	859.75
446.245	874.75
446.466	774.75
446.687	672.75
446.908	632.75
447.129	584.75
447.35	557.75
447.571	559.75
447.792	571.75
448.013	556.75
448.234	588.75
448.455	647.75
448.675	766.75
448.896	889.75
449.117	756.75
449.338	709.75
449.559	819.75
449.779	941.75
450	715.75
450.221	620.75
450.442	577.75
450.662	543.75
450.883	573.75
451.104	568.75
451.324	576.75
451.545	530.75
451.766	501.75
451.986	516.75
452.207	520.75
452.428	520.75
452.648	503.75
452.869	498.75
453.089	508.75
453.31	546.75
453.53	507.75
453.751	505.75
453.971	505.75
454.192	517.75
454.412	525.75
454.633	514.75
454.853	516.75
455.073	500.75
455.294	533.75
455.514	632.75
455.734	596.75
455.955	500.75
456.175	474.75
456.395	477.75
456.616	487.75
456.836	490.75
457.056	468.75
457.276	478.75
457.497	515.75
457.717	489.75
457.937	501.75
458.157	495.75
458.377	504.75
458.598	506.75
458.818	578.75
459.038	653.75
459.258	692.75
459.478	567.75
459.698	535.75
459.918	510.75
460.138	535.75
460.358	557.75
460.578	556.75
460.798	566.75
461.018	562.75
461.238	559.75
461.458	567.75
461.678	537.75
461.898	557.75
462.118	564.75
462.338	591.75
462.558	591.75
462.777	590.75
462.997	595.75
463.217	611.75
463.437	633.75
463.657	593.75
463.876	621.75
464.096	582.75
464.316	613.75
464.536	599.75
464.755	618.75
464.975	600.75
465.195	604.75
465.414	687.75
465.634	595.75
465.854	572.75
466.073	546.75
466.293	543.75
466.512	521.75
466.732	518.75
466.951	530.75
467.171	514.75
467.391	519.75
467.61	566.75
467.829	547.75
468.049	528.75
468.268	535.75
468.488	525.75
468.707	495.75
468.927	516.75
469.146	490.75
469.365	516.75
469.585	491.75
469.804	524.75
470.023	519.75
470.243	529.75
470.462	527.75
470.681	588.75
470.901	537.75
471.12	527.75
471.339	522.75
471.558	541.75
471.777	528.75
471.997	522.75
472.216	537.75
472.435	554.75
472.654	564.75
472.873	537.75
473.092	506.75
473.311	528.75
473.53	527.75
473.749	526.75
473.968	596.75
474.187	678.75
474.406	695.75
474.625	592.75
474.844	563.75
475.063	535.75
475.282	519.75
475.501	528.75
475.72	539.75
475.939	538.75
476.158	535.75
476.377	547.75
476.596	565.75
476.814	556.75
477.033	584.75
477.252	559.75
477.471	566.75
477.69	580.75
477.908	590.75
478.127	588.75
478.346	574.75
478.564	598.75
478.783	598.75
479.002	616.75
479.22	596.75
479.439	637.75
479.658	622.75
479.876	647.75
480.095	657.75
480.313	677.75
480.532	650.75
480.751	666.75
480.969	680.75
481.188	728.75
481.406	763.75
481.624	696.75
481.843	643.75
482.061	662.75
482.28	611.75
482.498	623.75
482.717	645.75
482.935	642.75
483.153	634.75
483.372	645.75
483.59	605.75
483.808	630.75
484.027	623.75
484.245	608.75
484.463	637.75
484.681	650.75
484.9	618.75
485.118	646.75
485.336	626.75
485.554	627.75
485.772	657.75
485.99	638.75
486.209	665.75
486.427	648.75
486.645	664.75
486.863	672.75
487.081	665.75
487.299	669.75
487.517	685.75
487.735	670.75
487.953	685.75
488.171	672.75
488.389	684.75
488.607	682.75
488.825	672.75
489.043	688.75
489.261	667.75
489.479	677.75
489.696	662.75
489.914	711.75
490.132	696.75
490.35	707.75
490.568	708.75
490.786	721.75
491.003	723.75
491.221	739.75
491.439	735.75
491.657	763.75
491.874	782.75
492.092	794.75
492.31	799.75
492.527	762.75
492.745	763.75
492.963	799.75
493.18	784.75
493.398	787.75
493.615	795.75
493.833	811.75
494.05	792.75
494.268	783.75
494.485	795.75
494.703	788.75
494.92	792.75
495.138	799.75
495.355	780.75
495.573	818.75
495.79	818.75
496.008	824.75
496.225	822.75
496.442	800.75
496.66	794.75
496.877	812.75
497.094	825.75
497.312	818.75
497.529	834.75
497.746	839.75
497.963	819.75
498.181	868.75
498.398	879.75
498.615	891.75
498.832	900.75
499.049	941.75
499.267	970.75
499.484	968.75
499.701	1028.75
499.918	1047.75
500.135	1120.75
500.352	1118.75
500.569	1154.75
500.786	1150.75
501.003	1139.75
501.22	1117.75
501.437	1054.75
501.654	1047.75
501.871	1031.75
502.088	1012.75
502.305	966.75
502.522	902.75
502.739	887.75
502.956	875.75
503.172	851.75
503.389	844.75
503.606	845.75
503.823	848.75
504.04	844.75
504.256	815.75
504.473	826.75
504.69	808.75
504.907	803.75
505.123	771.75
505.34	796.75
505.557	746.75
505.773	772.75
505.99	776.75
506.207	776.75
506.423	767.75
506.64	748.75
506.856	731.75
507.073	746.75
507.289	774.75
507.506	743.75
507.722	780.75
507.939	794.75
508.155	747.75
508.372	713.75
508.588	724.75
508.805	717.75
509.021	725.75
509.238	749.75
509.454	734.75
509.67	720.75
509.887	726.75
510.103	721.75
510.319	697.75
510.536	810.75
510.752	1246.75
510.968	1038.75
511.184	720.75
511.401	673.75
511.617	694.75
511.833	699.75
512.049	669.75
512.265	688.75
512.481	702.75
512.698	652.75
512.914	670.75
513.13	667.75
513.346	683.75
513.562	641.75
513.778	653.75
513.994	672.75
514.21	687.75
514.426	716.75
514.642	736.75
514.858	774.75
515.074	822.75
515.29	899.75
515.506	1307.75
515.721	1094.75
515.937	808.75
516.153	742.75
516.369	714.75
516.585	685.75
516.801	726.75
517.016	701.75
517.232	716.75
517.448	730.75
517.664	711.75
517.879	720.75
518.095	703.75
518.311	731.75
518.527	694.75
518.742	708.75
518.958	708.75
519.173	677.75
519.389	674.75
519.605	650.75
519.82	684.75
520.036	680.75
520.251	711.75
520.467	735.75
520.682	708.75
520.898	739.75
521.113	770.75
521.329	761.75
521.544	863.75
521.76	1080.75
521.975	1651.75
522.19	1596.75
522.406	952.75
522.621	748.75
522.836	672.75
523.052	688.75
523.267	640.75
523.482	614.75
523.698	628.75
523.913	597.75
524.128	636.75
524.343	604.75
524.559	610.75
524.774	612.75
524.989	594.75
525.204	592.75
525.419	582.75
525.634	576.75
525.849	588.75
526.064	580.75
526.28	592.75
526.495	554.75
526.71	582.75
526.925	557.75
527.14	572.75
527.355	551.75
527.57	571.75
527.785	531.75
527.999	562.75
528.214	567.75
528.429	553.75
528.644	559.75
528.859	550.75
529.074	547.75
529.289	582.75
529.503	638.75
529.718	650.75
529.933	608.75
530.148	580.75
530.363	568.75
530.577	582.75
530.792	558.75
531.007	569.75
531.221	552.75
531.436	560.75
531.651	546.75
531.865	538.75
532.08	523.75
532.295	554.75
532.509	528.75
532.724	552.75
532.938	506.75
533.153	534.75
533.367	553.75
533.582	535.75
533.796	516.75
534.011	531.75
534.225	550.75
534.44	544.75
534.654	552.75
534.868	529.75
535.083	533.75
535.297	516.75
535.511	535.75
535.726	542.75
535.94	541.75
536.154	525.75
536.369	536.75
536.583	538.75
536.797	514.75
537.011	525.75
537.225	533.75
537.44	501.75
537.654	496.75
537.868	510.75
538.082	517.75
538.296	527.75
538.51	514.75
538.724	522.75
538.938	500.75
539.153	496.75
539.367	530.75
539.581	520.75
539.795	514.75
540.009	535.75
540.222	522.75
540.436	516.75
540.65	514.75
540.864	491.75
541.078	498.75
541.292	536.75
541.506	515.75
541.72	513.75
541.934	511.75
542.147	522.75
542.361	509.75
542.575	524.75
542.789	517.75
543.002	501.75
543.216	510.75
543.43	516.75
543.644	507.75
543.857	509.75
544.071	503.75
544.285	491.75
544.498	487.75
544.712	512.75
544.925	477.75
545.139	485.75
545.352	510.75
545.566	512.75
545.779	496.75
545.993	515.75
546.206	480.75
546.42	506.75
546.633	488.75
546.847	506.75
547.06	503.75
547.274	485.75
547.487	512.75
547.7	497.75
547.914	498.75
548.127	494.75
548.34	500.75
548.554	484.75
548.767	512.75
548.98	490.75
549.193	501.75
549.407	506.75
549.62	512.75
549.833	475.75
550.046	479.75
550.259	514.75
550.473	482.75
550.686	512.75
550.899	481.75
551.112	498.75
551.325	469.75
551.538	469.75
551.751	471.75
551.964	465.75
552.177	473.75
552.39	469.75
552.603	477.75
552.816	492.75
553.029	517.75
553.242	482.75
553.455	491.75
553.667	518.75
553.88	522.75
554.093	512.75
554.306	476.75
554.519	495.75
554.732	483.75
554.944	475.75
555.157	471.75
555.37	458.75
555.583	460.75
555.795	475.75
556.008	452.75
556.221	457.75
556.433	450.75
556.646	435.75
556.859	459.75
557.071	434.75
557.284	425.75
557.496	466.75
557.709	436.75
557.921	445.75
558.134	438.75
558.346	442.75
558.559	460.75
558.771	431.75
558.984	438.75
559.196	416.75
559.409	447.75
559.621	439.75
559.833	418.75
560.046	422.75
560.258	424.75
560.47	416.75
560.683	451.75
560.895	423.75
561.107	420.75
561.32	426.75
561.532	430.75
561.744	435.75
561.956	454.75
562.168	431.75
562.381	424.75
562.593	447.75
562.805	459.75
563.017	411.75
563.229	450.75
563.441	443.75
563.653	444.75
563.865	441.75
564.077	421.75
564.289	459.75
564.501	432.75
564.713	469.75
564.925	460.75
565.137	485.75
565.349	469.75
565.561	475.75
565.773	470.75
565.985	495.75
566.197	500.75
566.408	514.75
566.62	538.75
566.832	533.75
567.044	539.75
567.255	558.75
567.467	548.75
567.679	554.75
567.891	550.75
568.102	551.75
568.314	558.75
568.526	535.75
568.737	531.75
568.949	516.75
569.161	490.75
569.372	465.75
569.584	456.75
569.795	459.75
570.007	454.75
570.218	487.75
570.43	483.75
570.641	447.75
570.853	428.75
571.064	432.75
571.276	439.75
571.487	442.75
571.698	430.75
571.91	414.75
572.121	405.75
572.333	427.75
572.544	388.75
572.755	385.75
572.966	395.75
573.178	387.75
573.389	407.75
573.6	408.75
573.811	380.75
574.023	383.75
574.234	404.75
574.445	354.75
574.656	392.75
574.867	386.75
575.078	379.75
575.289	377.75
575.501	376.75
575.712	370.75
575.923	363.75
576.134	368.75
576.345	369.75
576.556	356.75
576.767	350.75
576.978	368.75
577.188	367.75
577.399	377.75
577.61	370.75
577.821	369.75
578.032	351.75
578.243	380.75
578.454	596.75
578.665	464.75
578.875	378.75
579.086	362.75
579.297	356.75
579.508	365.75
579.718	357.75
579.929	348.75
580.14	342.75
580.35	340.75
580.561	341.75
580.772	335.75
580.982	341.75
581.193	352.75
581.403	349.75
581.614	351.75
581.825	344.75
582.035	319.75
582.246	337.75
582.456	323.75
582.667	351.75
582.877	356.75
583.087	336.75
583.298	343.75
583.508	320.75
583.719	340.75
583.929	346.75
584.139	342.75
584.35	317.75
584.56	349.75
584.77	344.75
584.981	344.75
585.191	332.75
585.401	330.75
585.611	342.75
585.821	336.75
586.032	327.75
586.242	344.75
586.452	332.75
586.662	330.75
586.872	341.75
587.082	339.75
587.292	303.75
587.502	314.75
587.713	328.75
587.923	331.75
588.133	312.75
588.343	330.75
588.553	348.75
588.762	328.75
588.972	318.75
589.182	365.75
589.392	346.75
589.602	304.75
589.812	330.75
590.022	347.75
590.232	331.75
590.441	326.75
590.651	330.75
590.861	333.75
591.071	323.75
591.281	346.75
591.49	329.75
591.7	333.75
591.91	317.75
592.119	323.75
592.329	344.75
592.539	360.75
592.748	342.75
592.958	339.75
593.167	336.75
593.377	346.75
593.587	383.75
593.796	351.75
594.006	350.75
594.215	350.75
594.424	350.75
594.634	327.75
594.843	327.75
595.053	335.75
595.262	338.75
595.472	344.75
595.681	321.75
595.89	334.75
596.1	332.75
596.309	341.75
596.518	316.75
596.727	302.75
596.937	308.75
597.146	335.75
597.355	319.75
597.564	315.75
597.774	297.75
597.983	307.75
598.192	290.75
598.401	307.75
598.61	293.75
598.819	299.75
599.028	291.75
599.237	290.75
599.446	290.75
599.655	306.75
599.864	288.75
600.073	292.75
600.282	286.75
600.491	288.75
600.7	275.75
600.909	278.75
601.118	297.75
601.327	279.75
601.536	278.75
601.745	294.75
601.953	292.75
602.162	291.75
602.371	293.75
602.58	285.75
602.789	289.75
602.997	271.75
603.206	279.75
603.415	271.75
603.623	258.75
603.832	280.75
604.041	284.75
604.249	277.75
604.458	290.75
604.666	272.75
604.875	282.75
605.084	270.75
605.292	261.75
605.501	286.75
605.709	266.75
605.918	266.75
606.126	259.75
606.334	263.75
606.543	288.75
606.751	267.75
606.96	272.75
607.168	264.75
607.376	261.75
607.585	277.75
607.793	253.75
608.001	266.75
608.21	250.75
608.418	255.75
608.626	253.75
608.834	267.75
609.043	270.75
609.251	252.75
609.459	270.75
609.667	262.75
609.875	272.75
610.083	271.75
610.291	267.75
610.499	269.75
610.707	283.75
610.916	267.75
611.124	287.75
611.332	270.75
611.54	274.75
611.748	286.75
611.955	280.75
612.163	286.75
612.371	250.75
612.579	272.75
612.787	260.75
612.995	252.75
613.203	272.75
613.411	258.75
613.618	242.75
613.826	250.75
614.034	261.75
614.242	282.75
614.449	271.75
614.657	266.75
614.865	258.75
615.072	278.75
615.28	235.75
615.488	255.75
615.695	251.75
615.903	264.75
616.111	252.75
616.318	264.75
616.526	267.75
616.733	264.75
616.941	253.75
617.148	250.75
617.356	240.75
617.563	274.75
617.771	253.75
617.978	259.75
618.185	270.75
618.393	245.75
618.6	243.75
618.807	260.75
619.015	256.75
619.222	259.75
619.429	267.75
619.637	255.75
619.844	242.75
620.051	250.75
620.258	263.75
620.466	258.75
620.673	239.75
620.88	234.75
621.087	236.75
621.294	237.75
621.501	242.75
621.708	231.75
621.915	237.75
622.122	237.75
622.329	256.75
622.536	250.75
622.743	235.75
622.95	235.75
623.157	220.75
623.364	243.75
623.571	240.75
623.778	222.75
623.985	223.75
624.192	231.75
624.399	213.75
624.606	230.75
624.812	246.75
625.019	243.75
625.226	239.75
625.433	239.75
625.639	229.75
625.846	233.75
626.053	242.75
626.259	219.75
626.466	217.75
626.673	235.75
626.879	223.75
627.086	229.75
627.293	225.75
627.499	227.75
627.706	229.75
627.912	224.75
628.119	220.75
628.325	219.75
628.532	219.75
628.738	228.75
628.945	230.75
629.151	213.75
629.357	196.75
629.564	197.75
629.77	226.75
629.976	231.75
630.183	206.75
630.389	202.75
630.595	221.75
630.802	210.75
631.008	220.75
631.214	223.75
631.42	195.75
631.627	204.75
631.833	208.75
632.039	204.75
632.245	206.75
632.451	200.75
632.657	206.75
632.863	204.75
633.069	214.75
633.275	207.75
633.481	204.75
633.688	197.75
633.893	202.75
634.099	191.75
634.305	216.75
634.511	198.75
634.717	201.75
634.923	197.75
635.129	205.75
635.335	180.75
635.541	193.75
635.747	181.75
635.952	197.75
636.158	192.75
636.364	199.75
636.57	203.75
636.775	209.75
636.981	202.75
637.187	182.75
637.392	201.75
637.598	184.75
637.804	194.75
638.009	202.75
638.215	196.75
638.421	225.75
638.626	202.75
638.832	169.75
639.037	203.75
639.243	192.75
639.448	188.75
639.654	188.75
639.859	191.75
640.065	193.75
640.27	197.75
640.475	197.75
640.681	192.75
640.886	196.75
641.091	200.75
641.297	180.75
641.502	176.75
641.707	193.75
641.913	189.75
642.118	175.75
642.323	188.75
642.528	186.75
642.733	178.75
642.939	177.75
643.144	188.75
643.349	183.75
643.554	185.75
643.759	187.75
643.964	178.75
644.169	196.75
644.374	174.75
644.579	186.75
644.784	175.75
644.989	194.75
645.194	178.75
645.399	180.75
645.604	175.75
645.809	176.75
646.014	167.75
646.219	165.75
646.423	158.75
646.628	186.75
646.833	175.75
647.038	185.75
647.243	176.75
647.447	166.75
647.652	188.75
647.857	190.75
648.062	181.75
648.266	193.75
648.471	178.75
648.676	199.75
648.88	180.75
649.085	187.75
649.289	186.75
649.494	189.75
649.698	190.75
649.903	192.75
650.107	186.75
650.312	172.75
650.516	170.75
650.721	176.75
650.925	164.75
651.13	164.75
651.334	156.75
651.539	180.75
651.743	178.75
651.947	159.75
652.152	151.75
652.356	171.75
652.56	152.75
652.764	153.75
652.969	174.75
653.173	160.75
653.377	149.75
653.581	160.75
653.785	140.75
653.99	157.75
654.194	140.75
654.398	148.75
654.602	144.75
654.806	143.75
655.01	144.75
655.214	137.75
655.418	140.75
655.622	138.75
655.826	149.75
656.03	136.75
656.234	130.75
656.438	145.75
656.642	152.75
656.846	143.75
657.049	122.75
657.253	130.75
657.457	118.75
657.661	124.75
657.865	131.75
658.068	122.75
658.272	118.75
658.476	127.75
658.68	111.75
658.883	109.75
659.087	91.75
659.291	98.75
659.494	99.75
659.698	110.75
659.901	93.75
660.105	92.75
660.309	98.75
660.512	111.75
660.716	100.75
660.919	84.75
661.123	95.75
661.326	99.75
661.53	99.75
661.733	98.75
661.936	76.75
662.14	84.75
662.343	104.75
662.546	96.75
662.75	76.75
662.953	88.75
663.156	74.75
663.36	76.75
663.563	90.75
663.766	91.75
663.969	86.75
664.173	88.75
664.376	81.75
664.579	80.75
664.782	83.75
664.985	84.75
665.188	76.75
665.391	71.75
665.594	82.75
665.797	63.75
666	77.75
666.203	85.75
666.406	79.75
666.609	83.75
666.812	86.75
667.015	78.75
667.218	90.75
667.421	86.75
667.624	96.75
667.827	93.75
668.03	86.75
668.232	86.75
668.435	82.75
668.638	88.75
668.841	90.75
669.043	85.75
669.246	73.75
669.449	85.75
669.651	91.75
669.854	88.75
670.057	89.75
670.259	73.75
670.462	83.75
670.665	84.75
670.867	85.75
671.07	91.75
671.272	95.75
671.475	88.75
671.677	89.75
671.88	85.75
672.082	76.75
672.284	86.75
672.487	86.75
672.689	89.75
672.892	80.75
