Data from 1966.PennyLincolnUp.Lamp.En5.5.200Scan.071719.P1.Scan2.head_HRD10591_14-18-48-217.txt Node
Date: Thu Jul 18 14:18:48 EDT 2019
User: cochatt
Spectrometer: HR+D1059
Trigger mode: 1
Integration Time (sec): 1.000000E-1
Scans to average: 1
Electric dark correction enabled: true
Nonlinearity correction enabled: false
Boxcar width: 0
XAxis mode: Wavelengths
Number of Pixels in Spectrum: 2048
>>>>>Begin Spectral Data<<<<<
223.165	-5.12
223.4	-5.12
223.635	-5.12
223.869	-8.12
224.104	-14.12
224.338	-6.12
224.573	-13.12
224.808	-22.12
225.042	-10.12
225.277	-8.12
225.511	-1.12
225.746	10.88
225.98	7.88
226.215	11.88
226.449	6.88
226.683	16.88
226.918	13.88
227.152	19.88
227.387	45.88
227.621	36.88
227.856	48.88
228.09	47.88
228.324	46.88
228.559	62.88
228.793	59.88
229.027	100.88
229.262	119.88
229.496	124.88
229.73	145.88
229.964	171.88
230.199	144.88
230.433	124.88
230.667	124.88
230.901	129.88
231.136	111.88
231.37	108.88
231.604	105.88
231.838	112.88
232.072	100.88
232.306	122.88
232.541	104.88
232.775	114.88
233.009	116.88
233.243	118.88
233.477	109.88
233.711	111.88
233.945	128.88
234.179	114.88
234.413	118.88
234.647	126.88
234.881	123.88
235.115	122.88
235.349	117.88
235.583	123.88
235.817	130.88
236.051	132.88
236.285	126.88
236.519	132.88
236.753	117.88
236.987	159.88
237.221	205.88
237.455	237.88
237.689	202.88
237.922	136.88
238.156	138.88
238.39	134.88
238.624	124.88
238.858	129.88
239.091	130.88
239.325	123.88
239.559	132.88
239.793	116.88
240.027	141.88
240.26	136.88
240.494	151.88
240.728	151.88
240.961	155.88
241.195	153.88
241.429	145.88
241.662	145.88
241.896	147.88
242.13	143.88
242.363	134.88
242.597	144.88
242.83	147.88
243.064	150.88
243.298	143.88
243.531	137.88
243.765	131.88
243.998	146.88
244.232	143.88
244.465	149.88
244.699	165.88
244.932	157.88
245.166	125.88
245.399	159.88
245.633	159.88
245.866	135.88
246.099	162.88
246.333	156.88
246.566	162.88
246.8	159.88
247.033	149.88
247.266	161.88
247.5	165.88
247.733	180.88
247.966	165.88
248.2	169.88
248.433	158.88
248.666	184.88
248.899	196.88
249.133	184.88
249.366	212.88
249.599	189.88
249.832	178.88
250.066	193.88
250.299	183.88
250.532	203.88
250.765	221.88
250.998	227.88
251.231	236.88
251.465	219.88
251.698	212.88
251.931	198.88
252.164	213.88
252.397	220.88
252.63	230.88
252.863	194.88
253.096	211.88
253.329	230.88
253.562	246.88
253.795	239.88
254.028	227.88
254.261	244.88
254.494	239.88
254.727	275.88
254.96	278.88
255.193	298.88
255.426	268.88
255.659	233.88
255.892	239.88
256.124	233.88
256.357	246.88
256.59	222.88
256.823	225.88
257.056	214.88
257.289	209.88
257.521	216.88
257.754	200.88
257.987	208.88
258.22	232.88
258.452	226.88
258.685	203.88
258.918	208.88
259.151	223.88
259.383	236.88
259.616	225.88
259.849	248.88
260.081	246.88
260.314	263.88
260.547	280.88
260.779	272.88
261.012	242.88
261.244	227.88
261.477	229.88
261.71	227.88
261.942	234.88
262.175	248.88
262.407	235.88
262.64	221.88
262.872	224.88
263.105	209.88
263.337	207.88
263.57	210.88
263.802	211.88
264.035	227.88
264.267	223.88
264.499	217.88
264.732	225.88
264.964	213.88
265.197	216.88
265.429	241.88
265.661	214.88
265.894	231.88
266.126	235.88
266.358	221.88
266.591	230.88
266.823	224.88
267.055	229.88
267.287	248.88
267.52	232.88
267.752	248.88
267.984	235.88
268.216	239.88
268.448	250.88
268.681	255.88
268.913	251.88
269.145	281.88
269.377	278.88
269.609	270.88
269.841	290.88
270.073	267.88
270.306	310.88
270.538	319.88
270.77	342.88
271.002	308.88
271.234	281.88
271.466	280.88
271.698	333.88
271.93	340.88
272.162	326.88
272.394	336.88
272.626	305.88
272.858	294.88
273.09	272.88
273.322	280.88
273.553	263.88
273.785	271.88
274.017	286.88
274.249	266.88
274.481	273.88
274.713	278.88
274.945	275.88
275.176	280.88
275.408	267.88
275.64	277.88
275.872	269.88
276.104	277.88
276.335	264.88
276.567	275.88
276.799	298.88
277.031	317.88
277.262	344.88
277.494	330.88
277.726	314.88
277.957	298.88
278.189	304.88
278.421	297.88
278.652	278.88
278.884	280.88
279.115	279.88
279.347	268.88
279.579	288.88
279.81	268.88
280.042	285.88
280.273	265.88
280.505	288.88
280.736	276.88
280.968	280.88
281.199	281.88
281.431	289.88
281.662	284.88
281.894	272.88
282.125	288.88
282.356	289.88
282.588	330.88
282.819	340.88
283.051	302.88
283.282	295.88
283.513	279.88
283.745	273.88
283.976	278.88
284.207	284.88
284.439	293.88
284.67	296.88
284.901	293.88
285.132	280.88
285.364	280.88
285.595	297.88
285.826	293.88
286.057	309.88
286.288	293.88
286.52	286.88
286.751	299.88
286.982	286.88
287.213	302.88
287.444	293.88
287.675	284.88
287.906	329.88
288.138	310.88
288.369	317.88
288.6	308.88
288.831	315.88
289.062	313.88
289.293	302.88
289.524	299.88
289.755	301.88
289.986	311.88
290.217	296.88
290.448	300.88
290.679	301.88
290.91	301.88
291.141	297.88
291.371	312.88
291.602	308.88
291.833	303.88
292.064	302.88
292.295	324.88
292.526	313.88
292.757	289.88
292.987	307.88
293.218	291.88
293.449	313.88
293.68	299.88
293.91	294.88
294.141	294.88
294.372	288.88
294.603	286.88
294.833	316.88
295.064	312.88
295.295	307.88
295.525	305.88
295.756	315.88
295.987	322.88
296.217	326.88
296.448	344.88
296.679	328.88
296.909	315.88
297.14	304.88
297.37	302.88
297.601	307.88
297.831	316.88
298.062	311.88
298.292	314.88
298.523	326.88
298.753	310.88
298.984	314.88
299.214	314.88
299.445	320.88
299.675	316.88
299.905	315.88
300.136	325.88
300.366	339.88
300.597	327.88
300.827	330.88
301.057	337.88
301.288	323.88
301.518	346.88
301.748	327.88
301.979	332.88
302.209	340.88
302.439	358.88
302.669	357.88
302.9	333.88
303.13	335.88
303.36	347.88
303.59	347.88
303.82	342.88
304.051	371.88
304.281	348.88
304.511	345.88
304.741	330.88
304.971	332.88
305.201	345.88
305.431	322.88
305.661	332.88
305.891	350.88
306.121	352.88
306.352	351.88
306.582	353.88
306.812	350.88
307.042	334.88
307.272	320.88
307.502	336.88
307.731	338.88
307.961	342.88
308.191	344.88
308.421	354.88
308.651	340.88
308.881	354.88
309.111	351.88
309.341	364.88
309.571	358.88
309.8	376.88
310.03	393.88
310.26	391.88
310.49	386.88
310.72	400.88
310.949	412.88
311.179	394.88
311.409	392.88
311.639	406.88
311.868	400.88
312.098	375.88
312.328	377.88
312.557	405.88
312.787	431.88
313.017	407.88
313.246	398.88
313.476	379.88
313.706	389.88
313.935	396.88
314.165	403.88
314.394	414.88
314.624	423.88
314.853	431.88
315.083	405.88
315.312	395.88
315.542	369.88
315.771	388.88
316.001	376.88
316.23	386.88
316.46	396.88
316.689	390.88
316.919	407.88
317.148	398.88
317.377	404.88
317.607	382.88
317.836	400.88
318.065	383.88
318.295	385.88
318.524	380.88
318.753	386.88
318.983	410.88
319.212	406.88
319.441	404.88
319.67	413.88
319.9	380.88
320.129	387.88
320.358	399.88
320.587	408.88
320.816	406.88
321.046	417.88
321.275	396.88
321.504	410.88
321.733	419.88
321.962	408.88
322.191	420.88
322.42	446.88
322.649	456.88
322.878	459.88
323.108	470.88
323.337	494.88
323.566	498.88
323.795	537.88
324.024	582.88
324.253	690.88
324.482	990.88
324.71	1558.88
324.939	2365.88
325.168	2007.88
325.397	988.88
325.626	656.88
325.855	558.88
326.084	510.88
326.313	509.88
326.542	509.88
326.77	559.88
326.999	665.88
327.228	907.88
327.457	1387.88
327.686	1768.88
327.914	1158.88
328.143	744.88
328.372	644.88
328.6	616.88
328.829	583.88
329.058	602.88
329.287	612.88
329.515	561.88
329.744	530.88
329.972	536.88
330.201	536.88
330.43	596.88
330.658	600.88
330.887	626.88
331.115	625.88
331.344	558.88
331.572	512.88
331.801	496.88
332.03	516.88
332.258	495.88
332.486	488.88
332.715	474.88
332.943	479.88
333.172	481.88
333.4	487.88
333.629	486.88
333.857	514.88
334.085	513.88
334.314	552.88
334.542	574.88
334.771	590.88
334.999	535.88
335.227	525.88
335.455	496.88
335.684	478.88
335.912	500.88
336.14	474.88
336.369	481.88
336.597	463.88
336.825	477.88
337.053	456.88
337.281	463.88
337.51	455.88
337.738	460.88
337.966	460.88
338.194	467.88
338.422	465.88
338.65	454.88
338.878	465.88
339.106	468.88
339.334	472.88
339.562	461.88
339.79	433.88
340.018	448.88
340.246	473.88
340.474	460.88
340.702	462.88
340.93	452.88
341.158	445.88
341.386	460.88
341.614	456.88
341.842	462.88
342.07	456.88
342.298	447.88
342.526	444.88
342.754	447.88
342.981	439.88
343.209	430.88
343.437	464.88
343.665	437.88
343.893	481.88
344.12	461.88
344.348	468.88
344.576	464.88
344.804	486.88
345.031	470.88
345.259	506.88
345.487	490.88
345.714	464.88
345.942	430.88
346.17	450.88
346.397	431.88
346.625	460.88
346.853	433.88
347.08	440.88
347.308	444.88
347.535	440.88
347.763	452.88
347.99	472.88
348.218	443.88
348.445	451.88
348.673	458.88
348.9	440.88
349.128	457.88
349.355	425.88
349.583	422.88
349.81	400.88
350.037	449.88
350.265	432.88
350.492	446.88
350.72	428.88
350.947	422.88
351.174	443.88
351.402	454.88
351.629	454.88
351.856	453.88
352.083	477.88
352.311	483.88
352.538	468.88
352.765	468.88
352.992	445.88
353.22	441.88
353.447	461.88
353.674	428.88
353.901	432.88
354.128	434.88
354.355	427.88
354.583	414.88
354.81	431.88
355.037	446.88
355.264	402.88
355.491	405.88
355.718	406.88
355.945	405.88
356.172	414.88
356.399	417.88
356.626	383.88
356.853	422.88
357.08	409.88
357.307	410.88
357.534	406.88
357.761	416.88
357.988	416.88
358.215	426.88
358.441	422.88
358.668	417.88
358.895	433.88
359.122	423.88
359.349	414.88
359.576	457.88
359.802	454.88
360.029	500.88
360.256	530.88
360.483	485.88
360.709	472.88
360.936	458.88
361.163	445.88
361.39	456.88
361.616	441.88
361.843	421.88
362.07	426.88
362.296	448.88
362.523	448.88
362.749	437.88
362.976	449.88
363.203	438.88
363.429	444.88
363.656	427.88
363.882	430.88
364.109	431.88
364.335	449.88
364.562	431.88
364.788	445.88
365.015	462.88
365.241	453.88
365.468	423.88
365.694	436.88
365.92	439.88
366.147	438.88
366.373	418.88
366.599	424.88
366.826	422.88
367.052	417.88
367.278	450.88
367.505	446.88
367.731	457.88
367.957	456.88
368.184	440.88
368.41	432.88
368.636	448.88
368.862	445.88
369.089	438.88
369.315	440.88
369.541	444.88
369.767	434.88
369.993	445.88
370.219	432.88
370.445	432.88
370.672	437.88
370.898	412.88
371.124	428.88
371.35	432.88
371.576	427.88
371.802	452.88
372.028	438.88
372.254	444.88
372.48	458.88
372.706	441.88
372.932	431.88
373.158	433.88
373.384	445.88
373.61	443.88
373.835	468.88
374.061	461.88
374.287	457.88
374.513	467.88
374.739	431.88
374.965	438.88
375.191	455.88
375.416	454.88
375.642	450.88
375.868	462.88
376.094	448.88
376.319	444.88
376.545	462.88
376.771	444.88
376.997	439.88
377.222	437.88
377.448	438.88
377.674	425.88
377.899	438.88
378.125	422.88
378.35	422.88
378.576	437.88
378.802	450.88
379.027	456.88
379.253	432.88
379.478	418.88
379.704	447.88
379.929	432.88
380.155	454.88
380.38	433.88
380.606	441.88
380.831	441.88
381.057	455.88
381.282	433.88
381.507	429.88
381.733	441.88
381.958	442.88
382.184	453.88
382.409	455.88
382.634	449.88
382.86	476.88
383.085	454.88
383.31	461.88
383.535	477.88
383.761	451.88
383.986	451.88
384.211	470.88
384.436	451.88
384.662	478.88
384.887	465.88
385.112	477.88
385.337	478.88
385.562	485.88
385.787	474.88
386.013	502.88
386.238	484.88
386.463	508.88
386.688	510.88
386.913	496.88
387.138	469.88
387.363	476.88
387.588	488.88
387.813	484.88
388.038	481.88
388.263	476.88
388.488	490.88
388.713	488.88
388.938	470.88
389.163	509.88
389.387	514.88
389.612	487.88
389.837	494.88
390.062	472.88
390.287	479.88
390.512	459.88
390.736	483.88
390.961	500.88
391.186	481.88
391.411	514.88
391.636	496.88
391.86	495.88
392.085	490.88
392.31	538.88
392.534	514.88
392.759	516.88
392.984	504.88
393.208	512.88
393.433	517.88
393.658	508.88
393.882	473.88
394.107	509.88
394.331	497.88
394.556	490.88
394.78	489.88
395.005	490.88
395.229	491.88
395.454	512.88
395.678	529.88
395.903	542.88
396.127	558.88
396.352	546.88
396.576	508.88
396.801	511.88
397.025	505.88
397.249	527.88
397.474	551.88
397.698	524.88
397.922	530.88
398.147	562.88
398.371	565.88
398.595	557.88
398.82	561.88
399.044	564.88
399.268	588.88
399.492	606.88
399.717	664.88
399.941	663.88
400.165	710.88
400.389	749.88
400.613	662.88
400.837	622.88
401.062	594.88
401.286	601.88
401.51	583.88
401.734	572.88
401.958	580.88
402.182	581.88
402.406	588.88
402.63	575.88
402.854	593.88
403.078	592.88
403.302	598.88
403.526	603.88
403.75	597.88
403.974	587.88
404.198	593.88
404.422	596.88
404.645	609.88
404.869	638.88
405.093	668.88
405.317	698.88
405.541	735.88
405.765	659.88
405.988	618.88
406.212	630.88
406.436	645.88
406.66	654.88
406.883	660.88
407.107	670.88
407.331	718.88
407.555	802.88
407.778	801.88
408.002	704.88
408.226	666.88
408.449	678.88
408.673	687.88
408.896	685.88
409.12	704.88
409.344	676.88
409.567	640.88
409.791	585.88
410.014	584.88
410.238	577.88
410.461	598.88
410.685	589.88
410.908	639.88
411.132	676.88
411.355	702.88
411.578	633.88
411.802	630.88
412.025	598.88
412.249	622.88
412.472	642.88
412.695	688.88
412.919	663.88
413.142	590.88
413.365	593.88
413.589	591.88
413.812	571.88
414.035	572.88
414.258	562.88
414.482	577.88
414.705	575.88
414.928	540.88
415.151	559.88
415.374	549.88
415.597	554.88
415.821	560.88
416.044	565.88
416.267	545.88
416.49	569.88
416.713	546.88
416.936	564.88
417.159	553.88
417.382	543.88
417.605	559.88
417.828	555.88
418.051	591.88
418.274	585.88
418.497	562.88
418.72	577.88
418.943	554.88
419.166	574.88
419.389	625.88
419.611	609.88
419.834	605.88
420.057	621.88
420.28	597.88
420.503	592.88
420.726	573.88
420.948	620.88
421.171	649.88
421.394	683.88
421.617	625.88
421.839	586.88
422.062	582.88
422.285	605.88
422.507	667.88
422.73	751.88
422.953	710.88
423.175	636.88
423.398	605.88
423.621	620.88
423.843	646.88
424.066	622.88
424.288	626.88
424.511	665.88
424.733	720.88
424.956	815.88
425.178	775.88
425.401	766.88
425.623	801.88
425.846	679.88
426.068	626.88
426.291	612.88
426.513	634.88
426.735	633.88
426.958	689.88
427.18	764.88
427.402	935.88
427.625	1046.88
427.847	881.88
428.069	762.88
428.292	672.88
428.514	638.88
428.736	624.88
428.958	620.88
429.181	583.88
429.403	574.88
429.625	576.88
429.847	650.88
430.069	712.88
430.292	704.88
430.514	603.88
430.736	574.88
430.958	581.88
431.18	548.88
431.402	575.88
431.624	574.88
431.846	562.88
432.068	537.88
432.29	552.88
432.512	569.88
432.734	552.88
432.956	572.88
433.178	550.88
433.4	592.88
433.622	571.88
433.844	549.88
434.066	548.88
434.287	547.88
434.509	571.88
434.731	556.88
434.953	578.88
435.175	602.88
435.397	637.88
435.618	640.88
435.84	698.88
436.062	786.88
436.284	864.88
436.505	706.88
436.727	663.88
436.949	618.88
437.17	590.88
437.392	580.88
437.614	577.88
437.835	634.88
438.057	751.88
438.278	871.88
438.5	852.88
438.721	950.88
438.943	892.88
439.165	731.88
439.386	650.88
439.608	659.88
439.829	650.88
440.05	647.88
440.272	735.88
440.493	673.88
440.715	599.88
440.936	606.88
441.158	596.88
441.379	599.88
441.6	614.88
441.822	621.88
442.043	673.88
442.264	773.88
442.486	824.88
442.707	713.88
442.928	658.88
443.149	666.88
443.371	719.88
443.592	734.88
443.813	831.88
444.034	912.88
444.255	748.88
444.476	685.88
444.698	648.88
444.919	668.88
445.14	761.88
445.361	689.88
445.582	685.88
445.803	776.88
446.024	887.88
446.245	900.88
446.466	845.88
446.687	706.88
446.908	638.88
447.129	590.88
447.35	570.88
447.571	579.88
447.792	583.88
448.013	569.88
448.234	608.88
448.455	651.88
448.675	807.88
448.896	939.88
449.117	762.88
449.338	722.88
449.559	865.88
449.779	969.88
450	786.88
450.221	642.88
450.442	583.88
450.662	592.88
450.883	567.88
451.104	604.88
451.324	582.88
451.545	538.88
451.766	551.88
451.986	553.88
452.207	534.88
452.428	526.88
452.648	526.88
452.869	516.88
453.089	528.88
453.31	549.88
453.53	538.88
453.751	506.88
453.971	514.88
454.192	537.88
454.412	521.88
454.633	521.88
454.853	510.88
455.073	516.88
455.294	546.88
455.514	628.88
455.734	609.88
455.955	558.88
456.175	518.88
456.395	487.88
456.616	496.88
456.836	484.88
457.056	457.88
457.276	467.88
457.497	500.88
457.717	484.88
457.937	495.88
458.157	505.88
458.377	510.88
458.598	522.88
458.818	597.88
459.038	698.88
459.258	726.88
459.478	607.88
459.698	566.88
459.918	554.88
460.138	566.88
460.358	582.88
460.578	572.88
460.798	570.88
461.018	573.88
461.238	554.88
461.458	576.88
461.678	559.88
461.898	575.88
462.118	573.88
462.338	592.88
462.558	600.88
462.777	590.88
462.997	605.88
463.217	630.88
463.437	644.88
463.657	626.88
463.876	617.88
464.096	638.88
464.316	607.88
464.536	637.88
464.755	606.88
464.975	632.88
465.195	663.88
465.414	706.88
465.634	655.88
465.854	600.88
466.073	586.88
466.293	548.88
466.512	540.88
466.732	542.88
466.951	516.88
467.171	548.88
467.391	518.88
467.61	557.88
467.829	552.88
468.049	553.88
468.268	535.88
468.488	559.88
468.707	518.88
468.927	516.88
469.146	506.88
469.365	529.88
469.585	526.88
469.804	531.88
470.023	565.88
470.243	570.88
470.462	544.88
470.681	573.88
470.901	578.88
471.12	586.88
471.339	539.88
471.558	572.88
471.777	550.88
471.997	526.88
472.216	547.88
472.435	616.88
472.654	591.88
472.873	560.88
473.092	558.88
473.311	530.88
473.53	581.88
473.749	554.88
473.968	588.88
474.187	721.88
474.406	731.88
474.625	595.88
474.844	589.88
475.063	550.88
475.282	572.88
475.501	553.88
475.72	554.88
475.939	558.88
476.158	558.88
476.377	573.88
476.596	557.88
476.814	561.88
477.033	575.88
477.252	579.88
477.471	596.88
477.69	583.88
477.908	589.88
478.127	596.88
478.346	624.88
478.564	646.88
478.783	618.88
479.002	630.88
479.22	618.88
479.439	645.88
479.658	658.88
479.876	645.88
480.095	660.88
480.313	696.88
480.532	683.88
480.751	677.88
480.969	688.88
481.188	746.88
481.406	792.88
481.624	724.88
481.843	696.88
482.061	662.88
482.28	649.88
482.498	655.88
482.717	625.88
482.935	632.88
483.153	644.88
483.372	662.88
483.59	634.88
483.808	637.88
484.027	629.88
484.245	648.88
484.463	654.88
484.681	668.88
484.9	664.88
485.118	654.88
485.336	664.88
485.554	660.88
485.772	649.88
485.99	656.88
486.209	670.88
486.427	686.88
486.645	669.88
486.863	710.88
487.081	721.88
487.299	673.88
487.517	678.88
487.735	680.88
487.953	696.88
488.171	706.88
488.389	698.88
488.607	696.88
488.825	673.88
489.043	708.88
489.261	706.88
489.479	711.88
489.696	717.88
489.914	708.88
490.132	724.88
490.35	737.88
490.568	741.88
490.786	752.88
491.003	762.88
491.221	751.88
491.439	772.88
491.657	769.88
491.874	781.88
492.092	801.88
492.31	801.88
492.527	815.88
492.745	800.88
492.963	798.88
493.18	814.88
493.398	819.88
493.615	823.88
493.833	840.88
494.05	839.88
494.268	820.88
494.485	807.88
494.703	839.88
494.92	820.88
495.138	818.88
495.355	806.88
495.573	832.88
495.79	804.88
496.008	842.88
496.225	825.88
496.442	824.88
496.66	837.88
496.877	830.88
497.094	885.88
497.312	840.88
497.529	856.88
497.746	848.88
497.963	862.88
498.181	877.88
498.398	910.88
498.615	924.88
498.832	944.88
499.049	966.88
499.267	979.88
499.484	1014.88
499.701	1037.88
499.918	1081.88
500.135	1103.88
500.352	1147.88
500.569	1176.88
500.786	1198.88
501.003	1184.88
501.22	1162.88
501.437	1129.88
501.654	1084.88
501.871	1034.88
502.088	1018.88
502.305	1027.88
502.522	964.88
502.739	909.88
502.956	899.88
503.172	918.88
503.389	890.88
503.606	873.88
503.823	865.88
504.04	861.88
504.256	861.88
504.473	829.88
504.69	834.88
504.907	833.88
505.123	800.88
505.34	806.88
505.557	801.88
505.773	784.88
505.99	792.88
506.207	826.88
506.423	812.88
506.64	798.88
506.856	794.88
507.073	769.88
507.289	797.88
507.506	769.88
507.722	765.88
507.939	783.88
508.155	756.88
508.372	783.88
508.588	761.88
508.805	753.88
509.021	751.88
509.238	776.88
509.454	780.88
509.67	757.88
509.887	733.88
510.103	732.88
510.319	738.88
510.536	839.88
510.752	1308.88
510.968	1074.88
511.184	735.88
511.401	704.88
511.617	713.88
511.833	702.88
512.049	704.88
512.265	715.88
512.481	701.88
512.698	688.88
512.914	702.88
513.13	684.88
513.346	678.88
513.562	697.88
513.778	673.88
513.994	687.88
514.21	720.88
514.426	730.88
514.642	769.88
514.858	794.88
515.074	827.88
515.29	956.88
515.506	1364.88
515.721	1160.88
515.937	827.88
516.153	770.88
516.369	734.88
516.585	721.88
516.801	707.88
517.016	737.88
517.232	729.88
517.448	741.88
517.664	731.88
517.879	730.88
518.095	728.88
518.311	729.88
518.527	697.88
518.742	715.88
518.958	705.88
519.173	714.88
519.389	688.88
519.605	689.88
519.82	686.88
520.036	709.88
520.251	751.88
520.467	781.88
520.682	740.88
520.898	765.88
521.113	780.88
521.329	830.88
521.544	914.88
521.76	1088.88
521.975	1717.88
522.19	1710.88
522.406	1007.88
522.621	778.88
522.836	728.88
523.052	684.88
523.267	679.88
523.482	664.88
523.698	613.88
523.913	637.88
524.128	628.88
524.343	612.88
524.559	632.88
524.774	606.88
524.989	626.88
525.204	625.88
525.419	616.88
525.634	616.88
525.849	600.88
526.064	618.88
526.28	592.88
526.495	575.88
526.71	562.88
526.925	585.88
527.14	581.88
527.355	571.88
527.57	572.88
527.785	602.88
527.999	590.88
528.214	597.88
528.429	575.88
528.644	571.88
528.859	584.88
529.074	591.88
529.289	613.88
529.503	664.88
529.718	654.88
529.933	608.88
530.148	588.88
530.363	589.88
530.577	574.88
530.792	550.88
531.007	558.88
531.221	553.88
531.436	582.88
531.651	564.88
531.865	569.88
532.08	558.88
532.295	564.88
532.509	560.88
532.724	552.88
532.938	548.88
533.153	548.88
533.367	546.88
533.582	557.88
533.796	550.88
534.011	564.88
534.225	554.88
534.44	543.88
534.654	523.88
534.868	537.88
535.083	552.88
535.297	551.88
535.511	552.88
535.726	570.88
535.94	540.88
536.154	554.88
536.369	543.88
536.583	552.88
536.797	551.88
537.011	558.88
537.225	526.88
537.44	533.88
537.654	553.88
537.868	533.88
538.082	539.88
538.296	537.88
538.51	540.88
538.724	535.88
538.938	523.88
539.153	525.88
539.367	540.88
539.581	540.88
539.795	516.88
540.009	522.88
540.222	518.88
540.436	519.88
540.65	531.88
540.864	524.88
541.078	548.88
541.292	529.88
541.506	531.88
541.72	500.88
541.934	497.88
542.147	532.88
542.361	521.88
542.575	500.88
542.789	510.88
543.002	527.88
543.216	513.88
543.43	527.88
543.644	534.88
543.857	522.88
544.071	516.88
544.285	530.88
544.498	517.88
544.712	498.88
544.925	490.88
545.139	511.88
545.352	495.88
545.566	496.88
545.779	509.88
545.993	514.88
546.206	532.88
546.42	530.88
546.633	508.88
546.847	493.88
547.06	477.88
547.274	493.88
547.487	500.88
547.7	517.88
547.914	516.88
548.127	525.88
548.34	512.88
548.554	504.88
548.767	512.88
548.98	502.88
549.193	515.88
549.407	490.88
549.62	486.88
549.833	528.88
550.046	501.88
550.259	508.88
550.473	496.88
550.686	502.88
550.899	497.88
551.112	499.88
551.325	479.88
551.538	488.88
551.751	487.88
551.964	487.88
552.177	472.88
552.39	493.88
552.603	508.88
552.816	525.88
553.029	537.88
553.242	509.88
553.455	519.88
553.667	507.88
553.88	534.88
554.093	509.88
554.306	491.88
554.519	498.88
554.732	496.88
554.944	497.88
555.157	473.88
555.37	489.88
555.583	486.88
555.795	495.88
556.008	489.88
556.221	471.88
556.433	473.88
556.646	460.88
556.859	458.88
557.071	437.88
557.284	462.88
557.496	453.88
557.709	437.88
557.921	448.88
558.134	452.88
558.346	464.88
558.559	475.88
558.771	465.88
558.984	456.88
559.196	445.88
559.409	458.88
559.621	454.88
559.833	445.88
560.046	442.88
560.258	444.88
560.47	442.88
560.683	453.88
560.895	447.88
561.107	441.88
561.32	470.88
561.532	458.88
561.744	452.88
561.956	456.88
562.168	447.88
562.381	455.88
562.593	446.88
562.805	447.88
563.017	467.88
563.229	429.88
563.441	452.88
563.653	458.88
563.865	447.88
564.077	462.88
564.289	457.88
564.501	437.88
564.713	474.88
564.925	478.88
565.137	495.88
565.349	473.88
565.561	475.88
565.773	512.88
565.985	507.88
566.197	526.88
566.408	537.88
566.62	555.88
566.832	554.88
567.044	587.88
567.255	570.88
567.467	568.88
567.679	548.88
567.891	595.88
568.102	576.88
568.314	580.88
568.526	540.88
568.737	537.88
568.949	528.88
569.161	487.88
569.372	488.88
569.584	462.88
569.795	468.88
570.007	468.88
570.218	491.88
570.43	472.88
570.641	446.88
570.853	458.88
571.064	443.88
571.276	461.88
571.487	440.88
571.698	426.88
571.91	429.88
572.121	432.88
572.333	417.88
572.544	410.88
572.755	402.88
572.966	390.88
573.178	381.88
573.389	393.88
573.6	400.88
573.811	406.88
574.023	395.88
574.234	392.88
574.445	388.88
574.656	398.88
574.867	386.88
575.078	382.88
575.289	396.88
575.501	382.88
575.712	385.88
575.923	379.88
576.134	377.88
576.345	380.88
576.556	397.88
576.767	363.88
576.978	382.88
577.188	378.88
577.399	379.88
577.61	364.88
577.821	352.88
578.032	368.88
578.243	393.88
578.454	622.88
578.665	452.88
578.875	379.88
579.086	373.88
579.297	384.88
579.508	358.88
579.718	357.88
579.929	370.88
580.14	344.88
580.35	359.88
580.561	348.88
580.772	360.88
580.982	347.88
581.193	361.88
581.403	337.88
581.614	345.88
581.825	365.88
582.035	346.88
582.246	332.88
582.456	328.88
582.667	336.88
582.877	374.88
583.087	360.88
583.298	351.88
583.508	350.88
583.719	348.88
583.929	356.88
584.139	352.88
584.35	330.88
584.56	340.88
584.77	338.88
584.981	326.88
585.191	334.88
585.401	349.88
585.611	342.88
585.821	337.88
586.032	326.88
586.242	358.88
586.452	347.88
586.662	330.88
586.872	333.88
587.082	326.88
587.292	329.88
587.502	345.88
587.713	336.88
587.923	349.88
588.133	351.88
588.343	335.88
588.553	337.88
588.762	322.88
588.972	335.88
589.182	348.88
589.392	357.88
589.602	342.88
589.812	337.88
590.022	346.88
590.232	345.88
590.441	335.88
590.651	328.88
590.861	315.88
591.071	334.88
591.281	328.88
591.49	321.88
591.7	327.88
591.91	337.88
592.119	372.88
592.329	350.88
592.539	348.88
592.748	366.88
592.958	368.88
593.167	348.88
593.377	361.88
593.587	355.88
593.796	345.88
594.006	350.88
594.215	356.88
594.424	345.88
594.634	359.88
594.843	380.88
595.053	345.88
595.262	340.88
595.472	329.88
595.681	326.88
595.89	328.88
596.1	352.88
596.309	310.88
596.518	311.88
596.727	311.88
596.937	328.88
597.146	337.88
597.355	327.88
597.564	312.88
597.774	303.88
597.983	325.88
598.192	310.88
598.401	314.88
598.61	299.88
598.819	312.88
599.028	292.88
599.237	303.88
599.446	295.88
599.655	317.88
599.864	300.88
600.073	298.88
600.282	286.88
600.491	296.88
600.7	313.88
600.909	281.88
601.118	302.88
601.327	297.88
601.536	290.88
601.745	296.88
601.953	276.88
602.162	266.88
602.371	299.88
602.58	301.88
602.789	290.88
602.997	287.88
603.206	282.88
603.415	272.88
603.623	300.88
603.832	288.88
604.041	287.88
604.249	286.88
604.458	292.88
604.666	287.88
604.875	270.88
605.084	277.88
605.292	271.88
605.501	300.88
605.709	276.88
605.918	282.88
606.126	302.88
606.334	273.88
606.543	280.88
606.751	284.88
606.96	260.88
607.168	267.88
607.376	272.88
607.585	286.88
607.793	268.88
608.001	289.88
608.21	269.88
608.418	274.88
608.626	281.88
608.834	272.88
609.043	270.88
609.251	269.88
609.459	266.88
609.667	267.88
609.875	264.88
610.083	284.88
610.291	262.88
610.499	268.88
610.707	286.88
610.916	270.88
611.124	277.88
611.332	256.88
611.54	278.88
611.748	272.88
611.955	285.88
612.163	282.88
612.371	275.88
612.579	270.88
612.787	268.88
612.995	274.88
613.203	271.88
613.411	241.88
613.618	266.88
613.826	270.88
614.034	280.88
614.242	269.88
614.449	268.88
614.657	259.88
614.865	255.88
615.072	260.88
615.28	262.88
615.488	268.88
615.695	268.88
615.903	267.88
616.111	269.88
616.318	280.88
616.526	276.88
616.733	261.88
616.941	274.88
617.148	280.88
617.356	264.88
617.563	256.88
617.771	250.88
617.978	259.88
618.185	267.88
618.393	274.88
618.6	268.88
618.807	260.88
619.015	253.88
619.222	261.88
619.429	241.88
619.637	258.88
619.844	258.88
620.051	265.88
620.258	252.88
620.466	239.88
620.673	241.88
620.88	248.88
621.087	241.88
621.294	275.88
621.501	257.88
621.708	258.88
621.915	233.88
622.122	264.88
622.329	276.88
622.536	264.88
622.743	246.88
622.95	248.88
623.157	236.88
623.364	249.88
623.571	229.88
623.778	233.88
623.985	237.88
624.192	247.88
624.399	252.88
624.606	248.88
624.812	244.88
625.019	256.88
625.226	241.88
625.433	224.88
625.639	234.88
625.846	224.88
626.053	228.88
626.259	257.88
626.466	237.88
626.673	237.88
626.879	241.88
627.086	223.88
627.293	232.88
627.499	230.88
627.706	225.88
627.912	240.88
628.119	225.88
628.325	227.88
628.532	225.88
628.738	231.88
628.945	230.88
629.151	210.88
629.357	227.88
629.564	222.88
629.77	227.88
629.976	227.88
630.183	206.88
630.389	221.88
630.595	214.88
630.802	220.88
631.008	224.88
631.214	218.88
631.42	201.88
631.627	225.88
631.833	205.88
632.039	210.88
632.245	218.88
632.451	224.88
632.657	210.88
632.863	220.88
633.069	209.88
633.275	197.88
633.481	213.88
633.688	221.88
633.893	221.88
634.099	225.88
634.305	197.88
634.511	215.88
634.717	204.88
634.923	211.88
635.129	201.88
635.335	197.88
635.541	191.88
635.747	198.88
635.952	207.88
636.158	210.88
636.364	200.88
636.57	208.88
636.775	215.88
636.981	217.88
637.187	208.88
637.392	196.88
637.598	204.88
637.804	216.88
638.009	194.88
638.215	195.88
638.421	192.88
638.626	206.88
638.832	183.88
639.037	198.88
639.243	188.88
639.448	197.88
639.654	175.88
639.859	192.88
640.065	194.88
640.27	192.88
640.475	196.88
640.681	198.88
640.886	198.88
641.091	182.88
641.297	197.88
641.502	197.88
641.707	190.88
641.913	180.88
642.118	196.88
642.323	193.88
642.528	178.88
642.733	193.88
642.939	215.88
643.144	184.88
643.349	196.88
643.554	204.88
643.759	197.88
643.964	196.88
644.169	185.88
644.374	169.88
644.579	184.88
644.784	177.88
644.989	190.88
645.194	196.88
645.399	182.88
645.604	177.88
645.809	188.88
646.014	190.88
646.219	189.88
646.423	187.88
646.628	183.88
646.833	175.88
647.038	186.88
647.243	189.88
647.447	168.88
647.652	188.88
647.857	181.88
648.062	174.88
648.266	169.88
648.471	190.88
648.676	199.88
648.88	191.88
649.085	197.88
649.289	192.88
649.494	204.88
649.698	212.88
649.903	202.88
650.107	198.88
650.312	192.88
650.516	184.88
650.721	164.88
650.925	174.88
651.13	181.88
651.334	166.88
651.539	159.88
651.743	170.88
651.947	144.88
652.152	168.88
652.356	146.88
652.56	156.88
652.764	173.88
652.969	155.88
653.173	150.88
653.377	154.88
653.581	146.88
653.785	159.88
653.99	156.88
654.194	163.88
654.398	146.88
654.602	161.88
654.806	145.88
655.01	146.88
655.214	149.88
655.418	161.88
655.622	149.88
655.826	131.88
656.03	141.88
656.234	144.88
656.438	154.88
656.642	150.88
656.846	147.88
657.049	142.88
657.253	120.88
657.457	138.88
657.661	132.88
657.865	126.88
658.068	132.88
658.272	114.88
658.476	102.88
658.68	110.88
658.883	105.88
659.087	118.88
659.291	106.88
659.494	114.88
659.698	112.88
659.901	108.88
660.105	103.88
660.309	101.88
660.512	118.88
660.716	110.88
660.919	88.88
661.123	94.88
661.326	90.88
661.53	95.88
661.733	90.88
661.936	98.88
662.14	109.88
662.343	87.88
662.546	94.88
662.75	78.88
662.953	88.88
663.156	81.88
663.36	81.88
663.563	89.88
663.766	88.88
663.969	82.88
664.173	87.88
664.376	82.88
664.579	88.88
664.782	91.88
664.985	98.88
665.188	87.88
665.391	85.88
665.594	68.88
665.797	93.88
666	89.88
666.203	75.88
666.406	88.88
666.609	84.88
666.812	89.88
667.015	83.88
667.218	81.88
667.421	92.88
667.624	82.88
667.827	76.88
668.03	94.88
668.232	76.88
668.435	81.88
668.638	87.88
668.841	72.88
669.043	89.88
669.246	73.88
669.449	86.88
669.651	97.88
669.854	100.88
670.057	92.88
670.259	90.88
670.462	98.88
670.665	80.88
670.867	89.88
671.07	85.88
671.272	87.88
671.475	87.88
671.677	80.88
671.88	80.88
672.082	70.88
672.284	82.88
672.487	82.88
672.689	73.88
672.892	89.88
