Data from 1966.PennyLincolnUp.Lamp.En5.5.200Scan.071719.P1._HRD10591_14-15-04-920.txt Node
Date: Thu Jul 18 14:15:04 EDT 2019
User: cochatt
Spectrometer: HR+D1059
Trigger mode: 1
Integration Time (sec): 1.000000E-1
Scans to average: 1
Electric dark correction enabled: true
Nonlinearity correction enabled: false
Boxcar width: 0
XAxis mode: Wavelengths
Number of Pixels in Spectrum: 2048
>>>>>Begin Spectral Data<<<<<
223.165	-6.12
223.4	-6.12
223.635	-6.12
223.869	-16.12
224.104	-15.12
224.338	-15.12
224.573	-32.12
224.808	-13.12
225.042	-11.12
225.277	0.88
225.511	2.88
225.746	-0.12
225.98	3.88
226.215	14.88
226.449	22.88
226.683	13.88
226.918	24.88
227.152	24.88
227.387	40.88
227.621	40.88
227.856	43.88
228.09	39.88
228.324	39.88
228.559	60.88
228.793	58.88
229.027	69.88
229.262	82.88
229.496	102.88
229.73	91.88
229.964	109.88
230.199	97.88
230.433	91.88
230.667	97.88
230.901	82.88
231.136	79.88
231.37	91.88
231.604	92.88
231.838	92.88
232.072	97.88
232.306	87.88
232.541	83.88
232.775	86.88
233.009	90.88
233.243	90.88
233.477	104.88
233.711	93.88
233.945	91.88
234.179	103.88
234.413	111.88
234.647	90.88
234.881	98.88
235.115	107.88
235.349	108.88
235.583	100.88
235.817	91.88
236.051	103.88
236.285	97.88
236.519	90.88
236.753	110.88
236.987	82.88
237.221	130.88
237.455	139.88
237.689	112.88
237.922	88.88
238.156	99.88
238.39	84.88
238.624	107.88
238.858	97.88
239.091	106.88
239.325	106.88
239.559	103.88
239.793	99.88
240.027	92.88
240.26	116.88
240.494	118.88
240.728	108.88
240.961	101.88
241.195	111.88
241.429	116.88
241.662	113.88
241.896	105.88
242.13	100.88
242.363	112.88
242.597	102.88
242.83	95.88
243.064	117.88
243.298	90.88
243.531	93.88
243.765	99.88
243.998	110.88
244.232	100.88
244.465	109.88
244.699	120.88
244.932	112.88
245.166	107.88
245.399	122.88
245.633	104.88
245.866	119.88
246.099	105.88
246.333	114.88
246.566	100.88
246.8	109.88
247.033	113.88
247.266	111.88
247.5	110.88
247.733	126.88
247.966	103.88
248.2	108.88
248.433	105.88
248.666	117.88
248.899	132.88
249.133	135.88
249.366	125.88
249.599	133.88
249.832	125.88
250.066	118.88
250.299	134.88
250.532	141.88
250.765	137.88
250.998	138.88
251.231	141.88
251.465	124.88
251.698	125.88
251.931	123.88
252.164	139.88
252.397	129.88
252.63	123.88
252.863	129.88
253.096	128.88
253.329	128.88
253.562	153.88
253.795	151.88
254.028	135.88
254.261	126.88
254.494	134.88
254.727	159.88
254.96	150.88
255.193	157.88
255.426	130.88
255.659	148.88
255.892	143.88
256.124	139.88
256.357	154.88
256.59	124.88
256.823	136.88
257.056	123.88
257.289	126.88
257.521	134.88
257.754	139.88
257.987	130.88
258.22	126.88
258.452	118.88
258.685	118.88
258.918	130.88
259.151	121.88
259.383	150.88
259.616	142.88
259.849	137.88
260.081	149.88
260.314	150.88
260.547	154.88
260.779	149.88
261.012	123.88
261.244	156.88
261.477	147.88
261.71	143.88
261.942	146.88
262.175	156.88
262.407	141.88
262.64	131.88
262.872	134.88
263.105	151.88
263.337	123.88
263.57	150.88
263.802	147.88
264.035	129.88
264.267	127.88
264.499	131.88
264.732	145.88
264.964	130.88
265.197	128.88
265.429	142.88
265.661	128.88
265.894	134.88
266.126	141.88
266.358	133.88
266.591	147.88
266.823	120.88
267.055	146.88
267.287	143.88
267.52	138.88
267.752	134.88
267.984	134.88
268.216	132.88
268.448	137.88
268.681	134.88
268.913	136.88
269.145	175.88
269.377	157.88
269.609	164.88
269.841	145.88
270.073	148.88
270.306	165.88
270.538	186.88
270.77	190.88
271.002	172.88
271.234	173.88
271.466	176.88
271.698	188.88
271.93	194.88
272.162	174.88
272.394	204.88
272.626	155.88
272.858	165.88
273.09	157.88
273.322	169.88
273.553	175.88
273.785	149.88
274.017	158.88
274.249	150.88
274.481	159.88
274.713	138.88
274.945	155.88
275.176	152.88
275.408	162.88
275.64	176.88
275.872	152.88
276.104	153.88
276.335	169.88
276.567	162.88
276.799	176.88
277.031	185.88
277.262	195.88
277.494	173.88
277.726	166.88
277.957	172.88
278.189	161.88
278.421	167.88
278.652	163.88
278.884	156.88
279.115	155.88
279.347	153.88
279.579	169.88
279.81	150.88
280.042	166.88
280.273	149.88
280.505	166.88
280.736	154.88
280.968	164.88
281.199	163.88
281.431	154.88
281.662	158.88
281.894	161.88
282.125	153.88
282.356	167.88
282.588	173.88
282.819	173.88
283.051	172.88
283.282	168.88
283.513	165.88
283.745	151.88
283.976	167.88
284.207	164.88
284.439	163.88
284.67	170.88
284.901	160.88
285.132	161.88
285.364	148.88
285.595	161.88
285.826	170.88
286.057	168.88
286.288	156.88
286.52	170.88
286.751	157.88
286.982	170.88
287.213	166.88
287.444	169.88
287.675	167.88
287.906	168.88
288.138	182.88
288.369	178.88
288.6	156.88
288.831	168.88
289.062	171.88
289.293	181.88
289.524	162.88
289.755	169.88
289.986	178.88
290.217	183.88
290.448	162.88
290.679	166.88
290.91	172.88
291.141	164.88
291.371	178.88
291.602	172.88
291.833	176.88
292.064	174.88
292.295	166.88
292.526	177.88
292.757	176.88
292.987	174.88
293.218	164.88
293.449	167.88
293.68	174.88
293.91	171.88
294.141	166.88
294.372	158.88
294.603	162.88
294.833	164.88
295.064	161.88
295.295	161.88
295.525	163.88
295.756	169.88
295.987	198.88
296.217	210.88
296.448	200.88
296.679	174.88
296.909	168.88
297.14	177.88
297.37	188.88
297.601	183.88
297.831	176.88
298.062	172.88
298.292	187.88
298.523	168.88
298.753	184.88
298.984	172.88
299.214	181.88
299.445	181.88
299.675	193.88
299.905	188.88
300.136	174.88
300.366	176.88
300.597	164.88
300.827	194.88
301.057	178.88
301.288	191.88
301.518	177.88
301.748	190.88
301.979	186.88
302.209	184.88
302.439	193.88
302.669	182.88
302.9	183.88
303.13	174.88
303.36	192.88
303.59	196.88
303.82	191.88
304.051	204.88
304.281	192.88
304.511	167.88
304.741	186.88
304.971	180.88
305.201	185.88
305.431	186.88
305.661	188.88
305.891	188.88
306.121	164.88
306.352	186.88
306.582	194.88
306.812	182.88
307.042	199.88
307.272	186.88
307.502	181.88
307.731	171.88
307.961	184.88
308.191	186.88
308.421	167.88
308.651	197.88
308.881	196.88
309.111	180.88
309.341	193.88
309.571	187.88
309.8	184.88
310.03	203.88
310.26	212.88
310.49	201.88
310.72	200.88
310.949	236.88
311.179	202.88
311.409	216.88
311.639	206.88
311.868	210.88
312.098	211.88
312.328	211.88
312.557	221.88
312.787	242.88
313.017	213.88
313.246	192.88
313.476	221.88
313.706	197.88
313.935	206.88
314.165	207.88
314.394	232.88
314.624	238.88
314.853	219.88
315.083	210.88
315.312	213.88
315.542	211.88
315.771	195.88
316.001	197.88
316.23	194.88
316.46	195.88
316.689	217.88
316.919	208.88
317.148	213.88
317.377	224.88
317.607	204.88
317.836	212.88
318.065	189.88
318.295	186.88
318.524	194.88
318.753	217.88
318.983	197.88
319.212	220.88
319.441	217.88
319.67	204.88
319.9	193.88
320.129	186.88
320.358	201.88
320.587	212.88
320.816	218.88
321.046	222.88
321.275	221.88
321.504	192.88
321.733	216.88
321.962	223.88
322.191	226.88
322.42	219.88
322.649	233.88
322.878	256.88
323.108	229.88
323.337	249.88
323.566	264.88
323.795	281.88
324.024	308.88
324.253	378.88
324.482	490.88
324.71	785.88
324.939	1040.88
325.168	875.88
325.397	442.88
325.626	301.88
325.855	276.88
326.084	253.88
326.313	247.88
326.542	262.88
326.77	281.88
326.999	340.88
327.228	483.88
327.457	692.88
327.686	783.88
327.914	513.88
328.143	348.88
328.372	338.88
328.6	299.88
328.829	294.88
329.058	300.88
329.287	329.88
329.515	278.88
329.744	278.88
329.972	271.88
330.201	303.88
330.43	327.88
330.658	342.88
330.887	348.88
331.115	350.88
331.344	270.88
331.572	257.88
331.801	268.88
332.03	260.88
332.258	248.88
332.486	238.88
332.715	236.88
332.943	253.88
333.172	245.88
333.4	231.88
333.629	245.88
333.857	268.88
334.085	269.88
334.314	279.88
334.542	309.88
334.771	328.88
334.999	272.88
335.227	275.88
335.455	258.88
335.684	253.88
335.912	224.88
336.14	230.88
336.369	245.88
336.597	253.88
336.825	237.88
337.053	229.88
337.281	231.88
337.51	214.88
337.738	244.88
337.966	235.88
338.194	245.88
338.422	249.88
338.65	242.88
338.878	217.88
339.106	222.88
339.334	233.88
339.562	226.88
339.79	231.88
340.018	223.88
340.246	228.88
340.474	222.88
340.702	229.88
340.93	222.88
341.158	231.88
341.386	222.88
341.614	229.88
341.842	223.88
342.07	219.88
342.298	224.88
342.526	212.88
342.754	205.88
342.981	232.88
343.209	217.88
343.437	217.88
343.665	206.88
343.893	215.88
344.12	235.88
344.348	244.88
344.576	213.88
344.804	212.88
345.031	245.88
345.259	238.88
345.487	238.88
345.714	218.88
345.942	207.88
346.17	221.88
346.397	212.88
346.625	211.88
346.853	226.88
347.08	211.88
347.308	218.88
347.535	227.88
347.763	232.88
347.99	234.88
348.218	221.88
348.445	225.88
348.673	236.88
348.9	221.88
349.128	205.88
349.355	216.88
349.583	213.88
349.81	217.88
350.037	221.88
350.265	193.88
350.492	214.88
350.72	205.88
350.947	213.88
351.174	225.88
351.402	244.88
351.629	228.88
351.856	225.88
352.083	226.88
352.311	231.88
352.538	224.88
352.765	241.88
352.992	225.88
353.22	211.88
353.447	210.88
353.674	212.88
353.901	200.88
354.128	218.88
354.355	197.88
354.583	192.88
354.81	194.88
355.037	195.88
355.264	199.88
355.491	201.88
355.718	197.88
355.945	201.88
356.172	198.88
356.399	193.88
356.626	194.88
356.853	204.88
357.08	216.88
357.307	201.88
357.534	199.88
357.761	195.88
357.988	217.88
358.215	205.88
358.441	189.88
358.668	205.88
358.895	199.88
359.122	222.88
359.349	215.88
359.576	225.88
359.802	247.88
360.029	248.88
360.256	261.88
360.483	238.88
360.709	215.88
360.936	214.88
361.163	218.88
361.39	220.88
361.616	229.88
361.843	238.88
362.07	222.88
362.296	216.88
362.523	220.88
362.749	203.88
362.976	226.88
363.203	228.88
363.429	202.88
363.656	193.88
363.882	213.88
364.109	222.88
364.335	199.88
364.562	206.88
364.788	213.88
365.015	212.88
365.241	208.88
365.468	219.88
365.694	212.88
365.92	198.88
366.147	212.88
366.373	202.88
366.599	193.88
366.826	194.88
367.052	190.88
367.278	203.88
367.505	214.88
367.731	206.88
367.957	204.88
368.184	204.88
368.41	234.88
368.636	208.88
368.862	218.88
369.089	227.88
369.315	196.88
369.541	199.88
369.767	200.88
369.993	198.88
370.219	227.88
370.445	208.88
370.672	196.88
370.898	209.88
371.124	197.88
371.35	201.88
371.576	199.88
371.802	198.88
372.028	196.88
372.254	204.88
372.48	209.88
372.706	210.88
372.932	211.88
373.158	197.88
373.384	199.88
373.61	204.88
373.835	204.88
374.061	219.88
374.287	209.88
374.513	195.88
374.739	214.88
374.965	217.88
375.191	206.88
375.416	208.88
375.642	205.88
375.868	213.88
376.094	201.88
376.319	197.88
376.545	195.88
376.771	223.88
376.997	213.88
377.222	203.88
377.448	210.88
377.674	200.88
377.899	193.88
378.125	200.88
378.35	192.88
378.576	205.88
378.802	195.88
379.027	203.88
379.253	190.88
379.478	188.88
379.704	200.88
379.929	192.88
380.155	198.88
380.38	198.88
380.606	220.88
380.831	208.88
381.057	228.88
381.282	207.88
381.507	195.88
381.733	218.88
381.958	202.88
382.184	210.88
382.409	216.88
382.634	201.88
382.86	190.88
383.085	208.88
383.31	215.88
383.535	215.88
383.761	201.88
383.986	222.88
384.211	221.88
384.436	202.88
384.662	230.88
384.887	211.88
385.112	213.88
385.337	208.88
385.562	208.88
385.787	219.88
386.013	208.88
386.238	232.88
386.463	232.88
386.688	217.88
386.913	212.88
387.138	224.88
387.363	216.88
387.588	221.88
387.813	214.88
388.038	214.88
388.263	215.88
388.488	217.88
388.713	222.88
388.938	199.88
389.163	219.88
389.387	204.88
389.612	225.88
389.837	213.88
390.062	216.88
390.287	211.88
390.512	217.88
390.736	213.88
390.961	225.88
391.186	213.88
391.411	206.88
391.636	235.88
391.86	209.88
392.085	227.88
392.31	221.88
392.534	218.88
392.759	223.88
392.984	220.88
393.208	225.88
393.433	228.88
393.658	223.88
393.882	230.88
394.107	208.88
394.331	220.88
394.556	211.88
394.78	199.88
395.005	229.88
395.229	214.88
395.454	228.88
395.678	200.88
395.903	232.88
396.127	232.88
396.352	256.88
396.576	236.88
396.801	218.88
397.025	216.88
397.249	213.88
397.474	225.88
397.698	222.88
397.922	231.88
398.147	241.88
398.371	243.88
398.595	241.88
398.82	262.88
399.044	248.88
399.268	240.88
399.492	300.88
399.717	283.88
399.941	277.88
400.165	272.88
400.389	269.88
400.613	279.88
400.837	240.88
401.062	261.88
401.286	248.88
401.51	248.88
401.734	241.88
401.958	246.88
402.182	243.88
402.406	261.88
402.63	256.88
402.854	247.88
403.078	260.88
403.302	262.88
403.526	254.88
403.75	279.88
403.974	250.88
404.198	246.88
404.422	274.88
404.645	281.88
404.869	274.88
405.093	265.88
405.317	296.88
405.541	295.88
405.765	269.88
405.988	268.88
406.212	293.88
406.436	287.88
406.66	295.88
406.883	298.88
407.107	276.88
407.331	296.88
407.555	334.88
407.778	324.88
408.002	297.88
408.226	279.88
408.449	281.88
408.673	273.88
408.896	297.88
409.12	308.88
409.344	282.88
409.567	261.88
409.791	247.88
410.014	246.88
410.238	243.88
410.461	241.88
410.685	262.88
410.908	266.88
411.132	275.88
411.355	293.88
411.578	288.88
411.802	228.88
412.025	232.88
412.249	262.88
412.472	261.88
412.695	296.88
412.919	277.88
413.142	267.88
413.365	242.88
413.589	252.88
413.812	246.88
414.035	247.88
414.258	259.88
414.482	218.88
414.705	239.88
414.928	260.88
415.151	252.88
415.374	270.88
415.597	226.88
415.821	243.88
416.044	237.88
416.267	233.88
416.49	252.88
416.713	237.88
416.936	242.88
417.159	228.88
417.382	235.88
417.605	263.88
417.828	268.88
418.051	261.88
418.274	246.88
418.497	234.88
418.72	246.88
418.943	241.88
419.166	245.88
419.389	258.88
419.611	255.88
419.834	251.88
420.057	257.88
420.28	249.88
420.503	242.88
420.726	267.88
420.948	256.88
421.171	270.88
421.394	276.88
421.617	259.88
421.839	273.88
422.062	268.88
422.285	262.88
422.507	284.88
422.73	322.88
422.953	292.88
423.175	261.88
423.398	275.88
423.621	272.88
423.843	271.88
424.066	280.88
424.288	278.88
424.511	274.88
424.733	294.88
424.956	331.88
425.178	302.88
425.401	329.88
425.623	318.88
425.846	259.88
426.068	267.88
426.291	258.88
426.513	266.88
426.735	260.88
426.958	286.88
427.18	316.88
427.402	382.88
427.625	413.88
427.847	361.88
428.069	326.88
428.292	283.88
428.514	274.88
428.736	260.88
428.958	261.88
429.181	237.88
429.403	253.88
429.625	256.88
429.847	286.88
430.069	313.88
430.292	308.88
430.514	240.88
430.736	268.88
430.958	230.88
431.18	237.88
431.402	232.88
431.624	225.88
431.846	221.88
432.068	230.88
432.29	235.88
432.512	253.88
432.734	248.88
432.956	242.88
433.178	246.88
433.4	260.88
433.622	254.88
433.844	250.88
434.066	232.88
434.287	233.88
434.509	242.88
434.731	235.88
434.953	258.88
435.175	256.88
435.397	283.88
435.618	270.88
435.84	289.88
436.062	350.88
436.284	340.88
436.505	286.88
436.727	268.88
436.949	249.88
437.17	265.88
437.392	273.88
437.614	262.88
437.835	280.88
438.057	313.88
438.278	355.88
438.5	332.88
438.721	364.88
438.943	347.88
439.165	300.88
439.386	300.88
439.608	271.88
439.829	270.88
440.05	291.88
440.272	311.88
440.493	287.88
440.715	274.88
440.936	250.88
441.158	250.88
441.379	260.88
441.6	254.88
441.822	282.88
442.043	278.88
442.264	320.88
442.486	335.88
442.707	293.88
442.928	282.88
443.149	285.88
443.371	284.88
443.592	301.88
443.813	354.88
444.034	361.88
444.255	288.88
444.476	267.88
444.698	280.88
444.919	274.88
445.14	372.88
445.361	328.88
445.582	291.88
445.803	322.88
446.024	370.88
446.245	359.88
446.466	314.88
446.687	302.88
446.908	263.88
447.129	249.88
447.35	246.88
447.571	249.88
447.792	237.88
448.013	268.88
448.234	262.88
448.455	276.88
448.675	329.88
448.896	377.88
449.117	300.88
449.338	318.88
449.559	346.88
449.779	376.88
450	315.88
450.221	260.88
450.442	244.88
450.662	240.88
450.883	250.88
451.104	267.88
451.324	262.88
451.545	231.88
451.766	245.88
451.986	240.88
452.207	225.88
452.428	217.88
452.648	222.88
452.869	231.88
453.089	225.88
453.31	240.88
453.53	237.88
453.751	211.88
453.971	227.88
454.192	253.88
454.412	249.88
454.633	224.88
454.853	218.88
455.073	220.88
455.294	233.88
455.514	268.88
455.734	269.88
455.955	228.88
456.175	223.88
456.395	214.88
456.616	207.88
456.836	222.88
457.056	206.88
457.276	210.88
457.497	214.88
457.717	214.88
457.937	213.88
458.157	213.88
458.377	206.88
458.598	226.88
458.818	275.88
459.038	348.88
459.258	321.88
459.478	265.88
459.698	241.88
459.918	225.88
460.138	234.88
460.358	249.88
460.578	220.88
460.798	239.88
461.018	256.88
461.238	237.88
461.458	243.88
461.678	226.88
461.898	237.88
462.118	237.88
462.338	243.88
462.558	235.88
462.777	248.88
462.997	269.88
463.217	242.88
463.437	256.88
463.657	268.88
463.876	272.88
464.096	269.88
464.316	254.88
464.536	257.88
464.755	264.88
464.975	276.88
465.195	299.88
465.414	364.88
465.634	304.88
465.854	254.88
466.073	227.88
466.293	254.88
466.512	222.88
466.732	240.88
466.951	258.88
467.171	256.88
467.391	230.88
467.61	247.88
467.829	243.88
468.049	241.88
468.268	260.88
468.488	240.88
468.707	237.88
468.927	223.88
469.146	221.88
469.365	233.88
469.585	225.88
469.804	237.88
470.023	229.88
470.243	234.88
470.462	244.88
470.681	261.88
470.901	256.88
471.12	245.88
471.339	244.88
471.558	226.88
471.777	237.88
471.997	233.88
472.216	230.88
472.435	302.88
472.654	259.88
472.873	258.88
473.092	251.88
473.311	236.88
473.53	234.88
473.749	227.88
473.968	265.88
474.187	325.88
474.406	322.88
474.625	275.88
474.844	235.88
475.063	245.88
475.282	232.88
475.501	235.88
475.72	242.88
475.939	235.88
476.158	234.88
476.377	230.88
476.596	241.88
476.814	251.88
477.033	250.88
477.252	242.88
477.471	241.88
477.69	236.88
477.908	236.88
478.127	250.88
478.346	257.88
478.564	241.88
478.783	261.88
479.002	265.88
479.22	257.88
479.439	268.88
479.658	280.88
479.876	269.88
480.095	272.88
480.313	292.88
480.532	305.88
480.751	292.88
480.969	290.88
481.188	344.88
481.406	377.88
481.624	312.88
481.843	284.88
482.061	282.88
482.28	275.88
482.498	274.88
482.717	264.88
482.935	270.88
483.153	284.88
483.372	257.88
483.59	269.88
483.808	281.88
484.027	280.88
484.245	269.88
484.463	270.88
484.681	261.88
484.9	260.88
485.118	288.88
485.336	295.88
485.554	283.88
485.772	272.88
485.99	288.88
486.209	289.88
486.427	274.88
486.645	296.88
486.863	304.88
487.081	293.88
487.299	285.88
487.517	284.88
487.735	296.88
487.953	305.88
488.171	310.88
488.389	291.88
488.607	277.88
488.825	286.88
489.043	296.88
489.261	289.88
489.479	288.88
489.696	296.88
489.914	285.88
490.132	302.88
490.35	286.88
490.568	314.88
490.786	308.88
491.003	314.88
491.221	314.88
491.439	318.88
491.657	340.88
491.874	331.88
492.092	354.88
492.31	346.88
492.527	333.88
492.745	346.88
492.963	350.88
493.18	335.88
493.398	348.88
493.615	357.88
493.833	354.88
494.05	353.88
494.268	347.88
494.485	344.88
494.703	334.88
494.92	347.88
495.138	340.88
495.355	334.88
495.573	355.88
495.79	348.88
496.008	330.88
496.225	326.88
496.442	330.88
496.66	340.88
496.877	340.88
497.094	313.88
497.312	324.88
497.529	347.88
497.746	345.88
497.963	368.88
498.181	370.88
498.398	355.88
498.615	349.88
498.832	373.88
499.049	362.88
499.267	373.88
499.484	384.88
499.701	394.88
499.918	416.88
500.135	436.88
500.352	464.88
500.569	458.88
500.786	457.88
501.003	442.88
501.22	426.88
501.437	423.88
501.654	429.88
501.871	419.88
502.088	393.88
502.305	385.88
502.522	375.88
502.739	369.88
502.956	357.88
503.172	340.88
503.389	347.88
503.606	356.88
503.823	343.88
504.04	349.88
504.256	315.88
504.473	326.88
504.69	318.88
504.907	325.88
505.123	340.88
505.34	330.88
505.557	323.88
505.773	322.88
505.99	314.88
506.207	321.88
506.423	322.88
506.64	315.88
506.856	313.88
507.073	321.88
507.289	293.88
507.506	320.88
507.722	334.88
507.939	354.88
508.155	325.88
508.372	319.88
508.588	329.88
508.805	323.88
509.021	317.88
509.238	326.88
509.454	321.88
509.67	326.88
509.887	317.88
510.103	307.88
510.319	333.88
510.536	392.88
510.752	748.88
510.968	569.88
511.184	326.88
511.401	310.88
511.617	301.88
511.833	299.88
512.049	302.88
512.265	284.88
512.481	287.88
512.698	274.88
512.914	283.88
513.13	296.88
513.346	291.88
513.562	293.88
513.778	294.88
513.994	301.88
514.21	296.88
514.426	346.88
514.642	340.88
514.858	350.88
515.074	384.88
515.29	510.88
515.506	836.88
515.721	650.88
515.937	394.88
516.153	331.88
516.369	314.88
516.585	308.88
516.801	295.88
517.016	296.88
517.232	292.88
517.448	301.88
517.664	292.88
517.879	296.88
518.095	304.88
518.311	282.88
518.527	285.88
518.742	291.88
518.958	289.88
519.173	282.88
519.389	317.88
519.605	299.88
519.82	299.88
520.036	304.88
520.251	312.88
520.467	313.88
520.682	320.88
520.898	306.88
521.113	338.88
521.329	374.88
521.544	447.88
521.76	601.88
521.975	1148.88
522.19	1125.88
522.406	524.88
522.621	357.88
522.836	318.88
523.052	301.88
523.267	292.88
523.482	280.88
523.698	279.88
523.913	289.88
524.128	289.88
524.343	277.88
524.559	264.88
524.774	260.88
524.989	271.88
525.204	268.88
525.419	270.88
525.634	271.88
525.849	231.88
526.064	243.88
526.28	236.88
526.495	246.88
526.71	232.88
526.925	234.88
527.14	247.88
527.355	244.88
527.57	231.88
527.785	240.88
527.999	240.88
528.214	233.88
528.429	229.88
528.644	255.88
528.859	245.88
529.074	251.88
529.289	247.88
529.503	314.88
529.718	282.88
529.933	290.88
530.148	261.88
530.363	243.88
530.577	221.88
530.792	218.88
531.007	225.88
531.221	260.88
531.436	220.88
531.651	234.88
531.865	246.88
532.08	208.88
532.295	241.88
532.509	237.88
532.724	231.88
532.938	234.88
533.153	246.88
533.367	228.88
533.582	225.88
533.796	233.88
534.011	235.88
534.225	235.88
534.44	220.88
534.654	222.88
534.868	233.88
535.083	212.88
535.297	236.88
535.511	245.88
535.726	230.88
535.94	241.88
536.154	243.88
536.369	234.88
536.583	226.88
536.797	224.88
537.011	206.88
537.225	240.88
537.44	224.88
537.654	219.88
537.868	220.88
538.082	240.88
538.296	233.88
538.51	219.88
538.724	226.88
538.938	220.88
539.153	242.88
539.367	234.88
539.581	236.88
539.795	219.88
540.009	224.88
540.222	215.88
540.436	228.88
540.65	224.88
540.864	218.88
541.078	241.88
541.292	253.88
541.506	241.88
541.72	248.88
541.934	226.88
542.147	223.88
542.361	214.88
542.575	224.88
542.789	238.88
543.002	221.88
543.216	216.88
543.43	214.88
543.644	244.88
543.857	244.88
544.071	226.88
544.285	238.88
544.498	226.88
544.712	229.88
544.925	240.88
545.139	218.88
545.352	234.88
545.566	234.88
545.779	222.88
545.993	213.88
546.206	221.88
546.42	242.88
546.633	233.88
546.847	223.88
547.06	218.88
547.274	219.88
547.487	224.88
547.7	212.88
547.914	226.88
548.127	214.88
548.34	228.88
548.554	202.88
548.767	216.88
548.98	208.88
549.193	218.88
549.407	214.88
549.62	205.88
549.833	228.88
550.046	206.88
550.259	225.88
550.473	218.88
550.686	218.88
550.899	213.88
551.112	212.88
551.325	212.88
551.538	205.88
551.751	219.88
551.964	206.88
552.177	201.88
552.39	196.88
552.603	220.88
552.816	204.88
553.029	221.88
553.242	218.88
553.455	234.88
553.667	229.88
553.88	235.88
554.093	230.88
554.306	223.88
554.519	217.88
554.732	218.88
554.944	205.88
555.157	197.88
555.37	201.88
555.583	210.88
555.795	204.88
556.008	222.88
556.221	211.88
556.433	191.88
556.646	224.88
556.859	209.88
557.071	190.88
557.284	212.88
557.496	200.88
557.709	207.88
557.921	204.88
558.134	195.88
558.346	187.88
558.559	204.88
558.771	205.88
558.984	177.88
559.196	199.88
559.409	201.88
559.621	202.88
559.833	214.88
560.046	211.88
560.258	172.88
560.47	203.88
560.683	201.88
560.895	203.88
561.107	189.88
561.32	193.88
561.532	180.88
561.744	197.88
561.956	195.88
562.168	189.88
562.381	213.88
562.593	183.88
562.805	194.88
563.017	195.88
563.229	188.88
563.441	191.88
563.653	206.88
563.865	185.88
564.077	204.88
564.289	207.88
564.501	187.88
564.713	207.88
564.925	196.88
565.137	214.88
565.349	205.88
565.561	204.88
565.773	199.88
565.985	201.88
566.197	220.88
566.408	194.88
566.62	232.88
566.832	232.88
567.044	237.88
567.255	235.88
567.467	235.88
567.679	241.88
567.891	249.88
568.102	233.88
568.314	231.88
568.526	220.88
568.737	205.88
568.949	212.88
569.161	194.88
569.372	203.88
569.584	179.88
569.795	207.88
570.007	185.88
570.218	229.88
570.43	214.88
570.641	197.88
570.853	186.88
571.064	193.88
571.276	185.88
571.487	185.88
571.698	182.88
571.91	183.88
572.121	202.88
572.333	173.88
572.544	172.88
572.755	194.88
572.966	170.88
573.178	179.88
573.389	174.88
573.6	173.88
573.811	154.88
574.023	164.88
574.234	181.88
574.445	179.88
574.656	169.88
574.867	163.88
575.078	183.88
575.289	176.88
575.501	165.88
575.712	165.88
575.923	166.88
576.134	156.88
576.345	186.88
576.556	170.88
576.767	169.88
576.978	178.88
577.188	165.88
577.399	170.88
577.61	179.88
577.821	186.88
578.032	174.88
578.243	189.88
578.454	372.88
578.665	244.88
578.875	180.88
579.086	169.88
579.297	169.88
579.508	163.88
579.718	163.88
579.929	154.88
580.14	162.88
580.35	161.88
580.561	169.88
580.772	153.88
580.982	160.88
581.193	172.88
581.403	166.88
581.614	160.88
581.825	150.88
582.035	159.88
582.246	151.88
582.456	144.88
582.667	169.88
582.877	154.88
583.087	159.88
583.298	168.88
583.508	162.88
583.719	172.88
583.929	163.88
584.139	165.88
584.35	154.88
584.56	160.88
584.77	163.88
584.981	165.88
585.191	157.88
585.401	139.88
585.611	144.88
585.821	156.88
586.032	163.88
586.242	155.88
586.452	168.88
586.662	148.88
586.872	145.88
587.082	161.88
587.292	165.88
587.502	153.88
587.713	171.88
587.923	166.88
588.133	157.88
588.343	144.88
588.553	159.88
588.762	170.88
588.972	156.88
589.182	164.88
589.392	168.88
589.602	150.88
589.812	163.88
590.022	169.88
590.232	165.88
590.441	162.88
590.651	150.88
590.861	153.88
591.071	150.88
591.281	167.88
591.49	148.88
591.7	150.88
591.91	142.88
592.119	143.88
592.329	154.88
592.539	173.88
592.748	164.88
592.958	165.88
593.167	152.88
593.377	159.88
593.587	180.88
593.796	171.88
594.006	164.88
594.215	168.88
594.424	148.88
594.634	172.88
594.843	148.88
595.053	166.88
595.262	168.88
595.472	156.88
595.681	162.88
595.89	164.88
596.1	160.88
596.309	151.88
596.518	147.88
596.727	139.88
596.937	148.88
597.146	152.88
597.355	152.88
597.564	139.88
597.774	152.88
597.983	135.88
598.192	141.88
598.401	132.88
598.61	171.88
598.819	162.88
599.028	136.88
599.237	141.88
599.446	145.88
599.655	153.88
599.864	168.88
600.073	166.88
600.282	140.88
600.491	146.88
600.7	142.88
600.909	152.88
601.118	156.88
601.327	149.88
601.536	151.88
601.745	133.88
601.953	151.88
602.162	149.88
602.371	144.88
602.58	127.88
602.789	148.88
602.997	152.88
603.206	140.88
603.415	150.88
603.623	152.88
603.832	142.88
604.041	166.88
604.249	130.88
604.458	140.88
604.666	146.88
604.875	126.88
605.084	138.88
605.292	146.88
605.501	147.88
605.709	150.88
605.918	131.88
606.126	132.88
606.334	142.88
606.543	140.88
606.751	144.88
606.96	150.88
607.168	134.88
607.376	136.88
607.585	143.88
607.793	136.88
608.001	155.88
608.21	141.88
608.418	154.88
608.626	135.88
608.834	130.88
609.043	135.88
609.251	141.88
609.459	149.88
609.667	142.88
609.875	147.88
610.083	149.88
610.291	156.88
610.499	150.88
610.707	158.88
610.916	145.88
611.124	167.88
611.332	148.88
611.54	150.88
611.748	154.88
611.955	144.88
612.163	146.88
612.371	147.88
612.579	153.88
612.787	141.88
612.995	146.88
613.203	148.88
613.411	143.88
613.618	135.88
613.826	143.88
614.034	160.88
614.242	139.88
614.449	134.88
614.657	144.88
614.865	150.88
615.072	140.88
615.28	138.88
615.488	148.88
615.695	149.88
615.903	146.88
616.111	137.88
616.318	148.88
616.526	156.88
616.733	132.88
616.941	130.88
617.148	136.88
617.356	140.88
617.563	133.88
617.771	134.88
617.978	140.88
618.185	147.88
618.393	144.88
618.6	146.88
618.807	127.88
619.015	145.88
619.222	132.88
619.429	132.88
619.637	138.88
619.844	128.88
620.051	135.88
620.258	148.88
620.466	147.88
620.673	135.88
620.88	124.88
621.087	141.88
621.294	143.88
621.501	126.88
621.708	136.88
621.915	132.88
622.122	137.88
622.329	143.88
622.536	151.88
622.743	137.88
622.95	125.88
623.157	117.88
623.364	119.88
623.571	130.88
623.778	136.88
623.985	150.88
624.192	113.88
624.399	129.88
624.606	125.88
624.812	121.88
625.019	119.88
625.226	134.88
625.433	126.88
625.639	137.88
625.846	129.88
626.053	127.88
626.259	138.88
626.466	128.88
626.673	126.88
626.879	122.88
627.086	126.88
627.293	130.88
627.499	121.88
627.706	123.88
627.912	116.88
628.119	128.88
628.325	141.88
628.532	138.88
628.738	120.88
628.945	127.88
629.151	126.88
629.357	115.88
629.564	146.88
629.77	143.88
629.976	109.88
630.183	135.88
630.389	136.88
630.595	124.88
630.802	126.88
631.008	128.88
631.214	126.88
631.42	134.88
631.627	140.88
631.833	125.88
632.039	128.88
632.245	124.88
632.451	125.88
632.657	128.88
632.863	120.88
633.069	144.88
633.275	129.88
633.481	136.88
633.688	125.88
633.893	118.88
634.099	97.88
634.305	115.88
634.511	124.88
634.717	115.88
634.923	119.88
635.129	139.88
635.335	106.88
635.541	128.88
635.747	121.88
635.952	132.88
636.158	112.88
636.364	126.88
636.57	127.88
636.775	125.88
636.981	112.88
637.187	129.88
637.392	109.88
637.598	115.88
637.804	109.88
638.009	99.88
638.215	118.88
638.421	136.88
638.626	123.88
638.832	121.88
639.037	121.88
639.243	121.88
639.448	110.88
639.654	120.88
639.859	114.88
640.065	122.88
640.27	125.88
640.475	128.88
640.681	123.88
640.886	125.88
641.091	115.88
641.297	129.88
641.502	102.88
641.707	112.88
641.913	106.88
642.118	123.88
642.323	119.88
642.528	114.88
642.733	114.88
642.939	116.88
643.144	125.88
643.349	112.88
643.554	110.88
643.759	115.88
643.964	114.88
644.169	116.88
644.374	114.88
644.579	114.88
644.784	125.88
644.989	121.88
645.194	118.88
645.399	119.88
645.604	105.88
645.809	118.88
646.014	122.88
646.219	122.88
646.423	116.88
646.628	96.88
646.833	101.88
647.038	108.88
647.243	118.88
647.447	104.88
647.652	120.88
647.857	96.88
648.062	120.88
648.266	118.88
648.471	105.88
648.676	120.88
648.88	106.88
649.085	116.88
649.289	110.88
649.494	129.88
649.698	131.88
649.903	133.88
650.107	126.88
650.312	135.88
650.516	112.88
650.721	115.88
650.925	116.88
651.13	106.88
651.334	102.88
651.539	110.88
651.743	94.88
651.947	96.88
652.152	108.88
652.356	99.88
652.56	117.88
652.764	111.88
652.969	99.88
653.173	110.88
653.377	111.88
653.581	102.88
653.785	110.88
653.99	114.88
654.194	106.88
654.398	106.88
654.602	101.88
654.806	106.88
655.01	104.88
655.214	115.88
655.418	124.88
655.622	108.88
655.826	100.88
656.03	120.88
656.234	116.88
656.438	108.88
656.642	108.88
656.846	110.88
657.049	89.88
657.253	108.88
657.457	92.88
657.661	100.88
657.865	98.88
658.068	94.88
658.272	80.88
658.476	98.88
658.68	104.88
658.883	82.88
659.087	118.88
659.291	88.88
659.494	90.88
659.698	81.88
659.901	89.88
660.105	89.88
660.309	90.88
660.512	87.88
660.716	87.88
660.919	89.88
661.123	79.88
661.326	93.88
661.53	90.88
661.733	91.88
661.936	75.88
662.14	84.88
662.343	84.88
662.546	86.88
662.75	82.88
662.953	81.88
663.156	97.88
663.36	91.88
663.563	61.88
663.766	86.88
663.969	77.88
664.173	72.88
664.376	78.88
664.579	71.88
664.782	96.88
664.985	87.88
665.188	68.88
665.391	91.88
665.594	90.88
665.797	87.88
666	77.88
666.203	71.88
666.406	61.88
666.609	84.88
666.812	78.88
667.015	87.88
667.218	97.88
667.421	84.88
667.624	85.88
667.827	78.88
668.03	82.88
668.232	89.88
668.435	97.88
668.638	88.88
668.841	76.88
669.043	86.88
669.246	68.88
669.449	93.88
669.651	82.88
669.854	73.88
670.057	72.88
670.259	68.88
670.462	81.88
670.665	87.88
670.867	78.88
671.07	83.88
671.272	82.88
671.475	84.88
671.677	83.88
671.88	93.88
672.082	83.88
672.284	72.88
672.487	85.88
672.689	81.88
672.892	77.88
