Data from 1966.PennyLincolnUp.Lamp.En5.5.200Scan.071719.P1.Scan2.head_HRD10591_14-18-54-226.txt Node
Date: Thu Jul 18 14:18:54 EDT 2019
User: cochatt
Spectrometer: HR+D1059
Trigger mode: 1
Integration Time (sec): 1.000000E-1
Scans to average: 1
Electric dark correction enabled: true
Nonlinearity correction enabled: false
Boxcar width: 0
XAxis mode: Wavelengths
Number of Pixels in Spectrum: 2048
>>>>>Begin Spectral Data<<<<<
223.165	-26.31
223.4	-26.31
223.635	-26.31
223.869	-18.31
224.104	-17.31
224.338	-14.31
224.573	-11.31
224.808	-9.31
225.042	-12.31
225.277	-5.31
225.511	-0.31
225.746	3.69
225.98	9.69
226.215	14.69
226.449	17.69
226.683	23.69
226.918	21.69
227.152	23.69
227.387	34.69
227.621	37.69
227.856	47.69
228.09	52.69
228.324	51.69
228.559	62.69
228.793	66.69
229.027	85.69
229.262	92.69
229.496	113.69
229.73	133.69
229.964	158.69
230.199	132.69
230.433	121.69
230.667	129.69
230.901	111.69
231.136	113.69
231.37	120.69
231.604	115.69
231.838	108.69
232.072	113.69
232.306	139.69
232.541	125.69
232.775	115.69
233.009	126.69
233.243	126.69
233.477	115.69
233.711	115.69
233.945	113.69
234.179	109.69
234.413	121.69
234.647	107.69
234.881	118.69
235.115	121.69
235.349	127.69
235.583	120.69
235.817	125.69
236.051	111.69
236.285	128.69
236.519	145.69
236.753	138.69
236.987	137.69
237.221	190.69
237.455	243.69
237.689	190.69
237.922	153.69
238.156	129.69
238.39	132.69
238.624	120.69
238.858	116.69
239.091	108.69
239.325	117.69
239.559	135.69
239.793	122.69
240.027	131.69
240.26	133.69
240.494	149.69
240.728	149.69
240.961	130.69
241.195	140.69
241.429	141.69
241.662	142.69
241.896	132.69
242.13	133.69
242.363	131.69
242.597	135.69
242.83	129.69
243.064	146.69
243.298	147.69
243.531	147.69
243.765	148.69
243.998	154.69
244.232	153.69
244.465	145.69
244.699	151.69
244.932	140.69
245.166	133.69
245.399	138.69
245.633	157.69
245.866	143.69
246.099	144.69
246.333	141.69
246.566	164.69
246.8	154.69
247.033	164.69
247.266	151.69
247.5	181.69
247.733	182.69
247.966	179.69
248.2	172.69
248.433	185.69
248.666	169.69
248.899	183.69
249.133	195.69
249.366	211.69
249.599	194.69
249.832	182.69
250.066	185.69
250.299	184.69
250.532	189.69
250.765	211.69
250.998	223.69
251.231	239.69
251.465	237.69
251.698	207.69
251.931	210.69
252.164	199.69
252.397	196.69
252.63	211.69
252.863	212.69
253.096	212.69
253.329	245.69
253.562	234.69
253.795	212.69
254.028	222.69
254.261	207.69
254.494	229.69
254.727	246.69
254.96	259.69
255.193	271.69
255.426	267.69
255.659	225.69
255.892	225.69
256.124	244.69
256.357	251.69
256.59	259.69
256.823	223.69
257.056	205.69
257.289	218.69
257.521	208.69
257.754	226.69
257.987	213.69
258.22	212.69
258.452	203.69
258.685	204.69
258.918	197.69
259.151	219.69
259.383	234.69
259.616	230.69
259.849	222.69
260.081	259.69
260.314	257.69
260.547	269.69
260.779	266.69
261.012	250.69
261.244	233.69
261.477	247.69
261.71	234.69
261.942	245.69
262.175	241.69
262.407	226.69
262.64	218.69
262.872	218.69
263.105	219.69
263.337	220.69
263.57	209.69
263.802	219.69
264.035	231.69
264.267	200.69
264.499	221.69
264.732	226.69
264.964	229.69
265.197	200.69
265.429	210.69
265.661	217.69
265.894	210.69
266.126	221.69
266.358	206.69
266.591	220.69
266.823	229.69
267.055	237.69
267.287	233.69
267.52	229.69
267.752	233.69
267.984	237.69
268.216	242.69
268.448	232.69
268.681	244.69
268.913	283.69
269.145	266.69
269.377	275.69
269.609	265.69
269.841	281.69
270.073	287.69
270.306	295.69
270.538	332.69
270.77	327.69
271.002	308.69
271.234	311.69
271.466	311.69
271.698	321.69
271.93	302.69
272.162	333.69
272.394	336.69
272.626	297.69
272.858	308.69
273.09	275.69
273.322	281.69
273.553	277.69
273.785	267.69
274.017	264.69
274.249	277.69
274.481	272.69
274.713	285.69
274.945	260.69
275.176	270.69
275.408	284.69
275.64	290.69
275.872	278.69
276.104	279.69
276.335	278.69
276.567	260.69
276.799	288.69
277.031	314.69
277.262	317.69
277.494	345.69
277.726	284.69
277.957	299.69
278.189	283.69
278.421	281.69
278.652	276.69
278.884	285.69
279.115	282.69
279.347	286.69
279.579	278.69
279.81	282.69
280.042	266.69
280.273	279.69
280.505	281.69
280.736	283.69
280.968	293.69
281.199	286.69
281.431	288.69
281.662	257.69
281.894	279.69
282.125	274.69
282.356	310.69
282.588	328.69
282.819	306.69
283.051	289.69
283.282	291.69
283.513	312.69
283.745	293.69
283.976	291.69
284.207	285.69
284.439	283.69
284.67	284.69
284.901	289.69
285.132	287.69
285.364	286.69
285.595	300.69
285.826	291.69
286.057	289.69
286.288	294.69
286.52	302.69
286.751	279.69
286.982	280.69
287.213	285.69
287.444	294.69
287.675	302.69
287.906	298.69
288.138	303.69
288.369	319.69
288.6	329.69
288.831	305.69
289.062	325.69
289.293	312.69
289.524	289.69
289.755	288.69
289.986	313.69
290.217	301.69
290.448	304.69
290.679	307.69
290.91	309.69
291.141	312.69
291.371	306.69
291.602	309.69
291.833	289.69
292.064	300.69
292.295	315.69
292.526	314.69
292.757	306.69
292.987	292.69
293.218	273.69
293.449	311.69
293.68	324.69
293.91	302.69
294.141	307.69
294.372	296.69
294.603	315.69
294.833	316.69
295.064	311.69
295.295	289.69
295.525	297.69
295.756	291.69
295.987	322.69
296.217	338.69
296.448	344.69
296.679	336.69
296.909	308.69
297.14	305.69
297.37	328.69
297.601	315.69
297.831	333.69
298.062	309.69
298.292	330.69
298.523	322.69
298.753	324.69
298.984	310.69
299.214	323.69
299.445	317.69
299.675	323.69
299.905	319.69
300.136	318.69
300.366	311.69
300.597	323.69
300.827	342.69
301.057	321.69
301.288	329.69
301.518	346.69
301.748	341.69
301.979	362.69
302.209	331.69
302.439	345.69
302.669	339.69
302.9	343.69
303.13	338.69
303.36	338.69
303.59	326.69
303.82	350.69
304.051	345.69
304.281	347.69
304.511	335.69
304.741	354.69
304.971	358.69
305.201	347.69
305.431	319.69
305.661	335.69
305.891	335.69
306.121	343.69
306.352	357.69
306.582	363.69
306.812	327.69
307.042	358.69
307.272	338.69
307.502	341.69
307.731	341.69
307.961	337.69
308.191	359.69
308.421	342.69
308.651	361.69
308.881	333.69
309.111	357.69
309.341	349.69
309.571	361.69
309.8	367.69
310.03	390.69
310.26	382.69
310.49	374.69
310.72	372.69
310.949	403.69
311.179	411.69
311.409	394.69
311.639	381.69
311.868	389.69
312.098	374.69
312.328	417.69
312.557	424.69
312.787	422.69
313.017	411.69
313.246	402.69
313.476	420.69
313.706	381.69
313.935	394.69
314.165	409.69
314.394	406.69
314.624	395.69
314.853	386.69
315.083	400.69
315.312	396.69
315.542	361.69
315.771	384.69
316.001	377.69
316.23	388.69
316.46	401.69
316.689	373.69
316.919	382.69
317.148	407.69
317.377	411.69
317.607	385.69
317.836	379.69
318.065	382.69
318.295	389.69
318.524	407.69
318.753	411.69
318.983	379.69
319.212	395.69
319.441	398.69
319.67	409.69
319.9	381.69
320.129	380.69
320.358	399.69
320.587	405.69
320.816	407.69
321.046	410.69
321.275	418.69
321.504	402.69
321.733	418.69
321.962	426.69
322.191	420.69
322.42	438.69
322.649	463.69
322.878	460.69
323.108	499.69
323.337	492.69
323.566	486.69
323.795	534.69
324.024	572.69
324.253	699.69
324.482	982.69
324.71	1467.69
324.939	2309.69
325.168	2019.69
325.397	999.69
325.626	674.69
325.855	567.69
326.084	517.69
326.313	507.69
326.542	503.69
326.77	564.69
326.999	648.69
327.228	894.69
327.457	1393.69
327.686	1743.69
327.914	1108.69
328.143	726.69
328.372	645.69
328.6	615.69
328.829	579.69
329.058	575.69
329.287	612.69
329.515	576.69
329.744	518.69
329.972	523.69
330.201	540.69
330.43	578.69
330.658	605.69
330.887	629.69
331.115	636.69
331.344	563.69
331.572	501.69
331.801	524.69
332.03	530.69
332.258	467.69
332.486	482.69
332.715	473.69
332.943	472.69
333.172	469.69
333.4	459.69
333.629	505.69
333.857	527.69
334.085	515.69
334.314	537.69
334.542	569.69
334.771	597.69
334.999	565.69
335.227	507.69
335.455	506.69
335.684	481.69
335.912	473.69
336.14	477.69
336.369	467.69
336.597	492.69
336.825	493.69
337.053	469.69
337.281	458.69
337.51	451.69
337.738	462.69
337.966	447.69
338.194	497.69
338.422	479.69
338.65	452.69
338.878	434.69
339.106	457.69
339.334	451.69
339.562	477.69
339.79	460.69
340.018	458.69
340.246	438.69
340.474	448.69
340.702	451.69
340.93	447.69
341.158	458.69
341.386	459.69
341.614	439.69
341.842	441.69
342.07	443.69
342.298	444.69
342.526	451.69
342.754	446.69
342.981	435.69
343.209	456.69
343.437	433.69
343.665	438.69
343.893	455.69
344.12	485.69
344.348	473.69
344.576	472.69
344.804	469.69
345.031	453.69
345.259	478.69
345.487	478.69
345.714	453.69
345.942	441.69
346.17	451.69
346.397	448.69
346.625	448.69
346.853	440.69
347.08	455.69
347.308	438.69
347.535	453.69
347.763	457.69
347.99	429.69
348.218	439.69
348.445	469.69
348.673	473.69
348.9	458.69
349.128	437.69
349.355	427.69
349.583	422.69
349.81	434.69
350.037	425.69
350.265	422.69
350.492	420.69
350.72	422.69
350.947	441.69
351.174	449.69
351.402	442.69
351.629	450.69
351.856	457.69
352.083	453.69
352.311	428.69
352.538	467.69
352.765	463.69
352.992	443.69
353.22	439.69
353.447	423.69
353.674	449.69
353.901	417.69
354.128	409.69
354.355	413.69
354.583	408.69
354.81	412.69
355.037	427.69
355.264	416.69
355.491	407.69
355.718	406.69
355.945	430.69
356.172	422.69
356.399	416.69
356.626	411.69
356.853	419.69
357.08	415.69
357.307	421.69
357.534	417.69
357.761	425.69
357.988	410.69
358.215	419.69
358.441	413.69
358.668	426.69
358.895	434.69
359.122	430.69
359.349	459.69
359.576	456.69
359.802	485.69
360.029	493.69
360.256	495.69
360.483	499.69
360.709	457.69
360.936	437.69
361.163	441.69
361.39	453.69
361.616	432.69
361.843	438.69
362.07	474.69
362.296	460.69
362.523	442.69
362.749	446.69
362.976	437.69
363.203	450.69
363.429	429.69
363.656	433.69
363.882	425.69
364.109	428.69
364.335	436.69
364.562	413.69
364.788	419.69
365.015	463.69
365.241	430.69
365.468	449.69
365.694	430.69
365.92	453.69
366.147	430.69
366.373	450.69
366.599	432.69
366.826	427.69
367.052	413.69
367.278	437.69
367.505	428.69
367.731	445.69
367.957	442.69
368.184	424.69
368.41	452.69
368.636	456.69
368.862	459.69
369.089	428.69
369.315	444.69
369.541	433.69
369.767	449.69
369.993	441.69
370.219	423.69
370.445	433.69
370.672	423.69
370.898	450.69
371.124	441.69
371.35	414.69
371.576	446.69
371.802	422.69
372.028	435.69
372.254	421.69
372.48	439.69
372.706	454.69
372.932	455.69
373.158	442.69
373.384	453.69
373.61	426.69
373.835	442.69
374.061	449.69
374.287	446.69
374.513	441.69
374.739	445.69
374.965	454.69
375.191	460.69
375.416	438.69
375.642	443.69
375.868	438.69
376.094	446.69
376.319	450.69
376.545	432.69
376.771	426.69
376.997	435.69
377.222	428.69
377.448	426.69
377.674	411.69
377.899	438.69
378.125	422.69
378.35	424.69
378.576	453.69
378.802	443.69
379.027	443.69
379.253	443.69
379.478	436.69
379.704	445.69
379.929	443.69
380.155	445.69
380.38	450.69
380.606	449.69
380.831	443.69
381.057	441.69
381.282	450.69
381.507	449.69
381.733	459.69
381.958	449.69
382.184	444.69
382.409	455.69
382.634	472.69
382.86	441.69
383.085	449.69
383.31	454.69
383.535	465.69
383.761	459.69
383.986	479.69
384.211	466.69
384.436	464.69
384.662	473.69
384.887	487.69
385.112	469.69
385.337	494.69
385.562	483.69
385.787	470.69
386.013	486.69
386.238	469.69
386.463	489.69
386.688	519.69
386.913	488.69
387.138	486.69
387.363	487.69
387.588	483.69
387.813	474.69
388.038	501.69
388.263	467.69
388.488	509.69
388.713	472.69
388.938	499.69
389.163	485.69
389.387	497.69
389.612	474.69
389.837	495.69
390.062	471.69
390.287	497.69
390.512	477.69
390.736	468.69
390.961	482.69
391.186	489.69
391.411	496.69
391.636	481.69
391.86	490.69
392.085	508.69
392.31	504.69
392.534	508.69
392.759	507.69
392.984	481.69
393.208	502.69
393.433	526.69
393.658	506.69
393.882	506.69
394.107	513.69
394.331	507.69
394.556	519.69
394.78	516.69
395.005	512.69
395.229	494.69
395.454	501.69
395.678	515.69
395.903	515.69
396.127	570.69
396.352	545.69
396.576	529.69
396.801	541.69
397.025	526.69
397.249	541.69
397.474	527.69
397.698	519.69
397.922	545.69
398.147	548.69
398.371	553.69
398.595	533.69
398.82	553.69
399.044	590.69
399.268	594.69
399.492	629.69
399.717	669.69
399.941	703.69
400.165	725.69
400.389	717.69
400.613	646.69
400.837	606.69
401.062	593.69
401.286	570.69
401.51	583.69
401.734	604.69
401.958	583.69
402.182	569.69
402.406	573.69
402.63	583.69
402.854	568.69
403.078	572.69
403.302	607.69
403.526	608.69
403.75	595.69
403.974	585.69
404.198	582.69
404.422	610.69
404.645	582.69
404.869	601.69
405.093	628.69
405.317	692.69
405.541	732.69
405.765	653.69
405.988	638.69
406.212	655.69
406.436	645.69
406.66	676.69
406.883	627.69
407.107	661.69
407.331	709.69
407.555	806.69
407.778	823.69
408.002	722.69
408.226	660.69
408.449	667.69
408.673	666.69
408.896	682.69
409.12	722.69
409.344	725.69
409.567	645.69
409.791	589.69
410.014	627.69
410.238	591.69
410.461	585.69
410.685	628.69
410.908	616.69
411.132	633.69
411.355	699.69
411.578	667.69
411.802	622.69
412.025	589.69
412.249	588.69
412.472	629.69
412.695	667.69
412.919	667.69
413.142	609.69
413.365	606.69
413.589	574.69
413.812	554.69
414.035	565.69
414.258	556.69
414.482	559.69
414.705	565.69
414.928	520.69
415.151	541.69
415.374	562.69
415.597	553.69
415.821	540.69
416.044	561.69
416.267	575.69
416.49	568.69
416.713	552.69
416.936	574.69
417.159	563.69
417.382	579.69
417.605	577.69
417.828	575.69
418.051	617.69
418.274	587.69
418.497	573.69
418.72	574.69
418.943	556.69
419.166	566.69
419.389	617.69
419.611	608.69
419.834	602.69
420.057	612.69
420.28	615.69
420.503	595.69
420.726	581.69
420.948	603.69
421.171	638.69
421.394	663.69
421.617	618.69
421.839	612.69
422.062	578.69
422.285	605.69
422.507	669.69
422.73	757.69
422.953	726.69
423.175	657.69
423.398	615.69
423.621	629.69
423.843	626.69
424.066	648.69
424.288	635.69
424.511	649.69
424.733	718.69
424.956	817.69
425.178	781.69
425.401	749.69
425.623	807.69
425.846	671.69
426.068	635.69
426.291	610.69
426.513	634.69
426.735	639.69
426.958	693.69
427.18	772.69
427.402	934.69
427.625	1045.69
427.847	884.69
428.069	753.69
428.292	698.69
428.514	631.69
428.736	597.69
428.958	614.69
429.181	591.69
429.403	579.69
429.625	586.69
429.847	626.69
430.069	719.69
430.292	685.69
430.514	620.69
430.736	577.69
430.958	579.69
431.18	574.69
431.402	567.69
431.624	546.69
431.846	543.69
432.068	542.69
432.29	557.69
432.512	546.69
432.734	567.69
432.956	578.69
433.178	580.69
433.4	589.69
433.622	573.69
433.844	565.69
434.066	542.69
434.287	557.69
434.509	571.69
434.731	567.69
434.953	585.69
435.175	590.69
435.397	632.69
435.618	630.69
435.84	684.69
436.062	802.69
436.284	864.69
436.505	714.69
436.727	644.69
436.949	600.69
437.17	609.69
437.392	579.69
437.614	605.69
437.835	642.69
438.057	764.69
438.278	867.69
438.5	873.69
438.721	941.69
438.943	900.69
439.165	718.69
439.386	665.69
439.608	633.69
439.829	649.69
440.05	684.69
440.272	730.69
440.493	686.69
440.715	626.69
440.936	609.69
441.158	605.69
441.379	606.69
441.6	627.69
441.822	632.69
442.043	658.69
442.264	791.69
442.486	818.69
442.707	699.69
442.928	649.69
443.149	679.69
443.371	681.69
443.592	685.69
443.813	831.69
444.034	893.69
444.255	773.69
444.476	679.69
444.698	644.69
444.919	631.69
445.14	748.69
445.361	683.69
445.582	693.69
445.803	767.69
446.024	878.69
446.245	890.69
446.466	811.69
446.687	678.69
446.908	653.69
447.129	607.69
447.35	569.69
447.571	571.69
447.792	592.69
448.013	574.69
448.234	583.69
448.455	653.69
448.675	810.69
448.896	937.69
449.117	781.69
449.338	749.69
449.559	851.69
449.779	986.69
450	761.69
450.221	650.69
450.442	599.69
450.662	591.69
450.883	585.69
451.104	579.69
451.324	572.69
451.545	552.69
451.766	541.69
451.986	517.69
452.207	523.69
452.428	506.69
452.648	521.69
452.869	524.69
453.089	534.69
453.31	566.69
453.53	520.69
453.751	521.69
453.971	520.69
454.192	561.69
454.412	522.69
454.633	525.69
454.853	505.69
455.073	497.69
455.294	543.69
455.514	611.69
455.734	589.69
455.955	534.69
456.175	517.69
456.395	469.69
456.616	483.69
456.836	502.69
457.056	505.69
457.276	482.69
457.497	515.69
457.717	484.69
457.937	519.69
458.157	523.69
458.377	507.69
458.598	528.69
458.818	590.69
459.038	665.69
459.258	725.69
459.478	645.69
459.698	555.69
459.918	560.69
460.138	572.69
460.358	575.69
460.578	572.69
460.798	571.69
461.018	603.69
461.238	568.69
461.458	562.69
461.678	559.69
461.898	572.69
462.118	581.69
462.338	595.69
462.558	577.69
462.777	617.69
462.997	614.69
463.217	620.69
463.437	642.69
463.657	623.69
463.876	616.69
464.096	629.69
464.316	610.69
464.536	611.69
464.755	624.69
464.975	606.69
465.195	614.69
465.414	743.69
465.634	634.69
465.854	612.69
466.073	573.69
466.293	561.69
466.512	554.69
466.732	541.69
466.951	536.69
467.171	545.69
467.391	535.69
467.61	540.69
467.829	565.69
468.049	565.69
468.268	582.69
468.488	524.69
468.707	537.69
468.927	511.69
469.146	525.69
469.365	542.69
469.585	551.69
469.804	548.69
470.023	539.69
470.243	557.69
470.462	552.69
470.681	557.69
470.901	559.69
471.12	574.69
471.339	531.69
471.558	549.69
471.777	576.69
471.997	556.69
472.216	558.69
472.435	587.69
472.654	567.69
472.873	558.69
473.092	559.69
473.311	533.69
473.53	555.69
473.749	547.69
473.968	620.69
474.187	708.69
474.406	741.69
474.625	587.69
474.844	571.69
475.063	566.69
475.282	551.69
475.501	567.69
475.72	563.69
475.939	537.69
476.158	561.69
476.377	566.69
476.596	559.69
476.814	565.69
477.033	587.69
477.252	594.69
477.471	586.69
477.69	588.69
477.908	614.69
478.127	611.69
478.346	603.69
478.564	625.69
478.783	620.69
479.002	637.69
479.22	625.69
479.439	641.69
479.658	649.69
479.876	697.69
480.095	650.69
480.313	733.69
480.532	684.69
480.751	681.69
480.969	684.69
481.188	754.69
481.406	775.69
481.624	716.69
481.843	670.69
482.061	665.69
482.28	653.69
482.498	626.69
482.717	637.69
482.935	671.69
483.153	645.69
483.372	651.69
483.59	669.69
483.808	645.69
484.027	638.69
484.245	653.69
484.463	638.69
484.681	630.69
484.9	654.69
485.118	656.69
485.336	685.69
485.554	653.69
485.772	678.69
485.99	679.69
486.209	683.69
486.427	663.69
486.645	673.69
486.863	715.69
487.081	681.69
487.299	681.69
487.517	699.69
487.735	696.69
487.953	698.69
488.171	685.69
488.389	719.69
488.607	680.69
488.825	686.69
489.043	709.69
489.261	695.69
489.479	701.69
489.696	710.69
489.914	725.69
490.132	699.69
490.35	718.69
490.568	720.69
490.786	762.69
491.003	754.69
491.221	765.69
491.439	770.69
491.657	776.69
491.874	819.69
492.092	779.69
492.31	798.69
492.527	810.69
492.745	789.69
492.963	799.69
493.18	805.69
493.398	829.69
493.615	833.69
493.833	838.69
494.05	838.69
494.268	833.69
494.485	828.69
494.703	818.69
494.92	843.69
495.138	834.69
495.355	834.69
495.573	837.69
495.79	858.69
496.008	842.69
496.225	850.69
496.442	842.69
496.66	840.69
496.877	837.69
497.094	814.69
497.312	853.69
497.529	847.69
497.746	831.69
497.963	885.69
498.181	918.69
498.398	910.69
498.615	926.69
498.832	949.69
499.049	941.69
499.267	1009.69
499.484	1026.69
499.701	1060.69
499.918	1087.69
500.135	1132.69
500.352	1189.69
500.569	1206.69
500.786	1192.69
501.003	1181.69
501.22	1162.69
501.437	1103.69
501.654	1073.69
501.871	1055.69
502.088	1036.69
502.305	988.69
502.522	952.69
502.739	950.69
502.956	883.69
503.172	899.69
503.389	862.69
503.606	867.69
503.823	867.69
504.04	864.69
504.256	825.69
504.473	844.69
504.69	820.69
504.907	827.69
505.123	785.69
505.34	820.69
505.557	799.69
505.773	795.69
505.99	816.69
506.207	798.69
506.423	774.69
506.64	765.69
506.856	761.69
507.073	761.69
507.289	749.69
507.506	744.69
507.722	788.69
507.939	787.69
508.155	781.69
508.372	738.69
508.588	742.69
508.805	745.69
509.021	735.69
509.238	741.69
509.454	753.69
509.67	755.69
509.887	750.69
510.103	714.69
510.319	745.69
510.536	850.69
510.752	1330.69
510.968	1089.69
511.184	739.69
511.401	706.69
511.617	702.69
511.833	698.69
512.049	694.69
512.265	688.69
512.481	688.69
512.698	674.69
512.914	684.69
513.13	684.69
513.346	667.69
513.562	716.69
513.778	720.69
513.994	689.69
514.21	720.69
514.426	734.69
514.642	767.69
514.858	806.69
515.074	855.69
515.29	976.69
515.506	1371.69
515.721	1140.69
515.937	809.69
516.153	780.69
516.369	749.69
516.585	727.69
516.801	775.69
517.016	709.69
517.232	712.69
517.448	729.69
517.664	725.69
517.879	716.69
518.095	731.69
518.311	755.69
518.527	708.69
518.742	724.69
518.958	710.69
519.173	694.69
519.389	719.69
519.605	670.69
519.82	699.69
520.036	712.69
520.251	717.69
520.467	755.69
520.682	751.69
520.898	740.69
521.113	791.69
521.329	812.69
521.544	871.69
521.76	1082.69
521.975	1707.69
522.19	1687.69
522.406	966.69
522.621	787.69
522.836	725.69
523.052	662.69
523.267	666.69
523.482	634.69
523.698	631.69
523.913	646.69
524.128	634.69
524.343	643.69
524.559	636.69
524.774	618.69
524.989	598.69
525.204	629.69
525.419	605.69
525.634	617.69
525.849	606.69
526.064	613.69
526.28	582.69
526.495	569.69
526.71	552.69
526.925	590.69
527.14	599.69
527.355	587.69
527.57	576.69
527.785	567.69
527.999	602.69
528.214	570.69
528.429	589.69
528.644	584.69
528.859	596.69
529.074	587.69
529.289	588.69
529.503	674.69
529.718	648.69
529.933	601.69
530.148	590.69
530.363	563.69
530.577	556.69
530.792	565.69
531.007	574.69
531.221	585.69
531.436	537.69
531.651	555.69
531.865	548.69
532.08	571.69
532.295	568.69
532.509	541.69
532.724	569.69
532.938	559.69
533.153	568.69
533.367	562.69
533.582	548.69
533.796	539.69
534.011	570.69
534.225	567.69
534.44	558.69
534.654	551.69
534.868	551.69
535.083	538.69
535.297	533.69
535.511	534.69
535.726	564.69
535.94	558.69
536.154	547.69
536.369	525.69
536.583	542.69
536.797	528.69
537.011	537.69
537.225	525.69
537.44	527.69
537.654	536.69
537.868	528.69
538.082	495.69
538.296	534.69
538.51	519.69
538.724	551.69
538.938	534.69
539.153	523.69
539.367	546.69
539.581	541.69
539.795	536.69
540.009	541.69
540.222	522.69
540.436	525.69
540.65	538.69
540.864	511.69
541.078	535.69
541.292	516.69
541.506	539.69
541.72	497.69
541.934	507.69
542.147	522.69
542.361	511.69
542.575	513.69
542.789	518.69
543.002	528.69
543.216	532.69
543.43	534.69
543.644	522.69
543.857	531.69
544.071	516.69
544.285	537.69
544.498	510.69
544.712	525.69
544.925	523.69
545.139	518.69
545.352	500.69
545.566	517.69
545.779	502.69
545.993	525.69
546.206	517.69
546.42	511.69
546.633	536.69
546.847	493.69
547.06	505.69
547.274	501.69
547.487	499.69
547.7	509.69
547.914	501.69
548.127	504.69
548.34	485.69
548.554	520.69
548.767	515.69
548.98	513.69
549.193	494.69
549.407	509.69
549.62	514.69
549.833	504.69
550.046	501.69
550.259	509.69
550.473	514.69
550.686	505.69
550.899	486.69
551.112	499.69
551.325	477.69
551.538	489.69
551.751	489.69
551.964	494.69
552.177	512.69
552.39	475.69
552.603	492.69
552.816	513.69
553.029	511.69
553.242	497.69
553.455	511.69
553.667	521.69
553.88	528.69
554.093	524.69
554.306	522.69
554.519	513.69
554.732	486.69
554.944	511.69
555.157	482.69
555.37	486.69
555.583	506.69
555.795	475.69
556.008	491.69
556.221	487.69
556.433	457.69
556.646	461.69
556.859	466.69
557.071	447.69
557.284	454.69
557.496	453.69
557.709	469.69
557.921	463.69
558.134	461.69
558.346	456.69
558.559	468.69
558.771	459.69
558.984	453.69
559.196	445.69
559.409	429.69
559.621	432.69
559.833	445.69
560.046	437.69
560.258	436.69
560.47	435.69
560.683	453.69
560.895	439.69
561.107	430.69
561.32	450.69
561.532	442.69
561.744	446.69
561.956	445.69
562.168	451.69
562.381	471.69
562.593	463.69
562.805	449.69
563.017	458.69
563.229	436.69
563.441	447.69
563.653	458.69
563.865	451.69
564.077	440.69
564.289	448.69
564.501	441.69
564.713	474.69
564.925	481.69
565.137	482.69
565.349	489.69
565.561	478.69
565.773	502.69
565.985	498.69
566.197	519.69
566.408	522.69
566.62	524.69
566.832	533.69
567.044	555.69
567.255	562.69
567.467	564.69
567.679	593.69
567.891	596.69
568.102	584.69
568.314	551.69
568.526	527.69
568.737	511.69
568.949	503.69
569.161	499.69
569.372	493.69
569.584	462.69
569.795	461.69
570.007	483.69
570.218	484.69
570.43	483.69
570.641	459.69
570.853	453.69
571.064	440.69
571.276	427.69
571.487	449.69
571.698	412.69
571.91	437.69
572.121	410.69
572.333	421.69
572.544	396.69
572.755	425.69
572.966	409.69
573.178	390.69
573.389	391.69
573.6	393.69
573.811	397.69
574.023	384.69
574.234	397.69
574.445	397.69
574.656	380.69
574.867	389.69
575.078	381.69
575.289	388.69
575.501	390.69
575.712	392.69
575.923	375.69
576.134	384.69
576.345	368.69
576.556	381.69
576.767	372.69
576.978	387.69
577.188	379.69
577.399	377.69
577.61	362.69
577.821	366.69
578.032	355.69
578.243	408.69
578.454	609.69
578.665	467.69
578.875	382.69
579.086	346.69
579.297	376.69
579.508	372.69
579.718	360.69
579.929	339.69
580.14	355.69
580.35	339.69
580.561	349.69
580.772	335.69
580.982	362.69
581.193	350.69
581.403	350.69
581.614	359.69
581.825	363.69
582.035	369.69
582.246	345.69
582.456	338.69
582.667	339.69
582.877	343.69
583.087	344.69
583.298	350.69
583.508	337.69
583.719	353.69
583.929	335.69
584.139	355.69
584.35	344.69
584.56	347.69
584.77	364.69
584.981	334.69
585.191	356.69
585.401	355.69
585.611	356.69
585.821	350.69
586.032	340.69
586.242	345.69
586.452	317.69
586.662	341.69
586.872	353.69
587.082	328.69
587.292	349.69
587.502	347.69
587.713	341.69
587.923	340.69
588.133	324.69
588.343	335.69
588.553	331.69
588.762	338.69
588.972	346.69
589.182	339.69
589.392	346.69
589.602	329.69
589.812	337.69
590.022	327.69
590.232	364.69
590.441	332.69
590.651	337.69
590.861	336.69
591.071	347.69
591.281	340.69
591.49	341.69
591.7	316.69
591.91	348.69
592.119	342.69
592.329	348.69
592.539	367.69
592.748	364.69
592.958	363.69
593.167	364.69
593.377	366.69
593.587	362.69
593.796	356.69
594.006	374.69
594.215	369.69
594.424	365.69
594.634	361.69
594.843	337.69
595.053	351.69
595.262	352.69
595.472	346.69
595.681	319.69
595.89	338.69
596.1	355.69
596.309	319.69
596.518	319.69
596.727	321.69
596.937	324.69
597.146	318.69
597.355	314.69
597.564	308.69
597.774	326.69
597.983	313.69
598.192	318.69
598.401	309.69
598.61	313.69
598.819	307.69
599.028	306.69
599.237	322.69
599.446	294.69
599.655	302.69
599.864	306.69
600.073	294.69
600.282	306.69
600.491	289.69
600.7	296.69
600.909	283.69
601.118	298.69
601.327	300.69
601.536	280.69
601.745	286.69
601.953	290.69
602.162	295.69
602.371	293.69
602.58	296.69
602.789	292.69
602.997	275.69
603.206	290.69
603.415	298.69
603.623	303.69
603.832	285.69
604.041	275.69
604.249	303.69
604.458	282.69
604.666	286.69
604.875	269.69
605.084	275.69
605.292	275.69
605.501	277.69
605.709	278.69
605.918	282.69
606.126	285.69
606.334	283.69
606.543	276.69
606.751	298.69
606.96	294.69
607.168	277.69
607.376	252.69
607.585	274.69
607.793	280.69
608.001	282.69
608.21	265.69
608.418	289.69
608.626	297.69
608.834	287.69
609.043	275.69
609.251	276.69
609.459	262.69
609.667	271.69
609.875	277.69
610.083	279.69
610.291	293.69
610.499	279.69
610.707	257.69
610.916	283.69
611.124	291.69
611.332	283.69
611.54	269.69
611.748	284.69
611.955	267.69
612.163	265.69
612.371	266.69
612.579	275.69
612.787	264.69
612.995	281.69
613.203	253.69
613.411	274.69
613.618	269.69
613.826	267.69
614.034	259.69
614.242	270.69
614.449	259.69
614.657	266.69
614.865	266.69
615.072	258.69
615.28	257.69
615.488	269.69
615.695	272.69
615.903	262.69
616.111	256.69
616.318	260.69
616.526	267.69
616.733	258.69
616.941	268.69
617.148	251.69
617.356	250.69
617.563	249.69
617.771	268.69
617.978	277.69
618.185	260.69
618.393	261.69
618.6	254.69
618.807	249.69
619.015	246.69
619.222	251.69
619.429	248.69
619.637	245.69
619.844	257.69
620.051	251.69
620.258	248.69
620.466	243.69
620.673	236.69
620.88	238.69
621.087	244.69
621.294	255.69
621.501	244.69
621.708	259.69
621.915	260.69
622.122	248.69
622.329	256.69
622.536	238.69
622.743	257.69
622.95	253.69
623.157	248.69
623.364	249.69
623.571	251.69
623.778	261.69
623.985	229.69
624.192	224.69
624.399	221.69
624.606	233.69
624.812	230.69
625.019	233.69
625.226	235.69
625.433	238.69
625.639	221.69
625.846	251.69
626.053	241.69
626.259	232.69
626.466	223.69
626.673	220.69
626.879	224.69
627.086	229.69
627.293	226.69
627.499	231.69
627.706	235.69
627.912	210.69
628.119	225.69
628.325	221.69
628.532	233.69
628.738	227.69
628.945	232.69
629.151	204.69
629.357	226.69
629.564	223.69
629.77	237.69
629.976	202.69
630.183	206.69
630.389	213.69
630.595	211.69
630.802	207.69
631.008	223.69
631.214	215.69
631.42	226.69
631.627	203.69
631.833	223.69
632.039	204.69
632.245	231.69
632.451	210.69
632.657	207.69
632.863	219.69
633.069	214.69
633.275	205.69
633.481	195.69
633.688	222.69
633.893	209.69
634.099	208.69
634.305	220.69
634.511	205.69
634.717	212.69
634.923	175.69
635.129	194.69
635.335	196.69
635.541	203.69
635.747	197.69
635.952	181.69
636.158	202.69
636.364	194.69
636.57	209.69
636.775	213.69
636.981	220.69
637.187	218.69
637.392	187.69
637.598	207.69
637.804	200.69
638.009	205.69
638.215	203.69
638.421	199.69
638.626	200.69
638.832	197.69
639.037	195.69
639.243	188.69
639.448	192.69
639.654	191.69
639.859	178.69
640.065	189.69
640.27	194.69
640.475	180.69
640.681	187.69
640.886	182.69
641.091	195.69
641.297	186.69
641.502	187.69
641.707	199.69
641.913	189.69
642.118	178.69
642.323	194.69
642.528	182.69
642.733	190.69
642.939	194.69
643.144	170.69
643.349	186.69
643.554	186.69
643.759	182.69
643.964	166.69
644.169	192.69
644.374	179.69
644.579	189.69
644.784	197.69
644.989	166.69
645.194	181.69
645.399	189.69
645.604	187.69
645.809	168.69
646.014	181.69
646.219	183.69
646.423	173.69
646.628	189.69
646.833	186.69
647.038	186.69
647.243	178.69
647.447	185.69
647.652	183.69
647.857	177.69
648.062	190.69
648.266	194.69
648.471	192.69
648.676	192.69
648.88	190.69
649.085	188.69
649.289	187.69
649.494	192.69
649.698	201.69
649.903	196.69
650.107	180.69
650.312	171.69
650.516	163.69
650.721	153.69
650.925	181.69
651.13	150.69
651.334	166.69
651.539	166.69
651.743	159.69
651.947	167.69
652.152	139.69
652.356	165.69
652.56	138.69
652.764	159.69
652.969	140.69
653.173	152.69
653.377	133.69
653.581	151.69
653.785	154.69
653.99	157.69
654.194	156.69
654.398	131.69
654.602	141.69
654.806	149.69
655.01	153.69
655.214	135.69
655.418	153.69
655.622	147.69
655.826	142.69
656.03	135.69
656.234	132.69
656.438	153.69
656.642	133.69
656.846	127.69
657.049	142.69
657.253	130.69
657.457	127.69
657.661	136.69
657.865	122.69
658.068	121.69
658.272	121.69
658.476	100.69
658.68	112.69
658.883	121.69
659.087	104.69
659.291	105.69
659.494	110.69
659.698	92.69
659.901	104.69
660.105	111.69
660.309	93.69
660.512	100.69
660.716	91.69
660.919	92.69
661.123	89.69
661.326	93.69
661.53	98.69
661.733	85.69
661.936	94.69
662.14	82.69
662.343	98.69
662.546	87.69
662.75	71.69
662.953	86.69
663.156	76.69
663.36	79.69
663.563	77.69
663.766	78.69
663.969	85.69
664.173	78.69
664.376	75.69
664.579	79.69
664.782	95.69
664.985	73.69
665.188	83.69
665.391	74.69
665.594	95.69
665.797	74.69
666	84.69
666.203	88.69
666.406	77.69
666.609	76.69
666.812	84.69
667.015	85.69
667.218	76.69
667.421	74.69
667.624	82.69
667.827	71.69
668.03	67.69
668.232	78.69
668.435	88.69
668.638	80.69
668.841	89.69
669.043	84.69
669.246	84.69
669.449	76.69
669.651	82.69
669.854	89.69
670.057	91.69
670.259	85.69
670.462	83.69
670.665	81.69
670.867	90.69
671.07	76.69
671.272	68.69
671.475	85.69
671.677	92.69
671.88	80.69
672.082	100.69
672.284	84.69
672.487	86.69
672.689	72.69
672.892	60.69
