Data from 1966.PennyLincolnUp.Lamp.En5.5.200Scan.071719.P1._HRD10591_14-14-50-914.txt Node
Date: Thu Jul 18 14:14:50 EDT 2019
User: cochatt
Spectrometer: HR+D1059
Trigger mode: 1
Integration Time (sec): 1.000000E-1
Scans to average: 1
Electric dark correction enabled: true
Nonlinearity correction enabled: false
Boxcar width: 0
XAxis mode: Wavelengths
Number of Pixels in Spectrum: 2048
>>>>>Begin Spectral Data<<<<<
223.165	-17.12
223.4	-17.12
223.635	-17.12
223.869	-17.12
224.104	-27.12
224.338	-19.12
224.573	-12.12
224.808	-5.12
225.042	-26.12
225.277	-1.12
225.511	-1.12
225.746	5.88
225.98	18.88
226.215	9.88
226.449	9.88
226.683	13.88
226.918	35.88
227.152	31.88
227.387	29.88
227.621	38.88
227.856	42.88
228.09	34.88
228.324	55.88
228.559	59.88
228.793	53.88
229.027	78.88
229.262	83.88
229.496	94.88
229.73	95.88
229.964	119.88
230.199	105.88
230.433	84.88
230.667	91.88
230.901	85.88
231.136	80.88
231.37	101.88
231.604	93.88
231.838	98.88
232.072	110.88
232.306	105.88
232.541	100.88
232.775	96.88
233.009	95.88
233.243	99.88
233.477	92.88
233.711	93.88
233.945	87.88
234.179	93.88
234.413	105.88
234.647	100.88
234.881	89.88
235.115	102.88
235.349	108.88
235.583	101.88
235.817	109.88
236.051	91.88
236.285	97.88
236.519	103.88
236.753	106.88
236.987	111.88
237.221	128.88
237.455	155.88
237.689	113.88
237.922	128.88
238.156	108.88
238.39	97.88
238.624	106.88
238.858	79.88
239.091	102.88
239.325	88.88
239.559	93.88
239.793	105.88
240.027	104.88
240.26	97.88
240.494	117.88
240.728	113.88
240.961	111.88
241.195	113.88
241.429	109.88
241.662	108.88
241.896	112.88
242.13	122.88
242.363	102.88
242.597	101.88
242.83	94.88
243.064	107.88
243.298	126.88
243.531	122.88
243.765	113.88
243.998	114.88
244.232	117.88
244.465	119.88
244.699	114.88
244.932	117.88
245.166	115.88
245.399	111.88
245.633	117.88
245.866	129.88
246.099	103.88
246.333	121.88
246.566	116.88
246.8	110.88
247.033	112.88
247.266	98.88
247.5	123.88
247.733	133.88
247.966	130.88
248.2	123.88
248.433	133.88
248.666	122.88
248.899	126.88
249.133	134.88
249.366	145.88
249.599	117.88
249.832	123.88
250.066	135.88
250.299	112.88
250.532	133.88
250.765	149.88
250.998	151.88
251.231	160.88
251.465	141.88
251.698	134.88
251.931	120.88
252.164	127.88
252.397	133.88
252.63	133.88
252.863	134.88
253.096	156.88
253.329	158.88
253.562	148.88
253.795	137.88
254.028	153.88
254.261	121.88
254.494	150.88
254.727	153.88
254.96	174.88
255.193	169.88
255.426	155.88
255.659	176.88
255.892	169.88
256.124	155.88
256.357	160.88
256.59	137.88
256.823	129.88
257.056	139.88
257.289	121.88
257.521	129.88
257.754	123.88
257.987	131.88
258.22	142.88
258.452	140.88
258.685	134.88
258.918	138.88
259.151	126.88
259.383	141.88
259.616	140.88
259.849	145.88
260.081	141.88
260.314	160.88
260.547	177.88
260.779	167.88
261.012	148.88
261.244	157.88
261.477	152.88
261.71	134.88
261.942	157.88
262.175	161.88
262.407	155.88
262.64	140.88
262.872	136.88
263.105	147.88
263.337	131.88
263.57	134.88
263.802	147.88
264.035	143.88
264.267	128.88
264.499	151.88
264.732	154.88
264.964	152.88
265.197	152.88
265.429	135.88
265.661	136.88
265.894	136.88
266.126	161.88
266.358	145.88
266.591	153.88
266.823	154.88
267.055	144.88
267.287	134.88
267.52	151.88
267.752	157.88
267.984	155.88
268.216	135.88
268.448	153.88
268.681	153.88
268.913	155.88
269.145	179.88
269.377	161.88
269.609	168.88
269.841	174.88
270.073	166.88
270.306	180.88
270.538	205.88
270.77	193.88
271.002	205.88
271.234	190.88
271.466	176.88
271.698	206.88
271.93	209.88
272.162	198.88
272.394	207.88
272.626	183.88
272.858	165.88
273.09	173.88
273.322	159.88
273.553	167.88
273.785	177.88
274.017	169.88
274.249	172.88
274.481	172.88
274.713	165.88
274.945	164.88
275.176	166.88
275.408	165.88
275.64	163.88
275.872	163.88
276.104	184.88
276.335	164.88
276.567	177.88
276.799	175.88
277.031	194.88
277.262	195.88
277.494	195.88
277.726	191.88
277.957	182.88
278.189	175.88
278.421	181.88
278.652	175.88
278.884	169.88
279.115	160.88
279.347	181.88
279.579	183.88
279.81	175.88
280.042	162.88
280.273	159.88
280.505	176.88
280.736	147.88
280.968	156.88
281.199	169.88
281.431	162.88
281.662	162.88
281.894	161.88
282.125	182.88
282.356	190.88
282.588	189.88
282.819	184.88
283.051	175.88
283.282	161.88
283.513	161.88
283.745	174.88
283.976	169.88
284.207	166.88
284.439	166.88
284.67	173.88
284.901	175.88
285.132	169.88
285.364	189.88
285.595	165.88
285.826	167.88
286.057	184.88
286.288	185.88
286.52	176.88
286.751	179.88
286.982	184.88
287.213	174.88
287.444	173.88
287.675	179.88
287.906	172.88
288.138	181.88
288.369	173.88
288.6	168.88
288.831	179.88
289.062	175.88
289.293	175.88
289.524	188.88
289.755	165.88
289.986	170.88
290.217	187.88
290.448	181.88
290.679	184.88
290.91	162.88
291.141	177.88
291.371	170.88
291.602	179.88
291.833	167.88
292.064	183.88
292.295	188.88
292.526	195.88
292.757	181.88
292.987	176.88
293.218	187.88
293.449	168.88
293.68	181.88
293.91	174.88
294.141	183.88
294.372	173.88
294.603	190.88
294.833	182.88
295.064	184.88
295.295	176.88
295.525	186.88
295.756	182.88
295.987	173.88
296.217	178.88
296.448	205.88
296.679	187.88
296.909	181.88
297.14	199.88
297.37	191.88
297.601	191.88
297.831	176.88
298.062	195.88
298.292	175.88
298.523	199.88
298.753	174.88
298.984	188.88
299.214	197.88
299.445	191.88
299.675	187.88
299.905	188.88
300.136	195.88
300.366	184.88
300.597	186.88
300.827	188.88
301.057	205.88
301.288	199.88
301.518	194.88
301.748	195.88
301.979	191.88
302.209	200.88
302.439	212.88
302.669	189.88
302.9	206.88
303.13	182.88
303.36	198.88
303.59	204.88
303.82	193.88
304.051	191.88
304.281	208.88
304.511	201.88
304.741	186.88
304.971	208.88
305.201	199.88
305.431	189.88
305.661	199.88
305.891	202.88
306.121	193.88
306.352	192.88
306.582	206.88
306.812	178.88
307.042	193.88
307.272	193.88
307.502	192.88
307.731	201.88
307.961	200.88
308.191	201.88
308.421	190.88
308.651	193.88
308.881	187.88
309.111	211.88
309.341	206.88
309.571	205.88
309.8	230.88
310.03	211.88
310.26	213.88
310.49	219.88
310.72	222.88
310.949	234.88
311.179	237.88
311.409	228.88
311.639	201.88
311.868	230.88
312.098	215.88
312.328	224.88
312.557	240.88
312.787	226.88
313.017	232.88
313.246	219.88
313.476	231.88
313.706	204.88
313.935	208.88
314.165	216.88
314.394	227.88
314.624	232.88
314.853	225.88
315.083	231.88
315.312	238.88
315.542	225.88
315.771	231.88
316.001	213.88
316.23	199.88
316.46	207.88
316.689	217.88
316.919	215.88
317.148	221.88
317.377	240.88
317.607	228.88
317.836	234.88
318.065	234.88
318.295	234.88
318.524	204.88
318.753	188.88
318.983	226.88
319.212	207.88
319.441	221.88
319.67	243.88
319.9	214.88
320.129	227.88
320.358	214.88
320.587	216.88
320.816	222.88
321.046	221.88
321.275	221.88
321.504	234.88
321.733	234.88
321.962	247.88
322.191	238.88
322.42	249.88
322.649	257.88
322.878	246.88
323.108	278.88
323.337	267.88
323.566	285.88
323.795	285.88
324.024	305.88
324.253	394.88
324.482	547.88
324.71	814.88
324.939	1074.88
325.168	875.88
325.397	469.88
325.626	339.88
325.855	277.88
326.084	252.88
326.313	270.88
326.542	284.88
326.77	294.88
326.999	355.88
327.228	501.88
327.457	728.88
327.686	818.88
327.914	545.88
328.143	376.88
328.372	337.88
328.6	315.88
328.829	299.88
329.058	330.88
329.287	326.88
329.515	323.88
329.744	274.88
329.972	286.88
330.201	299.88
330.43	347.88
330.658	345.88
330.887	351.88
331.115	336.88
331.344	301.88
331.572	280.88
331.801	281.88
332.03	268.88
332.258	274.88
332.486	245.88
332.715	237.88
332.943	269.88
333.172	256.88
333.4	266.88
333.629	273.88
333.857	271.88
334.085	285.88
334.314	282.88
334.542	305.88
334.771	329.88
334.999	303.88
335.227	281.88
335.455	257.88
335.684	240.88
335.912	251.88
336.14	250.88
336.369	235.88
336.597	245.88
336.825	249.88
337.053	254.88
337.281	229.88
337.51	222.88
337.738	240.88
337.966	241.88
338.194	221.88
338.422	250.88
338.65	245.88
338.878	220.88
339.106	243.88
339.334	226.88
339.562	224.88
339.79	247.88
340.018	237.88
340.246	226.88
340.474	246.88
340.702	225.88
340.93	241.88
341.158	219.88
341.386	216.88
341.614	235.88
341.842	253.88
342.07	235.88
342.298	241.88
342.526	243.88
342.754	230.88
342.981	223.88
343.209	237.88
343.437	229.88
343.665	230.88
343.893	241.88
344.12	251.88
344.348	256.88
344.576	233.88
344.804	243.88
345.031	242.88
345.259	268.88
345.487	250.88
345.714	243.88
345.942	227.88
346.17	236.88
346.397	242.88
346.625	230.88
346.853	247.88
347.08	235.88
347.308	232.88
347.535	219.88
347.763	256.88
347.99	252.88
348.218	242.88
348.445	235.88
348.673	243.88
348.9	231.88
349.128	229.88
349.355	215.88
349.583	216.88
349.81	224.88
350.037	225.88
350.265	205.88
350.492	213.88
350.72	227.88
350.947	224.88
351.174	239.88
351.402	237.88
351.629	232.88
351.856	232.88
352.083	236.88
352.311	241.88
352.538	234.88
352.765	245.88
352.992	232.88
353.22	234.88
353.447	235.88
353.674	218.88
353.901	227.88
354.128	229.88
354.355	223.88
354.583	209.88
354.81	215.88
355.037	216.88
355.264	205.88
355.491	211.88
355.718	201.88
355.945	214.88
356.172	210.88
356.399	197.88
356.626	209.88
356.853	210.88
357.08	211.88
357.307	216.88
357.534	199.88
357.761	206.88
357.988	213.88
358.215	224.88
358.441	194.88
358.668	229.88
358.895	222.88
359.122	220.88
359.349	233.88
359.576	217.88
359.802	231.88
360.029	254.88
360.256	272.88
360.483	264.88
360.709	225.88
360.936	236.88
361.163	213.88
361.39	234.88
361.616	230.88
361.843	238.88
362.07	238.88
362.296	215.88
362.523	235.88
362.749	230.88
362.976	227.88
363.203	220.88
363.429	220.88
363.656	222.88
363.882	212.88
364.109	215.88
364.335	221.88
364.562	218.88
364.788	222.88
365.015	215.88
365.241	222.88
365.468	231.88
365.694	196.88
365.92	217.88
366.147	222.88
366.373	218.88
366.599	222.88
366.826	219.88
367.052	221.88
367.278	217.88
367.505	227.88
367.731	203.88
367.957	213.88
368.184	205.88
368.41	213.88
368.636	202.88
368.862	220.88
369.089	211.88
369.315	207.88
369.541	219.88
369.767	213.88
369.993	228.88
370.219	205.88
370.445	226.88
370.672	223.88
370.898	218.88
371.124	220.88
371.35	211.88
371.576	215.88
371.802	201.88
372.028	218.88
372.254	202.88
372.48	213.88
372.706	222.88
372.932	219.88
373.158	215.88
373.384	234.88
373.61	224.88
373.835	217.88
374.061	209.88
374.287	222.88
374.513	215.88
374.739	208.88
374.965	203.88
375.191	205.88
375.416	220.88
375.642	224.88
375.868	222.88
376.094	215.88
376.319	225.88
376.545	208.88
376.771	218.88
376.997	226.88
377.222	217.88
377.448	232.88
377.674	211.88
377.899	207.88
378.125	217.88
378.35	215.88
378.576	210.88
378.802	220.88
379.027	221.88
379.253	211.88
379.478	201.88
379.704	206.88
379.929	219.88
380.155	229.88
380.38	224.88
380.606	221.88
380.831	232.88
381.057	205.88
381.282	221.88
381.507	214.88
381.733	222.88
381.958	209.88
382.184	214.88
382.409	233.88
382.634	224.88
382.86	203.88
383.085	220.88
383.31	241.88
383.535	220.88
383.761	223.88
383.986	243.88
384.211	232.88
384.436	225.88
384.662	220.88
384.887	225.88
385.112	235.88
385.337	214.88
385.562	215.88
385.787	230.88
386.013	233.88
386.238	234.88
386.463	238.88
386.688	236.88
386.913	231.88
387.138	219.88
387.363	242.88
387.588	216.88
387.813	227.88
388.038	248.88
388.263	225.88
388.488	231.88
388.713	235.88
388.938	233.88
389.163	235.88
389.387	236.88
389.612	217.88
389.837	238.88
390.062	230.88
390.287	245.88
390.512	227.88
390.736	239.88
390.961	228.88
391.186	227.88
391.411	249.88
391.636	234.88
391.86	247.88
392.085	221.88
392.31	228.88
392.534	230.88
392.759	233.88
392.984	233.88
393.208	231.88
393.433	225.88
393.658	251.88
393.882	231.88
394.107	231.88
394.331	239.88
394.556	250.88
394.78	248.88
395.005	224.88
395.229	234.88
395.454	226.88
395.678	229.88
395.903	244.88
396.127	237.88
396.352	264.88
396.576	236.88
396.801	241.88
397.025	251.88
397.249	245.88
397.474	250.88
397.698	245.88
397.922	241.88
398.147	256.88
398.371	269.88
398.595	242.88
398.82	261.88
399.044	265.88
399.268	270.88
399.492	283.88
399.717	293.88
399.941	310.88
400.165	310.88
400.389	318.88
400.613	276.88
400.837	271.88
401.062	272.88
401.286	244.88
401.51	258.88
401.734	249.88
401.958	263.88
402.182	265.88
402.406	271.88
402.63	284.88
402.854	270.88
403.078	268.88
403.302	275.88
403.526	278.88
403.75	270.88
403.974	280.88
404.198	257.88
404.422	280.88
404.645	283.88
404.869	302.88
405.093	286.88
405.317	314.88
405.541	333.88
405.765	289.88
405.988	285.88
406.212	290.88
406.436	302.88
406.66	299.88
406.883	293.88
407.107	294.88
407.331	314.88
407.555	347.88
407.778	332.88
408.002	317.88
408.226	305.88
408.449	288.88
408.673	293.88
408.896	306.88
409.12	321.88
409.344	298.88
409.567	263.88
409.791	286.88
410.014	281.88
410.238	283.88
410.461	272.88
410.685	279.88
410.908	267.88
411.132	300.88
411.355	307.88
411.578	303.88
411.802	272.88
412.025	258.88
412.249	273.88
412.472	281.88
412.695	317.88
412.919	305.88
413.142	286.88
413.365	276.88
413.589	267.88
413.812	273.88
414.035	272.88
414.258	253.88
414.482	261.88
414.705	242.88
414.928	269.88
415.151	277.88
415.374	267.88
415.597	262.88
415.821	263.88
416.044	276.88
416.267	255.88
416.49	260.88
416.713	230.88
416.936	262.88
417.159	266.88
417.382	258.88
417.605	250.88
417.828	270.88
418.051	278.88
418.274	281.88
418.497	249.88
418.72	274.88
418.943	258.88
419.166	273.88
419.389	288.88
419.611	281.88
419.834	265.88
420.057	278.88
420.28	284.88
420.503	275.88
420.726	270.88
420.948	279.88
421.171	302.88
421.394	304.88
421.617	286.88
421.839	288.88
422.062	281.88
422.285	285.88
422.507	309.88
422.73	351.88
422.953	325.88
423.175	290.88
423.398	276.88
423.621	268.88
423.843	306.88
424.066	281.88
424.288	282.88
424.511	293.88
424.733	309.88
424.956	359.88
425.178	337.88
425.401	330.88
425.623	354.88
425.846	311.88
426.068	295.88
426.291	289.88
426.513	271.88
426.735	277.88
426.958	295.88
427.18	349.88
427.402	404.88
427.625	454.88
427.847	388.88
428.069	339.88
428.292	296.88
428.514	283.88
428.736	266.88
428.958	272.88
429.181	248.88
429.403	268.88
429.625	283.88
429.847	302.88
430.069	294.88
430.292	306.88
430.514	269.88
430.736	252.88
430.958	269.88
431.18	260.88
431.402	260.88
431.624	257.88
431.846	258.88
432.068	240.88
432.29	257.88
432.512	252.88
432.734	243.88
432.956	255.88
433.178	279.88
433.4	257.88
433.622	267.88
433.844	265.88
434.066	253.88
434.287	251.88
434.509	269.88
434.731	263.88
434.953	280.88
435.175	279.88
435.397	295.88
435.618	294.88
435.84	306.88
436.062	338.88
436.284	357.88
436.505	316.88
436.727	282.88
436.949	271.88
437.17	267.88
437.392	265.88
437.614	272.88
437.835	292.88
438.057	338.88
438.278	379.88
438.5	375.88
438.721	383.88
438.943	338.88
439.165	288.88
439.386	284.88
439.608	291.88
439.829	282.88
440.05	302.88
440.272	313.88
440.493	309.88
440.715	290.88
440.936	282.88
441.158	279.88
441.379	282.88
441.6	275.88
441.822	304.88
442.043	329.88
442.264	332.88
442.486	369.88
442.707	319.88
442.928	293.88
443.149	301.88
443.371	313.88
443.592	338.88
443.813	370.88
444.034	394.88
444.255	320.88
444.476	291.88
444.698	294.88
444.919	298.88
445.14	374.88
445.361	327.88
445.582	322.88
445.803	332.88
446.024	389.88
446.245	391.88
446.466	341.88
446.687	294.88
446.908	298.88
447.129	276.88
447.35	284.88
447.571	258.88
447.792	262.88
448.013	253.88
448.234	274.88
448.455	299.88
448.675	351.88
448.896	385.88
449.117	349.88
449.338	300.88
449.559	358.88
449.779	411.88
450	331.88
450.221	291.88
450.442	292.88
450.662	269.88
450.883	281.88
451.104	274.88
451.324	285.88
451.545	269.88
451.766	243.88
451.986	254.88
452.207	229.88
452.428	250.88
452.648	242.88
452.869	253.88
453.089	250.88
453.31	268.88
453.53	261.88
453.751	243.88
453.971	254.88
454.192	279.88
454.412	247.88
454.633	245.88
454.853	243.88
455.073	252.88
455.294	259.88
455.514	294.88
455.734	286.88
455.955	241.88
456.175	226.88
456.395	249.88
456.616	217.88
456.836	221.88
457.056	224.88
457.276	214.88
457.497	209.88
457.717	240.88
457.937	218.88
458.157	230.88
458.377	236.88
458.598	245.88
458.818	272.88
459.038	331.88
459.258	324.88
459.478	271.88
459.698	267.88
459.918	262.88
460.138	271.88
460.358	251.88
460.578	246.88
460.798	257.88
461.018	273.88
461.238	262.88
461.458	258.88
461.678	255.88
461.898	240.88
462.118	247.88
462.338	285.88
462.558	262.88
462.777	283.88
462.997	271.88
463.217	286.88
463.437	267.88
463.657	274.88
463.876	276.88
464.096	268.88
464.316	277.88
464.536	281.88
464.755	270.88
464.975	269.88
465.195	333.88
465.414	377.88
465.634	306.88
465.854	283.88
466.073	270.88
466.293	255.88
466.512	256.88
466.732	255.88
466.951	233.88
467.171	263.88
467.391	242.88
467.61	262.88
467.829	263.88
468.049	262.88
468.268	267.88
468.488	258.88
468.707	256.88
468.927	248.88
469.146	237.88
469.365	245.88
469.585	263.88
469.804	259.88
470.023	253.88
470.243	271.88
470.462	246.88
470.681	275.88
470.901	267.88
471.12	269.88
471.339	250.88
471.558	274.88
471.777	270.88
471.997	248.88
472.216	265.88
472.435	300.88
472.654	269.88
472.873	251.88
473.092	224.88
473.311	253.88
473.53	240.88
473.749	279.88
473.968	285.88
474.187	337.88
474.406	333.88
474.625	262.88
474.844	266.88
475.063	251.88
475.282	278.88
475.501	250.88
475.72	256.88
475.939	265.88
476.158	267.88
476.377	271.88
476.596	264.88
476.814	262.88
477.033	266.88
477.252	261.88
477.471	249.88
477.69	264.88
477.908	278.88
478.127	265.88
478.346	265.88
478.564	278.88
478.783	253.88
479.002	265.88
479.22	291.88
479.439	271.88
479.658	304.88
479.876	296.88
480.095	305.88
480.313	318.88
480.532	309.88
480.751	294.88
480.969	320.88
481.188	374.88
481.406	416.88
481.624	340.88
481.843	308.88
482.061	295.88
482.28	291.88
482.498	283.88
482.717	283.88
482.935	285.88
483.153	277.88
483.372	289.88
483.59	285.88
483.808	288.88
484.027	271.88
484.245	304.88
484.463	295.88
484.681	298.88
484.9	283.88
485.118	295.88
485.336	282.88
485.554	309.88
485.772	303.88
485.99	282.88
486.209	308.88
486.427	311.88
486.645	305.88
486.863	316.88
487.081	293.88
487.299	309.88
487.517	329.88
487.735	333.88
487.953	315.88
488.171	333.88
488.389	306.88
488.607	293.88
488.825	305.88
489.043	312.88
489.261	315.88
489.479	306.88
489.696	336.88
489.914	314.88
490.132	323.88
490.35	321.88
490.568	325.88
490.786	316.88
491.003	341.88
491.221	342.88
491.439	358.88
491.657	369.88
491.874	370.88
492.092	355.88
492.31	371.88
492.527	354.88
492.745	375.88
492.963	377.88
493.18	346.88
493.398	361.88
493.615	377.88
493.833	382.88
494.05	353.88
494.268	376.88
494.485	369.88
494.703	371.88
494.92	374.88
495.138	359.88
495.355	366.88
495.573	362.88
495.79	359.88
496.008	353.88
496.225	349.88
496.442	354.88
496.66	379.88
496.877	358.88
497.094	341.88
497.312	356.88
497.529	363.88
497.746	363.88
497.963	377.88
498.181	377.88
498.398	363.88
498.615	402.88
498.832	406.88
499.049	390.88
499.267	398.88
499.484	425.88
499.701	425.88
499.918	416.88
500.135	438.88
500.352	473.88
500.569	485.88
500.786	486.88
501.003	470.88
501.22	482.88
501.437	445.88
501.654	446.88
501.871	460.88
502.088	431.88
502.305	407.88
502.522	385.88
502.739	389.88
502.956	358.88
503.172	356.88
503.389	358.88
503.606	373.88
503.823	379.88
504.04	369.88
504.256	361.88
504.473	352.88
504.69	356.88
504.907	342.88
505.123	355.88
505.34	344.88
505.557	339.88
505.773	342.88
505.99	356.88
506.207	325.88
506.423	342.88
506.64	358.88
506.856	344.88
507.073	328.88
507.289	340.88
507.506	343.88
507.722	352.88
507.939	358.88
508.155	343.88
508.372	329.88
508.588	309.88
508.805	328.88
509.021	331.88
509.238	335.88
509.454	351.88
509.67	344.88
509.887	311.88
510.103	321.88
510.319	342.88
510.536	407.88
510.752	815.88
510.968	600.88
511.184	344.88
511.401	311.88
511.617	332.88
511.833	313.88
512.049	301.88
512.265	309.88
512.481	290.88
512.698	297.88
512.914	325.88
513.13	296.88
513.346	296.88
513.562	312.88
513.778	315.88
513.994	327.88
514.21	335.88
514.426	342.88
514.642	365.88
514.858	355.88
515.074	412.88
515.29	517.88
515.506	865.88
515.721	676.88
515.937	390.88
516.153	345.88
516.369	337.88
516.585	343.88
516.801	308.88
517.016	317.88
517.232	297.88
517.448	326.88
517.664	329.88
517.879	312.88
518.095	323.88
518.311	300.88
518.527	315.88
518.742	327.88
518.958	325.88
519.173	297.88
519.389	322.88
519.605	306.88
519.82	311.88
520.036	320.88
520.251	330.88
520.467	340.88
520.682	343.88
520.898	354.88
521.113	357.88
521.329	397.88
521.544	451.88
521.76	635.88
521.975	1191.88
522.19	1175.88
522.406	555.88
522.621	370.88
522.836	313.88
523.052	314.88
523.267	312.88
523.482	290.88
523.698	291.88
523.913	287.88
524.128	287.88
524.343	268.88
524.559	271.88
524.774	278.88
524.989	275.88
525.204	274.88
525.419	275.88
525.634	275.88
525.849	280.88
526.064	259.88
526.28	274.88
526.495	270.88
526.71	257.88
526.925	270.88
527.14	243.88
527.355	263.88
527.57	255.88
527.785	262.88
527.999	253.88
528.214	272.88
528.429	251.88
528.644	232.88
528.859	274.88
529.074	265.88
529.289	270.88
529.503	356.88
529.718	296.88
529.933	283.88
530.148	257.88
530.363	259.88
530.577	248.88
530.792	245.88
531.007	266.88
531.221	248.88
531.436	252.88
531.651	248.88
531.865	242.88
532.08	250.88
532.295	238.88
532.509	265.88
532.724	251.88
532.938	236.88
533.153	248.88
533.367	250.88
533.582	253.88
533.796	246.88
534.011	252.88
534.225	249.88
534.44	243.88
534.654	230.88
534.868	244.88
535.083	230.88
535.297	241.88
535.511	251.88
535.726	249.88
535.94	253.88
536.154	258.88
536.369	255.88
536.583	258.88
536.797	230.88
537.011	228.88
537.225	241.88
537.44	240.88
537.654	232.88
537.868	231.88
538.082	248.88
538.296	237.88
538.51	230.88
538.724	241.88
538.938	239.88
539.153	239.88
539.367	250.88
539.581	238.88
539.795	240.88
540.009	245.88
540.222	252.88
540.436	248.88
540.65	224.88
540.864	237.88
541.078	254.88
541.292	241.88
541.506	237.88
541.72	221.88
541.934	238.88
542.147	248.88
542.361	232.88
542.575	232.88
542.789	247.88
543.002	254.88
543.216	242.88
543.43	246.88
543.644	233.88
543.857	227.88
544.071	242.88
544.285	254.88
544.498	258.88
544.712	256.88
544.925	242.88
545.139	239.88
545.352	226.88
545.566	245.88
545.779	221.88
545.993	242.88
546.206	229.88
546.42	241.88
546.633	239.88
546.847	231.88
547.06	236.88
547.274	235.88
547.487	209.88
547.7	225.88
547.914	224.88
548.127	234.88
548.34	221.88
548.554	248.88
548.767	233.88
548.98	223.88
549.193	233.88
549.407	238.88
549.62	229.88
549.833	226.88
550.046	230.88
550.259	228.88
550.473	224.88
550.686	215.88
550.899	209.88
551.112	256.88
551.325	236.88
551.538	221.88
551.751	224.88
551.964	218.88
552.177	217.88
552.39	238.88
552.603	223.88
552.816	233.88
553.029	215.88
553.242	231.88
553.455	220.88
553.667	236.88
553.88	260.88
554.093	257.88
554.306	247.88
554.519	241.88
554.732	214.88
554.944	215.88
555.157	230.88
555.37	214.88
555.583	226.88
555.795	231.88
556.008	227.88
556.221	199.88
556.433	219.88
556.646	216.88
556.859	202.88
557.071	207.88
557.284	203.88
557.496	203.88
557.709	211.88
557.921	219.88
558.134	199.88
558.346	207.88
558.559	215.88
558.771	192.88
558.984	211.88
559.196	201.88
559.409	215.88
559.621	213.88
559.833	196.88
560.046	195.88
560.258	198.88
560.47	205.88
560.683	219.88
560.895	202.88
561.107	206.88
561.32	201.88
561.532	200.88
561.744	214.88
561.956	219.88
562.168	221.88
562.381	222.88
562.593	196.88
562.805	220.88
563.017	215.88
563.229	206.88
563.441	208.88
563.653	203.88
563.865	213.88
564.077	208.88
564.289	213.88
564.501	223.88
564.713	221.88
564.925	214.88
565.137	231.88
565.349	223.88
565.561	228.88
565.773	222.88
565.985	216.88
566.197	247.88
566.408	228.88
566.62	233.88
566.832	246.88
567.044	263.88
567.255	243.88
567.467	244.88
567.679	241.88
567.891	244.88
568.102	247.88
568.314	257.88
568.526	252.88
568.737	215.88
568.949	224.88
569.161	219.88
569.372	215.88
569.584	208.88
569.795	222.88
570.007	193.88
570.218	238.88
570.43	219.88
570.641	198.88
570.853	208.88
571.064	213.88
571.276	193.88
571.487	183.88
571.698	191.88
571.91	185.88
572.121	187.88
572.333	203.88
572.544	194.88
572.755	193.88
572.966	176.88
573.178	185.88
573.389	179.88
573.6	183.88
573.811	181.88
574.023	187.88
574.234	182.88
574.445	173.88
574.656	179.88
574.867	181.88
575.078	188.88
575.289	178.88
575.501	187.88
575.712	181.88
575.923	184.88
576.134	183.88
576.345	198.88
576.556	179.88
576.767	188.88
576.978	206.88
577.188	178.88
577.399	191.88
577.61	184.88
577.821	167.88
578.032	197.88
578.243	218.88
578.454	389.88
578.665	281.88
578.875	193.88
579.086	172.88
579.297	182.88
579.508	163.88
579.718	172.88
579.929	184.88
580.14	184.88
580.35	188.88
580.561	170.88
580.772	169.88
580.982	185.88
581.193	171.88
581.403	173.88
581.614	179.88
581.825	183.88
582.035	171.88
582.246	155.88
582.456	167.88
582.667	175.88
582.877	182.88
583.087	157.88
583.298	184.88
583.508	166.88
583.719	167.88
583.929	166.88
584.139	157.88
584.35	153.88
584.56	161.88
584.77	163.88
584.981	162.88
585.191	174.88
585.401	173.88
585.611	178.88
585.821	157.88
586.032	171.88
586.242	178.88
586.452	163.88
586.662	166.88
586.872	165.88
587.082	167.88
587.292	179.88
587.502	170.88
587.713	163.88
587.923	160.88
588.133	176.88
588.343	174.88
588.553	172.88
588.762	175.88
588.972	169.88
589.182	162.88
589.392	183.88
589.602	177.88
589.812	171.88
590.022	153.88
590.232	171.88
590.441	174.88
590.651	165.88
590.861	162.88
591.071	165.88
591.281	165.88
591.49	155.88
591.7	169.88
591.91	166.88
592.119	169.88
592.329	171.88
592.539	171.88
592.748	182.88
592.958	175.88
593.167	174.88
593.377	170.88
593.587	197.88
593.796	176.88
594.006	181.88
594.215	161.88
594.424	160.88
594.634	173.88
594.843	160.88
595.053	167.88
595.262	183.88
595.472	166.88
595.681	174.88
595.89	175.88
596.1	170.88
596.309	156.88
596.518	161.88
596.727	158.88
596.937	159.88
597.146	166.88
597.355	165.88
597.564	162.88
597.774	172.88
597.983	167.88
598.192	151.88
598.401	155.88
598.61	151.88
598.819	161.88
599.028	153.88
599.237	167.88
599.446	161.88
599.655	169.88
599.864	153.88
600.073	155.88
600.282	161.88
600.491	154.88
600.7	154.88
600.909	164.88
601.118	143.88
601.327	162.88
601.536	140.88
601.745	155.88
601.953	153.88
602.162	159.88
602.371	157.88
602.58	160.88
602.789	146.88
602.997	151.88
603.206	156.88
603.415	139.88
603.623	162.88
603.832	150.88
604.041	149.88
604.249	153.88
604.458	169.88
604.666	161.88
604.875	140.88
605.084	155.88
605.292	156.88
605.501	134.88
605.709	158.88
605.918	138.88
606.126	154.88
606.334	144.88
606.543	156.88
606.751	147.88
606.96	140.88
607.168	159.88
607.376	131.88
607.585	152.88
607.793	136.88
608.001	146.88
608.21	136.88
608.418	133.88
608.626	161.88
608.834	143.88
609.043	162.88
609.251	144.88
609.459	146.88
609.667	153.88
609.875	141.88
610.083	154.88
610.291	147.88
610.499	144.88
610.707	160.88
610.916	159.88
611.124	144.88
611.332	159.88
611.54	155.88
611.748	157.88
611.955	165.88
612.163	167.88
612.371	158.88
612.579	146.88
612.787	158.88
612.995	149.88
613.203	153.88
613.411	139.88
613.618	151.88
613.826	150.88
614.034	142.88
614.242	142.88
614.449	150.88
614.657	151.88
614.865	146.88
615.072	139.88
615.28	144.88
615.488	135.88
615.695	150.88
615.903	165.88
616.111	143.88
616.318	160.88
616.526	147.88
616.733	147.88
616.941	141.88
617.148	139.88
617.356	131.88
617.563	141.88
617.771	141.88
617.978	170.88
618.185	155.88
618.393	149.88
618.6	151.88
618.807	140.88
619.015	161.88
619.222	156.88
619.429	142.88
619.637	152.88
619.844	151.88
620.051	156.88
620.258	142.88
620.466	136.88
620.673	143.88
620.88	135.88
621.087	139.88
621.294	125.88
621.501	143.88
621.708	132.88
621.915	137.88
622.122	153.88
622.329	150.88
622.536	150.88
622.743	138.88
622.95	165.88
623.157	135.88
623.364	141.88
623.571	127.88
623.778	127.88
623.985	142.88
624.192	137.88
624.399	122.88
624.606	157.88
624.812	127.88
625.019	157.88
625.226	148.88
625.433	133.88
625.639	132.88
625.846	132.88
626.053	124.88
626.259	124.88
626.466	130.88
626.673	150.88
626.879	135.88
627.086	139.88
627.293	138.88
627.499	131.88
627.706	147.88
627.912	139.88
628.119	134.88
628.325	135.88
628.532	151.88
628.738	133.88
628.945	130.88
629.151	117.88
629.357	124.88
629.564	114.88
629.77	141.88
629.976	114.88
630.183	127.88
630.389	129.88
630.595	140.88
630.802	127.88
631.008	127.88
631.214	133.88
631.42	138.88
631.627	139.88
631.833	122.88
632.039	126.88
632.245	155.88
632.451	132.88
632.657	123.88
632.863	122.88
633.069	130.88
633.275	121.88
633.481	132.88
633.688	112.88
633.893	127.88
634.099	125.88
634.305	135.88
634.511	125.88
634.717	131.88
634.923	126.88
635.129	125.88
635.335	128.88
635.541	105.88
635.747	115.88
635.952	113.88
636.158	124.88
636.364	134.88
636.57	130.88
636.775	127.88
636.981	138.88
637.187	127.88
637.392	134.88
637.598	135.88
637.804	124.88
638.009	120.88
638.215	123.88
638.421	127.88
638.626	126.88
638.832	123.88
639.037	113.88
639.243	127.88
639.448	128.88
639.654	115.88
639.859	130.88
640.065	117.88
640.27	138.88
640.475	135.88
640.681	119.88
640.886	129.88
641.091	115.88
641.297	117.88
641.502	132.88
641.707	115.88
641.913	117.88
642.118	129.88
642.323	135.88
642.528	131.88
642.733	129.88
642.939	136.88
643.144	123.88
643.349	119.88
643.554	115.88
643.759	121.88
643.964	121.88
644.169	126.88
644.374	120.88
644.579	119.88
644.784	118.88
644.989	118.88
645.194	138.88
645.399	131.88
645.604	119.88
645.809	127.88
646.014	118.88
646.219	109.88
646.423	113.88
646.628	117.88
646.833	127.88
647.038	114.88
647.243	139.88
647.447	112.88
647.652	121.88
647.857	109.88
648.062	129.88
648.266	119.88
648.471	134.88
648.676	123.88
648.88	107.88
649.085	119.88
649.289	135.88
649.494	115.88
649.698	136.88
649.903	133.88
650.107	122.88
650.312	117.88
650.516	123.88
650.721	115.88
650.925	120.88
651.13	123.88
651.334	119.88
651.539	123.88
651.743	111.88
651.947	115.88
652.152	112.88
652.356	112.88
652.56	127.88
652.764	127.88
652.969	110.88
653.173	105.88
653.377	102.88
653.581	112.88
653.785	102.88
653.99	106.88
654.194	117.88
654.398	107.88
654.602	123.88
654.806	110.88
655.01	117.88
655.214	121.88
655.418	102.88
655.622	104.88
655.826	105.88
656.03	112.88
656.234	122.88
656.438	129.88
656.642	113.88
656.846	102.88
657.049	108.88
657.253	114.88
657.457	89.88
657.661	94.88
657.865	99.88
658.068	109.88
658.272	97.88
658.476	107.88
658.68	88.88
658.883	78.88
659.087	103.88
659.291	91.88
659.494	87.88
659.698	72.88
659.901	93.88
660.105	101.88
660.309	94.88
660.512	90.88
660.716	88.88
660.919	93.88
661.123	89.88
661.326	88.88
661.53	93.88
661.733	97.88
661.936	94.88
662.14	91.88
662.343	95.88
662.546	83.88
662.75	87.88
662.953	91.88
663.156	99.88
663.36	70.88
663.563	80.88
663.766	77.88
663.969	83.88
664.173	84.88
664.376	87.88
664.579	88.88
664.782	81.88
664.985	88.88
665.188	72.88
665.391	101.88
665.594	91.88
665.797	77.88
666	80.88
666.203	85.88
666.406	94.88
666.609	83.88
666.812	98.88
667.015	88.88
667.218	83.88
667.421	87.88
667.624	83.88
667.827	93.88
668.03	91.88
668.232	87.88
668.435	94.88
668.638	82.88
668.841	89.88
669.043	90.88
669.246	84.88
669.449	102.88
669.651	84.88
669.854	87.88
670.057	91.88
670.259	89.88
670.462	80.88
670.665	84.88
670.867	85.88
671.07	92.88
671.272	92.88
671.475	95.88
671.677	89.88
671.88	98.88
672.082	89.88
672.284	98.88
672.487	81.88
672.689	92.88
672.892	94.88
