Data from 1966.PennyLincolnUp.Lamp.En5.5.200Scan.071719.P1.Scan2.head_HRD10591_14-19-14-251.txt Node
Date: Thu Jul 18 14:19:14 EDT 2019
User: cochatt
Spectrometer: HR+D1059
Trigger mode: 1
Integration Time (sec): 1.000000E-1
Scans to average: 1
Electric dark correction enabled: true
Nonlinearity correction enabled: false
Boxcar width: 0
XAxis mode: Wavelengths
Number of Pixels in Spectrum: 2048
>>>>>Begin Spectral Data<<<<<
223.165	-12.19
223.4	-12.19
223.635	-12.19
223.869	-22.19
224.104	-18.19
224.338	-8.19
224.573	2.81
224.808	-5.19
225.042	-29.19
225.277	-19.19
225.511	3.81
225.746	13.81
225.98	7.81
226.215	6.81
226.449	7.81
226.683	22.81
226.918	15.81
227.152	32.81
227.387	21.81
227.621	46.81
227.856	31.81
228.09	57.81
228.324	60.81
228.559	62.81
228.793	69.81
229.027	89.81
229.262	124.81
229.496	114.81
229.73	138.81
229.964	156.81
230.199	129.81
230.433	133.81
230.667	129.81
230.901	111.81
231.136	119.81
231.37	110.81
231.604	106.81
231.838	117.81
232.072	110.81
232.306	110.81
232.541	107.81
232.775	119.81
233.009	117.81
233.243	129.81
233.477	116.81
233.711	120.81
233.945	107.81
234.179	107.81
234.413	117.81
234.647	129.81
234.881	116.81
235.115	129.81
235.349	111.81
235.583	134.81
235.817	130.81
236.051	122.81
236.285	138.81
236.519	135.81
236.753	128.81
236.987	161.81
237.221	181.81
237.455	242.81
237.689	189.81
237.922	149.81
238.156	138.81
238.39	141.81
238.624	127.81
238.858	122.81
239.091	130.81
239.325	121.81
239.559	139.81
239.793	126.81
240.027	141.81
240.26	147.81
240.494	165.81
240.728	167.81
240.961	149.81
241.195	142.81
241.429	151.81
241.662	139.81
241.896	138.81
242.13	110.81
242.363	128.81
242.597	150.81
242.83	147.81
243.064	145.81
243.298	140.81
243.531	149.81
243.765	153.81
243.998	166.81
244.232	153.81
244.465	177.81
244.699	150.81
244.932	147.81
245.166	151.81
245.399	169.81
245.633	151.81
245.866	162.81
246.099	164.81
246.333	152.81
246.566	183.81
246.8	144.81
247.033	172.81
247.266	169.81
247.5	185.81
247.733	186.81
247.966	186.81
248.2	170.81
248.433	172.81
248.666	178.81
248.899	179.81
249.133	193.81
249.366	225.81
249.599	205.81
249.832	180.81
250.066	190.81
250.299	175.81
250.532	198.81
250.765	212.81
250.998	241.81
251.231	220.81
251.465	225.81
251.698	203.81
251.931	222.81
252.164	203.81
252.397	211.81
252.63	223.81
252.863	217.81
253.096	228.81
253.329	242.81
253.562	230.81
253.795	212.81
254.028	221.81
254.261	219.81
254.494	233.81
254.727	273.81
254.96	297.81
255.193	275.81
255.426	276.81
255.659	236.81
255.892	248.81
256.124	243.81
256.357	234.81
256.59	244.81
256.823	209.81
257.056	209.81
257.289	224.81
257.521	217.81
257.754	210.81
257.987	210.81
258.22	201.81
258.452	215.81
258.685	212.81
258.918	215.81
259.151	213.81
259.383	226.81
259.616	219.81
259.849	229.81
260.081	238.81
260.314	259.81
260.547	262.81
260.779	266.81
261.012	259.81
261.244	231.81
261.477	236.81
261.71	231.81
261.942	249.81
262.175	234.81
262.407	227.81
262.64	210.81
262.872	212.81
263.105	228.81
263.337	222.81
263.57	236.81
263.802	228.81
264.035	223.81
264.267	221.81
264.499	230.81
264.732	235.81
264.964	221.81
265.197	213.81
265.429	245.81
265.661	223.81
265.894	230.81
266.126	225.81
266.358	205.81
266.591	234.81
266.823	228.81
267.055	244.81
267.287	241.81
267.52	229.81
267.752	228.81
267.984	237.81
268.216	241.81
268.448	249.81
268.681	245.81
268.913	268.81
269.145	254.81
269.377	290.81
269.609	286.81
269.841	263.81
270.073	279.81
270.306	298.81
270.538	342.81
270.77	341.81
271.002	317.81
271.234	311.81
271.466	308.81
271.698	323.81
271.93	350.81
272.162	327.81
272.394	351.81
272.626	305.81
272.858	317.81
273.09	276.81
273.322	289.81
273.553	291.81
273.785	276.81
274.017	286.81
274.249	281.81
274.481	275.81
274.713	283.81
274.945	282.81
275.176	274.81
275.408	282.81
275.64	287.81
275.872	285.81
276.104	272.81
276.335	272.81
276.567	281.81
276.799	296.81
277.031	315.81
277.262	314.81
277.494	329.81
277.726	332.81
277.957	309.81
278.189	293.81
278.421	281.81
278.652	294.81
278.884	295.81
279.115	295.81
279.347	276.81
279.579	274.81
279.81	278.81
280.042	291.81
280.273	281.81
280.505	295.81
280.736	291.81
280.968	263.81
281.199	274.81
281.431	273.81
281.662	280.81
281.894	286.81
282.125	286.81
282.356	290.81
282.588	327.81
282.819	309.81
283.051	295.81
283.282	295.81
283.513	302.81
283.745	295.81
283.976	310.81
284.207	294.81
284.439	294.81
284.67	294.81
284.901	281.81
285.132	274.81
285.364	299.81
285.595	287.81
285.826	303.81
286.057	296.81
286.288	305.81
286.52	297.81
286.751	307.81
286.982	295.81
287.213	315.81
287.444	311.81
287.675	324.81
287.906	304.81
288.138	319.81
288.369	305.81
288.6	328.81
288.831	337.81
289.062	312.81
289.293	311.81
289.524	318.81
289.755	331.81
289.986	303.81
290.217	294.81
290.448	314.81
290.679	291.81
290.91	297.81
291.141	313.81
291.371	301.81
291.602	316.81
291.833	318.81
292.064	305.81
292.295	288.81
292.526	299.81
292.757	308.81
292.987	302.81
293.218	312.81
293.449	311.81
293.68	299.81
293.91	308.81
294.141	311.81
294.372	311.81
294.603	294.81
294.833	311.81
295.064	307.81
295.295	323.81
295.525	324.81
295.756	301.81
295.987	324.81
296.217	325.81
296.448	356.81
296.679	334.81
296.909	312.81
297.14	322.81
297.37	297.81
297.601	311.81
297.831	291.81
298.062	315.81
298.292	307.81
298.523	310.81
298.753	305.81
298.984	324.81
299.214	334.81
299.445	324.81
299.675	323.81
299.905	323.81
300.136	330.81
300.366	310.81
300.597	310.81
300.827	323.81
301.057	334.81
301.288	353.81
301.518	337.81
301.748	333.81
301.979	341.81
302.209	335.81
302.439	357.81
302.669	343.81
302.9	327.81
303.13	343.81
303.36	362.81
303.59	338.81
303.82	354.81
304.051	354.81
304.281	353.81
304.511	340.81
304.741	326.81
304.971	332.81
305.201	340.81
305.431	334.81
305.661	328.81
305.891	342.81
306.121	338.81
306.352	352.81
306.582	349.81
306.812	352.81
307.042	358.81
307.272	347.81
307.502	337.81
307.731	337.81
307.961	357.81
308.191	354.81
308.421	369.81
308.651	379.81
308.881	346.81
309.111	362.81
309.341	361.81
309.571	373.81
309.8	378.81
310.03	382.81
310.26	388.81
310.49	385.81
310.72	380.81
310.949	421.81
311.179	403.81
311.409	397.81
311.639	393.81
311.868	387.81
312.098	409.81
312.328	405.81
312.557	416.81
312.787	419.81
313.017	425.81
313.246	405.81
313.476	378.81
313.706	397.81
313.935	388.81
314.165	388.81
314.394	418.81
314.624	411.81
314.853	407.81
315.083	400.81
315.312	416.81
315.542	392.81
315.771	382.81
316.001	399.81
316.23	393.81
316.46	390.81
316.689	400.81
316.919	397.81
317.148	422.81
317.377	411.81
317.607	405.81
317.836	394.81
318.065	403.81
318.295	404.81
318.524	408.81
318.753	398.81
318.983	409.81
319.212	385.81
319.441	408.81
319.67	414.81
319.9	410.81
320.129	410.81
320.358	390.81
320.587	414.81
320.816	405.81
321.046	418.81
321.275	420.81
321.504	422.81
321.733	436.81
321.962	433.81
322.191	445.81
322.42	451.81
322.649	473.81
322.878	494.81
323.108	484.81
323.337	497.81
323.566	532.81
323.795	539.81
324.024	615.81
324.253	703.81
324.482	975.81
324.71	1540.81
324.939	2277.81
325.168	2073.81
325.397	981.81
325.626	684.81
325.855	558.81
326.084	540.81
326.313	510.81
326.542	515.81
326.77	571.81
326.999	662.81
327.228	905.81
327.457	1382.81
327.686	1743.81
327.914	1167.81
328.143	733.81
328.372	660.81
328.6	611.81
328.829	587.81
329.058	585.81
329.287	607.81
329.515	583.81
329.744	526.81
329.972	532.81
330.201	549.81
330.43	597.81
330.658	618.81
330.887	638.81
331.115	625.81
331.344	553.81
331.572	522.81
331.801	521.81
332.03	533.81
332.258	504.81
332.486	478.81
332.715	473.81
332.943	502.81
333.172	488.81
333.4	504.81
333.629	483.81
333.857	515.81
334.085	506.81
334.314	554.81
334.542	574.81
334.771	610.81
334.999	562.81
335.227	509.81
335.455	493.81
335.684	481.81
335.912	494.81
336.14	468.81
336.369	467.81
336.597	482.81
336.825	495.81
337.053	481.81
337.281	449.81
337.51	470.81
337.738	470.81
337.966	455.81
338.194	479.81
338.422	474.81
338.65	462.81
338.878	462.81
339.106	458.81
339.334	454.81
339.562	441.81
339.79	463.81
340.018	454.81
340.246	473.81
340.474	459.81
340.702	445.81
340.93	471.81
341.158	468.81
341.386	449.81
341.614	449.81
341.842	472.81
342.07	459.81
342.298	415.81
342.526	437.81
342.754	438.81
342.981	469.81
343.209	453.81
343.437	441.81
343.665	468.81
343.893	452.81
344.12	470.81
344.348	492.81
344.576	468.81
344.804	469.81
345.031	474.81
345.259	483.81
345.487	469.81
345.714	440.81
345.942	460.81
346.17	466.81
346.397	464.81
346.625	477.81
346.853	451.81
347.08	460.81
347.308	476.81
347.535	460.81
347.763	479.81
347.99	450.81
348.218	457.81
348.445	464.81
348.673	458.81
348.9	471.81
349.128	442.81
349.355	445.81
349.583	434.81
349.81	420.81
350.037	442.81
350.265	431.81
350.492	409.81
350.72	407.81
350.947	459.81
351.174	463.81
351.402	455.81
351.629	473.81
351.856	453.81
352.083	458.81
352.311	469.81
352.538	469.81
352.765	477.81
352.992	460.81
353.22	459.81
353.447	458.81
353.674	442.81
353.901	445.81
354.128	434.81
354.355	424.81
354.583	414.81
354.81	433.81
355.037	445.81
355.264	434.81
355.491	425.81
355.718	415.81
355.945	427.81
356.172	418.81
356.399	434.81
356.626	422.81
356.853	412.81
357.08	389.81
357.307	420.81
357.534	419.81
357.761	424.81
357.988	413.81
358.215	434.81
358.441	442.81
358.668	421.81
358.895	422.81
359.122	417.81
359.349	447.81
359.576	459.81
359.802	475.81
360.029	514.81
360.256	498.81
360.483	484.81
360.709	475.81
360.936	460.81
361.163	445.81
361.39	471.81
361.616	463.81
361.843	464.81
362.07	447.81
362.296	449.81
362.523	459.81
362.749	461.81
362.976	471.81
363.203	451.81
363.429	428.81
363.656	442.81
363.882	437.81
364.109	420.81
364.335	456.81
364.562	435.81
364.788	445.81
365.015	446.81
365.241	439.81
365.468	446.81
365.694	478.81
365.92	446.81
366.147	447.81
366.373	425.81
366.599	441.81
366.826	441.81
367.052	422.81
367.278	420.81
367.505	452.81
367.731	448.81
367.957	420.81
368.184	450.81
368.41	450.81
368.636	441.81
368.862	478.81
369.089	427.81
369.315	445.81
369.541	444.81
369.767	444.81
369.993	458.81
370.219	439.81
370.445	444.81
370.672	441.81
370.898	430.81
371.124	435.81
371.35	429.81
371.576	468.81
371.802	448.81
372.028	443.81
372.254	441.81
372.48	452.81
372.706	450.81
372.932	446.81
373.158	446.81
373.384	448.81
373.61	435.81
373.835	429.81
374.061	449.81
374.287	445.81
374.513	459.81
374.739	447.81
374.965	457.81
375.191	468.81
375.416	455.81
375.642	461.81
375.868	452.81
376.094	453.81
376.319	469.81
376.545	459.81
376.771	465.81
376.997	438.81
377.222	427.81
377.448	454.81
377.674	452.81
377.899	446.81
378.125	425.81
378.35	441.81
378.576	448.81
378.802	443.81
379.027	453.81
379.253	437.81
379.478	443.81
379.704	438.81
379.929	480.81
380.155	479.81
380.38	461.81
380.606	461.81
380.831	454.81
381.057	458.81
381.282	442.81
381.507	454.81
381.733	450.81
381.958	433.81
382.184	449.81
382.409	445.81
382.634	453.81
382.86	460.81
383.085	463.81
383.31	462.81
383.535	475.81
383.761	457.81
383.986	470.81
384.211	456.81
384.436	462.81
384.662	470.81
384.887	469.81
385.112	485.81
385.337	476.81
385.562	513.81
385.787	511.81
386.013	488.81
386.238	515.81
386.463	485.81
386.688	490.81
386.913	490.81
387.138	486.81
387.363	500.81
387.588	486.81
387.813	501.81
388.038	499.81
388.263	487.81
388.488	483.81
388.713	500.81
388.938	493.81
389.163	497.81
389.387	493.81
389.612	492.81
389.837	470.81
390.062	498.81
390.287	498.81
390.512	483.81
390.736	497.81
390.961	483.81
391.186	502.81
391.411	486.81
391.636	526.81
391.86	511.81
392.085	515.81
392.31	532.81
392.534	526.81
392.759	522.81
392.984	519.81
393.208	521.81
393.433	525.81
393.658	491.81
393.882	497.81
394.107	525.81
394.331	504.81
394.556	497.81
394.78	492.81
395.005	515.81
395.229	515.81
395.454	506.81
395.678	526.81
395.903	539.81
396.127	563.81
396.352	567.81
396.576	528.81
396.801	531.81
397.025	547.81
397.249	534.81
397.474	524.81
397.698	538.81
397.922	553.81
398.147	552.81
398.371	574.81
398.595	528.81
398.82	563.81
399.044	577.81
399.268	604.81
399.492	634.81
399.717	666.81
399.941	675.81
400.165	716.81
400.389	725.81
400.613	641.81
400.837	638.81
401.062	604.81
401.286	595.81
401.51	576.81
401.734	562.81
401.958	586.81
402.182	577.81
402.406	594.81
402.63	601.81
402.854	572.81
403.078	612.81
403.302	610.81
403.526	590.81
403.75	623.81
403.974	606.81
404.198	610.81
404.422	602.81
404.645	625.81
404.869	631.81
405.093	651.81
405.317	702.81
405.541	723.81
405.765	671.81
405.988	646.81
406.212	633.81
406.436	661.81
406.66	686.81
406.883	649.81
407.107	702.81
407.331	726.81
407.555	798.81
407.778	780.81
408.002	732.81
408.226	687.81
408.449	671.81
408.673	655.81
408.896	702.81
409.12	744.81
409.344	696.81
409.567	644.81
409.791	599.81
410.014	643.81
410.238	617.81
410.461	609.81
410.685	639.81
410.908	641.81
411.132	669.81
411.355	700.81
411.578	652.81
411.802	628.81
412.025	599.81
412.249	603.81
412.472	637.81
412.695	675.81
412.919	686.81
413.142	633.81
413.365	593.81
413.589	594.81
413.812	595.81
414.035	574.81
414.258	574.81
414.482	577.81
414.705	584.81
414.928	567.81
415.151	589.81
415.374	591.81
415.597	572.81
415.821	564.81
416.044	579.81
416.267	594.81
416.49	569.81
416.713	576.81
416.936	574.81
417.159	585.81
417.382	572.81
417.605	581.81
417.828	570.81
418.051	617.81
418.274	594.81
418.497	554.81
418.72	600.81
418.943	583.81
419.166	580.81
419.389	614.81
419.611	604.81
419.834	612.81
420.057	614.81
420.28	615.81
420.503	627.81
420.726	587.81
420.948	597.81
421.171	673.81
421.394	699.81
421.617	650.81
421.839	605.81
422.062	618.81
422.285	622.81
422.507	680.81
422.73	742.81
422.953	735.81
423.175	648.81
423.398	633.81
423.621	618.81
423.843	647.81
424.066	643.81
424.288	632.81
424.511	660.81
424.733	746.81
424.956	834.81
425.178	780.81
425.401	777.81
425.623	838.81
425.846	682.81
426.068	658.81
426.291	636.81
426.513	649.81
426.735	649.81
426.958	719.81
427.18	812.81
427.402	945.81
427.625	1045.81
427.847	901.81
428.069	785.81
428.292	712.81
428.514	657.81
428.736	617.81
428.958	611.81
429.181	614.81
429.403	563.81
429.625	582.81
429.847	633.81
430.069	711.81
430.292	726.81
430.514	614.81
430.736	603.81
430.958	602.81
431.18	594.81
431.402	559.81
431.624	553.81
431.846	559.81
432.068	546.81
432.29	579.81
432.512	568.81
432.734	614.81
432.956	583.81
433.178	586.81
433.4	576.81
433.622	584.81
433.844	562.81
434.066	567.81
434.287	582.81
434.509	582.81
434.731	578.81
434.953	614.81
435.175	628.81
435.397	611.81
435.618	639.81
435.84	725.81
436.062	799.81
436.284	884.81
436.505	718.81
436.727	674.81
436.949	615.81
437.17	612.81
437.392	607.81
437.614	599.81
437.835	654.81
438.057	775.81
438.278	861.81
438.5	873.81
438.721	935.81
438.943	946.81
439.165	736.81
439.386	671.81
439.608	652.81
439.829	650.81
440.05	670.81
440.272	732.81
440.493	693.81
440.715	632.81
440.936	615.81
441.158	609.81
441.379	583.81
441.6	587.81
441.822	635.81
442.043	699.81
442.264	795.81
442.486	831.81
442.707	719.81
442.928	670.81
443.149	675.81
443.371	700.81
443.592	745.81
443.813	863.81
444.034	924.81
444.255	770.81
444.476	686.81
444.698	642.81
444.919	629.81
445.14	758.81
445.361	716.81
445.582	699.81
445.803	763.81
446.024	861.81
446.245	911.81
446.466	810.81
446.687	701.81
446.908	643.81
447.129	607.81
447.35	597.81
447.571	586.81
447.792	575.81
448.013	570.81
448.234	603.81
448.455	684.81
448.675	796.81
448.896	918.81
449.117	791.81
449.338	750.81
449.559	859.81
449.779	992.81
450	795.81
450.221	652.81
450.442	579.81
450.662	586.81
450.883	581.81
451.104	596.81
451.324	599.81
451.545	570.81
451.766	540.81
451.986	528.81
452.207	534.81
452.428	536.81
452.648	532.81
452.869	529.81
453.089	559.81
453.31	535.81
453.53	555.81
453.751	550.81
453.971	531.81
454.192	548.81
454.412	563.81
454.633	522.81
454.853	531.81
455.073	509.81
455.294	558.81
455.514	621.81
455.734	616.81
455.955	535.81
456.175	504.81
456.395	494.81
456.616	494.81
456.836	514.81
457.056	507.81
457.276	488.81
457.497	486.81
457.717	494.81
457.937	508.81
458.157	513.81
458.377	518.81
458.598	558.81
458.818	602.81
459.038	692.81
459.258	714.81
459.478	619.81
459.698	577.81
459.918	579.81
460.138	579.81
460.358	590.81
460.578	569.81
460.798	611.81
461.018	585.81
461.238	573.81
461.458	609.81
461.678	565.81
461.898	607.81
462.118	573.81
462.338	583.81
462.558	607.81
462.777	600.81
462.997	627.81
463.217	643.81
463.437	646.81
463.657	607.81
463.876	635.81
464.096	615.81
464.316	605.81
464.536	637.81
464.755	634.81
464.975	619.81
465.195	674.81
465.414	715.81
465.634	656.81
465.854	605.81
466.073	579.81
466.293	573.81
466.512	555.81
466.732	532.81
466.951	549.81
467.171	523.81
467.391	536.81
467.61	565.81
467.829	572.81
468.049	580.81
468.268	554.81
468.488	522.81
468.707	555.81
468.927	530.81
469.146	523.81
469.365	545.81
469.585	537.81
469.804	539.81
470.023	550.81
470.243	541.81
470.462	562.81
470.681	567.81
470.901	564.81
471.12	566.81
471.339	565.81
471.558	563.81
471.777	571.81
471.997	542.81
472.216	569.81
472.435	585.81
472.654	604.81
472.873	565.81
473.092	537.81
473.311	548.81
473.53	558.81
473.749	575.81
473.968	608.81
474.187	708.81
474.406	734.81
474.625	617.81
474.844	577.81
475.063	564.81
475.282	544.81
475.501	555.81
475.72	577.81
475.939	567.81
476.158	599.81
476.377	554.81
476.596	550.81
476.814	586.81
477.033	596.81
477.252	607.81
477.471	603.81
477.69	604.81
477.908	611.81
478.127	628.81
478.346	577.81
478.564	630.81
478.783	638.81
479.002	631.81
479.22	642.81
479.439	643.81
479.658	685.81
479.876	667.81
480.095	699.81
480.313	734.81
480.532	673.81
480.751	686.81
480.969	712.81
481.188	757.81
481.406	819.81
481.624	725.81
481.843	673.81
482.061	679.81
482.28	665.81
482.498	659.81
482.717	638.81
482.935	665.81
483.153	650.81
483.372	657.81
483.59	652.81
483.808	649.81
484.027	672.81
484.245	669.81
484.463	652.81
484.681	680.81
484.9	651.81
485.118	682.81
485.336	668.81
485.554	686.81
485.772	689.81
485.99	675.81
486.209	661.81
486.427	710.81
486.645	686.81
486.863	703.81
487.081	719.81
487.299	706.81
487.517	721.81
487.735	715.81
487.953	698.81
488.171	722.81
488.389	700.81
488.607	737.81
488.825	693.81
489.043	729.81
489.261	708.81
489.479	701.81
489.696	732.81
489.914	711.81
490.132	721.81
490.35	759.81
490.568	733.81
490.786	746.81
491.003	754.81
491.221	807.81
491.439	797.81
491.657	791.81
491.874	798.81
492.092	792.81
492.31	807.81
492.527	823.81
492.745	818.81
492.963	821.81
493.18	825.81
493.398	823.81
493.615	843.81
493.833	860.81
494.05	827.81
494.268	833.81
494.485	815.81
494.703	802.81
494.92	828.81
495.138	825.81
495.355	831.81
495.573	854.81
495.79	834.81
496.008	870.81
496.225	827.81
496.442	844.81
496.66	854.81
496.877	860.81
497.094	858.81
497.312	883.81
497.529	851.81
497.746	889.81
497.963	895.81
498.181	901.81
498.398	923.81
498.615	937.81
498.832	951.81
499.049	999.81
499.267	1001.81
499.484	1025.81
499.701	1063.81
499.918	1101.81
500.135	1193.81
500.352	1189.81
500.569	1195.81
500.786	1205.81
501.003	1234.81
501.22	1165.81
501.437	1155.81
501.654	1120.81
501.871	1091.81
502.088	1062.81
502.305	985.81
502.522	973.81
502.739	935.81
502.956	926.81
503.172	880.81
503.389	866.81
503.606	894.81
503.823	871.81
504.04	870.81
504.256	831.81
504.473	839.81
504.69	861.81
504.907	818.81
505.123	837.81
505.34	842.81
505.557	793.81
505.773	826.81
505.99	843.81
506.207	810.81
506.423	798.81
506.64	797.81
506.856	791.81
507.073	778.81
507.289	769.81
507.506	763.81
507.722	798.81
507.939	825.81
508.155	791.81
508.372	748.81
508.588	772.81
508.805	746.81
509.021	755.81
509.238	769.81
509.454	763.81
509.67	769.81
509.887	724.81
510.103	765.81
510.319	741.81
510.536	869.81
510.752	1306.81
510.968	1097.81
511.184	769.81
511.401	739.81
511.617	744.81
511.833	713.81
512.049	705.81
512.265	714.81
512.481	706.81
512.698	726.81
512.914	705.81
513.13	679.81
513.346	713.81
513.562	706.81
513.778	693.81
513.994	738.81
514.21	740.81
514.426	758.81
514.642	789.81
514.858	802.81
515.074	827.81
515.29	976.81
515.506	1350.81
515.721	1152.81
515.937	846.81
516.153	755.81
516.369	765.81
516.585	740.81
516.801	737.81
517.016	731.81
517.232	764.81
517.448	751.81
517.664	744.81
517.879	747.81
518.095	721.81
518.311	746.81
518.527	750.81
518.742	740.81
518.958	722.81
519.173	716.81
519.389	701.81
519.605	710.81
519.82	686.81
520.036	733.81
520.251	754.81
520.467	787.81
520.682	778.81
520.898	775.81
521.113	771.81
521.329	823.81
521.544	897.81
521.76	1091.81
521.975	1719.81
522.19	1703.81
522.406	996.81
522.621	814.81
522.836	722.81
523.052	720.81
523.267	693.81
523.482	685.81
523.698	636.81
523.913	641.81
524.128	666.81
524.343	635.81
524.559	618.81
524.774	619.81
524.989	611.81
525.204	621.81
525.419	631.81
525.634	629.81
525.849	618.81
526.064	635.81
526.28	609.81
526.495	601.81
526.71	593.81
526.925	569.81
527.14	606.81
527.355	570.81
527.57	606.81
527.785	577.81
527.999	593.81
528.214	584.81
528.429	598.81
528.644	588.81
528.859	597.81
529.074	597.81
529.289	630.81
529.503	673.81
529.718	659.81
529.933	630.81
530.148	609.81
530.363	586.81
530.577	577.81
530.792	576.81
531.007	588.81
531.221	594.81
531.436	581.81
531.651	565.81
531.865	585.81
532.08	581.81
532.295	562.81
532.509	552.81
532.724	563.81
532.938	556.81
533.153	575.81
533.367	571.81
533.582	568.81
533.796	544.81
534.011	565.81
534.225	559.81
534.44	552.81
534.654	537.81
534.868	549.81
535.083	537.81
535.297	578.81
535.511	562.81
535.726	572.81
535.94	561.81
536.154	565.81
536.369	546.81
536.583	554.81
536.797	554.81
537.011	530.81
537.225	530.81
537.44	547.81
537.654	548.81
537.868	549.81
538.082	541.81
538.296	535.81
538.51	515.81
538.724	537.81
538.938	533.81
539.153	524.81
539.367	539.81
539.581	533.81
539.795	525.81
540.009	536.81
540.222	525.81
540.436	546.81
540.65	543.81
540.864	527.81
541.078	526.81
541.292	548.81
541.506	515.81
541.72	538.81
541.934	510.81
542.147	522.81
542.361	534.81
542.575	532.81
542.789	524.81
543.002	526.81
543.216	544.81
543.43	519.81
543.644	544.81
543.857	519.81
544.071	530.81
544.285	524.81
544.498	512.81
544.712	518.81
544.925	529.81
545.139	533.81
545.352	531.81
545.566	518.81
545.779	531.81
545.993	527.81
546.206	530.81
546.42	540.81
546.633	505.81
546.847	516.81
547.06	509.81
547.274	516.81
547.487	500.81
547.7	532.81
547.914	497.81
548.127	492.81
548.34	511.81
548.554	499.81
548.767	524.81
548.98	503.81
549.193	496.81
549.407	498.81
549.62	523.81
549.833	519.81
550.046	501.81
550.259	526.81
550.473	510.81
550.686	507.81
550.899	501.81
551.112	493.81
551.325	494.81
551.538	499.81
551.751	521.81
551.964	511.81
552.177	502.81
552.39	515.81
552.603	515.81
552.816	526.81
553.029	516.81
553.242	533.81
553.455	530.81
553.667	525.81
553.88	527.81
554.093	553.81
554.306	526.81
554.519	513.81
554.732	535.81
554.944	497.81
555.157	518.81
555.37	493.81
555.583	489.81
555.795	470.81
556.008	478.81
556.221	469.81
556.433	470.81
556.646	470.81
556.859	456.81
557.071	479.81
557.284	462.81
557.496	452.81
557.709	455.81
557.921	457.81
558.134	481.81
558.346	445.81
558.559	445.81
558.771	470.81
558.984	437.81
559.196	442.81
559.409	473.81
559.621	449.81
559.833	441.81
560.046	456.81
560.258	445.81
560.47	439.81
560.683	461.81
560.895	447.81
561.107	420.81
561.32	450.81
561.532	473.81
561.744	450.81
561.956	469.81
562.168	463.81
562.381	469.81
562.593	451.81
562.805	444.81
563.017	457.81
563.229	468.81
563.441	468.81
563.653	467.81
563.865	465.81
564.077	428.81
564.289	474.81
564.501	459.81
564.713	478.81
564.925	501.81
565.137	501.81
565.349	493.81
565.561	499.81
565.773	524.81
565.985	512.81
566.197	522.81
566.408	551.81
566.62	539.81
566.832	576.81
567.044	558.81
567.255	556.81
567.467	573.81
567.679	582.81
567.891	603.81
568.102	598.81
568.314	597.81
568.526	570.81
568.737	556.81
568.949	523.81
569.161	521.81
569.372	494.81
569.584	472.81
569.795	462.81
570.007	488.81
570.218	516.81
570.43	478.81
570.641	441.81
570.853	438.81
571.064	467.81
571.276	441.81
571.487	422.81
571.698	422.81
571.91	437.81
572.121	418.81
572.333	427.81
572.544	414.81
572.755	413.81
572.966	407.81
573.178	403.81
573.389	413.81
573.6	394.81
573.811	419.81
574.023	406.81
574.234	394.81
574.445	406.81
574.656	394.81
574.867	393.81
575.078	392.81
575.289	394.81
575.501	389.81
575.712	393.81
575.923	381.81
576.134	394.81
576.345	377.81
576.556	377.81
576.767	382.81
576.978	371.81
577.188	390.81
577.399	364.81
577.61	371.81
577.821	389.81
578.032	386.81
578.243	390.81
578.454	610.81
578.665	453.81
578.875	403.81
579.086	364.81
579.297	357.81
579.508	383.81
579.718	355.81
579.929	365.81
580.14	369.81
580.35	362.81
580.561	349.81
580.772	348.81
580.982	345.81
581.193	344.81
581.403	366.81
581.614	361.81
581.825	372.81
582.035	371.81
582.246	355.81
582.456	342.81
582.667	380.81
582.877	357.81
583.087	343.81
583.298	367.81
583.508	377.81
583.719	359.81
583.929	339.81
584.139	346.81
584.35	351.81
584.56	330.81
584.77	337.81
584.981	348.81
585.191	334.81
585.401	348.81
585.611	331.81
585.821	354.81
586.032	343.81
586.242	357.81
586.452	363.81
586.662	357.81
586.872	325.81
587.082	339.81
587.292	339.81
587.502	345.81
587.713	339.81
587.923	356.81
588.133	355.81
588.343	339.81
588.553	347.81
588.762	331.81
588.972	346.81
589.182	355.81
589.392	325.81
589.602	323.81
589.812	342.81
590.022	346.81
590.232	341.81
590.441	355.81
590.651	352.81
590.861	334.81
591.071	345.81
591.281	334.81
591.49	324.81
591.7	347.81
591.91	358.81
592.119	350.81
592.329	341.81
592.539	371.81
592.748	363.81
592.958	360.81
593.167	362.81
593.377	372.81
593.587	368.81
593.796	371.81
594.006	371.81
594.215	353.81
594.424	360.81
594.634	369.81
594.843	349.81
595.053	355.81
595.262	332.81
595.472	328.81
595.681	344.81
595.89	334.81
596.1	343.81
596.309	317.81
596.518	347.81
596.727	331.81
596.937	328.81
597.146	331.81
597.355	324.81
597.564	331.81
597.774	316.81
597.983	313.81
598.192	322.81
598.401	323.81
598.61	289.81
598.819	306.81
599.028	298.81
599.237	303.81
599.446	307.81
599.655	300.81
599.864	319.81
600.073	313.81
600.282	298.81
600.491	299.81
600.7	284.81
600.909	311.81
601.118	301.81
601.327	291.81
601.536	292.81
601.745	305.81
601.953	297.81
602.162	287.81
602.371	291.81
602.58	296.81
602.789	269.81
602.997	289.81
603.206	286.81
603.415	286.81
603.623	300.81
603.832	292.81
604.041	303.81
604.249	306.81
604.458	280.81
604.666	286.81
604.875	301.81
605.084	270.81
605.292	280.81
605.501	286.81
605.709	303.81
605.918	292.81
606.126	283.81
606.334	296.81
606.543	290.81
606.751	288.81
606.96	282.81
607.168	292.81
607.376	285.81
607.585	268.81
607.793	277.81
608.001	282.81
608.21	286.81
608.418	286.81
608.626	269.81
608.834	277.81
609.043	274.81
609.251	281.81
609.459	277.81
609.667	278.81
609.875	267.81
610.083	269.81
610.291	270.81
610.499	282.81
610.707	281.81
610.916	269.81
611.124	280.81
611.332	297.81
611.54	299.81
611.748	278.81
611.955	270.81
612.163	268.81
612.371	263.81
612.579	270.81
612.787	260.81
612.995	273.81
613.203	277.81
613.411	265.81
613.618	254.81
613.826	272.81
614.034	265.81
614.242	293.81
614.449	277.81
614.657	259.81
614.865	259.81
615.072	274.81
615.28	266.81
615.488	259.81
615.695	257.81
615.903	248.81
616.111	267.81
616.318	269.81
616.526	240.81
616.733	264.81
616.941	280.81
617.148	276.81
617.356	270.81
617.563	275.81
617.771	278.81
617.978	289.81
618.185	275.81
618.393	262.81
618.6	265.81
618.807	270.81
619.015	269.81
619.222	242.81
619.429	261.81
619.637	266.81
619.844	275.81
620.051	247.81
620.258	259.81
620.466	260.81
620.673	245.81
620.88	235.81
621.087	235.81
621.294	252.81
621.501	257.81
621.708	241.81
621.915	251.81
622.122	233.81
622.329	257.81
622.536	257.81
622.743	250.81
622.95	255.81
623.157	252.81
623.364	246.81
623.571	239.81
623.778	247.81
623.985	246.81
624.192	222.81
624.399	232.81
624.606	238.81
624.812	237.81
625.019	237.81
625.226	235.81
625.433	243.81
625.639	240.81
625.846	249.81
626.053	236.81
626.259	234.81
626.466	232.81
626.673	235.81
626.879	251.81
627.086	228.81
627.293	241.81
627.499	241.81
627.706	239.81
627.912	244.81
628.119	222.81
628.325	236.81
628.532	232.81
628.738	226.81
628.945	218.81
629.151	206.81
629.357	227.81
629.564	223.81
629.77	246.81
629.976	232.81
630.183	215.81
630.389	210.81
630.595	207.81
630.802	212.81
631.008	217.81
631.214	215.81
631.42	216.81
631.627	220.81
631.833	206.81
632.039	223.81
632.245	215.81
632.451	194.81
632.657	219.81
632.863	210.81
633.069	212.81
633.275	217.81
633.481	203.81
633.688	232.81
633.893	229.81
634.099	208.81
634.305	211.81
634.511	213.81
634.717	218.81
634.923	213.81
635.129	211.81
635.335	208.81
635.541	195.81
635.747	216.81
635.952	185.81
636.158	216.81
636.364	211.81
636.57	207.81
636.775	218.81
636.981	210.81
637.187	207.81
637.392	207.81
637.598	195.81
637.804	194.81
638.009	202.81
638.215	200.81
638.421	174.81
638.626	184.81
638.832	192.81
639.037	197.81
639.243	199.81
639.448	210.81
639.654	201.81
639.859	197.81
640.065	201.81
640.27	191.81
640.475	198.81
640.681	196.81
640.886	194.81
641.091	181.81
641.297	193.81
641.502	180.81
641.707	190.81
641.913	194.81
642.118	202.81
642.323	197.81
642.528	180.81
642.733	175.81
642.939	186.81
643.144	171.81
643.349	194.81
643.554	187.81
643.759	193.81
643.964	188.81
644.169	187.81
644.374	187.81
644.579	178.81
644.784	181.81
644.989	191.81
645.194	191.81
645.399	187.81
645.604	187.81
645.809	193.81
646.014	189.81
646.219	181.81
646.423	166.81
646.628	185.81
646.833	182.81
647.038	177.81
647.243	181.81
647.447	179.81
647.652	198.81
647.857	187.81
648.062	186.81
648.266	194.81
648.471	200.81
648.676	190.81
648.88	191.81
649.085	178.81
649.289	191.81
649.494	180.81
649.698	196.81
649.903	203.81
650.107	189.81
650.312	185.81
650.516	179.81
650.721	157.81
650.925	176.81
651.13	172.81
651.334	170.81
651.539	157.81
651.743	168.81
651.947	163.81
652.152	158.81
652.356	163.81
652.56	146.81
652.764	147.81
652.969	147.81
653.173	165.81
653.377	149.81
653.581	133.81
653.785	162.81
653.99	156.81
654.194	153.81
654.398	160.81
654.602	166.81
654.806	153.81
655.01	167.81
655.214	153.81
655.418	147.81
655.622	146.81
655.826	124.81
656.03	140.81
656.234	140.81
656.438	139.81
656.642	148.81
656.846	143.81
657.049	161.81
657.253	130.81
657.457	143.81
657.661	124.81
657.865	126.81
658.068	119.81
658.272	106.81
658.476	113.81
658.68	118.81
658.883	124.81
659.087	102.81
659.291	113.81
659.494	105.81
659.698	105.81
659.901	101.81
660.105	91.81
660.309	109.81
660.512	99.81
660.716	90.81
660.919	94.81
661.123	84.81
661.326	103.81
661.53	97.81
661.733	86.81
661.936	98.81
662.14	82.81
662.343	95.81
662.546	89.81
662.75	89.81
662.953	73.81
663.156	73.81
663.36	85.81
663.563	101.81
663.766	82.81
663.969	77.81
664.173	90.81
664.376	86.81
664.579	101.81
664.782	83.81
664.985	83.81
665.188	81.81
665.391	70.81
665.594	75.81
665.797	79.81
666	94.81
666.203	84.81
666.406	89.81
666.609	101.81
666.812	79.81
667.015	81.81
667.218	93.81
667.421	82.81
667.624	92.81
667.827	81.81
668.03	82.81
668.232	82.81
668.435	84.81
668.638	99.81
668.841	66.81
669.043	92.81
669.246	95.81
669.449	80.81
669.651	75.81
669.854	92.81
670.057	83.81
670.259	67.81
670.462	87.81
670.665	87.81
670.867	83.81
671.07	86.81
671.272	84.81
671.475	91.81
671.677	67.81
671.88	87.81
672.082	94.81
672.284	95.81
672.487	89.81
672.689	85.81
672.892	81.81
