Data from 1966.PennyLincolnUp.Lamp.En5.5.200Scan.071719.P1._HRD10591_14-12-56-913.txt Node
Date: Thu Jul 18 14:12:56 EDT 2019
User: cochatt
Spectrometer: HR+D1059
Trigger mode: 1
Integration Time (sec): 1.000000E-1
Scans to average: 1
Electric dark correction enabled: true
Nonlinearity correction enabled: false
Boxcar width: 0
XAxis mode: Wavelengths
Number of Pixels in Spectrum: 2048
>>>>>Begin Spectral Data<<<<<
223.165	-5.62
223.4	-5.62
223.635	-5.62
223.869	-19.62
224.104	-15.62
224.338	-10.62
224.573	-21.62
224.808	-7.62
225.042	-1.62
225.277	-2.62
225.511	-13.62
225.746	3.38
225.98	6.38
226.215	-1.62
226.449	14.38
226.683	28.38
226.918	19.38
227.152	28.38
227.387	37.38
227.621	44.38
227.856	46.38
228.09	49.38
228.324	45.38
228.559	49.38
228.793	62.38
229.027	78.38
229.262	87.38
229.496	93.38
229.73	95.38
229.964	103.38
230.199	93.38
230.433	92.38
230.667	84.38
230.901	88.38
231.136	98.38
231.37	81.38
231.604	115.38
231.838	98.38
232.072	89.38
232.306	103.38
232.541	90.38
232.775	92.38
233.009	89.38
233.243	96.38
233.477	96.38
233.711	102.38
233.945	111.38
234.179	103.38
234.413	94.38
234.647	85.38
234.881	92.38
235.115	100.38
235.349	106.38
235.583	98.38
235.817	109.38
236.051	92.38
236.285	104.38
236.519	98.38
236.753	104.38
236.987	113.38
237.221	118.38
237.455	135.38
237.689	124.38
237.922	119.38
238.156	94.38
238.39	101.38
238.624	88.38
238.858	105.38
239.091	106.38
239.325	95.38
239.559	89.38
239.793	105.38
240.027	106.38
240.26	99.38
240.494	110.38
240.728	110.38
240.961	112.38
241.195	108.38
241.429	109.38
241.662	110.38
241.896	106.38
242.13	94.38
242.363	97.38
242.597	101.38
242.83	113.38
243.064	99.38
243.298	104.38
243.531	99.38
243.765	108.38
243.998	95.38
244.232	101.38
244.465	117.38
244.699	101.38
244.932	92.38
245.166	125.38
245.399	114.38
245.633	118.38
245.866	111.38
246.099	123.38
246.333	122.38
246.566	99.38
246.8	105.38
247.033	106.38
247.266	102.38
247.5	115.38
247.733	125.38
247.966	109.38
248.2	125.38
248.433	103.38
248.666	127.38
248.899	117.38
249.133	135.38
249.366	131.38
249.599	131.38
249.832	119.38
250.066	122.38
250.299	120.38
250.532	131.38
250.765	129.38
250.998	135.38
251.231	148.38
251.465	133.38
251.698	113.38
251.931	126.38
252.164	128.38
252.397	133.38
252.63	132.38
252.863	128.38
253.096	146.38
253.329	141.38
253.562	145.38
253.795	142.38
254.028	140.38
254.261	133.38
254.494	141.38
254.727	152.38
254.96	152.38
255.193	156.38
255.426	150.38
255.659	138.38
255.892	135.38
256.124	138.38
256.357	145.38
256.59	138.38
256.823	134.38
257.056	126.38
257.289	130.38
257.521	139.38
257.754	139.38
257.987	136.38
258.22	137.38
258.452	132.38
258.685	141.38
258.918	131.38
259.151	134.38
259.383	133.38
259.616	137.38
259.849	144.38
260.081	135.38
260.314	152.38
260.547	163.38
260.779	130.38
261.012	150.38
261.244	146.38
261.477	149.38
261.71	123.38
261.942	143.38
262.175	144.38
262.407	135.38
262.64	125.38
262.872	141.38
263.105	151.38
263.337	134.38
263.57	125.38
263.802	129.38
264.035	138.38
264.267	148.38
264.499	142.38
264.732	138.38
264.964	131.38
265.197	142.38
265.429	124.38
265.661	150.38
265.894	142.38
266.126	136.38
266.358	125.38
266.591	144.38
266.823	133.38
267.055	134.38
267.287	153.38
267.52	126.38
267.752	133.38
267.984	147.38
268.216	131.38
268.448	132.38
268.681	133.38
268.913	157.38
269.145	148.38
269.377	152.38
269.609	170.38
269.841	154.38
270.073	142.38
270.306	154.38
270.538	183.38
270.77	162.38
271.002	178.38
271.234	159.38
271.466	175.38
271.698	182.38
271.93	173.38
272.162	193.38
272.394	181.38
272.626	167.38
272.858	154.38
273.09	162.38
273.322	152.38
273.553	152.38
273.785	164.38
274.017	143.38
274.249	162.38
274.481	153.38
274.713	156.38
274.945	152.38
275.176	135.38
275.408	137.38
275.64	153.38
275.872	162.38
276.104	154.38
276.335	160.38
276.567	152.38
276.799	155.38
277.031	175.38
277.262	174.38
277.494	169.38
277.726	176.38
277.957	158.38
278.189	158.38
278.421	170.38
278.652	149.38
278.884	162.38
279.115	159.38
279.347	150.38
279.579	155.38
279.81	163.38
280.042	165.38
280.273	146.38
280.505	151.38
280.736	158.38
280.968	172.38
281.199	162.38
281.431	169.38
281.662	150.38
281.894	161.38
282.125	142.38
282.356	157.38
282.588	179.38
282.819	169.38
283.051	172.38
283.282	159.38
283.513	153.38
283.745	164.38
283.976	163.38
284.207	163.38
284.439	169.38
284.67	167.38
284.901	154.38
285.132	158.38
285.364	170.38
285.595	161.38
285.826	168.38
286.057	149.38
286.288	159.38
286.52	160.38
286.751	169.38
286.982	174.38
287.213	172.38
287.444	157.38
287.675	159.38
287.906	183.38
288.138	172.38
288.369	185.38
288.6	176.38
288.831	172.38
289.062	159.38
289.293	158.38
289.524	166.38
289.755	160.38
289.986	158.38
290.217	152.38
290.448	165.38
290.679	156.38
290.91	164.38
291.141	168.38
291.371	160.38
291.602	160.38
291.833	174.38
292.064	170.38
292.295	163.38
292.526	175.38
292.757	166.38
292.987	170.38
293.218	181.38
293.449	150.38
293.68	163.38
293.91	163.38
294.141	156.38
294.372	165.38
294.603	161.38
294.833	185.38
295.064	168.38
295.295	167.38
295.525	173.38
295.756	169.38
295.987	169.38
296.217	185.38
296.448	189.38
296.679	181.38
296.909	183.38
297.14	171.38
297.37	174.38
297.601	176.38
297.831	170.38
298.062	168.38
298.292	162.38
298.523	175.38
298.753	165.38
298.984	170.38
299.214	185.38
299.445	181.38
299.675	182.38
299.905	184.38
300.136	189.38
300.366	176.38
300.597	175.38
300.827	181.38
301.057	190.38
301.288	176.38
301.518	182.38
301.748	181.38
301.979	187.38
302.209	181.38
302.439	181.38
302.669	191.38
302.9	167.38
303.13	183.38
303.36	189.38
303.59	174.38
303.82	188.38
304.051	171.38
304.281	181.38
304.511	188.38
304.741	186.38
304.971	182.38
305.201	190.38
305.431	193.38
305.661	183.38
305.891	175.38
306.121	187.38
306.352	197.38
306.582	197.38
306.812	194.38
307.042	199.38
307.272	191.38
307.502	179.38
307.731	171.38
307.961	196.38
308.191	184.38
308.421	194.38
308.651	190.38
308.881	183.38
309.111	183.38
309.341	185.38
309.571	186.38
309.8	201.38
310.03	199.38
310.26	188.38
310.49	214.38
310.72	219.38
310.949	227.38
311.179	204.38
311.409	194.38
311.639	210.38
311.868	217.38
312.098	217.38
312.328	205.38
312.557	222.38
312.787	216.38
313.017	216.38
313.246	197.38
313.476	205.38
313.706	207.38
313.935	179.38
314.165	218.38
314.394	203.38
314.624	212.38
314.853	223.38
315.083	199.38
315.312	202.38
315.542	209.38
315.771	200.38
316.001	196.38
316.23	194.38
316.46	214.38
316.689	213.38
316.919	222.38
317.148	217.38
317.377	216.38
317.607	195.38
317.836	193.38
318.065	216.38
318.295	202.38
318.524	199.38
318.753	198.38
318.983	223.38
319.212	202.38
319.441	201.38
319.67	199.38
319.9	198.38
320.129	193.38
320.358	202.38
320.587	212.38
320.816	197.38
321.046	216.38
321.275	224.38
321.504	203.38
321.733	222.38
321.962	207.38
322.191	214.38
322.42	225.38
322.649	238.38
322.878	232.38
323.108	239.38
323.337	245.38
323.566	254.38
323.795	263.38
324.024	260.38
324.253	326.38
324.482	464.38
324.71	711.38
324.939	914.38
325.168	758.38
325.397	405.38
325.626	287.38
325.855	255.38
326.084	245.38
326.313	237.38
326.542	243.38
326.77	265.38
326.999	307.38
327.228	419.38
327.457	618.38
327.686	705.38
327.914	465.38
328.143	304.38
328.372	293.38
328.6	296.38
328.829	286.38
329.058	289.38
329.287	297.38
329.515	274.38
329.744	266.38
329.972	254.38
330.201	283.38
330.43	283.38
330.658	307.38
330.887	323.38
331.115	313.38
331.344	248.38
331.572	242.38
331.801	251.38
332.03	256.38
332.258	247.38
332.486	225.38
332.715	230.38
332.943	226.38
333.172	249.38
333.4	233.38
333.629	224.38
333.857	241.38
334.085	238.38
334.314	279.38
334.542	278.38
334.771	305.38
334.999	259.38
335.227	234.38
335.455	248.38
335.684	232.38
335.912	250.38
336.14	227.38
336.369	222.38
336.597	234.38
336.825	238.38
337.053	225.38
337.281	239.38
337.51	213.38
337.738	223.38
337.966	219.38
338.194	223.38
338.422	249.38
338.65	231.38
338.878	222.38
339.106	215.38
339.334	230.38
339.562	211.38
339.79	220.38
340.018	220.38
340.246	221.38
340.474	220.38
340.702	237.38
340.93	209.38
341.158	217.38
341.386	213.38
341.614	224.38
341.842	216.38
342.07	210.38
342.298	206.38
342.526	217.38
342.754	206.38
342.981	211.38
343.209	220.38
343.437	225.38
343.665	228.38
343.893	211.38
344.12	220.38
344.348	226.38
344.576	224.38
344.804	232.38
345.031	225.38
345.259	224.38
345.487	224.38
345.714	240.38
345.942	201.38
346.17	212.38
346.397	201.38
346.625	211.38
346.853	215.38
347.08	223.38
347.308	199.38
347.535	222.38
347.763	231.38
347.99	232.38
348.218	235.38
348.445	215.38
348.673	213.38
348.9	204.38
349.128	218.38
349.355	204.38
349.583	201.38
349.81	199.38
350.037	220.38
350.265	213.38
350.492	202.38
350.72	202.38
350.947	215.38
351.174	218.38
351.402	215.38
351.629	228.38
351.856	223.38
352.083	215.38
352.311	222.38
352.538	218.38
352.765	229.38
352.992	222.38
353.22	205.38
353.447	209.38
353.674	225.38
353.901	210.38
354.128	213.38
354.355	206.38
354.583	209.38
354.81	224.38
355.037	219.38
355.264	212.38
355.491	196.38
355.718	194.38
355.945	203.38
356.172	197.38
356.399	199.38
356.626	196.38
356.853	196.38
357.08	209.38
357.307	200.38
357.534	204.38
357.761	203.38
357.988	216.38
358.215	197.38
358.441	183.38
358.668	205.38
358.895	199.38
359.122	195.38
359.349	193.38
359.576	232.38
359.802	217.38
360.029	253.38
360.256	258.38
360.483	240.38
360.709	220.38
360.936	206.38
361.163	199.38
361.39	207.38
361.616	241.38
361.843	208.38
362.07	229.38
362.296	235.38
362.523	220.38
362.749	219.38
362.976	203.38
363.203	206.38
363.429	196.38
363.656	208.38
363.882	202.38
364.109	196.38
364.335	209.38
364.562	228.38
364.788	197.38
365.015	193.38
365.241	206.38
365.468	199.38
365.694	200.38
365.92	220.38
366.147	203.38
366.373	200.38
366.599	207.38
366.826	205.38
367.052	201.38
367.278	202.38
367.505	207.38
367.731	213.38
367.957	204.38
368.184	213.38
368.41	218.38
368.636	222.38
368.862	227.38
369.089	202.38
369.315	198.38
369.541	213.38
369.767	208.38
369.993	220.38
370.219	189.38
370.445	194.38
370.672	212.38
370.898	215.38
371.124	218.38
371.35	211.38
371.576	206.38
371.802	199.38
372.028	205.38
372.254	200.38
372.48	210.38
372.706	223.38
372.932	197.38
373.158	207.38
373.384	221.38
373.61	190.38
373.835	203.38
374.061	193.38
374.287	219.38
374.513	208.38
374.739	217.38
374.965	205.38
375.191	203.38
375.416	214.38
375.642	211.38
375.868	190.38
376.094	206.38
376.319	209.38
376.545	192.38
376.771	191.38
376.997	205.38
377.222	209.38
377.448	177.38
377.674	212.38
377.899	213.38
378.125	209.38
378.35	214.38
378.576	200.38
378.802	197.38
379.027	206.38
379.253	208.38
379.478	189.38
379.704	202.38
379.929	200.38
380.155	202.38
380.38	216.38
380.606	220.38
380.831	223.38
381.057	212.38
381.282	192.38
381.507	202.38
381.733	211.38
381.958	209.38
382.184	201.38
382.409	208.38
382.634	202.38
382.86	198.38
383.085	214.38
383.31	212.38
383.535	218.38
383.761	222.38
383.986	200.38
384.211	224.38
384.436	215.38
384.662	212.38
384.887	223.38
385.112	214.38
385.337	205.38
385.562	221.38
385.787	214.38
386.013	215.38
386.238	227.38
386.463	227.38
386.688	219.38
386.913	221.38
387.138	218.38
387.363	222.38
387.588	219.38
387.813	222.38
388.038	225.38
388.263	221.38
388.488	220.38
388.713	218.38
388.938	232.38
389.163	217.38
389.387	203.38
389.612	214.38
389.837	221.38
390.062	199.38
390.287	230.38
390.512	222.38
390.736	215.38
390.961	211.38
391.186	223.38
391.411	215.38
391.636	214.38
391.86	211.38
392.085	206.38
392.31	216.38
392.534	219.38
392.759	215.38
392.984	222.38
393.208	244.38
393.433	231.38
393.658	248.38
393.882	229.38
394.107	223.38
394.331	220.38
394.556	217.38
394.78	234.38
395.005	236.38
395.229	228.38
395.454	217.38
395.678	211.38
395.903	234.38
396.127	238.38
396.352	241.38
396.576	222.38
396.801	235.38
397.025	234.38
397.249	230.38
397.474	228.38
397.698	230.38
397.922	233.38
398.147	231.38
398.371	247.38
398.595	232.38
398.82	242.38
399.044	234.38
399.268	269.38
399.492	260.38
399.717	266.38
399.941	296.38
400.165	283.38
400.389	294.38
400.613	266.38
400.837	261.38
401.062	257.38
401.286	240.38
401.51	246.38
401.734	247.38
401.958	228.38
402.182	257.38
402.406	245.38
402.63	243.38
402.854	269.38
403.078	257.38
403.302	266.38
403.526	271.38
403.75	272.38
403.974	256.38
404.198	259.38
404.422	261.38
404.645	265.38
404.869	275.38
405.093	288.38
405.317	296.38
405.541	303.38
405.765	305.38
405.988	265.38
406.212	267.38
406.436	280.38
406.66	292.38
406.883	293.38
407.107	286.38
407.331	297.38
407.555	311.38
407.778	326.38
408.002	296.38
408.226	277.38
408.449	276.38
408.673	291.38
408.896	288.38
409.12	295.38
409.344	295.38
409.567	252.38
409.791	267.38
410.014	266.38
410.238	253.38
410.461	256.38
410.685	256.38
410.908	290.38
411.132	283.38
411.355	279.38
411.578	270.38
411.802	287.38
412.025	261.38
412.249	260.38
412.472	268.38
412.695	287.38
412.919	284.38
413.142	267.38
413.365	257.38
413.589	270.38
413.812	245.38
414.035	259.38
414.258	234.38
414.482	237.38
414.705	251.38
414.928	238.38
415.151	241.38
415.374	232.38
415.597	246.38
415.821	249.38
416.044	256.38
416.267	267.38
416.49	251.38
416.713	258.38
416.936	244.38
417.159	251.38
417.382	245.38
417.605	240.38
417.828	241.38
418.051	277.38
418.274	240.38
418.497	245.38
418.72	251.38
418.943	242.38
419.166	257.38
419.389	263.38
419.611	253.38
419.834	271.38
420.057	250.38
420.28	253.38
420.503	255.38
420.726	250.38
420.948	268.38
421.171	275.38
421.394	305.38
421.617	261.38
421.839	251.38
422.062	238.38
422.285	260.38
422.507	265.38
422.73	326.38
422.953	301.38
423.175	269.38
423.398	259.38
423.621	284.38
423.843	279.38
424.066	278.38
424.288	272.38
424.511	267.38
424.733	282.38
424.956	339.38
425.178	307.38
425.401	322.38
425.623	306.38
425.846	291.38
426.068	253.38
426.291	271.38
426.513	271.38
426.735	260.38
426.958	267.38
427.18	313.38
427.402	375.38
427.625	407.38
427.847	362.38
428.069	305.38
428.292	288.38
428.514	270.38
428.736	285.38
428.958	256.38
429.181	268.38
429.403	233.38
429.625	269.38
429.847	273.38
430.069	314.38
430.292	290.38
430.514	261.38
430.736	241.38
430.958	256.38
431.18	245.38
431.402	253.38
431.624	242.38
431.846	227.38
432.068	262.38
432.29	241.38
432.512	237.38
432.734	263.38
432.956	255.38
433.178	247.38
433.4	254.38
433.622	242.38
433.844	235.38
434.066	231.38
434.287	238.38
434.509	251.38
434.731	227.38
434.953	256.38
435.175	267.38
435.397	251.38
435.618	269.38
435.84	285.38
436.062	310.38
436.284	347.38
436.505	298.38
436.727	239.38
436.949	255.38
437.17	255.38
437.392	251.38
437.614	261.38
437.835	273.38
438.057	323.38
438.278	351.38
438.5	353.38
438.721	368.38
438.943	343.38
439.165	292.38
439.386	273.38
439.608	281.38
439.829	276.38
440.05	284.38
440.272	288.38
440.493	268.38
440.715	262.38
440.936	248.38
441.158	246.38
441.379	255.38
441.6	269.38
441.822	269.38
442.043	300.38
442.264	319.38
442.486	336.38
442.707	291.38
442.928	272.38
443.149	277.38
443.371	304.38
443.592	313.38
443.813	333.38
444.034	354.38
444.255	307.38
444.476	274.38
444.698	273.38
444.919	266.38
445.14	348.38
445.361	322.38
445.582	305.38
445.803	334.38
446.024	377.38
446.245	361.38
446.466	335.38
446.687	292.38
446.908	259.38
447.129	263.38
447.35	257.38
447.571	251.38
447.792	239.38
448.013	267.38
448.234	263.38
448.455	269.38
448.675	316.38
448.896	356.38
449.117	312.38
449.338	298.38
449.559	333.38
449.779	365.38
450	309.38
450.221	264.38
450.442	233.38
450.662	250.38
450.883	248.38
451.104	246.38
451.324	252.38
451.545	240.38
451.766	242.38
451.986	226.38
452.207	226.38
452.428	212.38
452.648	238.38
452.869	237.38
453.089	232.38
453.31	234.38
453.53	225.38
453.751	235.38
453.971	245.38
454.192	234.38
454.412	230.38
454.633	223.38
454.853	225.38
455.073	219.38
455.294	234.38
455.514	275.38
455.734	264.38
455.955	207.38
456.175	233.38
456.395	210.38
456.616	232.38
456.836	222.38
457.056	221.38
457.276	210.38
457.497	205.38
457.717	235.38
457.937	225.38
458.157	236.38
458.377	228.38
458.598	240.38
458.818	284.38
459.038	310.38
459.258	295.38
459.478	274.38
459.698	232.38
459.918	236.38
460.138	243.38
460.358	239.38
460.578	239.38
460.798	259.38
461.018	249.38
461.238	246.38
461.458	251.38
461.678	234.38
461.898	246.38
462.118	231.38
462.338	245.38
462.558	246.38
462.777	259.38
462.997	265.38
463.217	263.38
463.437	267.38
463.657	255.38
463.876	276.38
464.096	285.38
464.316	248.38
464.536	252.38
464.755	255.38
464.975	252.38
465.195	293.38
465.414	331.38
465.634	296.38
465.854	270.38
466.073	242.38
466.293	252.38
466.512	232.38
466.732	233.38
466.951	230.38
467.171	227.38
467.391	238.38
467.61	250.38
467.829	242.38
468.049	232.38
468.268	262.38
468.488	242.38
468.707	219.38
468.927	230.38
469.146	229.38
469.365	217.38
469.585	235.38
469.804	230.38
470.023	251.38
470.243	241.38
470.462	247.38
470.681	256.38
470.901	246.38
471.12	236.38
471.339	231.38
471.558	229.38
471.777	231.38
471.997	243.38
472.216	230.38
472.435	289.38
472.654	248.38
472.873	230.38
473.092	233.38
473.311	245.38
473.53	225.38
473.749	237.38
473.968	260.38
474.187	297.38
474.406	289.38
474.625	289.38
474.844	237.38
475.063	219.38
475.282	223.38
475.501	244.38
475.72	242.38
475.939	247.38
476.158	252.38
476.377	236.38
476.596	236.38
476.814	240.38
477.033	250.38
477.252	251.38
477.471	235.38
477.69	234.38
477.908	245.38
478.127	248.38
478.346	253.38
478.564	257.38
478.783	276.38
479.002	262.38
479.22	257.38
479.439	275.38
479.658	279.38
479.876	275.38
480.095	293.38
480.313	299.38
480.532	291.38
480.751	294.38
480.969	309.38
481.188	326.38
481.406	343.38
481.624	285.38
481.843	279.38
482.061	256.38
482.28	271.38
482.498	266.38
482.717	264.38
482.935	258.38
483.153	279.38
483.372	286.38
483.59	275.38
483.808	267.38
484.027	263.38
484.245	258.38
484.463	275.38
484.681	292.38
484.9	275.38
485.118	270.38
485.336	280.38
485.554	265.38
485.772	283.38
485.99	280.38
486.209	262.38
486.427	264.38
486.645	289.38
486.863	289.38
487.081	297.38
487.299	303.38
487.517	293.38
487.735	283.38
487.953	298.38
488.171	290.38
488.389	277.38
488.607	289.38
488.825	273.38
489.043	298.38
489.261	300.38
489.479	278.38
489.696	306.38
489.914	299.38
490.132	285.38
490.35	307.38
490.568	290.38
490.786	317.38
491.003	307.38
491.221	309.38
491.439	341.38
491.657	344.38
491.874	337.38
492.092	318.38
492.31	337.38
492.527	347.38
492.745	334.38
492.963	342.38
493.18	347.38
493.398	345.38
493.615	340.38
493.833	354.38
494.05	349.38
494.268	349.38
494.485	347.38
494.703	350.38
494.92	342.38
495.138	338.38
495.355	323.38
495.573	346.38
495.79	339.38
496.008	324.38
496.225	334.38
496.442	338.38
496.66	328.38
496.877	360.38
497.094	329.38
497.312	323.38
497.529	329.38
497.746	330.38
497.963	357.38
498.181	354.38
498.398	368.38
498.615	351.38
498.832	355.38
499.049	372.38
499.267	369.38
499.484	398.38
499.701	393.38
499.918	400.38
500.135	426.38
500.352	435.38
500.569	439.38
500.786	443.38
501.003	458.38
501.22	424.38
501.437	421.38
501.654	405.38
501.871	426.38
502.088	414.38
502.305	365.38
502.522	350.38
502.739	365.38
502.956	353.38
503.172	328.38
503.389	345.38
503.606	341.38
503.823	350.38
504.04	334.38
504.256	324.38
504.473	313.38
504.69	326.38
504.907	337.38
505.123	307.38
505.34	326.38
505.557	328.38
505.773	320.38
505.99	323.38
506.207	328.38
506.423	327.38
506.64	335.38
506.856	313.38
507.073	324.38
507.289	304.38
507.506	319.38
507.722	330.38
507.939	346.38
508.155	303.38
508.372	303.38
508.588	280.38
508.805	299.38
509.021	297.38
509.238	314.38
509.454	314.38
509.67	310.38
509.887	318.38
510.103	302.38
510.319	301.38
510.536	364.38
510.752	672.38
510.968	513.38
511.184	327.38
511.401	276.38
511.617	303.38
511.833	297.38
512.049	304.38
512.265	293.38
512.481	282.38
512.698	289.38
512.914	285.38
513.13	289.38
513.346	291.38
513.562	286.38
513.778	280.38
513.994	302.38
514.21	303.38
514.426	314.38
514.642	338.38
514.858	337.38
515.074	355.38
515.29	450.38
515.506	723.38
515.721	571.38
515.937	369.38
516.153	308.38
516.369	327.38
516.585	288.38
516.801	303.38
517.016	302.38
517.232	299.38
517.448	282.38
517.664	286.38
517.879	301.38
518.095	302.38
518.311	300.38
518.527	299.38
518.742	281.38
518.958	290.38
519.173	279.38
519.389	287.38
519.605	301.38
519.82	296.38
520.036	280.38
520.251	301.38
520.467	319.38
520.682	316.38
520.898	313.38
521.113	314.38
521.329	359.38
521.544	394.38
521.76	553.38
521.975	1001.38
522.19	967.38
522.406	463.38
522.621	333.38
522.836	287.38
523.052	302.38
523.267	273.38
523.482	254.38
523.698	276.38
523.913	265.38
524.128	258.38
524.343	253.38
524.559	261.38
524.774	250.38
524.989	261.38
525.204	242.38
525.419	257.38
525.634	265.38
525.849	252.38
526.064	255.38
526.28	250.38
526.495	245.38
526.71	250.38
526.925	237.38
527.14	264.38
527.355	233.38
527.57	242.38
527.785	239.38
527.999	250.38
528.214	233.38
528.429	246.38
528.644	241.38
528.859	258.38
529.074	265.38
529.289	261.38
529.503	320.38
529.718	305.38
529.933	255.38
530.148	238.38
530.363	221.38
530.577	227.38
530.792	261.38
531.007	209.38
531.221	239.38
531.436	229.38
531.651	242.38
531.865	238.38
532.08	247.38
532.295	225.38
532.509	229.38
532.724	230.38
532.938	222.38
533.153	205.38
533.367	228.38
533.582	236.38
533.796	224.38
534.011	225.38
534.225	227.38
534.44	241.38
534.654	220.38
534.868	233.38
535.083	220.38
535.297	213.38
535.511	231.38
535.726	265.38
535.94	246.38
536.154	237.38
536.369	223.38
536.583	229.38
536.797	227.38
537.011	220.38
537.225	213.38
537.44	230.38
537.654	219.38
537.868	219.38
538.082	239.38
538.296	205.38
538.51	238.38
538.724	239.38
538.938	230.38
539.153	242.38
539.367	240.38
539.581	221.38
539.795	218.38
540.009	220.38
540.222	234.38
540.436	232.38
540.65	227.38
540.864	224.38
541.078	250.38
541.292	243.38
541.506	227.38
541.72	247.38
541.934	239.38
542.147	223.38
542.361	234.38
542.575	228.38
542.789	227.38
543.002	249.38
543.216	223.38
543.43	214.38
543.644	223.38
543.857	225.38
544.071	225.38
544.285	235.38
544.498	230.38
544.712	238.38
544.925	242.38
545.139	225.38
545.352	211.38
545.566	225.38
545.779	222.38
545.993	214.38
546.206	232.38
546.42	227.38
546.633	210.38
546.847	214.38
547.06	222.38
547.274	213.38
547.487	226.38
547.7	235.38
547.914	234.38
548.127	220.38
548.34	221.38
548.554	211.38
548.767	221.38
548.98	211.38
549.193	206.38
549.407	213.38
549.62	235.38
549.833	232.38
550.046	245.38
550.259	223.38
550.473	214.38
550.686	232.38
550.899	216.38
551.112	211.38
551.325	217.38
551.538	218.38
551.751	229.38
551.964	220.38
552.177	204.38
552.39	217.38
552.603	211.38
552.816	224.38
553.029	225.38
553.242	223.38
553.455	226.38
553.667	220.38
553.88	226.38
554.093	237.38
554.306	218.38
554.519	213.38
554.732	201.38
554.944	226.38
555.157	211.38
555.37	215.38
555.583	217.38
555.795	217.38
556.008	216.38
556.221	217.38
556.433	199.38
556.646	211.38
556.859	201.38
557.071	205.38
557.284	201.38
557.496	202.38
557.709	200.38
557.921	202.38
558.134	193.38
558.346	199.38
558.559	203.38
558.771	185.38
558.984	205.38
559.196	200.38
559.409	191.38
559.621	198.38
559.833	181.38
560.046	203.38
560.258	194.38
560.47	191.38
560.683	207.38
560.895	207.38
561.107	223.38
561.32	207.38
561.532	193.38
561.744	181.38
561.956	190.38
562.168	204.38
562.381	205.38
562.593	205.38
562.805	205.38
563.017	202.38
563.229	199.38
563.441	203.38
563.653	190.38
563.865	205.38
564.077	197.38
564.289	201.38
564.501	194.38
564.713	206.38
564.925	199.38
565.137	225.38
565.349	211.38
565.561	226.38
565.773	207.38
565.985	211.38
566.197	233.38
566.408	218.38
566.62	209.38
566.832	217.38
567.044	232.38
567.255	230.38
567.467	234.38
567.679	239.38
567.891	231.38
568.102	233.38
568.314	222.38
568.526	224.38
568.737	226.38
568.949	214.38
569.161	193.38
569.372	206.38
569.584	195.38
569.795	194.38
570.007	190.38
570.218	234.38
570.43	231.38
570.641	203.38
570.853	192.38
571.064	198.38
571.276	183.38
571.487	193.38
571.698	183.38
571.91	189.38
572.121	183.38
572.333	173.38
572.544	183.38
572.755	174.38
572.966	195.38
573.178	183.38
573.389	191.38
573.6	185.38
573.811	171.38
574.023	163.38
574.234	177.38
574.445	189.38
574.656	193.38
574.867	177.38
575.078	169.38
575.289	186.38
575.501	165.38
575.712	185.38
575.923	171.38
576.134	186.38
576.345	150.38
576.556	179.38
576.767	161.38
576.978	169.38
577.188	171.38
577.399	167.38
577.61	167.38
577.821	157.38
578.032	183.38
578.243	189.38
578.454	334.38
578.665	244.38
578.875	181.38
579.086	170.38
579.297	169.38
579.508	165.38
579.718	168.38
579.929	172.38
580.14	180.38
580.35	161.38
580.561	171.38
580.772	167.38
580.982	171.38
581.193	170.38
581.403	157.38
581.614	169.38
581.825	143.38
582.035	173.38
582.246	165.38
582.456	161.38
582.667	154.38
582.877	168.38
583.087	176.38
583.298	169.38
583.508	157.38
583.719	149.38
583.929	150.38
584.139	145.38
584.35	162.38
584.56	153.38
584.77	164.38
584.981	162.38
585.191	170.38
585.401	172.38
585.611	182.38
585.821	190.38
586.032	162.38
586.242	168.38
586.452	194.38
586.662	160.38
586.872	171.38
587.082	165.38
587.292	166.38
587.502	153.38
587.713	148.38
587.923	153.38
588.133	165.38
588.343	155.38
588.553	144.38
588.762	170.38
588.972	164.38
589.182	212.38
589.392	188.38
589.602	161.38
589.812	172.38
590.022	186.38
590.232	158.38
590.441	159.38
590.651	155.38
590.861	158.38
591.071	169.38
591.281	164.38
591.49	171.38
591.7	171.38
591.91	160.38
592.119	161.38
592.329	156.38
592.539	176.38
592.748	160.38
592.958	163.38
593.167	169.38
593.377	179.38
593.587	169.38
593.796	166.38
594.006	164.38
594.215	175.38
594.424	157.38
594.634	174.38
594.843	166.38
595.053	162.38
595.262	170.38
595.472	151.38
595.681	162.38
595.89	154.38
596.1	148.38
596.309	167.38
596.518	165.38
596.727	159.38
596.937	153.38
597.146	152.38
597.355	146.38
597.564	172.38
597.774	152.38
597.983	150.38
598.192	162.38
598.401	150.38
598.61	158.38
598.819	153.38
599.028	145.38
599.237	159.38
599.446	147.38
599.655	147.38
599.864	152.38
600.073	152.38
600.282	157.38
600.491	145.38
600.7	160.38
600.909	140.38
601.118	155.38
601.327	156.38
601.536	137.38
601.745	157.38
601.953	145.38
602.162	145.38
602.371	141.38
602.58	140.38
602.789	130.38
602.997	140.38
603.206	156.38
603.415	153.38
603.623	148.38
603.832	144.38
604.041	129.38
604.249	151.38
604.458	136.38
604.666	133.38
604.875	153.38
605.084	144.38
605.292	143.38
605.501	149.38
605.709	163.38
605.918	145.38
606.126	142.38
606.334	155.38
606.543	148.38
606.751	148.38
606.96	138.38
607.168	144.38
607.376	145.38
607.585	159.38
607.793	133.38
608.001	165.38
608.21	143.38
608.418	143.38
608.626	129.38
608.834	162.38
609.043	153.38
609.251	142.38
609.459	141.38
609.667	150.38
609.875	138.38
610.083	143.38
610.291	156.38
610.499	154.38
610.707	133.38
610.916	155.38
611.124	144.38
611.332	145.38
611.54	172.38
611.748	159.38
611.955	142.38
612.163	145.38
612.371	145.38
612.579	146.38
612.787	138.38
612.995	156.38
613.203	153.38
613.411	152.38
613.618	147.38
613.826	145.38
614.034	142.38
614.242	147.38
614.449	147.38
614.657	134.38
614.865	141.38
615.072	162.38
615.28	135.38
615.488	133.38
615.695	157.38
615.903	154.38
616.111	152.38
616.318	147.38
616.526	149.38
616.733	151.38
616.941	138.38
617.148	154.38
617.356	140.38
617.563	137.38
617.771	147.38
617.978	137.38
618.185	145.38
618.393	122.38
618.6	137.38
618.807	136.38
619.015	162.38
619.222	140.38
619.429	139.38
619.637	147.38
619.844	136.38
620.051	139.38
620.258	139.38
620.466	137.38
620.673	133.38
620.88	129.38
621.087	125.38
621.294	139.38
621.501	139.38
621.708	138.38
621.915	135.38
622.122	131.38
622.329	144.38
622.536	135.38
622.743	137.38
622.95	134.38
623.157	145.38
623.364	147.38
623.571	127.38
623.778	142.38
623.985	146.38
624.192	133.38
624.399	112.38
624.606	129.38
624.812	143.38
625.019	133.38
625.226	148.38
625.433	131.38
625.639	138.38
625.846	135.38
626.053	144.38
626.259	123.38
626.466	132.38
626.673	130.38
626.879	145.38
627.086	129.38
627.293	138.38
627.499	134.38
627.706	137.38
627.912	147.38
628.119	132.38
628.325	142.38
628.532	129.38
628.738	123.38
628.945	112.38
629.151	128.38
629.357	130.38
629.564	137.38
629.77	127.38
629.976	121.38
630.183	112.38
630.389	143.38
630.595	127.38
630.802	121.38
631.008	135.38
631.214	144.38
631.42	123.38
631.627	143.38
631.833	137.38
632.039	124.38
632.245	136.38
632.451	127.38
632.657	118.38
632.863	131.38
633.069	127.38
633.275	123.38
633.481	132.38
633.688	120.38
633.893	121.38
634.099	126.38
634.305	118.38
634.511	131.38
634.717	127.38
634.923	120.38
635.129	131.38
635.335	124.38
635.541	123.38
635.747	125.38
635.952	111.38
636.158	105.38
636.364	117.38
636.57	124.38
636.775	122.38
636.981	129.38
637.187	121.38
637.392	120.38
637.598	125.38
637.804	122.38
638.009	122.38
638.215	134.38
638.421	120.38
638.626	128.38
638.832	112.38
639.037	119.38
639.243	131.38
639.448	113.38
639.654	116.38
639.859	103.38
640.065	125.38
640.27	131.38
640.475	125.38
640.681	119.38
640.886	128.38
641.091	114.38
641.297	113.38
641.502	118.38
641.707	109.38
641.913	111.38
642.118	123.38
642.323	118.38
642.528	121.38
642.733	131.38
642.939	120.38
643.144	107.38
643.349	119.38
643.554	116.38
643.759	122.38
643.964	130.38
644.169	130.38
644.374	109.38
644.579	126.38
644.784	119.38
644.989	126.38
645.194	112.38
645.399	121.38
645.604	121.38
645.809	121.38
646.014	110.38
646.219	112.38
646.423	130.38
646.628	119.38
646.833	117.38
647.038	125.38
647.243	125.38
647.447	105.38
647.652	123.38
647.857	122.38
648.062	112.38
648.266	114.38
648.471	135.38
648.676	128.38
648.88	117.38
649.085	121.38
649.289	113.38
649.494	110.38
649.698	122.38
649.903	138.38
650.107	111.38
650.312	124.38
650.516	127.38
650.721	128.38
650.925	122.38
651.13	107.38
651.334	109.38
651.539	106.38
651.743	99.38
651.947	114.38
652.152	116.38
652.356	114.38
652.56	117.38
652.764	108.38
652.969	110.38
653.173	110.38
653.377	111.38
653.581	108.38
653.785	103.38
653.99	118.38
654.194	120.38
654.398	117.38
654.602	108.38
654.806	110.38
655.01	119.38
655.214	110.38
655.418	110.38
655.622	123.38
655.826	110.38
656.03	119.38
656.234	114.38
656.438	129.38
656.642	123.38
656.846	111.38
657.049	96.38
657.253	102.38
657.457	109.38
657.661	107.38
657.865	113.38
658.068	101.38
658.272	94.38
658.476	103.38
658.68	105.38
658.883	102.38
659.087	99.38
659.291	92.38
659.494	86.38
659.698	106.38
659.901	93.38
660.105	96.38
660.309	97.38
660.512	95.38
660.716	83.38
660.919	92.38
661.123	92.38
661.326	99.38
661.53	94.38
661.733	95.38
661.936	82.38
662.14	73.38
662.343	95.38
662.546	87.38
662.75	94.38
662.953	88.38
663.156	80.38
663.36	79.38
663.563	89.38
663.766	91.38
663.969	84.38
664.173	91.38
664.376	91.38
664.579	94.38
664.782	83.38
664.985	101.38
665.188	97.38
665.391	81.38
665.594	93.38
665.797	77.38
666	68.38
666.203	85.38
666.406	89.38
666.609	81.38
666.812	97.38
667.015	87.38
667.218	82.38
667.421	82.38
667.624	80.38
667.827	92.38
668.03	95.38
668.232	96.38
668.435	90.38
668.638	85.38
668.841	87.38
669.043	81.38
669.246	89.38
669.449	73.38
669.651	95.38
669.854	89.38
670.057	81.38
670.259	82.38
670.462	93.38
670.665	82.38
670.867	84.38
671.07	91.38
671.272	75.38
671.475	90.38
671.677	87.38
671.88	89.38
672.082	82.38
672.284	77.38
672.487	86.38
672.689	80.38
672.892	88.38
