Data from 1966.PennyLincolnUp.Lamp.En5.5.200Scan.071719.P1._HRD10591_14-14-26-915.txt Node
Date: Thu Jul 18 14:14:26 EDT 2019
User: cochatt
Spectrometer: HR+D1059
Trigger mode: 1
Integration Time (sec): 1.000000E-1
Scans to average: 1
Electric dark correction enabled: true
Nonlinearity correction enabled: false
Boxcar width: 0
XAxis mode: Wavelengths
Number of Pixels in Spectrum: 2048
>>>>>Begin Spectral Data<<<<<
223.165	-16.31
223.4	-16.31
223.635	-16.31
223.869	-18.31
224.104	-28.31
224.338	-11.31
224.573	-8.31
224.808	-11.31
225.042	0.69
225.277	1.69
225.511	1.69
225.746	0.69
225.98	8.69
226.215	23.69
226.449	23.69
226.683	0.69
226.918	18.69
227.152	13.69
227.387	34.69
227.621	40.69
227.856	38.69
228.09	36.69
228.324	51.69
228.559	59.69
228.793	59.69
229.027	66.69
229.262	74.69
229.496	89.69
229.73	89.69
229.964	103.69
230.199	88.69
230.433	89.69
230.667	90.69
230.901	90.69
231.136	103.69
231.37	91.69
231.604	102.69
231.838	94.69
232.072	97.69
232.306	93.69
232.541	107.69
232.775	85.69
233.009	80.69
233.243	102.69
233.477	88.69
233.711	95.69
233.945	99.69
234.179	98.69
234.413	103.69
234.647	93.69
234.881	96.69
235.115	95.69
235.349	103.69
235.583	72.69
235.817	98.69
236.051	70.69
236.285	98.69
236.519	94.69
236.753	94.69
236.987	129.69
237.221	122.69
237.455	141.69
237.689	125.69
237.922	98.69
238.156	91.69
238.39	98.69
238.624	101.69
238.858	108.69
239.091	86.69
239.325	90.69
239.559	99.69
239.793	99.69
240.027	98.69
240.26	101.69
240.494	109.69
240.728	106.69
240.961	98.69
241.195	105.69
241.429	99.69
241.662	97.69
241.896	103.69
242.13	100.69
242.363	87.69
242.597	109.69
242.83	114.69
243.064	98.69
243.298	91.69
243.531	89.69
243.765	111.69
243.998	110.69
244.232	103.69
244.465	101.69
244.699	97.69
244.932	102.69
245.166	108.69
245.399	110.69
245.633	109.69
245.866	93.69
246.099	108.69
246.333	113.69
246.566	114.69
246.8	95.69
247.033	101.69
247.266	119.69
247.5	109.69
247.733	116.69
247.966	124.69
248.2	130.69
248.433	118.69
248.666	132.69
248.899	125.69
249.133	123.69
249.366	130.69
249.599	131.69
249.832	125.69
250.066	139.69
250.299	130.69
250.532	144.69
250.765	125.69
250.998	153.69
251.231	149.69
251.465	121.69
251.698	121.69
251.931	126.69
252.164	153.69
252.397	123.69
252.63	127.69
252.863	138.69
253.096	148.69
253.329	157.69
253.562	140.69
253.795	126.69
254.028	135.69
254.261	141.69
254.494	135.69
254.727	170.69
254.96	193.69
255.193	159.69
255.426	133.69
255.659	148.69
255.892	144.69
256.124	141.69
256.357	150.69
256.59	143.69
256.823	138.69
257.056	123.69
257.289	133.69
257.521	131.69
257.754	136.69
257.987	123.69
258.22	139.69
258.452	140.69
258.685	133.69
258.918	138.69
259.151	127.69
259.383	146.69
259.616	143.69
259.849	143.69
260.081	151.69
260.314	164.69
260.547	155.69
260.779	167.69
261.012	123.69
261.244	146.69
261.477	150.69
261.71	140.69
261.942	126.69
262.175	148.69
262.407	147.69
262.64	142.69
262.872	135.69
263.105	125.69
263.337	136.69
263.57	127.69
263.802	123.69
264.035	133.69
264.267	131.69
264.499	149.69
264.732	130.69
264.964	151.69
265.197	130.69
265.429	145.69
265.661	126.69
265.894	145.69
266.126	135.69
266.358	135.69
266.591	149.69
266.823	131.69
267.055	147.69
267.287	134.69
267.52	143.69
267.752	129.69
267.984	142.69
268.216	147.69
268.448	143.69
268.681	141.69
268.913	164.69
269.145	164.69
269.377	157.69
269.609	185.69
269.841	163.69
270.073	173.69
270.306	172.69
270.538	183.69
270.77	196.69
271.002	198.69
271.234	166.69
271.466	164.69
271.698	182.69
271.93	202.69
272.162	191.69
272.394	182.69
272.626	153.69
272.858	163.69
273.09	186.69
273.322	170.69
273.553	147.69
273.785	163.69
274.017	151.69
274.249	156.69
274.481	166.69
274.713	149.69
274.945	158.69
275.176	165.69
275.408	159.69
275.64	167.69
275.872	154.69
276.104	153.69
276.335	175.69
276.567	177.69
276.799	162.69
277.031	183.69
277.262	205.69
277.494	187.69
277.726	165.69
277.957	171.69
278.189	171.69
278.421	164.69
278.652	163.69
278.884	158.69
279.115	155.69
279.347	170.69
279.579	165.69
279.81	162.69
280.042	162.69
280.273	165.69
280.505	153.69
280.736	157.69
280.968	162.69
281.199	156.69
281.431	168.69
281.662	188.69
281.894	164.69
282.125	155.69
282.356	180.69
282.588	189.69
282.819	197.69
283.051	169.69
283.282	163.69
283.513	159.69
283.745	149.69
283.976	165.69
284.207	186.69
284.439	174.69
284.67	165.69
284.901	177.69
285.132	185.69
285.364	162.69
285.595	167.69
285.826	156.69
286.057	165.69
286.288	160.69
286.52	169.69
286.751	172.69
286.982	173.69
287.213	167.69
287.444	185.69
287.675	174.69
287.906	185.69
288.138	170.69
288.369	162.69
288.6	180.69
288.831	179.69
289.062	187.69
289.293	181.69
289.524	178.69
289.755	157.69
289.986	183.69
290.217	160.69
290.448	172.69
290.679	177.69
290.91	167.69
291.141	172.69
291.371	174.69
291.602	182.69
291.833	182.69
292.064	168.69
292.295	164.69
292.526	169.69
292.757	173.69
292.987	169.69
293.218	170.69
293.449	171.69
293.68	162.69
293.91	169.69
294.141	180.69
294.372	171.69
294.603	193.69
294.833	167.69
295.064	161.69
295.295	167.69
295.525	149.69
295.756	191.69
295.987	185.69
296.217	196.69
296.448	206.69
296.679	183.69
296.909	164.69
297.14	175.69
297.37	167.69
297.601	164.69
297.831	177.69
298.062	191.69
298.292	170.69
298.523	197.69
298.753	188.69
298.984	181.69
299.214	185.69
299.445	186.69
299.675	183.69
299.905	196.69
300.136	169.69
300.366	167.69
300.597	201.69
300.827	177.69
301.057	186.69
301.288	196.69
301.518	191.69
301.748	188.69
301.979	193.69
302.209	186.69
302.439	188.69
302.669	186.69
302.9	195.69
303.13	193.69
303.36	193.69
303.59	190.69
303.82	187.69
304.051	183.69
304.281	172.69
304.511	183.69
304.741	194.69
304.971	201.69
305.201	185.69
305.431	181.69
305.661	187.69
305.891	174.69
306.121	190.69
306.352	201.69
306.582	183.69
306.812	176.69
307.042	195.69
307.272	191.69
307.502	190.69
307.731	191.69
307.961	194.69
308.191	194.69
308.421	203.69
308.651	192.69
308.881	184.69
309.111	184.69
309.341	183.69
309.571	206.69
309.8	205.69
310.03	206.69
310.26	219.69
310.49	218.69
310.72	207.69
310.949	219.69
311.179	233.69
311.409	200.69
311.639	199.69
311.868	219.69
312.098	207.69
312.328	207.69
312.557	212.69
312.787	230.69
313.017	236.69
313.246	218.69
313.476	205.69
313.706	195.69
313.935	229.69
314.165	215.69
314.394	230.69
314.624	210.69
314.853	202.69
315.083	223.69
315.312	202.69
315.542	202.69
315.771	210.69
316.001	203.69
316.23	218.69
316.46	209.69
316.689	218.69
316.919	215.69
317.148	224.69
317.377	207.69
317.607	212.69
317.836	206.69
318.065	227.69
318.295	205.69
318.524	205.69
318.753	198.69
318.983	221.69
319.212	218.69
319.441	215.69
319.67	223.69
319.9	200.69
320.129	210.69
320.358	220.69
320.587	203.69
320.816	224.69
321.046	223.69
321.275	214.69
321.504	224.69
321.733	226.69
321.962	218.69
322.191	223.69
322.42	223.69
322.649	246.69
322.878	227.69
323.108	244.69
323.337	269.69
323.566	267.69
323.795	284.69
324.024	301.69
324.253	367.69
324.482	519.69
324.71	789.69
324.939	1035.69
325.168	843.69
325.397	427.69
325.626	327.69
325.855	271.69
326.084	252.69
326.313	267.69
326.542	259.69
326.77	298.69
326.999	333.69
327.228	450.69
327.457	689.69
327.686	771.69
327.914	503.69
328.143	358.69
328.372	322.69
328.6	322.69
328.829	288.69
329.058	302.69
329.287	321.69
329.515	291.69
329.744	266.69
329.972	284.69
330.201	301.69
330.43	346.69
330.658	350.69
330.887	336.69
331.115	332.69
331.344	294.69
331.572	282.69
331.801	285.69
332.03	274.69
332.258	259.69
332.486	236.69
332.715	236.69
332.943	243.69
333.172	249.69
333.4	265.69
333.629	258.69
333.857	252.69
334.085	267.69
334.314	276.69
334.542	301.69
334.771	326.69
334.999	279.69
335.227	277.69
335.455	257.69
335.684	228.69
335.912	245.69
336.14	235.69
336.369	245.69
336.597	253.69
336.825	252.69
337.053	232.69
337.281	239.69
337.51	237.69
337.738	242.69
337.966	241.69
338.194	245.69
338.422	240.69
338.65	241.69
338.878	238.69
339.106	224.69
339.334	238.69
339.562	244.69
339.79	223.69
340.018	223.69
340.246	233.69
340.474	245.69
340.702	261.69
340.93	248.69
341.158	234.69
341.386	241.69
341.614	220.69
341.842	225.69
342.07	224.69
342.298	220.69
342.526	230.69
342.754	221.69
342.981	217.69
343.209	251.69
343.437	220.69
343.665	234.69
343.893	227.69
344.12	230.69
344.348	237.69
344.576	245.69
344.804	215.69
345.031	221.69
345.259	238.69
345.487	232.69
345.714	224.69
345.942	228.69
346.17	232.69
346.397	216.69
346.625	230.69
346.853	226.69
347.08	222.69
347.308	237.69
347.535	214.69
347.763	236.69
347.99	227.69
348.218	232.69
348.445	246.69
348.673	230.69
348.9	219.69
349.128	224.69
349.355	215.69
349.583	228.69
349.81	211.69
350.037	216.69
350.265	217.69
350.492	223.69
350.72	216.69
350.947	211.69
351.174	225.69
351.402	236.69
351.629	234.69
351.856	221.69
352.083	220.69
352.311	255.69
352.538	237.69
352.765	247.69
352.992	229.69
353.22	230.69
353.447	231.69
353.674	228.69
353.901	218.69
354.128	210.69
354.355	196.69
354.583	213.69
354.81	203.69
355.037	205.69
355.264	198.69
355.491	212.69
355.718	215.69
355.945	185.69
356.172	211.69
356.399	214.69
356.626	208.69
356.853	221.69
357.08	205.69
357.307	229.69
357.534	211.69
357.761	221.69
357.988	221.69
358.215	209.69
358.441	208.69
358.668	205.69
358.895	222.69
359.122	212.69
359.349	214.69
359.576	210.69
359.802	242.69
360.029	258.69
360.256	250.69
360.483	251.69
360.709	221.69
360.936	227.69
361.163	241.69
361.39	221.69
361.616	206.69
361.843	231.69
362.07	212.69
362.296	223.69
362.523	227.69
362.749	235.69
362.976	223.69
363.203	218.69
363.429	211.69
363.656	237.69
363.882	219.69
364.109	203.69
364.335	202.69
364.562	198.69
364.788	212.69
365.015	216.69
365.241	218.69
365.468	226.69
365.694	211.69
365.92	211.69
366.147	221.69
366.373	205.69
366.599	213.69
366.826	206.69
367.052	209.69
367.278	210.69
367.505	219.69
367.731	221.69
367.957	201.69
368.184	219.69
368.41	203.69
368.636	213.69
368.862	221.69
369.089	221.69
369.315	204.69
369.541	199.69
369.767	197.69
369.993	199.69
370.219	219.69
370.445	224.69
370.672	217.69
370.898	210.69
371.124	201.69
371.35	203.69
371.576	212.69
371.802	210.69
372.028	202.69
372.254	217.69
372.48	202.69
372.706	193.69
372.932	212.69
373.158	208.69
373.384	212.69
373.61	222.69
373.835	214.69
374.061	199.69
374.287	218.69
374.513	211.69
374.739	208.69
374.965	220.69
375.191	195.69
375.416	216.69
375.642	226.69
375.868	212.69
376.094	203.69
376.319	225.69
376.545	219.69
376.771	204.69
376.997	220.69
377.222	218.69
377.448	210.69
377.674	212.69
377.899	219.69
378.125	225.69
378.35	206.69
378.576	215.69
378.802	202.69
379.027	214.69
379.253	214.69
379.478	211.69
379.704	211.69
379.929	214.69
380.155	218.69
380.38	211.69
380.606	209.69
380.831	214.69
381.057	220.69
381.282	216.69
381.507	206.69
381.733	216.69
381.958	211.69
382.184	204.69
382.409	236.69
382.634	214.69
382.86	213.69
383.085	226.69
383.31	224.69
383.535	219.69
383.761	205.69
383.986	219.69
384.211	218.69
384.436	230.69
384.662	218.69
384.887	225.69
385.112	228.69
385.337	233.69
385.562	213.69
385.787	218.69
386.013	233.69
386.238	223.69
386.463	241.69
386.688	219.69
386.913	226.69
387.138	206.69
387.363	228.69
387.588	219.69
387.813	215.69
388.038	232.69
388.263	205.69
388.488	230.69
388.713	236.69
388.938	236.69
389.163	219.69
389.387	227.69
389.612	234.69
389.837	238.69
390.062	217.69
390.287	220.69
390.512	217.69
390.736	236.69
390.961	221.69
391.186	211.69
391.411	245.69
391.636	242.69
391.86	232.69
392.085	227.69
392.31	236.69
392.534	217.69
392.759	226.69
392.984	230.69
393.208	216.69
393.433	223.69
393.658	225.69
393.882	230.69
394.107	225.69
394.331	215.69
394.556	238.69
394.78	231.69
395.005	237.69
395.229	220.69
395.454	254.69
395.678	232.69
395.903	226.69
396.127	258.69
396.352	235.69
396.576	245.69
396.801	227.69
397.025	221.69
397.249	227.69
397.474	243.69
397.698	236.69
397.922	224.69
398.147	242.69
398.371	251.69
398.595	238.69
398.82	229.69
399.044	266.69
399.268	268.69
399.492	284.69
399.717	298.69
399.941	313.69
400.165	308.69
400.389	302.69
400.613	273.69
400.837	278.69
401.062	254.69
401.286	253.69
401.51	256.69
401.734	258.69
401.958	266.69
402.182	254.69
402.406	262.69
402.63	269.69
402.854	256.69
403.078	270.69
403.302	270.69
403.526	245.69
403.75	276.69
403.974	270.69
404.198	277.69
404.422	265.69
404.645	261.69
404.869	297.69
405.093	298.69
405.317	293.69
405.541	309.69
405.765	297.69
405.988	278.69
406.212	294.69
406.436	311.69
406.66	311.69
406.883	305.69
407.107	278.69
407.331	307.69
407.555	329.69
407.778	347.69
408.002	315.69
408.226	307.69
408.449	279.69
408.673	270.69
408.896	294.69
409.12	326.69
409.344	297.69
409.567	271.69
409.791	241.69
410.014	265.69
410.238	253.69
410.461	266.69
410.685	271.69
410.908	259.69
411.132	266.69
411.355	309.69
411.578	295.69
411.802	272.69
412.025	262.69
412.249	280.69
412.472	276.69
412.695	303.69
412.919	275.69
413.142	253.69
413.365	258.69
413.589	265.69
413.812	261.69
414.035	258.69
414.258	250.69
414.482	261.69
414.705	248.69
414.928	254.69
415.151	250.69
415.374	247.69
415.597	261.69
415.821	251.69
416.044	256.69
416.267	263.69
416.49	252.69
416.713	233.69
416.936	268.69
417.159	259.69
417.382	264.69
417.605	268.69
417.828	269.69
418.051	278.69
418.274	264.69
418.497	250.69
418.72	244.69
418.943	259.69
419.166	245.69
419.389	265.69
419.611	288.69
419.834	266.69
420.057	275.69
420.28	272.69
420.503	270.69
420.726	257.69
420.948	291.69
421.171	288.69
421.394	326.69
421.617	288.69
421.839	263.69
422.062	259.69
422.285	283.69
422.507	284.69
422.73	316.69
422.953	322.69
423.175	280.69
423.398	286.69
423.621	291.69
423.843	300.69
424.066	279.69
424.288	260.69
424.511	298.69
424.733	313.69
424.956	358.69
425.178	338.69
425.401	327.69
425.623	347.69
425.846	295.69
426.068	273.69
426.291	278.69
426.513	278.69
426.735	275.69
426.958	283.69
427.18	338.69
427.402	361.69
427.625	427.69
427.847	382.69
428.069	335.69
428.292	290.69
428.514	269.69
428.736	272.69
428.958	277.69
429.181	246.69
429.403	246.69
429.625	271.69
429.847	276.69
430.069	318.69
430.292	292.69
430.514	269.69
430.736	266.69
430.958	250.69
431.18	249.69
431.402	254.69
431.624	237.69
431.846	231.69
432.068	261.69
432.29	239.69
432.512	260.69
432.734	263.69
432.956	252.69
433.178	275.69
433.4	265.69
433.622	267.69
433.844	250.69
434.066	226.69
434.287	261.69
434.509	231.69
434.731	286.69
434.953	263.69
435.175	261.69
435.397	286.69
435.618	299.69
435.84	310.69
436.062	324.69
436.284	344.69
436.505	310.69
436.727	285.69
436.949	263.69
437.17	242.69
437.392	230.69
437.614	279.69
437.835	279.69
438.057	321.69
438.278	385.69
438.5	370.69
438.721	401.69
438.943	369.69
439.165	317.69
439.386	303.69
439.608	271.69
439.829	281.69
440.05	302.69
440.272	319.69
440.493	295.69
440.715	282.69
440.936	261.69
441.158	264.69
441.379	261.69
441.6	273.69
441.822	271.69
442.043	302.69
442.264	323.69
442.486	362.69
442.707	324.69
442.928	263.69
443.149	274.69
443.371	309.69
443.592	311.69
443.813	348.69
444.034	379.69
444.255	325.69
444.476	302.69
444.698	278.69
444.919	281.69
445.14	363.69
445.361	336.69
445.582	293.69
445.803	344.69
446.024	369.69
446.245	369.69
446.466	345.69
446.687	283.69
446.908	282.69
447.129	264.69
447.35	253.69
447.571	271.69
447.792	263.69
448.013	262.69
448.234	269.69
448.455	273.69
448.675	349.69
448.896	369.69
449.117	339.69
449.338	303.69
449.559	350.69
449.779	399.69
450	316.69
450.221	275.69
450.442	267.69
450.662	267.69
450.883	264.69
451.104	272.69
451.324	262.69
451.545	249.69
451.766	233.69
451.986	229.69
452.207	232.69
452.428	244.69
452.648	238.69
452.869	243.69
453.089	242.69
453.31	242.69
453.53	253.69
453.751	257.69
453.971	249.69
454.192	251.69
454.412	238.69
454.633	236.69
454.853	233.69
455.073	243.69
455.294	247.69
455.514	267.69
455.734	293.69
455.955	243.69
456.175	215.69
456.395	225.69
456.616	219.69
456.836	232.69
457.056	223.69
457.276	226.69
457.497	243.69
457.717	226.69
457.937	220.69
458.157	238.69
458.377	229.69
458.598	238.69
458.818	287.69
459.038	327.69
459.258	342.69
459.478	267.69
459.698	277.69
459.918	260.69
460.138	261.69
460.358	269.69
460.578	239.69
460.798	238.69
461.018	258.69
461.238	241.69
461.458	229.69
461.678	247.69
461.898	250.69
462.118	235.69
462.338	243.69
462.558	243.69
462.777	247.69
462.997	272.69
463.217	282.69
463.437	261.69
463.657	270.69
463.876	261.69
464.096	257.69
464.316	271.69
464.536	258.69
464.755	277.69
464.975	269.69
465.195	313.69
465.414	334.69
465.634	285.69
465.854	282.69
466.073	248.69
466.293	258.69
466.512	250.69
466.732	247.69
466.951	242.69
467.171	243.69
467.391	263.69
467.61	263.69
467.829	258.69
468.049	236.69
468.268	242.69
468.488	258.69
468.707	238.69
468.927	220.69
469.146	249.69
469.365	238.69
469.585	242.69
469.804	236.69
470.023	261.69
470.243	251.69
470.462	263.69
470.681	261.69
470.901	262.69
471.12	261.69
471.339	243.69
471.558	256.69
471.777	247.69
471.997	243.69
472.216	247.69
472.435	293.69
472.654	263.69
472.873	253.69
473.092	234.69
473.311	225.69
473.53	253.69
473.749	259.69
473.968	264.69
474.187	334.69
474.406	336.69
474.625	287.69
474.844	239.69
475.063	235.69
475.282	240.69
475.501	261.69
475.72	245.69
475.939	246.69
476.158	259.69
476.377	247.69
476.596	254.69
476.814	266.69
477.033	252.69
477.252	254.69
477.471	268.69
477.69	249.69
477.908	253.69
478.127	268.69
478.346	273.69
478.564	258.69
478.783	264.69
479.002	290.69
479.22	280.69
479.439	281.69
479.658	312.69
479.876	303.69
480.095	300.69
480.313	321.69
480.532	309.69
480.751	295.69
480.969	297.69
481.188	351.69
481.406	392.69
481.624	323.69
481.843	313.69
482.061	278.69
482.28	291.69
482.498	286.69
482.717	280.69
482.935	268.69
483.153	289.69
483.372	291.69
483.59	286.69
483.808	276.69
484.027	287.69
484.245	266.69
484.463	277.69
484.681	271.69
484.9	301.69
485.118	286.69
485.336	285.69
485.554	280.69
485.772	300.69
485.99	315.69
486.209	282.69
486.427	298.69
486.645	303.69
486.863	297.69
487.081	319.69
487.299	298.69
487.517	314.69
487.735	302.69
487.953	299.69
488.171	311.69
488.389	302.69
488.607	308.69
488.825	318.69
489.043	300.69
489.261	320.69
489.479	317.69
489.696	312.69
489.914	310.69
490.132	312.69
490.35	323.69
490.568	332.69
490.786	324.69
491.003	333.69
491.221	345.69
491.439	343.69
491.657	346.69
491.874	358.69
492.092	345.69
492.31	367.69
492.527	371.69
492.745	341.69
492.963	366.69
493.18	354.69
493.398	373.69
493.615	364.69
493.833	362.69
494.05	361.69
494.268	351.69
494.485	334.69
494.703	370.69
494.92	351.69
495.138	350.69
495.355	359.69
495.573	353.69
495.79	354.69
496.008	354.69
496.225	357.69
496.442	351.69
496.66	348.69
496.877	353.69
497.094	350.69
497.312	350.69
497.529	360.69
497.746	358.69
497.963	369.69
498.181	362.69
498.398	363.69
498.615	371.69
498.832	388.69
499.049	401.69
499.267	399.69
499.484	415.69
499.701	418.69
499.918	429.69
500.135	471.69
500.352	462.69
500.569	493.69
500.786	491.69
501.003	477.69
501.22	455.69
501.437	456.69
501.654	443.69
501.871	419.69
502.088	414.69
502.305	402.69
502.522	379.69
502.739	355.69
502.956	350.69
503.172	334.69
503.389	347.69
503.606	382.69
503.823	370.69
504.04	339.69
504.256	332.69
504.473	344.69
504.69	356.69
504.907	346.69
505.123	323.69
505.34	339.69
505.557	333.69
505.773	345.69
505.99	353.69
506.207	341.69
506.423	353.69
506.64	332.69
506.856	323.69
507.073	331.69
507.289	326.69
507.506	341.69
507.722	329.69
507.939	336.69
508.155	321.69
508.372	313.69
508.588	316.69
508.805	314.69
509.021	325.69
509.238	348.69
509.454	330.69
509.67	310.69
509.887	330.69
510.103	315.69
510.319	341.69
510.536	385.69
510.752	779.69
510.968	578.69
511.184	363.69
511.401	310.69
511.617	314.69
511.833	299.69
512.049	280.69
512.265	296.69
512.481	308.69
512.698	313.69
512.914	303.69
513.13	291.69
513.346	298.69
513.562	307.69
513.778	298.69
513.994	309.69
514.21	329.69
514.426	326.69
514.642	353.69
514.858	361.69
515.074	398.69
515.29	487.69
515.506	842.69
515.721	662.69
515.937	385.69
516.153	334.69
516.369	321.69
516.585	326.69
516.801	319.69
517.016	315.69
517.232	321.69
517.448	322.69
517.664	301.69
517.879	321.69
518.095	314.69
518.311	312.69
518.527	310.69
518.742	291.69
518.958	308.69
519.173	315.69
519.389	316.69
519.605	314.69
519.82	302.69
520.036	329.69
520.251	325.69
520.467	340.69
520.682	329.69
520.898	339.69
521.113	359.69
521.329	389.69
521.544	426.69
521.76	621.69
521.975	1125.69
522.19	1095.69
522.406	530.69
522.621	372.69
522.836	322.69
523.052	291.69
523.267	308.69
523.482	301.69
523.698	285.69
523.913	294.69
524.128	273.69
524.343	282.69
524.559	258.69
524.774	262.69
524.989	269.69
525.204	274.69
525.419	267.69
525.634	268.69
525.849	257.69
526.064	264.69
526.28	275.69
526.495	269.69
526.71	255.69
526.925	237.69
527.14	251.69
527.355	249.69
527.57	261.69
527.785	251.69
527.999	246.69
528.214	243.69
528.429	251.69
528.644	260.69
528.859	234.69
529.074	241.69
529.289	263.69
529.503	334.69
529.718	307.69
529.933	281.69
530.148	271.69
530.363	257.69
530.577	236.69
530.792	250.69
531.007	249.69
531.221	237.69
531.436	244.69
531.651	230.69
531.865	237.69
532.08	249.69
532.295	250.69
532.509	230.69
532.724	237.69
532.938	254.69
533.153	243.69
533.367	239.69
533.582	240.69
533.796	237.69
534.011	238.69
534.225	249.69
534.44	250.69
534.654	243.69
534.868	223.69
535.083	230.69
535.297	257.69
535.511	243.69
535.726	247.69
535.94	231.69
536.154	251.69
536.369	247.69
536.583	226.69
536.797	236.69
537.011	245.69
537.225	231.69
537.44	228.69
537.654	235.69
537.868	238.69
538.082	239.69
538.296	238.69
538.51	250.69
538.724	237.69
538.938	243.69
539.153	225.69
539.367	245.69
539.581	254.69
539.795	245.69
540.009	258.69
540.222	231.69
540.436	231.69
540.65	229.69
540.864	232.69
541.078	263.69
541.292	243.69
541.506	243.69
541.72	225.69
541.934	249.69
542.147	236.69
542.361	227.69
542.575	222.69
542.789	236.69
543.002	246.69
543.216	217.69
543.43	247.69
543.644	241.69
543.857	232.69
544.071	221.69
544.285	237.69
544.498	213.69
544.712	225.69
544.925	241.69
545.139	232.69
545.352	255.69
545.566	231.69
545.779	237.69
545.993	229.69
546.206	250.69
546.42	236.69
546.633	227.69
546.847	241.69
547.06	225.69
547.274	230.69
547.487	222.69
547.7	217.69
547.914	226.69
548.127	219.69
548.34	222.69
548.554	227.69
548.767	227.69
548.98	206.69
549.193	232.69
549.407	220.69
549.62	228.69
549.833	221.69
550.046	221.69
550.259	220.69
550.473	233.69
550.686	251.69
550.899	241.69
551.112	229.69
551.325	222.69
551.538	220.69
551.751	218.69
551.964	218.69
552.177	229.69
552.39	225.69
552.603	232.69
552.816	233.69
553.029	241.69
553.242	225.69
553.455	245.69
553.667	232.69
553.88	240.69
554.093	223.69
554.306	226.69
554.519	221.69
554.732	213.69
554.944	222.69
555.157	221.69
555.37	222.69
555.583	224.69
555.795	222.69
556.008	211.69
556.221	206.69
556.433	197.69
556.646	204.69
556.859	201.69
557.071	213.69
557.284	222.69
557.496	208.69
557.709	205.69
557.921	186.69
558.134	199.69
558.346	197.69
558.559	206.69
558.771	177.69
558.984	199.69
559.196	199.69
559.409	209.69
559.621	215.69
559.833	201.69
560.046	186.69
560.258	224.69
560.47	203.69
560.683	206.69
560.895	213.69
561.107	203.69
561.32	210.69
561.532	221.69
561.744	212.69
561.956	197.69
562.168	201.69
562.381	201.69
562.593	197.69
562.805	214.69
563.017	204.69
563.229	202.69
563.441	208.69
563.653	215.69
563.865	216.69
564.077	205.69
564.289	206.69
564.501	210.69
564.713	212.69
564.925	213.69
565.137	211.69
565.349	213.69
565.561	208.69
565.773	245.69
565.985	233.69
566.197	223.69
566.408	224.69
566.62	220.69
566.832	235.69
567.044	241.69
567.255	241.69
567.467	242.69
567.679	231.69
567.891	247.69
568.102	234.69
568.314	236.69
568.526	229.69
568.737	229.69
568.949	239.69
569.161	215.69
569.372	210.69
569.584	202.69
569.795	224.69
570.007	217.69
570.218	258.69
570.43	230.69
570.641	212.69
570.853	189.69
571.064	202.69
571.276	186.69
571.487	188.69
571.698	188.69
571.91	205.69
572.121	177.69
572.333	179.69
572.544	182.69
572.755	187.69
572.966	193.69
573.178	178.69
573.389	167.69
573.6	194.69
573.811	182.69
574.023	185.69
574.234	198.69
574.445	189.69
574.656	174.69
574.867	177.69
575.078	181.69
575.289	183.69
575.501	189.69
575.712	171.69
575.923	185.69
576.134	181.69
576.345	186.69
576.556	181.69
576.767	168.69
576.978	169.69
577.188	187.69
577.399	174.69
577.61	189.69
577.821	165.69
578.032	172.69
578.243	226.69
578.454	383.69
578.665	248.69
578.875	169.69
579.086	162.69
579.297	175.69
579.508	177.69
579.718	181.69
579.929	170.69
580.14	168.69
580.35	168.69
580.561	159.69
580.772	162.69
580.982	181.69
581.193	155.69
581.403	162.69
581.614	179.69
581.825	163.69
582.035	166.69
582.246	164.69
582.456	167.69
582.667	158.69
582.877	148.69
583.087	146.69
583.298	148.69
583.508	166.69
583.719	149.69
583.929	153.69
584.139	173.69
584.35	168.69
584.56	158.69
584.77	159.69
584.981	178.69
585.191	184.69
585.401	166.69
585.611	165.69
585.821	153.69
586.032	146.69
586.242	150.69
586.452	169.69
586.662	155.69
586.872	170.69
587.082	172.69
587.292	155.69
587.502	166.69
587.713	155.69
587.923	142.69
588.133	156.69
588.343	157.69
588.553	157.69
588.762	169.69
588.972	167.69
589.182	170.69
589.392	171.69
589.602	161.69
589.812	165.69
590.022	173.69
590.232	166.69
590.441	157.69
590.651	185.69
590.861	152.69
591.071	172.69
591.281	156.69
591.49	154.69
591.7	173.69
591.91	166.69
592.119	175.69
592.329	166.69
592.539	158.69
592.748	152.69
592.958	158.69
593.167	173.69
593.377	181.69
593.587	181.69
593.796	170.69
594.006	167.69
594.215	160.69
594.424	155.69
594.634	164.69
594.843	163.69
595.053	167.69
595.262	154.69
595.472	162.69
595.681	170.69
595.89	160.69
596.1	175.69
596.309	164.69
596.518	154.69
596.727	149.69
596.937	152.69
597.146	162.69
597.355	158.69
597.564	147.69
597.774	157.69
597.983	146.69
598.192	149.69
598.401	153.69
598.61	172.69
598.819	145.69
599.028	163.69
599.237	150.69
599.446	155.69
599.655	145.69
599.864	137.69
600.073	163.69
600.282	162.69
600.491	152.69
600.7	161.69
600.909	142.69
601.118	158.69
601.327	148.69
601.536	155.69
601.745	159.69
601.953	159.69
602.162	151.69
602.371	150.69
602.58	156.69
602.789	154.69
602.997	177.69
603.206	144.69
603.415	151.69
603.623	164.69
603.832	154.69
604.041	151.69
604.249	141.69
604.458	154.69
604.666	137.69
604.875	144.69
605.084	131.69
605.292	139.69
605.501	137.69
605.709	144.69
605.918	140.69
606.126	139.69
606.334	137.69
606.543	154.69
606.751	147.69
606.96	140.69
607.168	150.69
607.376	155.69
607.585	141.69
607.793	140.69
608.001	141.69
608.21	157.69
608.418	148.69
608.626	146.69
608.834	148.69
609.043	151.69
609.251	140.69
609.459	143.69
609.667	144.69
609.875	143.69
610.083	141.69
610.291	156.69
610.499	147.69
610.707	140.69
610.916	137.69
611.124	152.69
611.332	143.69
611.54	149.69
611.748	154.69
611.955	149.69
612.163	147.69
612.371	140.69
612.579	147.69
612.787	149.69
612.995	147.69
613.203	139.69
613.411	139.69
613.618	144.69
613.826	161.69
614.034	153.69
614.242	160.69
614.449	156.69
614.657	140.69
614.865	147.69
615.072	130.69
615.28	139.69
615.488	149.69
615.695	133.69
615.903	146.69
616.111	153.69
616.318	158.69
616.526	137.69
616.733	152.69
616.941	155.69
617.148	135.69
617.356	147.69
617.563	133.69
617.771	123.69
617.978	124.69
618.185	149.69
618.393	149.69
618.6	127.69
618.807	149.69
619.015	127.69
619.222	139.69
619.429	142.69
619.637	138.69
619.844	137.69
620.051	130.69
620.258	139.69
620.466	135.69
620.673	140.69
620.88	150.69
621.087	129.69
621.294	131.69
621.501	126.69
621.708	147.69
621.915	140.69
622.122	157.69
622.329	147.69
622.536	146.69
622.743	127.69
622.95	144.69
623.157	137.69
623.364	137.69
623.571	139.69
623.778	131.69
623.985	138.69
624.192	142.69
624.399	121.69
624.606	129.69
624.812	141.69
625.019	142.69
625.226	133.69
625.433	139.69
625.639	127.69
625.846	138.69
626.053	139.69
626.259	143.69
626.466	133.69
626.673	133.69
626.879	131.69
627.086	128.69
627.293	139.69
627.499	117.69
627.706	138.69
627.912	124.69
628.119	137.69
628.325	127.69
628.532	126.69
628.738	131.69
628.945	119.69
629.151	129.69
629.357	125.69
629.564	125.69
629.77	136.69
629.976	120.69
630.183	117.69
630.389	122.69
630.595	135.69
630.802	129.69
631.008	138.69
631.214	127.69
631.42	122.69
631.627	133.69
631.833	133.69
632.039	122.69
632.245	104.69
632.451	121.69
632.657	131.69
632.863	113.69
633.069	125.69
633.275	115.69
633.481	130.69
633.688	139.69
633.893	128.69
634.099	123.69
634.305	126.69
634.511	118.69
634.717	103.69
634.923	139.69
635.129	123.69
635.335	126.69
635.541	117.69
635.747	113.69
635.952	126.69
636.158	138.69
636.364	131.69
636.57	122.69
636.775	113.69
636.981	113.69
637.187	121.69
637.392	118.69
637.598	139.69
637.804	137.69
638.009	114.69
638.215	113.69
638.421	121.69
638.626	131.69
638.832	121.69
639.037	110.69
639.243	108.69
639.448	106.69
639.654	116.69
639.859	129.69
640.065	121.69
640.27	127.69
640.475	111.69
640.681	113.69
640.886	123.69
641.091	121.69
641.297	128.69
641.502	121.69
641.707	114.69
641.913	118.69
642.118	115.69
642.323	99.69
642.528	125.69
642.733	105.69
642.939	105.69
643.144	126.69
643.349	127.69
643.554	121.69
643.759	125.69
643.964	117.69
644.169	116.69
644.374	121.69
644.579	127.69
644.784	115.69
644.989	106.69
645.194	99.69
645.399	109.69
645.604	121.69
645.809	127.69
646.014	101.69
646.219	117.69
646.423	106.69
646.628	117.69
646.833	121.69
647.038	119.69
647.243	100.69
647.447	110.69
647.652	125.69
647.857	121.69
648.062	130.69
648.266	116.69
648.471	118.69
648.676	121.69
648.88	122.69
649.085	111.69
649.289	119.69
649.494	117.69
649.698	138.69
649.903	125.69
650.107	110.69
650.312	113.69
650.516	106.69
650.721	117.69
650.925	127.69
651.13	114.69
651.334	104.69
651.539	126.69
651.743	122.69
651.947	118.69
652.152	120.69
652.356	100.69
652.56	118.69
652.764	114.69
652.969	119.69
653.173	104.69
653.377	106.69
653.581	113.69
653.785	100.69
653.99	99.69
654.194	113.69
654.398	108.69
654.602	105.69
654.806	105.69
655.01	110.69
655.214	121.69
655.418	115.69
655.622	105.69
655.826	110.69
656.03	101.69
656.234	110.69
656.438	111.69
656.642	113.69
656.846	105.69
657.049	96.69
657.253	98.69
657.457	115.69
657.661	95.69
657.865	96.69
658.068	93.69
658.272	91.69
658.476	96.69
658.68	101.69
658.883	97.69
659.087	83.69
659.291	88.69
659.494	95.69
659.698	88.69
659.901	92.69
660.105	108.69
660.309	91.69
660.512	94.69
660.716	95.69
660.919	84.69
661.123	71.69
661.326	92.69
661.53	88.69
661.733	84.69
661.936	89.69
662.14	87.69
662.343	95.69
662.546	77.69
662.75	90.69
662.953	91.69
663.156	90.69
663.36	91.69
663.563	74.69
663.766	89.69
663.969	86.69
664.173	85.69
664.376	78.69
664.579	76.69
664.782	70.69
664.985	85.69
665.188	83.69
665.391	89.69
665.594	77.69
665.797	96.69
666	86.69
666.203	85.69
666.406	87.69
666.609	77.69
666.812	87.69
667.015	79.69
667.218	83.69
667.421	77.69
667.624	71.69
667.827	75.69
668.03	86.69
668.232	94.69
668.435	79.69
668.638	69.69
668.841	69.69
669.043	75.69
669.246	88.69
669.449	82.69
669.651	86.69
669.854	76.69
670.057	89.69
670.259	70.69
670.462	104.69
670.665	89.69
670.867	82.69
671.07	77.69
671.272	83.69
671.475	88.69
671.677	96.69
671.88	76.69
672.082	72.69
672.284	80.69
672.487	73.69
672.689	85.69
672.892	85.69
