Data from 1966.PennyLincolnUp.Lamp.En5.5.200Scan.071719.P1._HRD10591_14-12-36-913.txt Node
Date: Thu Jul 18 14:12:36 EDT 2019
User: cochatt
Spectrometer: HR+D1059
Trigger mode: 1
Integration Time (sec): 1.000000E-1
Scans to average: 1
Electric dark correction enabled: true
Nonlinearity correction enabled: false
Boxcar width: 0
XAxis mode: Wavelengths
Number of Pixels in Spectrum: 2048
>>>>>Begin Spectral Data<<<<<
223.165	-8.94
223.4	-8.94
223.635	-8.94
223.869	-17.94
224.104	-21.94
224.338	-14.94
224.573	-11.94
224.808	-24.94
225.042	-2.94
225.277	-9.94
225.511	0.06
225.746	-2.94
225.98	-15.94
226.215	32.06
226.449	16.06
226.683	11.06
226.918	32.06
227.152	41.06
227.387	47.06
227.621	38.06
227.856	42.06
228.09	49.06
228.324	53.06
228.559	55.06
228.793	67.06
229.027	83.06
229.262	64.06
229.496	88.06
229.73	100.06
229.964	99.06
230.199	104.06
230.433	77.06
230.667	97.06
230.901	85.06
231.136	79.06
231.37	103.06
231.604	92.06
231.838	92.06
232.072	92.06
232.306	82.06
232.541	104.06
232.775	101.06
233.009	102.06
233.243	93.06
233.477	95.06
233.711	99.06
233.945	84.06
234.179	85.06
234.413	90.06
234.647	91.06
234.881	95.06
235.115	95.06
235.349	99.06
235.583	91.06
235.817	104.06
236.051	89.06
236.285	95.06
236.519	95.06
236.753	92.06
236.987	121.06
237.221	115.06
237.455	144.06
237.689	113.06
237.922	110.06
238.156	99.06
238.39	97.06
238.624	94.06
238.858	96.06
239.091	99.06
239.325	101.06
239.559	97.06
239.793	89.06
240.027	94.06
240.26	105.06
240.494	102.06
240.728	103.06
240.961	98.06
241.195	116.06
241.429	98.06
241.662	105.06
241.896	90.06
242.13	85.06
242.363	103.06
242.597	106.06
242.83	96.06
243.064	93.06
243.298	96.06
243.531	92.06
243.765	102.06
243.998	89.06
244.232	99.06
244.465	108.06
244.699	108.06
244.932	86.06
245.166	87.06
245.399	107.06
245.633	103.06
245.866	97.06
246.099	99.06
246.333	99.06
246.566	104.06
246.8	97.06
247.033	106.06
247.266	113.06
247.5	110.06
247.733	122.06
247.966	115.06
248.2	105.06
248.433	106.06
248.666	103.06
248.899	108.06
249.133	135.06
249.366	124.06
249.599	132.06
249.832	116.06
250.066	121.06
250.299	125.06
250.532	122.06
250.765	122.06
250.998	133.06
251.231	141.06
251.465	119.06
251.698	129.06
251.931	128.06
252.164	128.06
252.397	119.06
252.63	127.06
252.863	107.06
253.096	131.06
253.329	145.06
253.562	130.06
253.795	132.06
254.028	114.06
254.261	130.06
254.494	140.06
254.727	142.06
254.96	148.06
255.193	146.06
255.426	144.06
255.659	131.06
255.892	129.06
256.124	134.06
256.357	130.06
256.59	134.06
256.823	129.06
257.056	106.06
257.289	123.06
257.521	129.06
257.754	137.06
257.987	138.06
258.22	136.06
258.452	120.06
258.685	129.06
258.918	136.06
259.151	128.06
259.383	141.06
259.616	127.06
259.849	128.06
260.081	128.06
260.314	134.06
260.547	138.06
260.779	125.06
261.012	134.06
261.244	141.06
261.477	132.06
261.71	141.06
261.942	138.06
262.175	144.06
262.407	135.06
262.64	131.06
262.872	132.06
263.105	120.06
263.337	138.06
263.57	123.06
263.802	131.06
264.035	132.06
264.267	110.06
264.499	139.06
264.732	140.06
264.964	133.06
265.197	119.06
265.429	126.06
265.661	135.06
265.894	128.06
266.126	128.06
266.358	126.06
266.591	133.06
266.823	131.06
267.055	130.06
267.287	136.06
267.52	135.06
267.752	135.06
267.984	140.06
268.216	131.06
268.448	128.06
268.681	146.06
268.913	158.06
269.145	141.06
269.377	164.06
269.609	150.06
269.841	159.06
270.073	160.06
270.306	156.06
270.538	169.06
270.77	160.06
271.002	154.06
271.234	151.06
271.466	172.06
271.698	163.06
271.93	167.06
272.162	162.06
272.394	174.06
272.626	159.06
272.858	153.06
273.09	143.06
273.322	138.06
273.553	141.06
273.785	143.06
274.017	141.06
274.249	160.06
274.481	151.06
274.713	154.06
274.945	153.06
275.176	145.06
275.408	143.06
275.64	144.06
275.872	146.06
276.104	146.06
276.335	135.06
276.567	155.06
276.799	151.06
277.031	167.06
277.262	177.06
277.494	185.06
277.726	157.06
277.957	161.06
278.189	155.06
278.421	145.06
278.652	153.06
278.884	144.06
279.115	164.06
279.347	144.06
279.579	157.06
279.81	155.06
280.042	154.06
280.273	161.06
280.505	144.06
280.736	140.06
280.968	146.06
281.199	167.06
281.431	136.06
281.662	148.06
281.894	143.06
282.125	153.06
282.356	158.06
282.588	170.06
282.819	159.06
283.051	163.06
283.282	148.06
283.513	163.06
283.745	160.06
283.976	145.06
284.207	150.06
284.439	161.06
284.67	153.06
284.901	153.06
285.132	144.06
285.364	168.06
285.595	148.06
285.826	163.06
286.057	141.06
286.288	150.06
286.52	161.06
286.751	155.06
286.982	152.06
287.213	153.06
287.444	149.06
287.675	159.06
287.906	166.06
288.138	167.06
288.369	161.06
288.6	169.06
288.831	167.06
289.062	151.06
289.293	151.06
289.524	144.06
289.755	165.06
289.986	138.06
290.217	157.06
290.448	157.06
290.679	167.06
290.91	153.06
291.141	174.06
291.371	169.06
291.602	159.06
291.833	159.06
292.064	156.06
292.295	156.06
292.526	161.06
292.757	158.06
292.987	161.06
293.218	169.06
293.449	173.06
293.68	167.06
293.91	151.06
294.141	157.06
294.372	160.06
294.603	156.06
294.833	162.06
295.064	150.06
295.295	154.06
295.525	183.06
295.756	155.06
295.987	160.06
296.217	182.06
296.448	178.06
296.679	172.06
296.909	171.06
297.14	168.06
297.37	148.06
297.601	178.06
297.831	153.06
298.062	165.06
298.292	159.06
298.523	171.06
298.753	155.06
298.984	179.06
299.214	173.06
299.445	160.06
299.675	173.06
299.905	166.06
300.136	163.06
300.366	165.06
300.597	180.06
300.827	185.06
301.057	167.06
301.288	162.06
301.518	153.06
301.748	167.06
301.979	169.06
302.209	174.06
302.439	167.06
302.669	177.06
302.9	161.06
303.13	183.06
303.36	170.06
303.59	187.06
303.82	177.06
304.051	179.06
304.281	176.06
304.511	179.06
304.741	172.06
304.971	175.06
305.201	161.06
305.431	161.06
305.661	156.06
305.891	161.06
306.121	183.06
306.352	164.06
306.582	162.06
306.812	162.06
307.042	174.06
307.272	170.06
307.502	168.06
307.731	143.06
307.961	163.06
308.191	182.06
308.421	165.06
308.651	182.06
308.881	183.06
309.111	170.06
309.341	181.06
309.571	176.06
309.8	193.06
310.03	182.06
310.26	193.06
310.49	178.06
310.72	192.06
310.949	199.06
311.179	200.06
311.409	208.06
311.639	197.06
311.868	187.06
312.098	183.06
312.328	193.06
312.557	216.06
312.787	214.06
313.017	206.06
313.246	194.06
313.476	208.06
313.706	185.06
313.935	204.06
314.165	196.06
314.394	208.06
314.624	203.06
314.853	191.06
315.083	190.06
315.312	180.06
315.542	180.06
315.771	165.06
316.001	190.06
316.23	197.06
316.46	192.06
316.689	183.06
316.919	192.06
317.148	194.06
317.377	191.06
317.607	199.06
317.836	195.06
318.065	196.06
318.295	190.06
318.524	177.06
318.753	188.06
318.983	192.06
319.212	186.06
319.441	190.06
319.67	187.06
319.9	197.06
320.129	194.06
320.358	190.06
320.587	206.06
320.816	190.06
321.046	201.06
321.275	209.06
321.504	201.06
321.733	200.06
321.962	185.06
322.191	206.06
322.42	208.06
322.649	218.06
322.878	208.06
323.108	212.06
323.337	221.06
323.566	236.06
323.795	252.06
324.024	279.06
324.253	312.06
324.482	448.06
324.71	672.06
324.939	920.06
325.168	697.06
325.397	378.06
325.626	263.06
325.855	225.06
326.084	228.06
326.313	213.06
326.542	231.06
326.77	241.06
326.999	309.06
327.228	399.06
327.457	571.06
327.686	662.06
327.914	437.06
328.143	320.06
328.372	279.06
328.6	262.06
328.829	263.06
329.058	276.06
329.287	286.06
329.515	247.06
329.744	235.06
329.972	243.06
330.201	264.06
330.43	277.06
330.658	286.06
330.887	294.06
331.115	287.06
331.344	235.06
331.572	234.06
331.801	223.06
332.03	233.06
332.258	219.06
332.486	222.06
332.715	203.06
332.943	211.06
333.172	231.06
333.4	210.06
333.629	236.06
333.857	231.06
334.085	222.06
334.314	247.06
334.542	264.06
334.771	271.06
334.999	259.06
335.227	232.06
335.455	214.06
335.684	218.06
335.912	209.06
336.14	216.06
336.369	217.06
336.597	221.06
336.825	227.06
337.053	215.06
337.281	214.06
337.51	207.06
337.738	232.06
337.966	215.06
338.194	224.06
338.422	198.06
338.65	206.06
338.878	205.06
339.106	202.06
339.334	213.06
339.562	189.06
339.79	222.06
340.018	190.06
340.246	210.06
340.474	206.06
340.702	210.06
340.93	189.06
341.158	199.06
341.386	211.06
341.614	202.06
341.842	223.06
342.07	193.06
342.298	184.06
342.526	205.06
342.754	189.06
342.981	180.06
343.209	195.06
343.437	199.06
343.665	199.06
343.893	204.06
344.12	212.06
344.348	211.06
344.576	205.06
344.804	204.06
345.031	200.06
345.259	212.06
345.487	221.06
345.714	224.06
345.942	220.06
346.17	200.06
346.397	192.06
346.625	207.06
346.853	212.06
347.08	198.06
347.308	199.06
347.535	198.06
347.763	209.06
347.99	209.06
348.218	210.06
348.445	206.06
348.673	203.06
348.9	203.06
349.128	206.06
349.355	195.06
349.583	213.06
349.81	184.06
350.037	184.06
350.265	189.06
350.492	188.06
350.72	191.06
350.947	208.06
351.174	192.06
351.402	218.06
351.629	198.06
351.856	202.06
352.083	206.06
352.311	192.06
352.538	213.06
352.765	215.06
352.992	216.06
353.22	202.06
353.447	197.06
353.674	195.06
353.901	191.06
354.128	174.06
354.355	185.06
354.583	188.06
354.81	199.06
355.037	199.06
355.264	196.06
355.491	183.06
355.718	199.06
355.945	192.06
356.172	191.06
356.399	193.06
356.626	184.06
356.853	186.06
357.08	191.06
357.307	197.06
357.534	183.06
357.761	173.06
357.988	191.06
358.215	189.06
358.441	184.06
358.668	182.06
358.895	187.06
359.122	186.06
359.349	195.06
359.576	193.06
359.802	206.06
360.029	228.06
360.256	229.06
360.483	224.06
360.709	215.06
360.936	189.06
361.163	206.06
361.39	193.06
361.616	199.06
361.843	193.06
362.07	204.06
362.296	213.06
362.523	207.06
362.749	186.06
362.976	198.06
363.203	199.06
363.429	186.06
363.656	193.06
363.882	186.06
364.109	202.06
364.335	200.06
364.562	200.06
364.788	189.06
365.015	202.06
365.241	189.06
365.468	186.06
365.694	197.06
365.92	209.06
366.147	195.06
366.373	197.06
366.599	196.06
366.826	189.06
367.052	183.06
367.278	188.06
367.505	193.06
367.731	186.06
367.957	195.06
368.184	180.06
368.41	206.06
368.636	212.06
368.862	202.06
369.089	201.06
369.315	192.06
369.541	199.06
369.767	176.06
369.993	175.06
370.219	206.06
370.445	195.06
370.672	200.06
370.898	192.06
371.124	178.06
371.35	199.06
371.576	197.06
371.802	196.06
372.028	192.06
372.254	181.06
372.48	191.06
372.706	207.06
372.932	190.06
373.158	196.06
373.384	207.06
373.61	200.06
373.835	199.06
374.061	193.06
374.287	184.06
374.513	197.06
374.739	168.06
374.965	183.06
375.191	203.06
375.416	200.06
375.642	177.06
375.868	208.06
376.094	202.06
376.319	195.06
376.545	208.06
376.771	192.06
376.997	193.06
377.222	180.06
377.448	199.06
377.674	203.06
377.899	185.06
378.125	190.06
378.35	192.06
378.576	199.06
378.802	174.06
379.027	178.06
379.253	202.06
379.478	199.06
379.704	190.06
379.929	197.06
380.155	191.06
380.38	173.06
380.606	183.06
380.831	195.06
381.057	199.06
381.282	182.06
381.507	193.06
381.733	195.06
381.958	179.06
382.184	172.06
382.409	182.06
382.634	185.06
382.86	203.06
383.085	204.06
383.31	183.06
383.535	191.06
383.761	181.06
383.986	194.06
384.211	198.06
384.436	185.06
384.662	203.06
384.887	198.06
385.112	194.06
385.337	203.06
385.562	207.06
385.787	208.06
386.013	200.06
386.238	220.06
386.463	208.06
386.688	199.06
386.913	200.06
387.138	215.06
387.363	215.06
387.588	219.06
387.813	195.06
388.038	199.06
388.263	224.06
388.488	211.06
388.713	212.06
388.938	193.06
389.163	200.06
389.387	188.06
389.612	209.06
389.837	207.06
390.062	195.06
390.287	205.06
390.512	199.06
390.736	203.06
390.961	205.06
391.186	202.06
391.411	203.06
391.636	197.06
391.86	218.06
392.085	214.06
392.31	214.06
392.534	205.06
392.759	194.06
392.984	205.06
393.208	202.06
393.433	214.06
393.658	221.06
393.882	205.06
394.107	205.06
394.331	206.06
394.556	212.06
394.78	187.06
395.005	207.06
395.229	192.06
395.454	216.06
395.678	212.06
395.903	229.06
396.127	209.06
396.352	215.06
396.576	203.06
396.801	212.06
397.025	207.06
397.249	199.06
397.474	232.06
397.698	207.06
397.922	231.06
398.147	231.06
398.371	235.06
398.595	233.06
398.82	228.06
399.044	237.06
399.268	234.06
399.492	242.06
399.717	279.06
399.941	275.06
400.165	281.06
400.389	262.06
400.613	269.06
400.837	238.06
401.062	243.06
401.286	242.06
401.51	224.06
401.734	239.06
401.958	235.06
402.182	233.06
402.406	254.06
402.63	236.06
402.854	232.06
403.078	237.06
403.302	233.06
403.526	242.06
403.75	239.06
403.974	243.06
404.198	234.06
404.422	227.06
404.645	253.06
404.869	254.06
405.093	259.06
405.317	272.06
405.541	273.06
405.765	254.06
405.988	263.06
406.212	269.06
406.436	263.06
406.66	273.06
406.883	245.06
407.107	252.06
407.331	278.06
407.555	312.06
407.778	300.06
408.002	275.06
408.226	267.06
408.449	264.06
408.673	248.06
408.896	267.06
409.12	270.06
409.344	271.06
409.567	238.06
409.791	234.06
410.014	233.06
410.238	251.06
410.461	243.06
410.685	231.06
410.908	255.06
411.132	255.06
411.355	249.06
411.578	251.06
411.802	235.06
412.025	236.06
412.249	243.06
412.472	266.06
412.695	246.06
412.919	247.06
413.142	236.06
413.365	226.06
413.589	228.06
413.812	219.06
414.035	222.06
414.258	209.06
414.482	229.06
414.705	231.06
414.928	233.06
415.151	241.06
415.374	210.06
415.597	209.06
415.821	209.06
416.044	248.06
416.267	252.06
416.49	239.06
416.713	237.06
416.936	228.06
417.159	212.06
417.382	236.06
417.605	223.06
417.828	251.06
418.051	247.06
418.274	253.06
418.497	212.06
418.72	219.06
418.943	232.06
419.166	245.06
419.389	245.06
419.611	230.06
419.834	250.06
420.057	233.06
420.28	257.06
420.503	239.06
420.726	253.06
420.948	243.06
421.171	261.06
421.394	264.06
421.617	261.06
421.839	240.06
422.062	240.06
422.285	249.06
422.507	263.06
422.73	293.06
422.953	285.06
423.175	264.06
423.398	236.06
423.621	233.06
423.843	263.06
424.066	247.06
424.288	267.06
424.511	252.06
424.733	273.06
424.956	314.06
425.178	308.06
425.401	285.06
425.623	319.06
425.846	259.06
426.068	241.06
426.291	252.06
426.513	259.06
426.735	245.06
426.958	255.06
427.18	310.06
427.402	337.06
427.625	397.06
427.847	349.06
428.069	315.06
428.292	259.06
428.514	246.06
428.736	231.06
428.958	237.06
429.181	234.06
429.403	219.06
429.625	243.06
429.847	259.06
430.069	268.06
430.292	266.06
430.514	232.06
430.736	238.06
430.958	249.06
431.18	225.06
431.402	220.06
431.624	247.06
431.846	215.06
432.068	226.06
432.29	238.06
432.512	230.06
432.734	241.06
432.956	212.06
433.178	237.06
433.4	227.06
433.622	222.06
433.844	236.06
434.066	245.06
434.287	232.06
434.509	227.06
434.731	230.06
434.953	242.06
435.175	230.06
435.397	238.06
435.618	248.06
435.84	271.06
436.062	322.06
436.284	323.06
436.505	284.06
436.727	248.06
436.949	230.06
437.17	234.06
437.392	257.06
437.614	228.06
437.835	249.06
438.057	287.06
438.278	339.06
438.5	319.06
438.721	371.06
438.943	327.06
439.165	274.06
439.386	249.06
439.608	246.06
439.829	251.06
440.05	260.06
440.272	275.06
440.493	272.06
440.715	251.06
440.936	236.06
441.158	243.06
441.379	246.06
441.6	240.06
441.822	269.06
442.043	265.06
442.264	312.06
442.486	315.06
442.707	268.06
442.928	253.06
443.149	255.06
443.371	263.06
443.592	284.06
443.813	339.06
444.034	325.06
444.255	307.06
444.476	269.06
444.698	267.06
444.919	267.06
445.14	329.06
445.361	282.06
445.582	288.06
445.803	296.06
446.024	344.06
446.245	350.06
446.466	302.06
446.687	259.06
446.908	256.06
447.129	239.06
447.35	243.06
447.571	239.06
447.792	246.06
448.013	228.06
448.234	243.06
448.455	276.06
448.675	297.06
448.896	348.06
449.117	280.06
449.338	279.06
449.559	331.06
449.779	347.06
450	281.06
450.221	240.06
450.442	225.06
450.662	227.06
450.883	239.06
451.104	250.06
451.324	224.06
451.545	229.06
451.766	221.06
451.986	220.06
452.207	211.06
452.428	220.06
452.648	233.06
452.869	213.06
453.089	220.06
453.31	236.06
453.53	220.06
453.751	212.06
453.971	231.06
454.192	245.06
454.412	234.06
454.633	227.06
454.853	206.06
455.073	238.06
455.294	226.06
455.514	259.06
455.734	246.06
455.955	204.06
456.175	218.06
456.395	209.06
456.616	195.06
456.836	198.06
457.056	198.06
457.276	198.06
457.497	211.06
457.717	205.06
457.937	225.06
458.157	217.06
458.377	216.06
458.598	219.06
458.818	247.06
459.038	283.06
459.258	272.06
459.478	263.06
459.698	222.06
459.918	231.06
460.138	228.06
460.358	215.06
460.578	212.06
460.798	226.06
461.018	243.06
461.238	215.06
461.458	234.06
461.678	208.06
461.898	231.06
462.118	222.06
462.338	241.06
462.558	235.06
462.777	234.06
462.997	244.06
463.217	259.06
463.437	242.06
463.657	243.06
463.876	237.06
464.096	249.06
464.316	232.06
464.536	246.06
464.755	252.06
464.975	255.06
465.195	282.06
465.414	300.06
465.634	265.06
465.854	231.06
466.073	228.06
466.293	229.06
466.512	225.06
466.732	200.06
466.951	220.06
467.171	243.06
467.391	237.06
467.61	225.06
467.829	239.06
468.049	224.06
468.268	226.06
468.488	232.06
468.707	211.06
468.927	223.06
469.146	229.06
469.365	236.06
469.585	229.06
469.804	225.06
470.023	222.06
470.243	252.06
470.462	239.06
470.681	248.06
470.901	220.06
471.12	229.06
471.339	243.06
471.558	243.06
471.777	237.06
471.997	211.06
472.216	229.06
472.435	253.06
472.654	241.06
472.873	240.06
473.092	219.06
473.311	237.06
473.53	221.06
473.749	229.06
473.968	259.06
474.187	297.06
474.406	283.06
474.625	235.06
474.844	218.06
475.063	247.06
475.282	220.06
475.501	216.06
475.72	226.06
475.939	219.06
476.158	245.06
476.377	221.06
476.596	209.06
476.814	213.06
477.033	235.06
477.252	251.06
477.471	220.06
477.69	235.06
477.908	255.06
478.127	242.06
478.346	257.06
478.564	272.06
478.783	223.06
479.002	261.06
479.22	253.06
479.439	253.06
479.658	282.06
479.876	265.06
480.095	267.06
480.313	289.06
480.532	278.06
480.751	259.06
480.969	277.06
481.188	305.06
481.406	341.06
481.624	284.06
481.843	265.06
482.061	277.06
482.28	259.06
482.498	269.06
482.717	251.06
482.935	256.06
483.153	269.06
483.372	228.06
483.59	258.06
483.808	251.06
484.027	267.06
484.245	248.06
484.463	269.06
484.681	264.06
484.9	280.06
485.118	246.06
485.336	267.06
485.554	282.06
485.772	273.06
485.99	287.06
486.209	276.06
486.427	270.06
486.645	273.06
486.863	288.06
487.081	282.06
487.299	287.06
487.517	289.06
487.735	295.06
487.953	265.06
488.171	284.06
488.389	269.06
488.607	263.06
488.825	264.06
489.043	267.06
489.261	267.06
489.479	281.06
489.696	271.06
489.914	281.06
490.132	295.06
490.35	288.06
490.568	277.06
490.786	308.06
491.003	310.06
491.221	309.06
491.439	320.06
491.657	321.06
491.874	307.06
492.092	316.06
492.31	315.06
492.527	317.06
492.745	326.06
492.963	310.06
493.18	319.06
493.398	308.06
493.615	319.06
493.833	315.06
494.05	334.06
494.268	319.06
494.485	332.06
494.703	303.06
494.92	326.06
495.138	316.06
495.355	324.06
495.573	317.06
495.79	318.06
496.008	308.06
496.225	330.06
496.442	319.06
496.66	323.06
496.877	299.06
497.094	325.06
497.312	303.06
497.529	311.06
497.746	313.06
497.963	336.06
498.181	312.06
498.398	324.06
498.615	337.06
498.832	341.06
499.049	358.06
499.267	357.06
499.484	362.06
499.701	388.06
499.918	390.06
500.135	407.06
500.352	419.06
500.569	400.06
500.786	415.06
501.003	415.06
501.22	387.06
501.437	394.06
501.654	392.06
501.871	369.06
502.088	378.06
502.305	341.06
502.522	350.06
502.739	329.06
502.956	332.06
503.172	325.06
503.389	325.06
503.606	322.06
503.823	322.06
504.04	313.06
504.256	301.06
504.473	295.06
504.69	316.06
504.907	324.06
505.123	292.06
505.34	317.06
505.557	307.06
505.773	316.06
505.99	314.06
506.207	314.06
506.423	281.06
506.64	286.06
506.856	299.06
507.073	283.06
507.289	291.06
507.506	291.06
507.722	295.06
507.939	316.06
508.155	291.06
508.372	281.06
508.588	299.06
508.805	287.06
509.021	302.06
509.238	282.06
509.454	296.06
509.67	303.06
509.887	276.06
510.103	282.06
510.319	305.06
510.536	361.06
510.752	638.06
510.968	466.06
511.184	275.06
511.401	265.06
511.617	282.06
511.833	283.06
512.049	261.06
512.265	258.06
512.481	250.06
512.698	260.06
512.914	261.06
513.13	271.06
513.346	248.06
513.562	262.06
513.778	259.06
513.994	281.06
514.21	291.06
514.426	279.06
514.642	304.06
514.858	328.06
515.074	349.06
515.29	433.06
515.506	661.06
515.721	541.06
515.937	347.06
516.153	332.06
516.369	281.06
516.585	265.06
516.801	272.06
517.016	289.06
517.232	281.06
517.448	275.06
517.664	271.06
517.879	275.06
518.095	282.06
518.311	281.06
518.527	275.06
518.742	281.06
518.958	259.06
519.173	281.06
519.389	261.06
519.605	271.06
519.82	267.06
520.036	288.06
520.251	284.06
520.467	313.06
520.682	277.06
520.898	291.06
521.113	325.06
521.329	311.06
521.544	368.06
521.76	511.06
521.975	883.06
522.19	909.06
522.406	432.06
522.621	327.06
522.836	283.06
523.052	268.06
523.267	263.06
523.482	246.06
523.698	237.06
523.913	237.06
524.128	248.06
524.343	233.06
524.559	237.06
524.774	239.06
524.989	249.06
525.204	232.06
525.419	248.06
525.634	253.06
525.849	241.06
526.064	229.06
526.28	248.06
526.495	241.06
526.71	226.06
526.925	223.06
527.14	229.06
527.355	209.06
527.57	219.06
527.785	247.06
527.999	221.06
528.214	230.06
528.429	229.06
528.644	202.06
528.859	224.06
529.074	242.06
529.289	248.06
529.503	293.06
529.718	287.06
529.933	226.06
530.148	236.06
530.363	220.06
530.577	224.06
530.792	213.06
531.007	220.06
531.221	209.06
531.436	224.06
531.651	204.06
531.865	220.06
532.08	223.06
532.295	217.06
532.509	208.06
532.724	233.06
532.938	232.06
533.153	228.06
533.367	228.06
533.582	220.06
533.796	229.06
534.011	229.06
534.225	218.06
534.44	200.06
534.654	230.06
534.868	214.06
535.083	223.06
535.297	216.06
535.511	228.06
535.726	220.06
535.94	227.06
536.154	205.06
536.369	199.06
536.583	205.06
536.797	221.06
537.011	236.06
537.225	203.06
537.44	217.06
537.654	219.06
537.868	212.06
538.082	230.06
538.296	230.06
538.51	212.06
538.724	215.06
538.938	214.06
539.153	216.06
539.367	221.06
539.581	223.06
539.795	213.06
540.009	200.06
540.222	193.06
540.436	218.06
540.65	203.06
540.864	206.06
541.078	234.06
541.292	232.06
541.506	211.06
541.72	211.06
541.934	216.06
542.147	221.06
542.361	219.06
542.575	207.06
542.789	204.06
543.002	213.06
543.216	213.06
543.43	227.06
543.644	231.06
543.857	234.06
544.071	224.06
544.285	219.06
544.498	230.06
544.712	231.06
544.925	227.06
545.139	221.06
545.352	212.06
545.566	220.06
545.779	229.06
545.993	229.06
546.206	210.06
546.42	218.06
546.633	230.06
546.847	213.06
547.06	204.06
547.274	223.06
547.487	213.06
547.7	221.06
547.914	209.06
548.127	210.06
548.34	194.06
548.554	202.06
548.767	203.06
548.98	185.06
549.193	196.06
549.407	209.06
549.62	198.06
549.833	214.06
550.046	205.06
550.259	197.06
550.473	211.06
550.686	188.06
550.899	209.06
551.112	210.06
551.325	191.06
551.538	191.06
551.751	194.06
551.964	222.06
552.177	202.06
552.39	211.06
552.603	200.06
552.816	223.06
553.029	215.06
553.242	209.06
553.455	218.06
553.667	214.06
553.88	220.06
554.093	219.06
554.306	237.06
554.519	231.06
554.732	217.06
554.944	198.06
555.157	197.06
555.37	209.06
555.583	200.06
555.795	212.06
556.008	188.06
556.221	198.06
556.433	184.06
556.646	207.06
556.859	195.06
557.071	197.06
557.284	194.06
557.496	185.06
557.709	194.06
557.921	187.06
558.134	183.06
558.346	185.06
558.559	184.06
558.771	190.06
558.984	181.06
559.196	188.06
559.409	201.06
559.621	197.06
559.833	193.06
560.046	177.06
560.258	184.06
560.47	191.06
560.683	181.06
560.895	173.06
561.107	178.06
561.32	187.06
561.532	190.06
561.744	179.06
561.956	194.06
562.168	201.06
562.381	189.06
562.593	189.06
562.805	200.06
563.017	193.06
563.229	189.06
563.441	207.06
563.653	191.06
563.865	186.06
564.077	185.06
564.289	185.06
564.501	198.06
564.713	190.06
564.925	172.06
565.137	189.06
565.349	212.06
565.561	200.06
565.773	190.06
565.985	203.06
566.197	208.06
566.408	209.06
566.62	218.06
566.832	212.06
567.044	215.06
567.255	211.06
567.467	223.06
567.679	216.06
567.891	222.06
568.102	233.06
568.314	215.06
568.526	204.06
568.737	208.06
568.949	212.06
569.161	207.06
569.372	207.06
569.584	187.06
569.795	199.06
570.007	195.06
570.218	219.06
570.43	217.06
570.641	190.06
570.853	185.06
571.064	210.06
571.276	187.06
571.487	174.06
571.698	168.06
571.91	165.06
572.121	175.06
572.333	170.06
572.544	175.06
572.755	171.06
572.966	163.06
573.178	176.06
573.389	156.06
573.6	173.06
573.811	151.06
574.023	157.06
574.234	169.06
574.445	157.06
574.656	176.06
574.867	158.06
575.078	171.06
575.289	173.06
575.501	167.06
575.712	173.06
575.923	173.06
576.134	155.06
576.345	161.06
576.556	173.06
576.767	161.06
576.978	164.06
577.188	161.06
577.399	172.06
577.61	173.06
577.821	161.06
578.032	164.06
578.243	181.06
578.454	308.06
578.665	205.06
578.875	163.06
579.086	157.06
579.297	166.06
579.508	171.06
579.718	152.06
579.929	169.06
580.14	169.06
580.35	169.06
580.561	147.06
580.772	153.06
580.982	159.06
581.193	158.06
581.403	158.06
581.614	159.06
581.825	169.06
582.035	159.06
582.246	160.06
582.456	152.06
582.667	154.06
582.877	154.06
583.087	152.06
583.298	157.06
583.508	159.06
583.719	156.06
583.929	163.06
584.139	156.06
584.35	153.06
584.56	148.06
584.77	152.06
584.981	154.06
585.191	157.06
585.401	161.06
585.611	150.06
585.821	149.06
586.032	159.06
586.242	156.06
586.452	142.06
586.662	142.06
586.872	156.06
587.082	146.06
587.292	160.06
587.502	166.06
587.713	151.06
587.923	141.06
588.133	161.06
588.343	145.06
588.553	168.06
588.762	157.06
588.972	149.06
589.182	189.06
589.392	197.06
589.602	150.06
589.812	181.06
590.022	167.06
590.232	149.06
590.441	149.06
590.651	145.06
590.861	139.06
591.071	153.06
591.281	156.06
591.49	162.06
591.7	166.06
591.91	159.06
592.119	154.06
592.329	153.06
592.539	146.06
592.748	153.06
592.958	165.06
593.167	149.06
593.377	167.06
593.587	152.06
593.796	161.06
594.006	151.06
594.215	162.06
594.424	167.06
594.634	164.06
594.843	153.06
595.053	149.06
595.262	158.06
595.472	142.06
595.681	144.06
595.89	148.06
596.1	141.06
596.309	152.06
596.518	148.06
596.727	149.06
596.937	156.06
597.146	137.06
597.355	154.06
597.564	156.06
597.774	156.06
597.983	135.06
598.192	143.06
598.401	149.06
598.61	145.06
598.819	141.06
599.028	134.06
599.237	148.06
599.446	155.06
599.655	148.06
599.864	141.06
600.073	144.06
600.282	138.06
600.491	143.06
600.7	138.06
600.909	137.06
601.118	142.06
601.327	132.06
601.536	143.06
601.745	139.06
601.953	144.06
602.162	147.06
602.371	147.06
602.58	151.06
602.789	145.06
602.997	149.06
603.206	138.06
603.415	137.06
603.623	126.06
603.832	125.06
604.041	135.06
604.249	129.06
604.458	121.06
604.666	118.06
604.875	137.06
605.084	132.06
605.292	135.06
605.501	143.06
605.709	164.06
605.918	132.06
606.126	135.06
606.334	139.06
606.543	152.06
606.751	133.06
606.96	136.06
607.168	130.06
607.376	137.06
607.585	146.06
607.793	128.06
608.001	130.06
608.21	148.06
608.418	137.06
608.626	136.06
608.834	137.06
609.043	138.06
609.251	142.06
609.459	139.06
609.667	143.06
609.875	125.06
610.083	148.06
610.291	142.06
610.499	135.06
610.707	133.06
610.916	141.06
611.124	138.06
611.332	121.06
611.54	138.06
611.748	137.06
611.955	126.06
612.163	138.06
612.371	136.06
612.579	139.06
612.787	130.06
612.995	133.06
613.203	154.06
613.411	153.06
613.618	144.06
613.826	144.06
614.034	128.06
614.242	126.06
614.449	140.06
614.657	137.06
614.865	137.06
615.072	144.06
615.28	132.06
615.488	130.06
615.695	142.06
615.903	143.06
616.111	137.06
616.318	136.06
616.526	129.06
616.733	140.06
616.941	145.06
617.148	136.06
617.356	132.06
617.563	126.06
617.771	139.06
617.978	123.06
618.185	121.06
618.393	129.06
618.6	128.06
618.807	137.06
619.015	131.06
619.222	136.06
619.429	129.06
619.637	127.06
619.844	139.06
620.051	134.06
620.258	130.06
620.466	136.06
620.673	133.06
620.88	145.06
621.087	127.06
621.294	110.06
621.501	136.06
621.708	137.06
621.915	137.06
622.122	134.06
622.329	118.06
622.536	133.06
622.743	128.06
622.95	149.06
623.157	130.06
623.364	144.06
623.571	137.06
623.778	121.06
623.985	129.06
624.192	123.06
624.399	131.06
624.606	143.06
624.812	122.06
625.019	121.06
625.226	139.06
625.433	145.06
625.639	119.06
625.846	123.06
626.053	127.06
626.259	123.06
626.466	122.06
626.673	135.06
626.879	117.06
627.086	121.06
627.293	133.06
627.499	122.06
627.706	115.06
627.912	124.06
628.119	125.06
628.325	111.06
628.532	129.06
628.738	137.06
628.945	126.06
629.151	126.06
629.357	135.06
629.564	120.06
629.77	123.06
629.976	107.06
630.183	109.06
630.389	122.06
630.595	128.06
630.802	124.06
631.008	115.06
631.214	112.06
631.42	103.06
631.627	129.06
631.833	115.06
632.039	127.06
632.245	127.06
632.451	111.06
632.657	102.06
632.863	118.06
633.069	125.06
633.275	128.06
633.481	124.06
633.688	110.06
633.893	124.06
634.099	125.06
634.305	111.06
634.511	106.06
634.717	123.06
634.923	116.06
635.129	111.06
635.335	115.06
635.541	127.06
635.747	132.06
635.952	117.06
636.158	109.06
636.364	120.06
636.57	123.06
636.775	120.06
636.981	116.06
637.187	120.06
637.392	109.06
637.598	113.06
637.804	113.06
638.009	121.06
638.215	96.06
638.421	115.06
638.626	123.06
638.832	116.06
639.037	117.06
639.243	106.06
639.448	115.06
639.654	126.06
639.859	109.06
640.065	120.06
640.27	125.06
640.475	122.06
640.681	123.06
640.886	118.06
641.091	121.06
641.297	107.06
641.502	101.06
641.707	105.06
641.913	107.06
642.118	102.06
642.323	132.06
642.528	123.06
642.733	117.06
642.939	116.06
643.144	110.06
643.349	124.06
643.554	121.06
643.759	106.06
643.964	119.06
644.169	117.06
644.374	109.06
644.579	122.06
644.784	117.06
644.989	121.06
645.194	112.06
645.399	109.06
645.604	117.06
645.809	119.06
646.014	112.06
646.219	117.06
646.423	115.06
646.628	102.06
646.833	112.06
647.038	127.06
647.243	113.06
647.447	107.06
647.652	108.06
647.857	115.06
648.062	104.06
648.266	118.06
648.471	115.06
648.676	120.06
648.88	99.06
649.085	112.06
649.289	118.06
649.494	113.06
649.698	125.06
649.903	118.06
650.107	122.06
650.312	105.06
650.516	110.06
650.721	107.06
650.925	105.06
651.13	99.06
651.334	112.06
651.539	124.06
651.743	120.06
651.947	110.06
652.152	113.06
652.356	100.06
652.56	101.06
652.764	113.06
652.969	121.06
653.173	105.06
653.377	110.06
653.581	93.06
653.785	107.06
653.99	112.06
654.194	99.06
654.398	107.06
654.602	95.06
654.806	95.06
655.01	122.06
655.214	108.06
655.418	109.06
655.622	113.06
655.826	94.06
656.03	104.06
656.234	109.06
656.438	119.06
656.642	98.06
656.846	101.06
657.049	107.06
657.253	104.06
657.457	116.06
657.661	106.06
657.865	91.06
658.068	101.06
658.272	99.06
658.476	99.06
658.68	91.06
658.883	89.06
659.087	97.06
659.291	104.06
659.494	90.06
659.698	85.06
659.901	98.06
660.105	95.06
660.309	75.06
660.512	81.06
660.716	106.06
660.919	96.06
661.123	109.06
661.326	96.06
661.53	81.06
661.733	90.06
661.936	87.06
662.14	89.06
662.343	94.06
662.546	71.06
662.75	95.06
662.953	87.06
663.156	86.06
663.36	85.06
663.563	95.06
663.766	87.06
663.969	71.06
664.173	96.06
664.376	71.06
664.579	92.06
664.782	83.06
664.985	88.06
665.188	92.06
665.391	85.06
665.594	84.06
665.797	88.06
666	85.06
666.203	85.06
666.406	93.06
666.609	81.06
666.812	94.06
667.015	89.06
667.218	81.06
667.421	83.06
667.624	86.06
667.827	89.06
668.03	83.06
668.232	87.06
668.435	87.06
668.638	89.06
668.841	88.06
669.043	83.06
669.246	82.06
669.449	94.06
669.651	92.06
669.854	104.06
670.057	97.06
670.259	76.06
670.462	82.06
670.665	74.06
670.867	91.06
671.07	81.06
671.272	86.06
671.475	97.06
671.677	88.06
671.88	74.06
672.082	87.06
672.284	84.06
672.487	80.06
672.689	86.06
672.892	91.06
