Data from 1966.PennyLincolnUp.Lamp.En5.5.200Scan.071719.P1.Scan2.head_HRD10591_14-18-00-153.txt Node
Date: Thu Jul 18 14:18:00 EDT 2019
User: cochatt
Spectrometer: HR+D1059
Trigger mode: 1
Integration Time (sec): 1.000000E-1
Scans to average: 1
Electric dark correction enabled: true
Nonlinearity correction enabled: false
Boxcar width: 0
XAxis mode: Wavelengths
Number of Pixels in Spectrum: 2048
>>>>>Begin Spectral Data<<<<<
223.165	-14.75
223.4	-14.75
223.635	-14.75
223.869	-13.75
224.104	-21.75
224.338	-30.75
224.573	-23.75
224.808	-17.75
225.042	-7.75
225.277	-1.75
225.511	-6.75
225.746	14.25
225.98	10.25
226.215	13.25
226.449	24.25
226.683	22.25
226.918	14.25
227.152	40.25
227.387	35.25
227.621	42.25
227.856	46.25
228.09	42.25
228.324	52.25
228.559	61.25
228.793	70.25
229.027	106.25
229.262	93.25
229.496	111.25
229.73	149.25
229.964	151.25
230.199	136.25
230.433	125.25
230.667	101.25
230.901	114.25
231.136	115.25
231.37	116.25
231.604	121.25
231.838	120.25
232.072	109.25
232.306	128.25
232.541	134.25
232.775	116.25
233.009	106.25
233.243	122.25
233.477	121.25
233.711	123.25
233.945	130.25
234.179	119.25
234.413	119.25
234.647	110.25
234.881	126.25
235.115	138.25
235.349	112.25
235.583	122.25
235.817	119.25
236.051	121.25
236.285	113.25
236.519	125.25
236.753	152.25
236.987	139.25
237.221	184.25
237.455	234.25
237.689	199.25
237.922	137.25
238.156	137.25
238.39	123.25
238.624	130.25
238.858	122.25
239.091	136.25
239.325	144.25
239.559	136.25
239.793	127.25
240.027	133.25
240.26	149.25
240.494	145.25
240.728	148.25
240.961	149.25
241.195	160.25
241.429	153.25
241.662	139.25
241.896	132.25
242.13	133.25
242.363	134.25
242.597	146.25
242.83	152.25
243.064	150.25
243.298	124.25
243.531	131.25
243.765	145.25
243.998	149.25
244.232	131.25
244.465	141.25
244.699	143.25
244.932	152.25
245.166	152.25
245.399	156.25
245.633	139.25
245.866	153.25
246.099	150.25
246.333	163.25
246.566	160.25
246.8	154.25
247.033	165.25
247.266	169.25
247.5	167.25
247.733	174.25
247.966	186.25
248.2	174.25
248.433	176.25
248.666	197.25
248.899	186.25
249.133	207.25
249.366	200.25
249.599	211.25
249.832	183.25
250.066	195.25
250.299	187.25
250.532	193.25
250.765	209.25
250.998	216.25
251.231	233.25
251.465	214.25
251.698	204.25
251.931	214.25
252.164	202.25
252.397	202.25
252.63	203.25
252.863	206.25
253.096	217.25
253.329	229.25
253.562	223.25
253.795	232.25
254.028	216.25
254.261	214.25
254.494	229.25
254.727	273.25
254.96	288.25
255.193	260.25
255.426	267.25
255.659	236.25
255.892	214.25
256.124	234.25
256.357	230.25
256.59	237.25
256.823	219.25
257.056	211.25
257.289	205.25
257.521	223.25
257.754	219.25
257.987	225.25
258.22	217.25
258.452	215.25
258.685	220.25
258.918	221.25
259.151	207.25
259.383	226.25
259.616	219.25
259.849	230.25
260.081	253.25
260.314	257.25
260.547	263.25
260.779	268.25
261.012	239.25
261.244	228.25
261.477	214.25
261.71	204.25
261.942	226.25
262.175	239.25
262.407	221.25
262.64	220.25
262.872	218.25
263.105	229.25
263.337	225.25
263.57	211.25
263.802	209.25
264.035	223.25
264.267	217.25
264.499	215.25
264.732	233.25
264.964	223.25
265.197	228.25
265.429	224.25
265.661	225.25
265.894	226.25
266.126	228.25
266.358	215.25
266.591	213.25
266.823	226.25
267.055	223.25
267.287	225.25
267.52	231.25
267.752	231.25
267.984	244.25
268.216	244.25
268.448	245.25
268.681	242.25
268.913	255.25
269.145	269.25
269.377	271.25
269.609	288.25
269.841	282.25
270.073	295.25
270.306	300.25
270.538	321.25
270.77	310.25
271.002	311.25
271.234	280.25
271.466	304.25
271.698	301.25
271.93	304.25
272.162	309.25
272.394	306.25
272.626	311.25
272.858	289.25
273.09	278.25
273.322	278.25
273.553	253.25
273.785	281.25
274.017	266.25
274.249	271.25
274.481	260.25
274.713	266.25
274.945	269.25
275.176	278.25
275.408	269.25
275.64	289.25
275.872	265.25
276.104	271.25
276.335	269.25
276.567	304.25
276.799	292.25
277.031	295.25
277.262	321.25
277.494	320.25
277.726	321.25
277.957	290.25
278.189	287.25
278.421	285.25
278.652	290.25
278.884	274.25
279.115	289.25
279.347	278.25
279.579	265.25
279.81	295.25
280.042	280.25
280.273	278.25
280.505	273.25
280.736	266.25
280.968	277.25
281.199	265.25
281.431	274.25
281.662	269.25
281.894	285.25
282.125	286.25
282.356	315.25
282.588	308.25
282.819	318.25
283.051	289.25
283.282	285.25
283.513	277.25
283.745	293.25
283.976	284.25
284.207	270.25
284.439	298.25
284.67	311.25
284.901	284.25
285.132	287.25
285.364	295.25
285.595	292.25
285.826	278.25
286.057	285.25
286.288	298.25
286.52	290.25
286.751	285.25
286.982	292.25
287.213	300.25
287.444	301.25
287.675	269.25
287.906	312.25
288.138	297.25
288.369	301.25
288.6	301.25
288.831	295.25
289.062	313.25
289.293	289.25
289.524	283.25
289.755	284.25
289.986	287.25
290.217	296.25
290.448	292.25
290.679	305.25
290.91	296.25
291.141	303.25
291.371	298.25
291.602	301.25
291.833	298.25
292.064	297.25
292.295	317.25
292.526	296.25
292.757	305.25
292.987	287.25
293.218	280.25
293.449	312.25
293.68	294.25
293.91	298.25
294.141	317.25
294.372	311.25
294.603	316.25
294.833	302.25
295.064	312.25
295.295	298.25
295.525	308.25
295.756	308.25
295.987	302.25
296.217	325.25
296.448	350.25
296.679	322.25
296.909	327.25
297.14	319.25
297.37	306.25
297.601	306.25
297.831	284.25
298.062	292.25
298.292	324.25
298.523	300.25
298.753	316.25
298.984	329.25
299.214	318.25
299.445	303.25
299.675	310.25
299.905	322.25
300.136	330.25
300.366	312.25
300.597	315.25
300.827	322.25
301.057	334.25
301.288	336.25
301.518	345.25
301.748	334.25
301.979	342.25
302.209	332.25
302.439	337.25
302.669	322.25
302.9	330.25
303.13	326.25
303.36	343.25
303.59	347.25
303.82	361.25
304.051	353.25
304.281	346.25
304.511	318.25
304.741	327.25
304.971	356.25
305.201	337.25
305.431	349.25
305.661	353.25
305.891	344.25
306.121	333.25
306.352	329.25
306.582	362.25
306.812	357.25
307.042	333.25
307.272	348.25
307.502	329.25
307.731	354.25
307.961	353.25
308.191	350.25
308.421	342.25
308.651	348.25
308.881	344.25
309.111	344.25
309.341	370.25
309.571	368.25
309.8	379.25
310.03	373.25
310.26	369.25
310.49	380.25
310.72	396.25
310.949	415.25
311.179	394.25
311.409	375.25
311.639	397.25
311.868	391.25
312.098	385.25
312.328	376.25
312.557	394.25
312.787	398.25
313.017	407.25
313.246	402.25
313.476	379.25
313.706	393.25
313.935	400.25
314.165	373.25
314.394	396.25
314.624	403.25
314.853	401.25
315.083	388.25
315.312	395.25
315.542	391.25
315.771	375.25
316.001	379.25
316.23	386.25
316.46	389.25
316.689	394.25
316.919	376.25
317.148	406.25
317.377	389.25
317.607	394.25
317.836	398.25
318.065	387.25
318.295	374.25
318.524	386.25
318.753	382.25
318.983	396.25
319.212	397.25
319.441	400.25
319.67	402.25
319.9	419.25
320.129	403.25
320.358	400.25
320.587	401.25
320.816	394.25
321.046	423.25
321.275	420.25
321.504	407.25
321.733	400.25
321.962	433.25
322.191	419.25
322.42	424.25
322.649	442.25
322.878	466.25
323.108	461.25
323.337	491.25
323.566	501.25
323.795	530.25
324.024	582.25
324.253	641.25
324.482	914.25
324.71	1474.25
324.939	2170.25
325.168	1882.25
325.397	959.25
325.626	638.25
325.855	531.25
326.084	501.25
326.313	496.25
326.542	518.25
326.77	554.25
326.999	629.25
327.228	871.25
327.457	1302.25
327.686	1622.25
327.914	1088.25
328.143	689.25
328.372	638.25
328.6	605.25
328.829	548.25
329.058	571.25
329.287	570.25
329.515	559.25
329.744	530.25
329.972	525.25
330.201	555.25
330.43	571.25
330.658	593.25
330.887	604.25
331.115	603.25
331.344	545.25
331.572	522.25
331.801	472.25
332.03	527.25
332.258	487.25
332.486	489.25
332.715	465.25
332.943	466.25
333.172	486.25
333.4	481.25
333.629	520.25
333.857	500.25
334.085	535.25
334.314	531.25
334.542	582.25
334.771	569.25
334.999	527.25
335.227	492.25
335.455	475.25
335.684	503.25
335.912	480.25
336.14	457.25
336.369	468.25
336.597	480.25
336.825	497.25
337.053	472.25
337.281	464.25
337.51	466.25
337.738	471.25
337.966	474.25
338.194	462.25
338.422	480.25
338.65	470.25
338.878	452.25
339.106	453.25
339.334	453.25
339.562	452.25
339.79	446.25
340.018	450.25
340.246	462.25
340.474	459.25
340.702	450.25
340.93	444.25
341.158	433.25
341.386	466.25
341.614	454.25
341.842	437.25
342.07	455.25
342.298	435.25
342.526	440.25
342.754	431.25
342.981	444.25
343.209	418.25
343.437	461.25
343.665	446.25
343.893	460.25
344.12	472.25
344.348	442.25
344.576	465.25
344.804	465.25
345.031	458.25
345.259	493.25
345.487	466.25
345.714	461.25
345.942	456.25
346.17	432.25
346.397	435.25
346.625	432.25
346.853	452.25
347.08	437.25
347.308	428.25
347.535	447.25
347.763	465.25
347.99	437.25
348.218	456.25
348.445	478.25
348.673	453.25
348.9	445.25
349.128	432.25
349.355	430.25
349.583	423.25
349.81	404.25
350.037	421.25
350.265	431.25
350.492	432.25
350.72	443.25
350.947	436.25
351.174	433.25
351.402	450.25
351.629	454.25
351.856	441.25
352.083	447.25
352.311	476.25
352.538	454.25
352.765	465.25
352.992	456.25
353.22	445.25
353.447	428.25
353.674	453.25
353.901	424.25
354.128	413.25
354.355	415.25
354.583	398.25
354.81	428.25
355.037	400.25
355.264	424.25
355.491	401.25
355.718	429.25
355.945	425.25
356.172	421.25
356.399	401.25
356.626	416.25
356.853	431.25
357.08	415.25
357.307	413.25
357.534	414.25
357.761	410.25
357.988	414.25
358.215	406.25
358.441	428.25
358.668	422.25
358.895	422.25
359.122	423.25
359.349	420.25
359.576	445.25
359.802	463.25
360.029	482.25
360.256	487.25
360.483	477.25
360.709	445.25
360.936	449.25
361.163	437.25
361.39	423.25
361.616	462.25
361.843	434.25
362.07	427.25
362.296	439.25
362.523	443.25
362.749	462.25
362.976	452.25
363.203	427.25
363.429	426.25
363.656	436.25
363.882	422.25
364.109	427.25
364.335	414.25
364.562	435.25
364.788	463.25
365.015	439.25
365.241	432.25
365.468	436.25
365.694	440.25
365.92	446.25
366.147	433.25
366.373	428.25
366.599	403.25
366.826	440.25
367.052	424.25
367.278	440.25
367.505	428.25
367.731	420.25
367.957	429.25
368.184	431.25
368.41	444.25
368.636	458.25
368.862	447.25
369.089	432.25
369.315	436.25
369.541	431.25
369.767	441.25
369.993	442.25
370.219	418.25
370.445	413.25
370.672	435.25
370.898	434.25
371.124	429.25
371.35	433.25
371.576	440.25
371.802	437.25
372.028	438.25
372.254	437.25
372.48	421.25
372.706	448.25
372.932	429.25
373.158	455.25
373.384	434.25
373.61	463.25
373.835	444.25
374.061	439.25
374.287	426.25
374.513	458.25
374.739	441.25
374.965	447.25
375.191	455.25
375.416	469.25
375.642	440.25
375.868	437.25
376.094	451.25
376.319	451.25
376.545	443.25
376.771	453.25
376.997	439.25
377.222	418.25
377.448	438.25
377.674	434.25
377.899	430.25
378.125	448.25
378.35	444.25
378.576	435.25
378.802	439.25
379.027	443.25
379.253	435.25
379.478	433.25
379.704	440.25
379.929	451.25
380.155	454.25
380.38	462.25
380.606	430.25
380.831	426.25
381.057	456.25
381.282	442.25
381.507	446.25
381.733	433.25
381.958	440.25
382.184	448.25
382.409	445.25
382.634	446.25
382.86	473.25
383.085	457.25
383.31	443.25
383.535	458.25
383.761	459.25
383.986	454.25
384.211	463.25
384.436	461.25
384.662	461.25
384.887	481.25
385.112	455.25
385.337	487.25
385.562	475.25
385.787	496.25
386.013	487.25
386.238	488.25
386.463	452.25
386.688	490.25
386.913	473.25
387.138	469.25
387.363	487.25
387.588	480.25
387.813	504.25
388.038	483.25
388.263	480.25
388.488	494.25
388.713	496.25
388.938	526.25
389.163	504.25
389.387	472.25
389.612	490.25
389.837	475.25
390.062	486.25
390.287	491.25
390.512	498.25
390.736	482.25
390.961	487.25
391.186	495.25
391.411	495.25
391.636	508.25
391.86	520.25
392.085	520.25
392.31	494.25
392.534	514.25
392.759	500.25
392.984	488.25
393.208	503.25
393.433	512.25
393.658	506.25
393.882	510.25
394.107	504.25
394.331	491.25
394.556	480.25
394.78	511.25
395.005	499.25
395.229	495.25
395.454	504.25
395.678	520.25
395.903	532.25
396.127	521.25
396.352	539.25
396.576	537.25
396.801	516.25
397.025	531.25
397.249	502.25
397.474	521.25
397.698	531.25
397.922	548.25
398.147	551.25
398.371	555.25
398.595	550.25
398.82	551.25
399.044	571.25
399.268	608.25
399.492	616.25
399.717	676.25
399.941	687.25
400.165	721.25
400.389	695.25
400.613	680.25
400.837	634.25
401.062	591.25
401.286	592.25
401.51	572.25
401.734	563.25
401.958	570.25
402.182	550.25
402.406	592.25
402.63	584.25
402.854	566.25
403.078	590.25
403.302	607.25
403.526	590.25
403.75	584.25
403.974	594.25
404.198	586.25
404.422	599.25
404.645	607.25
404.869	619.25
405.093	629.25
405.317	689.25
405.541	700.25
405.765	649.25
405.988	640.25
406.212	629.25
406.436	637.25
406.66	639.25
406.883	636.25
407.107	664.25
407.331	711.25
407.555	808.25
407.778	787.25
408.002	739.25
408.226	677.25
408.449	667.25
408.673	651.25
408.896	686.25
409.12	722.25
409.344	697.25
409.567	632.25
409.791	604.25
410.014	606.25
410.238	600.25
410.461	606.25
410.685	605.25
410.908	586.25
411.132	659.25
411.355	672.25
411.578	653.25
411.802	595.25
412.025	602.25
412.249	600.25
412.472	626.25
412.695	668.25
412.919	646.25
413.142	611.25
413.365	572.25
413.589	582.25
413.812	587.25
414.035	568.25
414.258	552.25
414.482	584.25
414.705	595.25
414.928	557.25
415.151	554.25
415.374	555.25
415.597	569.25
415.821	570.25
416.044	583.25
416.267	584.25
416.49	549.25
416.713	560.25
416.936	538.25
417.159	566.25
417.382	574.25
417.605	557.25
417.828	581.25
418.051	589.25
418.274	570.25
418.497	577.25
418.72	590.25
418.943	534.25
419.166	609.25
419.389	625.25
419.611	580.25
419.834	569.25
420.057	596.25
420.28	585.25
420.503	600.25
420.726	588.25
420.948	617.25
421.171	654.25
421.394	666.25
421.617	637.25
421.839	589.25
422.062	599.25
422.285	618.25
422.507	674.25
422.73	749.25
422.953	724.25
423.175	663.25
423.398	634.25
423.621	629.25
423.843	651.25
424.066	611.25
424.288	615.25
424.511	659.25
424.733	710.25
424.956	795.25
425.178	761.25
425.401	757.25
425.623	771.25
425.846	672.25
426.068	619.25
426.291	631.25
426.513	618.25
426.735	640.25
426.958	671.25
427.18	773.25
427.402	910.25
427.625	996.25
427.847	881.25
428.069	760.25
428.292	669.25
428.514	593.25
428.736	597.25
428.958	609.25
429.181	583.25
429.403	588.25
429.625	590.25
429.847	642.25
430.069	716.25
430.292	703.25
430.514	608.25
430.736	612.25
430.958	557.25
431.18	557.25
431.402	558.25
431.624	553.25
431.846	564.25
432.068	568.25
432.29	558.25
432.512	568.25
432.734	574.25
432.956	563.25
433.178	568.25
433.4	572.25
433.622	583.25
433.844	568.25
434.066	568.25
434.287	541.25
434.509	557.25
434.731	569.25
434.953	574.25
435.175	580.25
435.397	631.25
435.618	657.25
435.84	693.25
436.062	790.25
436.284	851.25
436.505	713.25
436.727	610.25
436.949	602.25
437.17	582.25
437.392	562.25
437.614	594.25
437.835	651.25
438.057	712.25
438.278	833.25
438.5	848.25
438.721	928.25
438.943	865.25
439.165	684.25
439.386	660.25
439.608	642.25
439.829	624.25
440.05	654.25
440.272	720.25
440.493	668.25
440.715	637.25
440.936	594.25
441.158	580.25
441.379	611.25
441.6	621.25
441.822	616.25
442.043	676.25
442.264	780.25
442.486	804.25
442.707	705.25
442.928	656.25
443.149	650.25
443.371	658.25
443.592	735.25
443.813	796.25
444.034	890.25
444.255	752.25
444.476	656.25
444.698	640.25
444.919	618.25
445.14	758.25
445.361	705.25
445.582	694.25
445.803	779.25
446.024	871.25
446.245	879.25
446.466	775.25
446.687	684.25
446.908	641.25
447.129	591.25
447.35	582.25
447.571	566.25
447.792	542.25
448.013	585.25
448.234	586.25
448.455	653.25
448.675	783.25
448.896	921.25
449.117	728.25
449.338	715.25
449.559	868.25
449.779	943.25
450	752.25
450.221	616.25
450.442	574.25
450.662	564.25
450.883	562.25
451.104	578.25
451.324	576.25
451.545	551.25
451.766	530.25
451.986	534.25
452.207	499.25
452.428	502.25
452.648	517.25
452.869	534.25
453.089	559.25
453.31	528.25
453.53	516.25
453.751	512.25
453.971	503.25
454.192	529.25
454.412	523.25
454.633	529.25
454.853	528.25
455.073	508.25
455.294	529.25
455.514	618.25
455.734	593.25
455.955	527.25
456.175	494.25
456.395	491.25
456.616	495.25
456.836	493.25
457.056	493.25
457.276	479.25
457.497	496.25
457.717	488.25
457.937	511.25
458.157	510.25
458.377	498.25
458.598	509.25
458.818	599.25
459.038	656.25
459.258	713.25
459.478	608.25
459.698	564.25
459.918	562.25
460.138	589.25
460.358	558.25
460.578	607.25
460.798	571.25
461.018	584.25
461.238	581.25
461.458	556.25
461.678	558.25
461.898	556.25
462.118	570.25
462.338	572.25
462.558	587.25
462.777	596.25
462.997	618.25
463.217	636.25
463.437	626.25
463.657	604.25
463.876	602.25
464.096	624.25
464.316	642.25
464.536	612.25
464.755	596.25
464.975	629.25
465.195	644.25
465.414	709.25
465.634	626.25
465.854	574.25
466.073	582.25
466.293	576.25
466.512	538.25
466.732	529.25
466.951	549.25
467.171	532.25
467.391	525.25
467.61	543.25
467.829	568.25
468.049	558.25
468.268	548.25
468.488	531.25
468.707	538.25
468.927	555.25
469.146	502.25
469.365	510.25
469.585	521.25
469.804	523.25
470.023	548.25
470.243	525.25
470.462	536.25
470.681	575.25
470.901	551.25
471.12	561.25
471.339	547.25
471.558	542.25
471.777	549.25
471.997	522.25
472.216	547.25
472.435	585.25
472.654	562.25
472.873	543.25
473.092	538.25
473.311	570.25
473.53	570.25
473.749	549.25
473.968	611.25
474.187	707.25
474.406	744.25
474.625	619.25
474.844	585.25
475.063	544.25
475.282	568.25
475.501	543.25
475.72	544.25
475.939	567.25
476.158	579.25
476.377	556.25
476.596	582.25
476.814	579.25
477.033	579.25
477.252	581.25
477.471	558.25
477.69	559.25
477.908	584.25
478.127	618.25
478.346	608.25
478.564	618.25
478.783	599.25
479.002	625.25
479.22	642.25
479.439	632.25
479.658	658.25
479.876	667.25
480.095	673.25
480.313	681.25
480.532	688.25
480.751	668.25
480.969	663.25
481.188	723.25
481.406	791.25
481.624	706.25
481.843	656.25
482.061	656.25
482.28	673.25
482.498	630.25
482.717	646.25
482.935	638.25
483.153	653.25
483.372	648.25
483.59	642.25
483.808	652.25
484.027	641.25
484.245	644.25
484.463	653.25
484.681	668.25
484.9	670.25
485.118	640.25
485.336	669.25
485.554	655.25
485.772	652.25
485.99	689.25
486.209	674.25
486.427	692.25
486.645	672.25
486.863	680.25
487.081	682.25
487.299	703.25
487.517	675.25
487.735	673.25
487.953	673.25
488.171	683.25
488.389	711.25
488.607	690.25
488.825	684.25
489.043	702.25
489.261	684.25
489.479	686.25
489.696	684.25
489.914	716.25
490.132	710.25
490.35	716.25
490.568	711.25
490.786	753.25
491.003	728.25
491.221	760.25
491.439	775.25
491.657	772.25
491.874	794.25
492.092	786.25
492.31	796.25
492.527	783.25
492.745	811.25
492.963	814.25
493.18	786.25
493.398	812.25
493.615	823.25
493.833	825.25
494.05	804.25
494.268	829.25
494.485	824.25
494.703	787.25
494.92	815.25
495.138	824.25
495.355	813.25
495.573	829.25
495.79	845.25
496.008	838.25
496.225	816.25
496.442	833.25
496.66	817.25
496.877	849.25
497.094	837.25
497.312	828.25
497.529	826.25
497.746	848.25
497.963	872.25
498.181	895.25
498.398	918.25
498.615	883.25
498.832	945.25
499.049	939.25
499.267	980.25
499.484	995.25
499.701	1059.25
499.918	1086.25
500.135	1149.25
500.352	1178.25
500.569	1204.25
500.786	1204.25
501.003	1187.25
501.22	1152.25
501.437	1088.25
501.654	1096.25
501.871	1062.25
502.088	1007.25
502.305	968.25
502.522	964.25
502.739	903.25
502.956	910.25
503.172	865.25
503.389	848.25
503.606	872.25
503.823	841.25
504.04	848.25
504.256	858.25
504.473	836.25
504.69	837.25
504.907	830.25
505.123	813.25
505.34	803.25
505.557	789.25
505.773	758.25
505.99	792.25
506.207	798.25
506.423	808.25
506.64	762.25
506.856	785.25
507.073	773.25
507.289	737.25
507.506	763.25
507.722	778.25
507.939	772.25
508.155	726.25
508.372	745.25
508.588	735.25
508.805	731.25
509.021	723.25
509.238	757.25
509.454	761.25
509.67	740.25
509.887	720.25
510.103	725.25
510.319	730.25
510.536	820.25
510.752	1231.25
510.968	1066.25
511.184	765.25
511.401	710.25
511.617	711.25
511.833	686.25
512.049	697.25
512.265	703.25
512.481	683.25
512.698	681.25
512.914	693.25
513.13	703.25
513.346	696.25
513.562	687.25
513.778	701.25
513.994	688.25
514.21	702.25
514.426	728.25
514.642	765.25
514.858	792.25
515.074	826.25
515.29	944.25
515.506	1297.25
515.721	1135.25
515.937	852.25
516.153	760.25
516.369	734.25
516.585	712.25
516.801	729.25
517.016	733.25
517.232	745.25
517.448	759.25
517.664	708.25
517.879	720.25
518.095	716.25
518.311	728.25
518.527	713.25
518.742	746.25
518.958	688.25
519.173	690.25
519.389	706.25
519.605	691.25
519.82	676.25
520.036	723.25
520.251	715.25
520.467	743.25
520.682	757.25
520.898	737.25
521.113	746.25
521.329	800.25
521.544	868.25
521.76	1067.25
521.975	1647.25
522.19	1637.25
522.406	937.25
522.621	772.25
522.836	697.25
523.052	666.25
523.267	686.25
523.482	638.25
523.698	625.25
523.913	642.25
524.128	618.25
524.343	632.25
524.559	592.25
524.774	591.25
524.989	585.25
525.204	614.25
525.419	609.25
525.634	597.25
525.849	590.25
526.064	586.25
526.28	580.25
526.495	607.25
526.71	570.25
526.925	582.25
527.14	587.25
527.355	580.25
527.57	568.25
527.785	570.25
527.999	608.25
528.214	598.25
528.429	588.25
528.644	599.25
528.859	588.25
529.074	592.25
529.289	621.25
529.503	687.25
529.718	663.25
529.933	599.25
530.148	586.25
530.363	576.25
530.577	565.25
530.792	587.25
531.007	560.25
531.221	564.25
531.436	566.25
531.651	554.25
531.865	566.25
532.08	536.25
532.295	545.25
532.509	538.25
532.724	554.25
532.938	556.25
533.153	538.25
533.367	554.25
533.582	548.25
533.796	566.25
534.011	531.25
534.225	538.25
534.44	547.25
534.654	538.25
534.868	520.25
535.083	520.25
535.297	557.25
535.511	559.25
535.726	561.25
535.94	545.25
536.154	537.25
536.369	558.25
536.583	532.25
536.797	550.25
537.011	530.25
537.225	536.25
537.44	524.25
537.654	521.25
537.868	528.25
538.082	510.25
538.296	531.25
538.51	531.25
538.724	530.25
538.938	540.25
539.153	542.25
539.367	517.25
539.581	528.25
539.795	519.25
540.009	529.25
540.222	526.25
540.436	517.25
540.65	548.25
540.864	523.25
541.078	534.25
541.292	531.25
541.506	533.25
541.72	528.25
541.934	508.25
542.147	527.25
542.361	540.25
542.575	523.25
542.789	504.25
543.002	524.25
543.216	533.25
543.43	534.25
543.644	500.25
543.857	519.25
544.071	530.25
544.285	535.25
544.498	537.25
544.712	510.25
544.925	516.25
545.139	502.25
545.352	535.25
545.566	503.25
545.779	502.25
545.993	511.25
546.206	545.25
546.42	523.25
546.633	520.25
546.847	527.25
547.06	504.25
547.274	502.25
547.487	500.25
547.7	529.25
547.914	499.25
548.127	498.25
548.34	522.25
548.554	490.25
548.767	494.25
548.98	498.25
549.193	492.25
549.407	506.25
549.62	502.25
549.833	495.25
550.046	494.25
550.259	479.25
550.473	496.25
550.686	491.25
550.899	502.25
551.112	504.25
551.325	473.25
551.538	487.25
551.751	497.25
551.964	490.25
552.177	512.25
552.39	485.25
552.603	502.25
552.816	489.25
553.029	510.25
553.242	516.25
553.455	536.25
553.667	514.25
553.88	522.25
554.093	519.25
554.306	495.25
554.519	495.25
554.732	517.25
554.944	493.25
555.157	491.25
555.37	481.25
555.583	491.25
555.795	478.25
556.008	452.25
556.221	455.25
556.433	464.25
556.646	453.25
556.859	473.25
557.071	455.25
557.284	462.25
557.496	458.25
557.709	454.25
557.921	450.25
558.134	445.25
558.346	461.25
558.559	438.25
558.771	453.25
558.984	458.25
559.196	443.25
559.409	455.25
559.621	447.25
559.833	452.25
560.046	460.25
560.258	445.25
560.47	478.25
560.683	449.25
560.895	452.25
561.107	438.25
561.32	451.25
561.532	468.25
561.744	471.25
561.956	428.25
562.168	430.25
562.381	466.25
562.593	469.25
562.805	474.25
563.017	463.25
563.229	459.25
563.441	459.25
563.653	454.25
563.865	455.25
564.077	462.25
564.289	467.25
564.501	465.25
564.713	466.25
564.925	493.25
565.137	473.25
565.349	500.25
565.561	468.25
565.773	484.25
565.985	506.25
566.197	522.25
566.408	509.25
566.62	543.25
566.832	568.25
567.044	539.25
567.255	538.25
567.467	561.25
567.679	561.25
567.891	586.25
568.102	584.25
568.314	575.25
568.526	555.25
568.737	543.25
568.949	509.25
569.161	500.25
569.372	467.25
569.584	471.25
569.795	463.25
570.007	464.25
570.218	520.25
570.43	497.25
570.641	460.25
570.853	449.25
571.064	448.25
571.276	436.25
571.487	453.25
571.698	408.25
571.91	407.25
572.121	419.25
572.333	423.25
572.544	416.25
572.755	427.25
572.966	397.25
573.178	417.25
573.389	409.25
573.6	413.25
573.811	402.25
574.023	398.25
574.234	390.25
574.445	380.25
574.656	381.25
574.867	389.25
575.078	390.25
575.289	379.25
575.501	373.25
575.712	403.25
575.923	367.25
576.134	382.25
576.345	373.25
576.556	390.25
576.767	369.25
576.978	372.25
577.188	372.25
577.399	363.25
577.61	377.25
577.821	364.25
578.032	368.25
578.243	401.25
578.454	618.25
578.665	475.25
578.875	376.25
579.086	361.25
579.297	359.25
579.508	353.25
579.718	368.25
579.929	355.25
580.14	375.25
580.35	360.25
580.561	353.25
580.772	347.25
580.982	367.25
581.193	341.25
581.403	348.25
581.614	342.25
581.825	363.25
582.035	348.25
582.246	357.25
582.456	347.25
582.667	357.25
582.877	350.25
583.087	356.25
583.298	350.25
583.508	347.25
583.719	335.25
583.929	347.25
584.139	355.25
584.35	350.25
584.56	341.25
584.77	343.25
584.981	362.25
585.191	368.25
585.401	338.25
585.611	338.25
585.821	325.25
586.032	325.25
586.242	326.25
586.452	335.25
586.662	346.25
586.872	350.25
587.082	344.25
587.292	347.25
587.502	341.25
587.713	319.25
587.923	354.25
588.133	362.25
588.343	344.25
588.553	334.25
588.762	330.25
588.972	330.25
589.182	346.25
589.392	358.25
589.602	346.25
589.812	331.25
590.022	348.25
590.232	342.25
590.441	334.25
590.651	335.25
590.861	342.25
591.071	351.25
591.281	342.25
591.49	344.25
591.7	332.25
591.91	375.25
592.119	345.25
592.329	344.25
592.539	339.25
592.748	358.25
592.958	352.25
593.167	353.25
593.377	375.25
593.587	361.25
593.796	370.25
594.006	380.25
594.215	359.25
594.424	358.25
594.634	363.25
594.843	337.25
595.053	353.25
595.262	343.25
595.472	346.25
595.681	352.25
595.89	330.25
596.1	338.25
596.309	344.25
596.518	329.25
596.727	314.25
596.937	328.25
597.146	323.25
597.355	316.25
597.564	301.25
597.774	314.25
597.983	301.25
598.192	292.25
598.401	308.25
598.61	319.25
598.819	313.25
599.028	320.25
599.237	336.25
599.446	305.25
599.655	313.25
599.864	301.25
600.073	301.25
600.282	305.25
600.491	293.25
600.7	301.25
600.909	296.25
601.118	294.25
601.327	294.25
601.536	293.25
601.745	291.25
601.953	297.25
602.162	281.25
602.371	290.25
602.58	291.25
602.789	291.25
602.997	305.25
603.206	302.25
603.415	295.25
603.623	299.25
603.832	282.25
604.041	284.25
604.249	293.25
604.458	268.25
604.666	282.25
604.875	274.25
605.084	264.25
605.292	288.25
605.501	287.25
605.709	284.25
605.918	278.25
606.126	289.25
606.334	281.25
606.543	295.25
606.751	285.25
606.96	292.25
607.168	277.25
607.376	273.25
607.585	297.25
607.793	284.25
608.001	285.25
608.21	274.25
608.418	283.25
608.626	268.25
608.834	281.25
609.043	286.25
609.251	268.25
609.459	279.25
609.667	270.25
609.875	286.25
610.083	280.25
610.291	270.25
610.499	284.25
610.707	281.25
610.916	288.25
611.124	274.25
611.332	300.25
611.54	274.25
611.748	267.25
611.955	270.25
612.163	275.25
612.371	288.25
612.579	270.25
612.787	264.25
612.995	272.25
613.203	251.25
613.411	273.25
613.618	269.25
613.826	264.25
614.034	272.25
614.242	265.25
614.449	268.25
614.657	283.25
614.865	266.25
615.072	264.25
615.28	251.25
615.488	277.25
615.695	252.25
615.903	266.25
616.111	278.25
616.318	249.25
616.526	282.25
616.733	263.25
616.941	255.25
617.148	254.25
617.356	265.25
617.563	264.25
617.771	286.25
617.978	264.25
618.185	265.25
618.393	252.25
618.6	267.25
618.807	238.25
619.015	272.25
619.222	263.25
619.429	256.25
619.637	274.25
619.844	268.25
620.051	262.25
620.258	247.25
620.466	266.25
620.673	249.25
620.88	241.25
621.087	239.25
621.294	255.25
621.501	245.25
621.708	268.25
621.915	261.25
622.122	270.25
622.329	273.25
622.536	258.25
622.743	268.25
622.95	249.25
623.157	262.25
623.364	235.25
623.571	230.25
623.778	235.25
623.985	237.25
624.192	225.25
624.399	242.25
624.606	231.25
624.812	260.25
625.019	236.25
625.226	231.25
625.433	247.25
625.639	235.25
625.846	241.25
626.053	247.25
626.259	227.25
626.466	247.25
626.673	261.25
626.879	247.25
627.086	228.25
627.293	248.25
627.499	247.25
627.706	232.25
627.912	213.25
628.119	223.25
628.325	244.25
628.532	229.25
628.738	229.25
628.945	219.25
629.151	212.25
629.357	208.25
629.564	222.25
629.77	224.25
629.976	225.25
630.183	226.25
630.389	229.25
630.595	224.25
630.802	229.25
631.008	223.25
631.214	225.25
631.42	222.25
631.627	215.25
631.833	209.25
632.039	218.25
632.245	216.25
632.451	223.25
632.657	220.25
632.863	206.25
633.069	214.25
633.275	213.25
633.481	215.25
633.688	213.25
633.893	210.25
634.099	196.25
634.305	210.25
634.511	217.25
634.717	214.25
634.923	190.25
635.129	189.25
635.335	195.25
635.541	213.25
635.747	194.25
635.952	196.25
636.158	209.25
636.364	224.25
636.57	200.25
636.775	208.25
636.981	191.25
637.187	199.25
637.392	216.25
637.598	210.25
637.804	205.25
638.009	206.25
638.215	210.25
638.421	188.25
638.626	198.25
638.832	198.25
639.037	186.25
639.243	185.25
639.448	193.25
639.654	212.25
639.859	182.25
640.065	183.25
640.27	201.25
640.475	186.25
640.681	202.25
640.886	193.25
641.091	176.25
641.297	186.25
641.502	195.25
641.707	188.25
641.913	199.25
642.118	201.25
642.323	200.25
642.528	205.25
642.733	196.25
642.939	193.25
643.144	187.25
643.349	173.25
643.554	176.25
643.759	183.25
643.964	189.25
644.169	180.25
644.374	182.25
644.579	180.25
644.784	199.25
644.989	170.25
645.194	183.25
645.399	185.25
645.604	173.25
645.809	187.25
646.014	204.25
646.219	181.25
646.423	206.25
646.628	196.25
646.833	182.25
647.038	187.25
647.243	167.25
647.447	197.25
647.652	188.25
647.857	184.25
648.062	189.25
648.266	188.25
648.471	178.25
648.676	188.25
648.88	193.25
649.085	198.25
649.289	194.25
649.494	192.25
649.698	210.25
649.903	203.25
650.107	184.25
650.312	182.25
650.516	167.25
650.721	186.25
650.925	172.25
651.13	186.25
651.334	164.25
651.539	162.25
651.743	161.25
651.947	164.25
652.152	153.25
652.356	161.25
652.56	149.25
652.764	139.25
652.969	161.25
653.173	160.25
653.377	166.25
653.581	150.25
653.785	162.25
653.99	156.25
654.194	139.25
654.398	162.25
654.602	147.25
654.806	137.25
655.01	170.25
655.214	148.25
655.418	147.25
655.622	126.25
655.826	153.25
656.03	139.25
656.234	145.25
656.438	144.25
656.642	148.25
656.846	139.25
657.049	141.25
657.253	143.25
657.457	130.25
657.661	116.25
657.865	123.25
658.068	130.25
658.272	114.25
658.476	126.25
658.68	103.25
658.883	98.25
659.087	111.25
659.291	113.25
659.494	107.25
659.698	98.25
659.901	113.25
660.105	113.25
660.309	108.25
660.512	109.25
660.716	100.25
660.919	99.25
661.123	100.25
661.326	96.25
661.53	88.25
661.733	99.25
661.936	101.25
662.14	83.25
662.343	85.25
662.546	84.25
662.75	107.25
662.953	86.25
663.156	95.25
663.36	84.25
663.563	92.25
663.766	100.25
663.969	89.25
664.173	76.25
664.376	86.25
664.579	89.25
664.782	83.25
664.985	77.25
665.188	72.25
665.391	88.25
665.594	85.25
665.797	79.25
666	91.25
666.203	74.25
666.406	68.25
666.609	87.25
666.812	85.25
667.015	82.25
667.218	90.25
667.421	88.25
667.624	74.25
667.827	66.25
668.03	93.25
668.232	86.25
668.435	93.25
668.638	81.25
668.841	87.25
669.043	93.25
669.246	88.25
669.449	86.25
669.651	87.25
669.854	77.25
670.057	79.25
670.259	75.25
670.462	79.25
670.665	81.25
670.867	92.25
671.07	101.25
671.272	92.25
671.475	94.25
671.677	86.25
671.88	83.25
672.082	79.25
672.284	90.25
672.487	89.25
672.689	90.25
672.892	80.25
