Data from 1966.PennyLincolnUp.Lamp.En5.5.200Scan.071719.P1.Scan2.head_HRD10591_14-19-00-233.txt Node
Date: Thu Jul 18 14:19:00 EDT 2019
User: cochatt
Spectrometer: HR+D1059
Trigger mode: 1
Integration Time (sec): 1.000000E-1
Scans to average: 1
Electric dark correction enabled: true
Nonlinearity correction enabled: false
Boxcar width: 0
XAxis mode: Wavelengths
Number of Pixels in Spectrum: 2048
>>>>>Begin Spectral Data<<<<<
223.165	-7.31
223.4	-7.31
223.635	-7.31
223.869	-14.31
224.104	-21.31
224.338	-17.31
224.573	-8.31
224.808	-27.31
225.042	6.69
225.277	-11.31
225.511	3.69
225.746	1.69
225.98	-9.31
226.215	19.69
226.449	19.69
226.683	15.69
226.918	21.69
227.152	27.69
227.387	32.69
227.621	31.69
227.856	47.69
228.09	56.69
228.324	53.69
228.559	45.69
228.793	75.69
229.027	109.69
229.262	112.69
229.496	88.69
229.73	127.69
229.964	162.69
230.199	135.69
230.433	115.69
230.667	107.69
230.901	115.69
231.136	106.69
231.37	122.69
231.604	98.69
231.838	113.69
232.072	120.69
232.306	115.69
232.541	122.69
232.775	117.69
233.009	106.69
233.243	97.69
233.477	112.69
233.711	98.69
233.945	101.69
234.179	117.69
234.413	103.69
234.647	106.69
234.881	112.69
235.115	105.69
235.349	106.69
235.583	119.69
235.817	121.69
236.051	123.69
236.285	130.69
236.519	121.69
236.753	135.69
236.987	156.69
237.221	182.69
237.455	251.69
237.689	185.69
237.922	128.69
238.156	133.69
238.39	130.69
238.624	118.69
238.858	114.69
239.091	131.69
239.325	132.69
239.559	122.69
239.793	135.69
240.027	139.69
240.26	155.69
240.494	166.69
240.728	149.69
240.961	161.69
241.195	164.69
241.429	140.69
241.662	123.69
241.896	126.69
242.13	131.69
242.363	135.69
242.597	151.69
242.83	144.69
243.064	142.69
243.298	143.69
243.531	156.69
243.765	156.69
243.998	148.69
244.232	151.69
244.465	141.69
244.699	148.69
244.932	149.69
245.166	148.69
245.399	155.69
245.633	123.69
245.866	160.69
246.099	148.69
246.333	161.69
246.566	152.69
246.8	166.69
247.033	156.69
247.266	176.69
247.5	177.69
247.733	180.69
247.966	184.69
248.2	178.69
248.433	170.69
248.666	182.69
248.899	203.69
249.133	197.69
249.366	227.69
249.599	195.69
249.832	192.69
250.066	200.69
250.299	188.69
250.532	201.69
250.765	191.69
250.998	220.69
251.231	237.69
251.465	226.69
251.698	208.69
251.931	214.69
252.164	196.69
252.397	200.69
252.63	212.69
252.863	203.69
253.096	226.69
253.329	244.69
253.562	226.69
253.795	212.69
254.028	221.69
254.261	222.69
254.494	234.69
254.727	246.69
254.96	268.69
255.193	277.69
255.426	273.69
255.659	233.69
255.892	237.69
256.124	246.69
256.357	241.69
256.59	221.69
256.823	214.69
257.056	221.69
257.289	225.69
257.521	215.69
257.754	220.69
257.987	206.69
258.22	229.69
258.452	212.69
258.685	215.69
258.918	217.69
259.151	221.69
259.383	240.69
259.616	229.69
259.849	231.69
260.081	241.69
260.314	261.69
260.547	278.69
260.779	251.69
261.012	237.69
261.244	261.69
261.477	222.69
261.71	219.69
261.942	241.69
262.175	239.69
262.407	230.69
262.64	221.69
262.872	211.69
263.105	224.69
263.337	218.69
263.57	212.69
263.802	234.69
264.035	231.69
264.267	214.69
264.499	201.69
264.732	215.69
264.964	211.69
265.197	216.69
265.429	210.69
265.661	225.69
265.894	231.69
266.126	216.69
266.358	218.69
266.591	221.69
266.823	230.69
267.055	223.69
267.287	242.69
267.52	249.69
267.752	239.69
267.984	240.69
268.216	241.69
268.448	218.69
268.681	233.69
268.913	241.69
269.145	269.69
269.377	296.69
269.609	291.69
269.841	285.69
270.073	279.69
270.306	303.69
270.538	329.69
270.77	352.69
271.002	315.69
271.234	299.69
271.466	304.69
271.698	327.69
271.93	327.69
272.162	331.69
272.394	323.69
272.626	326.69
272.858	296.69
273.09	306.69
273.322	300.69
273.553	257.69
273.785	263.69
274.017	265.69
274.249	274.69
274.481	271.69
274.713	264.69
274.945	267.69
275.176	280.69
275.408	288.69
275.64	264.69
275.872	271.69
276.104	266.69
276.335	270.69
276.567	285.69
276.799	298.69
277.031	312.69
277.262	332.69
277.494	334.69
277.726	316.69
277.957	295.69
278.189	288.69
278.421	283.69
278.652	269.69
278.884	282.69
279.115	275.69
279.347	270.69
279.579	255.69
279.81	287.69
280.042	276.69
280.273	269.69
280.505	287.69
280.736	281.69
280.968	262.69
281.199	281.69
281.431	296.69
281.662	280.69
281.894	292.69
282.125	288.69
282.356	297.69
282.588	321.69
282.819	303.69
283.051	287.69
283.282	289.69
283.513	295.69
283.745	290.69
283.976	287.69
284.207	304.69
284.439	307.69
284.67	279.69
284.901	291.69
285.132	287.69
285.364	266.69
285.595	298.69
285.826	292.69
286.057	282.69
286.288	304.69
286.52	305.69
286.751	290.69
286.982	267.69
287.213	296.69
287.444	285.69
287.675	288.69
287.906	311.69
288.138	302.69
288.369	309.69
288.6	304.69
288.831	315.69
289.062	295.69
289.293	312.69
289.524	293.69
289.755	305.69
289.986	279.69
290.217	290.69
290.448	287.69
290.679	295.69
290.91	300.69
291.141	293.69
291.371	310.69
291.602	303.69
291.833	314.69
292.064	305.69
292.295	304.69
292.526	308.69
292.757	306.69
292.987	298.69
293.218	290.69
293.449	305.69
293.68	320.69
293.91	297.69
294.141	300.69
294.372	321.69
294.603	318.69
294.833	311.69
295.064	306.69
295.295	332.69
295.525	303.69
295.756	323.69
295.987	322.69
296.217	335.69
296.448	331.69
296.679	317.69
296.909	306.69
297.14	303.69
297.37	308.69
297.601	319.69
297.831	300.69
298.062	305.69
298.292	323.69
298.523	329.69
298.753	314.69
298.984	311.69
299.214	313.69
299.445	314.69
299.675	333.69
299.905	331.69
300.136	338.69
300.366	305.69
300.597	339.69
300.827	328.69
301.057	341.69
301.288	326.69
301.518	334.69
301.748	342.69
301.979	342.69
302.209	334.69
302.439	342.69
302.669	342.69
302.9	329.69
303.13	355.69
303.36	357.69
303.59	344.69
303.82	359.69
304.051	351.69
304.281	357.69
304.511	347.69
304.741	330.69
304.971	358.69
305.201	329.69
305.431	331.69
305.661	330.69
305.891	325.69
306.121	339.69
306.352	343.69
306.582	350.69
306.812	352.69
307.042	351.69
307.272	339.69
307.502	334.69
307.731	353.69
307.961	341.69
308.191	307.69
308.421	367.69
308.651	345.69
308.881	346.69
309.111	346.69
309.341	353.69
309.571	349.69
309.8	356.69
310.03	392.69
310.26	393.69
310.49	372.69
310.72	385.69
310.949	386.69
311.179	408.69
311.409	376.69
311.639	373.69
311.868	391.69
312.098	397.69
312.328	415.69
312.557	414.69
312.787	406.69
313.017	402.69
313.246	407.69
313.476	379.69
313.706	391.69
313.935	376.69
314.165	412.69
314.394	420.69
314.624	419.69
314.853	396.69
315.083	389.69
315.312	391.69
315.542	399.69
315.771	383.69
316.001	392.69
316.23	409.69
316.46	381.69
316.689	388.69
316.919	385.69
317.148	397.69
317.377	405.69
317.607	405.69
317.836	397.69
318.065	400.69
318.295	390.69
318.524	403.69
318.753	391.69
318.983	396.69
319.212	390.69
319.441	391.69
319.67	413.69
319.9	398.69
320.129	391.69
320.358	400.69
320.587	399.69
320.816	421.69
321.046	427.69
321.275	418.69
321.504	429.69
321.733	413.69
321.962	430.69
322.191	427.69
322.42	451.69
322.649	467.69
322.878	451.69
323.108	459.69
323.337	508.69
323.566	509.69
323.795	524.69
324.024	577.69
324.253	697.69
324.482	972.69
324.71	1502.69
324.939	2271.69
325.168	2037.69
325.397	996.69
325.626	677.69
325.855	564.69
326.084	523.69
326.313	516.69
326.542	511.69
326.77	568.69
326.999	665.69
327.228	898.69
327.457	1393.69
327.686	1766.69
327.914	1133.69
328.143	744.69
328.372	641.69
328.6	605.69
328.829	583.69
329.058	588.69
329.287	602.69
329.515	568.69
329.744	537.69
329.972	531.69
330.201	542.69
330.43	594.69
330.658	618.69
330.887	647.69
331.115	613.69
331.344	529.69
331.572	522.69
331.801	518.69
332.03	510.69
332.258	490.69
332.486	488.69
332.715	482.69
332.943	455.69
333.172	480.69
333.4	481.69
333.629	477.69
333.857	518.69
334.085	534.69
334.314	537.69
334.542	560.69
334.771	601.69
334.999	543.69
335.227	506.69
335.455	500.69
335.684	479.69
335.912	459.69
336.14	465.69
336.369	473.69
336.597	503.69
336.825	476.69
337.053	453.69
337.281	458.69
337.51	453.69
337.738	485.69
337.966	472.69
338.194	474.69
338.422	468.69
338.65	463.69
338.878	459.69
339.106	459.69
339.334	449.69
339.562	452.69
339.79	455.69
340.018	442.69
340.246	459.69
340.474	465.69
340.702	459.69
340.93	449.69
341.158	429.69
341.386	461.69
341.614	464.69
341.842	460.69
342.07	457.69
342.298	460.69
342.526	443.69
342.754	435.69
342.981	455.69
343.209	429.69
343.437	462.69
343.665	441.69
343.893	465.69
344.12	468.69
344.348	475.69
344.576	485.69
344.804	464.69
345.031	475.69
345.259	465.69
345.487	464.69
345.714	449.69
345.942	468.69
346.17	453.69
346.397	434.69
346.625	437.69
346.853	444.69
347.08	444.69
347.308	442.69
347.535	435.69
347.763	444.69
347.99	445.69
348.218	460.69
348.445	462.69
348.673	469.69
348.9	456.69
349.128	435.69
349.355	424.69
349.583	437.69
349.81	444.69
350.037	432.69
350.265	427.69
350.492	427.69
350.72	430.69
350.947	449.69
351.174	440.69
351.402	453.69
351.629	450.69
351.856	439.69
352.083	457.69
352.311	449.69
352.538	466.69
352.765	437.69
352.992	449.69
353.22	444.69
353.447	460.69
353.674	439.69
353.901	410.69
354.128	420.69
354.355	433.69
354.583	404.69
354.81	444.69
355.037	427.69
355.264	413.69
355.491	417.69
355.718	425.69
355.945	446.69
356.172	422.69
356.399	410.69
356.626	389.69
356.853	415.69
357.08	424.69
357.307	427.69
357.534	422.69
357.761	419.69
357.988	423.69
358.215	417.69
358.441	428.69
358.668	421.69
358.895	428.69
359.122	432.69
359.349	439.69
359.576	439.69
359.802	489.69
360.029	504.69
360.256	503.69
360.483	492.69
360.709	457.69
360.936	466.69
361.163	433.69
361.39	462.69
361.616	467.69
361.843	448.69
362.07	449.69
362.296	437.69
362.523	467.69
362.749	444.69
362.976	447.69
363.203	417.69
363.429	424.69
363.656	445.69
363.882	421.69
364.109	426.69
364.335	423.69
364.562	426.69
364.788	433.69
365.015	435.69
365.241	461.69
365.468	424.69
365.694	448.69
365.92	458.69
366.147	434.69
366.373	442.69
366.599	457.69
366.826	424.69
367.052	421.69
367.278	444.69
367.505	448.69
367.731	429.69
367.957	433.69
368.184	419.69
368.41	434.69
368.636	441.69
368.862	440.69
369.089	436.69
369.315	428.69
369.541	439.69
369.767	433.69
369.993	443.69
370.219	439.69
370.445	458.69
370.672	437.69
370.898	434.69
371.124	429.69
371.35	457.69
371.576	436.69
371.802	425.69
372.028	419.69
372.254	437.69
372.48	435.69
372.706	453.69
372.932	445.69
373.158	447.69
373.384	437.69
373.61	433.69
373.835	444.69
374.061	422.69
374.287	444.69
374.513	454.69
374.739	451.69
374.965	470.69
375.191	449.69
375.416	452.69
375.642	484.69
375.868	452.69
376.094	450.69
376.319	453.69
376.545	426.69
376.771	437.69
376.997	442.69
377.222	421.69
377.448	428.69
377.674	449.69
377.899	441.69
378.125	423.69
378.35	443.69
378.576	455.69
378.802	413.69
379.027	438.69
379.253	429.69
379.478	426.69
379.704	432.69
379.929	458.69
380.155	458.69
380.38	446.69
380.606	443.69
380.831	444.69
381.057	432.69
381.282	424.69
381.507	437.69
381.733	441.69
381.958	464.69
382.184	456.69
382.409	464.69
382.634	457.69
382.86	428.69
383.085	459.69
383.31	451.69
383.535	441.69
383.761	451.69
383.986	466.69
384.211	458.69
384.436	466.69
384.662	478.69
384.887	483.69
385.112	478.69
385.337	487.69
385.562	474.69
385.787	475.69
386.013	503.69
386.238	517.69
386.463	520.69
386.688	489.69
386.913	488.69
387.138	483.69
387.363	479.69
387.588	495.69
387.813	506.69
388.038	495.69
388.263	514.69
388.488	501.69
388.713	498.69
388.938	465.69
389.163	488.69
389.387	485.69
389.612	503.69
389.837	482.69
390.062	495.69
390.287	511.69
390.512	470.69
390.736	477.69
390.961	479.69
391.186	475.69
391.411	503.69
391.636	516.69
391.86	489.69
392.085	526.69
392.31	512.69
392.534	519.69
392.759	507.69
392.984	491.69
393.208	509.69
393.433	511.69
393.658	503.69
393.882	519.69
394.107	500.69
394.331	499.69
394.556	489.69
394.78	501.69
395.005	491.69
395.229	489.69
395.454	529.69
395.678	502.69
395.903	528.69
396.127	557.69
396.352	554.69
396.576	511.69
396.801	500.69
397.025	522.69
397.249	542.69
397.474	536.69
397.698	549.69
397.922	545.69
398.147	563.69
398.371	555.69
398.595	574.69
398.82	555.69
399.044	571.69
399.268	579.69
399.492	637.69
399.717	653.69
399.941	689.69
400.165	700.69
400.389	694.69
400.613	646.69
400.837	625.69
401.062	595.69
401.286	603.69
401.51	589.69
401.734	560.69
401.958	591.69
402.182	568.69
402.406	575.69
402.63	603.69
402.854	588.69
403.078	593.69
403.302	578.69
403.526	610.69
403.75	587.69
403.974	562.69
404.198	583.69
404.422	588.69
404.645	600.69
404.869	608.69
405.093	684.69
405.317	673.69
405.541	726.69
405.765	658.69
405.988	612.69
406.212	658.69
406.436	668.69
406.66	682.69
406.883	663.69
407.107	673.69
407.331	730.69
407.555	773.69
407.778	797.69
408.002	723.69
408.226	669.69
408.449	652.69
408.673	675.69
408.896	708.69
409.12	741.69
409.344	733.69
409.567	639.69
409.791	631.69
410.014	596.69
410.238	595.69
410.461	592.69
410.685	619.69
410.908	625.69
411.132	652.69
411.355	693.69
411.578	682.69
411.802	622.69
412.025	595.69
412.249	634.69
412.472	640.69
412.695	673.69
412.919	682.69
413.142	615.69
413.365	583.69
413.589	585.69
413.812	566.69
414.035	591.69
414.258	571.69
414.482	545.69
414.705	564.69
414.928	564.69
415.151	585.69
415.374	572.69
415.597	557.69
415.821	561.69
416.044	537.69
416.267	585.69
416.49	593.69
416.713	579.69
416.936	577.69
417.159	545.69
417.382	572.69
417.605	594.69
417.828	568.69
418.051	605.69
418.274	597.69
418.497	590.69
418.72	577.69
418.943	556.69
419.166	596.69
419.389	621.69
419.611	611.69
419.834	597.69
420.057	610.69
420.28	608.69
420.503	596.69
420.726	572.69
420.948	597.69
421.171	654.69
421.394	673.69
421.617	628.69
421.839	604.69
422.062	589.69
422.285	619.69
422.507	668.69
422.73	771.69
422.953	756.69
423.175	654.69
423.398	628.69
423.621	618.69
423.843	647.69
424.066	639.69
424.288	640.69
424.511	651.69
424.733	720.69
424.956	789.69
425.178	781.69
425.401	772.69
425.623	789.69
425.846	685.69
426.068	618.69
426.291	601.69
426.513	637.69
426.735	657.69
426.958	703.69
427.18	791.69
427.402	952.69
427.625	1051.69
427.847	889.69
428.069	777.69
428.292	687.69
428.514	639.69
428.736	595.69
428.958	593.69
429.181	584.69
429.403	592.69
429.625	610.69
429.847	645.69
430.069	707.69
430.292	740.69
430.514	606.69
430.736	591.69
430.958	573.69
431.18	565.69
431.402	559.69
431.624	569.69
431.846	579.69
432.068	567.69
432.29	580.69
432.512	539.69
432.734	597.69
432.956	554.69
433.178	559.69
433.4	568.69
433.622	568.69
433.844	566.69
434.066	571.69
434.287	559.69
434.509	569.69
434.731	567.69
434.953	553.69
435.175	632.69
435.397	620.69
435.618	630.69
435.84	697.69
436.062	796.69
436.284	893.69
436.505	727.69
436.727	651.69
436.949	635.69
437.17	593.69
437.392	608.69
437.614	596.69
437.835	661.69
438.057	731.69
438.278	852.69
438.5	867.69
438.721	963.69
438.943	917.69
439.165	719.69
439.386	645.69
439.608	635.69
439.829	633.69
440.05	682.69
440.272	721.69
440.493	681.69
440.715	641.69
440.936	595.69
441.158	618.69
441.379	617.69
441.6	596.69
441.822	645.69
442.043	674.69
442.264	782.69
442.486	855.69
442.707	713.69
442.928	667.69
443.149	651.69
443.371	678.69
443.592	740.69
443.813	852.69
444.034	907.69
444.255	782.69
444.476	666.69
444.698	662.69
444.919	661.69
445.14	747.69
445.361	715.69
445.582	682.69
445.803	761.69
446.024	889.69
446.245	892.69
446.466	796.69
446.687	661.69
446.908	640.69
447.129	614.69
447.35	593.69
447.571	593.69
447.792	583.69
448.013	599.69
448.234	626.69
448.455	661.69
448.675	789.69
448.896	920.69
449.117	771.69
449.338	743.69
449.559	845.69
449.779	1000.69
450	809.69
450.221	649.69
450.442	603.69
450.662	581.69
450.883	600.69
451.104	577.69
451.324	585.69
451.545	560.69
451.766	553.69
451.986	540.69
452.207	539.69
452.428	521.69
452.648	525.69
452.869	520.69
453.089	532.69
453.31	542.69
453.53	514.69
453.751	528.69
453.971	527.69
454.192	540.69
454.412	522.69
454.633	521.69
454.853	518.69
455.073	530.69
455.294	565.69
455.514	635.69
455.734	614.69
455.955	533.69
456.175	501.69
456.395	498.69
456.616	491.69
456.836	501.69
457.056	497.69
457.276	514.69
457.497	520.69
457.717	505.69
457.937	506.69
458.157	542.69
458.377	521.69
458.598	542.69
458.818	607.69
459.038	671.69
459.258	711.69
459.478	627.69
459.698	583.69
459.918	541.69
460.138	565.69
460.358	575.69
460.578	568.69
460.798	597.69
461.018	578.69
461.238	584.69
461.458	590.69
461.678	581.69
461.898	589.69
462.118	594.69
462.338	578.69
462.558	585.69
462.777	567.69
462.997	614.69
463.217	652.69
463.437	632.69
463.657	617.69
463.876	601.69
464.096	618.69
464.316	610.69
464.536	615.69
464.755	604.69
464.975	620.69
465.195	645.69
465.414	707.69
465.634	633.69
465.854	607.69
466.073	577.69
466.293	573.69
466.512	553.69
466.732	536.69
466.951	550.69
467.171	528.69
467.391	555.69
467.61	557.69
467.829	567.69
468.049	576.69
468.268	545.69
468.488	543.69
468.707	525.69
468.927	543.69
469.146	545.69
469.365	513.69
469.585	526.69
469.804	561.69
470.023	552.69
470.243	554.69
470.462	565.69
470.681	546.69
470.901	580.69
471.12	567.69
471.339	543.69
471.558	564.69
471.777	557.69
471.997	554.69
472.216	552.69
472.435	603.69
472.654	563.69
472.873	561.69
473.092	527.69
473.311	559.69
473.53	538.69
473.749	552.69
473.968	588.69
474.187	711.69
474.406	745.69
474.625	621.69
474.844	580.69
475.063	552.69
475.282	542.69
475.501	544.69
475.72	573.69
475.939	568.69
476.158	568.69
476.377	578.69
476.596	570.69
476.814	569.69
477.033	592.69
477.252	589.69
477.471	565.69
477.69	595.69
477.908	587.69
478.127	616.69
478.346	609.69
478.564	607.69
478.783	630.69
479.002	633.69
479.22	627.69
479.439	657.69
479.658	672.69
479.876	662.69
480.095	681.69
480.313	704.69
480.532	697.69
480.751	697.69
480.969	700.69
481.188	760.69
481.406	807.69
481.624	730.69
481.843	674.69
482.061	677.69
482.28	651.69
482.498	668.69
482.717	647.69
482.935	635.69
483.153	649.69
483.372	659.69
483.59	651.69
483.808	628.69
484.027	632.69
484.245	654.69
484.463	656.69
484.681	665.69
484.9	641.69
485.118	676.69
485.336	650.69
485.554	683.69
485.772	684.69
485.99	691.69
486.209	663.69
486.427	659.69
486.645	708.69
486.863	735.69
487.081	701.69
487.299	735.69
487.517	715.69
487.735	693.69
487.953	722.69
488.171	711.69
488.389	700.69
488.607	692.69
488.825	706.69
489.043	710.69
489.261	714.69
489.479	707.69
489.696	732.69
489.914	725.69
490.132	724.69
490.35	728.69
490.568	743.69
490.786	769.69
491.003	729.69
491.221	769.69
491.439	797.69
491.657	793.69
491.874	792.69
492.092	790.69
492.31	819.69
492.527	826.69
492.745	832.69
492.963	819.69
493.18	825.69
493.398	812.69
493.615	802.69
493.833	824.69
494.05	802.69
494.268	825.69
494.485	821.69
494.703	827.69
494.92	863.69
495.138	848.69
495.355	802.69
495.573	827.69
495.79	858.69
496.008	825.69
496.225	837.69
496.442	819.69
496.66	844.69
496.877	834.69
497.094	855.69
497.312	879.69
497.529	850.69
497.746	893.69
497.963	895.69
498.181	925.69
498.398	911.69
498.615	953.69
498.832	949.69
499.049	976.69
499.267	989.69
499.484	1029.69
499.701	1081.69
499.918	1120.69
500.135	1119.69
500.352	1181.69
500.569	1224.69
500.786	1203.69
501.003	1221.69
501.22	1169.69
501.437	1132.69
501.654	1106.69
501.871	1114.69
502.088	1042.69
502.305	1006.69
502.522	984.69
502.739	955.69
502.956	904.69
503.172	897.69
503.389	879.69
503.606	864.69
503.823	862.69
504.04	871.69
504.256	876.69
504.473	853.69
504.69	856.69
504.907	833.69
505.123	807.69
505.34	834.69
505.557	816.69
505.773	807.69
505.99	817.69
506.207	788.69
506.423	830.69
506.64	797.69
506.856	782.69
507.073	769.69
507.289	774.69
507.506	795.69
507.722	791.69
507.939	770.69
508.155	749.69
508.372	746.69
508.588	755.69
508.805	730.69
509.021	743.69
509.238	781.69
509.454	759.69
509.67	769.69
509.887	738.69
510.103	742.69
510.319	753.69
510.536	852.69
510.752	1272.69
510.968	1071.69
511.184	747.69
511.401	723.69
511.617	730.69
511.833	720.69
512.049	711.69
512.265	711.69
512.481	689.69
512.698	672.69
512.914	700.69
513.13	693.69
513.346	695.69
513.562	708.69
513.778	689.69
513.994	719.69
514.21	704.69
514.426	760.69
514.642	765.69
514.858	806.69
515.074	873.69
515.29	996.69
515.506	1329.69
515.721	1128.69
515.937	842.69
516.153	771.69
516.369	753.69
516.585	747.69
516.801	723.69
517.016	755.69
517.232	731.69
517.448	760.69
517.664	748.69
517.879	754.69
518.095	735.69
518.311	738.69
518.527	727.69
518.742	725.69
518.958	688.69
519.173	735.69
519.389	713.69
519.605	724.69
519.82	699.69
520.036	718.69
520.251	740.69
520.467	757.69
520.682	733.69
520.898	771.69
521.113	781.69
521.329	822.69
521.544	902.69
521.76	1085.69
521.975	1736.69
522.19	1692.69
522.406	1002.69
522.621	780.69
522.836	715.69
523.052	716.69
523.267	652.69
523.482	642.69
523.698	652.69
523.913	651.69
524.128	670.69
524.343	632.69
524.559	625.69
524.774	617.69
524.989	633.69
525.204	616.69
525.419	611.69
525.634	594.69
525.849	597.69
526.064	570.69
526.28	606.69
526.495	595.69
526.71	600.69
526.925	577.69
527.14	584.69
527.355	589.69
527.57	596.69
527.785	565.69
527.999	570.69
528.214	571.69
528.429	563.69
528.644	584.69
528.859	581.69
529.074	598.69
529.289	616.69
529.503	689.69
529.718	649.69
529.933	631.69
530.148	595.69
530.363	597.69
530.577	572.69
530.792	569.69
531.007	562.69
531.221	586.69
531.436	555.69
531.651	592.69
531.865	554.69
532.08	575.69
532.295	537.69
532.509	549.69
532.724	533.69
532.938	572.69
533.153	543.69
533.367	559.69
533.582	566.69
533.796	563.69
534.011	554.69
534.225	556.69
534.44	507.69
534.654	550.69
534.868	568.69
535.083	553.69
535.297	549.69
535.511	562.69
535.726	565.69
535.94	553.69
536.154	557.69
536.369	545.69
536.583	545.69
536.797	556.69
537.011	518.69
537.225	545.69
537.44	543.69
537.654	560.69
537.868	539.69
538.082	541.69
538.296	527.69
538.51	520.69
538.724	524.69
538.938	522.69
539.153	512.69
539.367	521.69
539.581	549.69
539.795	537.69
540.009	520.69
540.222	530.69
540.436	517.69
540.65	543.69
540.864	531.69
541.078	541.69
541.292	534.69
541.506	517.69
541.72	523.69
541.934	515.69
542.147	530.69
542.361	504.69
542.575	538.69
542.789	525.69
543.002	537.69
543.216	532.69
543.43	523.69
543.644	529.69
543.857	531.69
544.071	526.69
544.285	512.69
544.498	524.69
544.712	539.69
544.925	497.69
545.139	500.69
545.352	501.69
545.566	530.69
545.779	505.69
545.993	525.69
546.206	497.69
546.42	521.69
546.633	538.69
546.847	499.69
547.06	515.69
547.274	509.69
547.487	499.69
547.7	525.69
547.914	501.69
548.127	521.69
548.34	515.69
548.554	508.69
548.767	506.69
548.98	521.69
549.193	501.69
549.407	497.69
549.62	492.69
549.833	500.69
550.046	516.69
550.259	497.69
550.473	500.69
550.686	515.69
550.899	525.69
551.112	499.69
551.325	514.69
551.538	481.69
551.751	499.69
551.964	488.69
552.177	518.69
552.39	490.69
552.603	511.69
552.816	501.69
553.029	497.69
553.242	505.69
553.455	508.69
553.667	543.69
553.88	535.69
554.093	516.69
554.306	525.69
554.519	499.69
554.732	501.69
554.944	501.69
555.157	498.69
555.37	491.69
555.583	489.69
555.795	485.69
556.008	472.69
556.221	458.69
556.433	496.69
556.646	447.69
556.859	452.69
557.071	458.69
557.284	446.69
557.496	451.69
557.709	448.69
557.921	448.69
558.134	446.69
558.346	438.69
558.559	452.69
558.771	450.69
558.984	461.69
559.196	476.69
559.409	432.69
559.621	441.69
559.833	437.69
560.046	440.69
560.258	461.69
560.47	444.69
560.683	439.69
560.895	446.69
561.107	446.69
561.32	462.69
561.532	442.69
561.744	449.69
561.956	443.69
562.168	464.69
562.381	447.69
562.593	454.69
562.805	459.69
563.017	451.69
563.229	457.69
563.441	455.69
563.653	458.69
563.865	474.69
564.077	456.69
564.289	467.69
564.501	469.69
564.713	488.69
564.925	470.69
565.137	490.69
565.349	484.69
565.561	511.69
565.773	505.69
565.985	501.69
566.197	512.69
566.408	529.69
566.62	539.69
566.832	556.69
567.044	557.69
567.255	572.69
567.467	552.69
567.679	560.69
567.891	598.69
568.102	579.69
568.314	573.69
568.526	562.69
568.737	545.69
568.949	500.69
569.161	492.69
569.372	503.69
569.584	474.69
569.795	468.69
570.007	486.69
570.218	480.69
570.43	482.69
570.641	424.69
570.853	432.69
571.064	449.69
571.276	436.69
571.487	435.69
571.698	439.69
571.91	437.69
572.121	417.69
572.333	420.69
572.544	394.69
572.755	418.69
572.966	398.69
573.178	396.69
573.389	397.69
573.6	409.69
573.811	399.69
574.023	403.69
574.234	391.69
574.445	399.69
574.656	388.69
574.867	410.69
575.078	393.69
575.289	379.69
575.501	394.69
575.712	383.69
575.923	392.69
576.134	383.69
576.345	383.69
576.556	382.69
576.767	384.69
576.978	396.69
577.188	376.69
577.399	372.69
577.61	374.69
577.821	375.69
578.032	376.69
578.243	427.69
578.454	608.69
578.665	442.69
578.875	367.69
579.086	347.69
579.297	367.69
579.508	355.69
579.718	357.69
579.929	362.69
580.14	356.69
580.35	342.69
580.561	360.69
580.772	334.69
580.982	348.69
581.193	362.69
581.403	336.69
581.614	369.69
581.825	352.69
582.035	353.69
582.246	341.69
582.456	356.69
582.667	362.69
582.877	345.69
583.087	349.69
583.298	343.69
583.508	348.69
583.719	369.69
583.929	342.69
584.139	340.69
584.35	340.69
584.56	339.69
584.77	351.69
584.981	356.69
585.191	334.69
585.401	336.69
585.611	334.69
585.821	330.69
586.032	360.69
586.242	334.69
586.452	358.69
586.662	331.69
586.872	323.69
587.082	341.69
587.292	344.69
587.502	337.69
587.713	346.69
587.923	335.69
588.133	338.69
588.343	327.69
588.553	343.69
588.762	338.69
588.972	344.69
589.182	348.69
589.392	335.69
589.602	333.69
589.812	357.69
590.022	344.69
590.232	346.69
590.441	323.69
590.651	335.69
590.861	345.69
591.071	333.69
591.281	333.69
591.49	340.69
591.7	348.69
591.91	359.69
592.119	347.69
592.329	343.69
592.539	343.69
592.748	354.69
592.958	362.69
593.167	361.69
593.377	353.69
593.587	362.69
593.796	357.69
594.006	375.69
594.215	364.69
594.424	361.69
594.634	363.69
594.843	346.69
595.053	360.69
595.262	339.69
595.472	331.69
595.681	329.69
595.89	332.69
596.1	335.69
596.309	333.69
596.518	347.69
596.727	343.69
596.937	315.69
597.146	316.69
597.355	330.69
597.564	330.69
597.774	311.69
597.983	308.69
598.192	315.69
598.401	303.69
598.61	308.69
598.819	305.69
599.028	294.69
599.237	320.69
599.446	290.69
599.655	303.69
599.864	283.69
600.073	287.69
600.282	294.69
600.491	297.69
600.7	307.69
600.909	299.69
601.118	294.69
601.327	287.69
601.536	288.69
601.745	295.69
601.953	292.69
602.162	289.69
602.371	291.69
602.58	291.69
602.789	288.69
602.997	281.69
603.206	282.69
603.415	285.69
603.623	259.69
603.832	269.69
604.041	269.69
604.249	291.69
604.458	291.69
604.666	275.69
604.875	285.69
605.084	282.69
605.292	268.69
605.501	272.69
605.709	275.69
605.918	280.69
606.126	273.69
606.334	280.69
606.543	285.69
606.751	267.69
606.96	273.69
607.168	283.69
607.376	289.69
607.585	300.69
607.793	277.69
608.001	283.69
608.21	277.69
608.418	271.69
608.626	268.69
608.834	272.69
609.043	258.69
609.251	285.69
609.459	269.69
609.667	263.69
609.875	266.69
610.083	267.69
610.291	256.69
610.499	284.69
610.707	271.69
610.916	288.69
611.124	260.69
611.332	259.69
611.54	281.69
611.748	288.69
611.955	264.69
612.163	271.69
612.371	260.69
612.579	279.69
612.787	268.69
612.995	265.69
613.203	260.69
613.411	267.69
613.618	260.69
613.826	249.69
614.034	253.69
614.242	256.69
614.449	251.69
614.657	259.69
614.865	280.69
615.072	275.69
615.28	252.69
615.488	244.69
615.695	260.69
615.903	279.69
616.111	263.69
616.318	251.69
616.526	263.69
616.733	261.69
616.941	267.69
617.148	273.69
617.356	284.69
617.563	280.69
617.771	262.69
617.978	265.69
618.185	269.69
618.393	266.69
618.6	259.69
618.807	269.69
619.015	263.69
619.222	234.69
619.429	255.69
619.637	264.69
619.844	272.69
620.051	247.69
620.258	242.69
620.466	246.69
620.673	275.69
620.88	226.69
621.087	261.69
621.294	261.69
621.501	265.69
621.708	264.69
621.915	237.69
622.122	249.69
622.329	255.69
622.536	269.69
622.743	243.69
622.95	245.69
623.157	240.69
623.364	246.69
623.571	245.69
623.778	243.69
623.985	241.69
624.192	248.69
624.399	235.69
624.606	235.69
624.812	230.69
625.019	236.69
625.226	248.69
625.433	226.69
625.639	239.69
625.846	218.69
626.053	229.69
626.259	244.69
626.466	241.69
626.673	242.69
626.879	220.69
627.086	223.69
627.293	223.69
627.499	236.69
627.706	255.69
627.912	247.69
628.119	234.69
628.325	240.69
628.532	232.69
628.738	219.69
628.945	237.69
629.151	223.69
629.357	239.69
629.564	210.69
629.77	216.69
629.976	226.69
630.183	219.69
630.389	229.69
630.595	226.69
630.802	202.69
631.008	200.69
631.214	209.69
631.42	202.69
631.627	225.69
631.833	200.69
632.039	200.69
632.245	203.69
632.451	221.69
632.657	209.69
632.863	199.69
633.069	193.69
633.275	205.69
633.481	218.69
633.688	200.69
633.893	199.69
634.099	209.69
634.305	191.69
634.511	203.69
634.717	203.69
634.923	201.69
635.129	195.69
635.335	183.69
635.541	209.69
635.747	197.69
635.952	204.69
636.158	202.69
636.364	185.69
636.57	192.69
636.775	211.69
636.981	201.69
637.187	202.69
637.392	201.69
637.598	191.69
637.804	209.69
638.009	185.69
638.215	190.69
638.421	202.69
638.626	188.69
638.832	194.69
639.037	192.69
639.243	188.69
639.448	180.69
639.654	188.69
639.859	188.69
640.065	199.69
640.27	193.69
640.475	209.69
640.681	187.69
640.886	185.69
641.091	178.69
641.297	193.69
641.502	195.69
641.707	191.69
641.913	187.69
642.118	205.69
642.323	187.69
642.528	184.69
642.733	185.69
642.939	172.69
643.144	193.69
643.349	179.69
643.554	189.69
643.759	183.69
643.964	179.69
644.169	194.69
644.374	179.69
644.579	173.69
644.784	178.69
644.989	175.69
645.194	184.69
645.399	181.69
645.604	161.69
645.809	171.69
646.014	184.69
646.219	177.69
646.423	182.69
646.628	175.69
646.833	187.69
647.038	182.69
647.243	180.69
647.447	180.69
647.652	185.69
647.857	180.69
648.062	191.69
648.266	178.69
648.471	183.69
648.676	188.69
648.88	191.69
649.085	178.69
649.289	181.69
649.494	184.69
649.698	195.69
649.903	210.69
650.107	191.69
650.312	197.69
650.516	177.69
650.721	189.69
650.925	164.69
651.13	163.69
651.334	163.69
651.539	173.69
651.743	171.69
651.947	156.69
652.152	155.69
652.356	155.69
652.56	157.69
652.764	166.69
652.969	142.69
653.173	154.69
653.377	137.69
653.581	131.69
653.785	135.69
653.99	141.69
654.194	145.69
654.398	154.69
654.602	135.69
654.806	142.69
655.01	145.69
655.214	127.69
655.418	131.69
655.622	141.69
655.826	152.69
656.03	148.69
656.234	151.69
656.438	133.69
656.642	138.69
656.846	152.69
657.049	142.69
657.253	124.69
657.457	133.69
657.661	119.69
657.865	127.69
658.068	111.69
658.272	121.69
658.476	119.69
658.68	112.69
658.883	108.69
659.087	119.69
659.291	104.69
659.494	103.69
659.698	107.69
659.901	98.69
660.105	82.69
660.309	99.69
660.512	76.69
660.716	101.69
660.919	89.69
661.123	77.69
661.326	98.69
661.53	74.69
661.733	87.69
661.936	97.69
662.14	83.69
662.343	92.69
662.546	93.69
662.75	72.69
662.953	84.69
663.156	100.69
663.36	81.69
663.563	99.69
663.766	79.69
663.969	81.69
664.173	85.69
664.376	80.69
664.579	68.69
664.782	80.69
664.985	77.69
665.188	87.69
665.391	95.69
665.594	90.69
665.797	76.69
666	88.69
666.203	81.69
666.406	85.69
666.609	85.69
666.812	82.69
667.015	84.69
667.218	84.69
667.421	84.69
667.624	82.69
667.827	95.69
668.03	75.69
668.232	74.69
668.435	83.69
668.638	87.69
668.841	93.69
669.043	88.69
669.246	69.69
669.449	67.69
669.651	84.69
669.854	77.69
670.057	80.69
670.259	83.69
670.462	81.69
670.665	81.69
670.867	96.69
671.07	83.69
671.272	87.69
671.475	67.69
671.677	80.69
671.88	89.69
672.082	89.69
672.284	102.69
672.487	79.69
672.689	82.69
672.892	88.69
