Data from 1966.PennyLincolnUp.Lamp.En5.5.200Scan.071719.P1._HRD10591_14-15-25-948.txt Node
Date: Thu Jul 18 14:15:25 EDT 2019
User: cochatt
Spectrometer: HR+D1059
Trigger mode: 1
Integration Time (sec): 1.000000E-1
Scans to average: 1
Electric dark correction enabled: true
Nonlinearity correction enabled: false
Boxcar width: 0
XAxis mode: Wavelengths
Number of Pixels in Spectrum: 2048
>>>>>Begin Spectral Data<<<<<
223.165	-0.94
223.4	-0.94
223.635	-0.94
223.869	-17.94
224.104	-14.94
224.338	-19.94
224.573	-17.94
224.808	-17.94
225.042	-6.94
225.277	-8.94
225.511	3.06
225.746	-4.94
225.98	-2.94
226.215	18.06
226.449	12.06
226.683	33.06
226.918	19.06
227.152	28.06
227.387	38.06
227.621	28.06
227.856	47.06
228.09	51.06
228.324	61.06
228.559	66.06
228.793	60.06
229.027	64.06
229.262	86.06
229.496	104.06
229.73	116.06
229.964	116.06
230.199	99.06
230.433	97.06
230.667	102.06
230.901	95.06
231.136	78.06
231.37	90.06
231.604	91.06
231.838	85.06
232.072	104.06
232.306	94.06
232.541	101.06
232.775	98.06
233.009	98.06
233.243	113.06
233.477	96.06
233.711	107.06
233.945	99.06
234.179	100.06
234.413	100.06
234.647	93.06
234.881	97.06
235.115	97.06
235.349	98.06
235.583	101.06
235.817	95.06
236.051	105.06
236.285	100.06
236.519	101.06
236.753	101.06
236.987	110.06
237.221	135.06
237.455	147.06
237.689	127.06
237.922	100.06
238.156	94.06
238.39	113.06
238.624	90.06
238.858	107.06
239.091	106.06
239.325	90.06
239.559	96.06
239.793	101.06
240.027	100.06
240.26	115.06
240.494	116.06
240.728	109.06
240.961	111.06
241.195	91.06
241.429	96.06
241.662	105.06
241.896	92.06
242.13	111.06
242.363	103.06
242.597	91.06
242.83	103.06
243.064	107.06
243.298	125.06
243.531	102.06
243.765	109.06
243.998	113.06
244.232	109.06
244.465	111.06
244.699	121.06
244.932	93.06
245.166	120.06
245.399	114.06
245.633	110.06
245.866	113.06
246.099	119.06
246.333	108.06
246.566	114.06
246.8	123.06
247.033	118.06
247.266	110.06
247.5	122.06
247.733	115.06
247.966	121.06
248.2	128.06
248.433	122.06
248.666	132.06
248.899	123.06
249.133	127.06
249.366	156.06
249.599	135.06
249.832	124.06
250.066	135.06
250.299	128.06
250.532	131.06
250.765	136.06
250.998	145.06
251.231	140.06
251.465	141.06
251.698	133.06
251.931	126.06
252.164	148.06
252.397	130.06
252.63	132.06
252.863	156.06
253.096	142.06
253.329	150.06
253.562	150.06
253.795	158.06
254.028	149.06
254.261	143.06
254.494	139.06
254.727	166.06
254.96	162.06
255.193	168.06
255.426	157.06
255.659	159.06
255.892	142.06
256.124	141.06
256.357	157.06
256.59	158.06
256.823	142.06
257.056	138.06
257.289	135.06
257.521	139.06
257.754	139.06
257.987	143.06
258.22	124.06
258.452	131.06
258.685	136.06
258.918	134.06
259.151	133.06
259.383	152.06
259.616	150.06
259.849	151.06
260.081	159.06
260.314	160.06
260.547	162.06
260.779	147.06
261.012	145.06
261.244	153.06
261.477	154.06
261.71	144.06
261.942	138.06
262.175	162.06
262.407	156.06
262.64	151.06
262.872	141.06
263.105	130.06
263.337	137.06
263.57	143.06
263.802	145.06
264.035	138.06
264.267	146.06
264.499	141.06
264.732	146.06
264.964	142.06
265.197	136.06
265.429	137.06
265.661	126.06
265.894	142.06
266.126	152.06
266.358	153.06
266.591	136.06
266.823	125.06
267.055	144.06
267.287	147.06
267.52	149.06
267.752	142.06
267.984	149.06
268.216	152.06
268.448	155.06
268.681	143.06
268.913	152.06
269.145	194.06
269.377	158.06
269.609	162.06
269.841	179.06
270.073	171.06
270.306	184.06
270.538	202.06
270.77	190.06
271.002	183.06
271.234	172.06
271.466	175.06
271.698	184.06
271.93	195.06
272.162	192.06
272.394	203.06
272.626	198.06
272.858	167.06
273.09	172.06
273.322	171.06
273.553	178.06
273.785	156.06
274.017	156.06
274.249	165.06
274.481	189.06
274.713	158.06
274.945	160.06
275.176	159.06
275.408	173.06
275.64	160.06
275.872	169.06
276.104	154.06
276.335	170.06
276.567	164.06
276.799	174.06
277.031	192.06
277.262	200.06
277.494	192.06
277.726	199.06
277.957	179.06
278.189	168.06
278.421	167.06
278.652	158.06
278.884	164.06
279.115	161.06
279.347	152.06
279.579	169.06
279.81	158.06
280.042	168.06
280.273	162.06
280.505	170.06
280.736	152.06
280.968	175.06
281.199	150.06
281.431	170.06
281.662	161.06
281.894	163.06
282.125	170.06
282.356	192.06
282.588	186.06
282.819	195.06
283.051	164.06
283.282	167.06
283.513	167.06
283.745	183.06
283.976	179.06
284.207	178.06
284.439	185.06
284.67	187.06
284.901	167.06
285.132	165.06
285.364	166.06
285.595	171.06
285.826	167.06
286.057	185.06
286.288	180.06
286.52	175.06
286.751	179.06
286.982	177.06
287.213	173.06
287.444	164.06
287.675	184.06
287.906	175.06
288.138	188.06
288.369	184.06
288.6	179.06
288.831	177.06
289.062	176.06
289.293	177.06
289.524	182.06
289.755	178.06
289.986	179.06
290.217	181.06
290.448	172.06
290.679	170.06
290.91	169.06
291.141	162.06
291.371	180.06
291.602	179.06
291.833	166.06
292.064	177.06
292.295	175.06
292.526	173.06
292.757	177.06
292.987	169.06
293.218	180.06
293.449	191.06
293.68	182.06
293.91	165.06
294.141	188.06
294.372	172.06
294.603	174.06
294.833	156.06
295.064	179.06
295.295	190.06
295.525	198.06
295.756	181.06
295.987	198.06
296.217	200.06
296.448	193.06
296.679	197.06
296.909	186.06
297.14	172.06
297.37	185.06
297.601	185.06
297.831	169.06
298.062	188.06
298.292	171.06
298.523	193.06
298.753	175.06
298.984	177.06
299.214	182.06
299.445	188.06
299.675	187.06
299.905	199.06
300.136	176.06
300.366	192.06
300.597	183.06
300.827	180.06
301.057	196.06
301.288	204.06
301.518	187.06
301.748	191.06
301.979	193.06
302.209	198.06
302.439	177.06
302.669	193.06
302.9	195.06
303.13	188.06
303.36	207.06
303.59	209.06
303.82	194.06
304.051	211.06
304.281	183.06
304.511	186.06
304.741	186.06
304.971	192.06
305.201	194.06
305.431	199.06
305.661	188.06
305.891	204.06
306.121	193.06
306.352	201.06
306.582	191.06
306.812	194.06
307.042	204.06
307.272	211.06
307.502	201.06
307.731	200.06
307.961	208.06
308.191	194.06
308.421	194.06
308.651	195.06
308.881	198.06
309.111	216.06
309.341	176.06
309.571	204.06
309.8	211.06
310.03	205.06
310.26	209.06
310.49	204.06
310.72	214.06
310.949	233.06
311.179	232.06
311.409	222.06
311.639	197.06
311.868	216.06
312.098	217.06
312.328	212.06
312.557	218.06
312.787	237.06
313.017	231.06
313.246	222.06
313.476	212.06
313.706	203.06
313.935	230.06
314.165	200.06
314.394	221.06
314.624	236.06
314.853	224.06
315.083	225.06
315.312	208.06
315.542	197.06
315.771	207.06
316.001	208.06
316.23	209.06
316.46	216.06
316.689	216.06
316.919	203.06
317.148	208.06
317.377	207.06
317.607	221.06
317.836	225.06
318.065	197.06
318.295	201.06
318.524	212.06
318.753	212.06
318.983	212.06
319.212	221.06
319.441	224.06
319.67	211.06
319.9	212.06
320.129	198.06
320.358	224.06
320.587	209.06
320.816	211.06
321.046	232.06
321.275	230.06
321.504	219.06
321.733	230.06
321.962	217.06
322.191	240.06
322.42	231.06
322.649	266.06
322.878	264.06
323.108	254.06
323.337	266.06
323.566	282.06
323.795	299.06
324.024	318.06
324.253	376.06
324.482	562.06
324.71	815.06
324.939	1066.06
325.168	895.06
325.397	450.06
325.626	335.06
325.855	276.06
326.084	252.06
326.313	264.06
326.542	266.06
326.77	300.06
326.999	342.06
327.228	483.06
327.457	716.06
327.686	802.06
327.914	538.06
328.143	379.06
328.372	350.06
328.6	323.06
328.829	284.06
329.058	322.06
329.287	328.06
329.515	314.06
329.744	290.06
329.972	280.06
330.201	297.06
330.43	324.06
330.658	351.06
330.887	346.06
331.115	330.06
331.344	293.06
331.572	275.06
331.801	278.06
332.03	300.06
332.258	280.06
332.486	248.06
332.715	227.06
332.943	251.06
333.172	229.06
333.4	270.06
333.629	250.06
333.857	275.06
334.085	278.06
334.314	299.06
334.542	319.06
334.771	349.06
334.999	283.06
335.227	253.06
335.455	260.06
335.684	241.06
335.912	234.06
336.14	236.06
336.369	267.06
336.597	243.06
336.825	244.06
337.053	253.06
337.281	236.06
337.51	249.06
337.738	241.06
337.966	226.06
338.194	235.06
338.422	240.06
338.65	240.06
338.878	225.06
339.106	238.06
339.334	244.06
339.562	229.06
339.79	220.06
340.018	219.06
340.246	230.06
340.474	244.06
340.702	218.06
340.93	215.06
341.158	219.06
341.386	233.06
341.614	217.06
341.842	232.06
342.07	211.06
342.298	217.06
342.526	247.06
342.754	224.06
342.981	234.06
343.209	231.06
343.437	239.06
343.665	234.06
343.893	224.06
344.12	239.06
344.348	219.06
344.576	218.06
344.804	224.06
345.031	235.06
345.259	230.06
345.487	233.06
345.714	228.06
345.942	214.06
346.17	224.06
346.397	239.06
346.625	234.06
346.853	224.06
347.08	238.06
347.308	226.06
347.535	239.06
347.763	234.06
347.99	232.06
348.218	235.06
348.445	240.06
348.673	243.06
348.9	217.06
349.128	202.06
349.355	219.06
349.583	227.06
349.81	218.06
350.037	226.06
350.265	224.06
350.492	215.06
350.72	231.06
350.947	208.06
351.174	225.06
351.402	239.06
351.629	209.06
351.856	211.06
352.083	217.06
352.311	250.06
352.538	237.06
352.765	248.06
352.992	232.06
353.22	231.06
353.447	229.06
353.674	205.06
353.901	215.06
354.128	222.06
354.355	210.06
354.583	231.06
354.81	216.06
355.037	222.06
355.264	230.06
355.491	223.06
355.718	198.06
355.945	214.06
356.172	217.06
356.399	223.06
356.626	209.06
356.853	208.06
357.08	209.06
357.307	214.06
357.534	205.06
357.761	209.06
357.988	210.06
358.215	210.06
358.441	215.06
358.668	215.06
358.895	223.06
359.122	223.06
359.349	235.06
359.576	223.06
359.802	242.06
360.029	257.06
360.256	248.06
360.483	254.06
360.709	236.06
360.936	225.06
361.163	224.06
361.39	248.06
361.616	226.06
361.843	248.06
362.07	237.06
362.296	226.06
362.523	229.06
362.749	232.06
362.976	222.06
363.203	215.06
363.429	210.06
363.656	216.06
363.882	215.06
364.109	220.06
364.335	200.06
364.562	219.06
364.788	211.06
365.015	222.06
365.241	210.06
365.468	209.06
365.694	224.06
365.92	216.06
366.147	206.06
366.373	226.06
366.599	214.06
366.826	226.06
367.052	201.06
367.278	210.06
367.505	231.06
367.731	208.06
367.957	224.06
368.184	209.06
368.41	221.06
368.636	234.06
368.862	235.06
369.089	218.06
369.315	223.06
369.541	212.06
369.767	213.06
369.993	225.06
370.219	207.06
370.445	190.06
370.672	220.06
370.898	205.06
371.124	218.06
371.35	214.06
371.576	215.06
371.802	208.06
372.028	206.06
372.254	209.06
372.48	223.06
372.706	216.06
372.932	212.06
373.158	205.06
373.384	218.06
373.61	208.06
373.835	211.06
374.061	210.06
374.287	228.06
374.513	220.06
374.739	237.06
374.965	211.06
375.191	205.06
375.416	222.06
375.642	202.06
375.868	203.06
376.094	212.06
376.319	197.06
376.545	214.06
376.771	211.06
376.997	199.06
377.222	218.06
377.448	212.06
377.674	192.06
377.899	207.06
378.125	201.06
378.35	197.06
378.576	201.06
378.802	197.06
379.027	214.06
379.253	223.06
379.478	212.06
379.704	203.06
379.929	202.06
380.155	209.06
380.38	224.06
380.606	223.06
380.831	211.06
381.057	200.06
381.282	200.06
381.507	187.06
381.733	222.06
381.958	214.06
382.184	214.06
382.409	196.06
382.634	216.06
382.86	219.06
383.085	215.06
383.31	203.06
383.535	212.06
383.761	221.06
383.986	212.06
384.211	218.06
384.436	220.06
384.662	225.06
384.887	218.06
385.112	224.06
385.337	214.06
385.562	206.06
385.787	217.06
386.013	235.06
386.238	238.06
386.463	246.06
386.688	214.06
386.913	232.06
387.138	212.06
387.363	210.06
387.588	224.06
387.813	219.06
388.038	222.06
388.263	234.06
388.488	227.06
388.713	218.06
388.938	223.06
389.163	215.06
389.387	231.06
389.612	224.06
389.837	223.06
390.062	221.06
390.287	223.06
390.512	225.06
390.736	213.06
390.961	224.06
391.186	224.06
391.411	216.06
391.636	236.06
391.86	234.06
392.085	223.06
392.31	227.06
392.534	228.06
392.759	216.06
392.984	219.06
393.208	239.06
393.433	233.06
393.658	240.06
393.882	219.06
394.107	226.06
394.331	226.06
394.556	215.06
394.78	228.06
395.005	231.06
395.229	214.06
395.454	230.06
395.678	238.06
395.903	237.06
396.127	238.06
396.352	258.06
396.576	241.06
396.801	237.06
397.025	244.06
397.249	236.06
397.474	237.06
397.698	233.06
397.922	245.06
398.147	254.06
398.371	251.06
398.595	253.06
398.82	236.06
399.044	235.06
399.268	266.06
399.492	260.06
399.717	295.06
399.941	297.06
400.165	299.06
400.389	293.06
400.613	282.06
400.837	261.06
401.062	255.06
401.286	246.06
401.51	261.06
401.734	248.06
401.958	256.06
402.182	274.06
402.406	264.06
402.63	266.06
402.854	248.06
403.078	263.06
403.302	251.06
403.526	269.06
403.75	241.06
403.974	249.06
404.198	271.06
404.422	272.06
404.645	275.06
404.869	269.06
405.093	279.06
405.317	303.06
405.541	323.06
405.765	299.06
405.988	294.06
406.212	280.06
406.436	303.06
406.66	299.06
406.883	296.06
407.107	283.06
407.331	291.06
407.555	343.06
407.778	324.06
408.002	306.06
408.226	292.06
408.449	274.06
408.673	283.06
408.896	302.06
409.12	314.06
409.344	287.06
409.567	278.06
409.791	265.06
410.014	255.06
410.238	247.06
410.461	277.06
410.685	286.06
410.908	288.06
411.132	291.06
411.355	293.06
411.578	280.06
411.802	254.06
412.025	256.06
412.249	263.06
412.472	284.06
412.695	291.06
412.919	273.06
413.142	279.06
413.365	270.06
413.589	257.06
413.812	253.06
414.035	242.06
414.258	255.06
414.482	241.06
414.705	247.06
414.928	250.06
415.151	256.06
415.374	257.06
415.597	243.06
415.821	246.06
416.044	246.06
416.267	252.06
416.49	250.06
416.713	265.06
416.936	247.06
417.159	240.06
417.382	236.06
417.605	250.06
417.828	272.06
418.051	267.06
418.274	257.06
418.497	260.06
418.72	247.06
418.943	239.06
419.166	248.06
419.389	266.06
419.611	259.06
419.834	272.06
420.057	261.06
420.28	254.06
420.503	279.06
420.726	275.06
420.948	272.06
421.171	278.06
421.394	297.06
421.617	267.06
421.839	274.06
422.062	272.06
422.285	279.06
422.507	290.06
422.73	316.06
422.953	307.06
423.175	266.06
423.398	249.06
423.621	275.06
423.843	298.06
424.066	290.06
424.288	281.06
424.511	288.06
424.733	317.06
424.956	330.06
425.178	340.06
425.401	325.06
425.623	339.06
425.846	295.06
426.068	272.06
426.291	275.06
426.513	289.06
426.735	280.06
426.958	309.06
427.18	328.06
427.402	378.06
427.625	420.06
427.847	372.06
428.069	341.06
428.292	307.06
428.514	274.06
428.736	256.06
428.958	267.06
429.181	254.06
429.403	258.06
429.625	266.06
429.847	286.06
430.069	312.06
430.292	302.06
430.514	280.06
430.736	258.06
430.958	252.06
431.18	254.06
431.402	255.06
431.624	249.06
431.846	252.06
432.068	246.06
432.29	253.06
432.512	249.06
432.734	262.06
432.956	250.06
433.178	260.06
433.4	238.06
433.622	251.06
433.844	239.06
434.066	257.06
434.287	239.06
434.509	264.06
434.731	266.06
434.953	265.06
435.175	270.06
435.397	264.06
435.618	273.06
435.84	285.06
436.062	328.06
436.284	346.06
436.505	313.06
436.727	284.06
436.949	270.06
437.17	268.06
437.392	274.06
437.614	272.06
437.835	280.06
438.057	328.06
438.278	381.06
438.5	362.06
438.721	380.06
438.943	364.06
439.165	282.06
439.386	286.06
439.608	305.06
439.829	269.06
440.05	310.06
440.272	319.06
440.493	290.06
440.715	262.06
440.936	283.06
441.158	258.06
441.379	241.06
441.6	276.06
441.822	275.06
442.043	294.06
442.264	336.06
442.486	354.06
442.707	299.06
442.928	301.06
443.149	313.06
443.371	311.06
443.592	330.06
443.813	365.06
444.034	384.06
444.255	310.06
444.476	282.06
444.698	286.06
444.919	269.06
445.14	374.06
445.361	345.06
445.582	313.06
445.803	326.06
446.024	375.06
446.245	367.06
446.466	326.06
446.687	288.06
446.908	276.06
447.129	272.06
447.35	268.06
447.571	257.06
447.792	264.06
448.013	266.06
448.234	263.06
448.455	285.06
448.675	334.06
448.896	403.06
449.117	331.06
449.338	323.06
449.559	368.06
449.779	398.06
450	319.06
450.221	283.06
450.442	287.06
450.662	251.06
450.883	259.06
451.104	279.06
451.324	263.06
451.545	244.06
451.766	244.06
451.986	237.06
452.207	240.06
452.428	240.06
452.648	255.06
452.869	227.06
453.089	252.06
453.31	246.06
453.53	253.06
453.751	244.06
453.971	246.06
454.192	260.06
454.412	253.06
454.633	232.06
454.853	241.06
455.073	234.06
455.294	239.06
455.514	303.06
455.734	257.06
455.955	252.06
456.175	241.06
456.395	229.06
456.616	211.06
456.836	222.06
457.056	226.06
457.276	230.06
457.497	236.06
457.717	215.06
457.937	228.06
458.157	236.06
458.377	232.06
458.598	241.06
458.818	292.06
459.038	327.06
459.258	336.06
459.478	267.06
459.698	266.06
459.918	255.06
460.138	246.06
460.358	248.06
460.578	249.06
460.798	246.06
461.018	256.06
461.238	253.06
461.458	250.06
461.678	249.06
461.898	244.06
462.118	236.06
462.338	251.06
462.558	248.06
462.777	260.06
462.997	253.06
463.217	267.06
463.437	285.06
463.657	273.06
463.876	281.06
464.096	243.06
464.316	265.06
464.536	278.06
464.755	267.06
464.975	274.06
465.195	318.06
465.414	354.06
465.634	313.06
465.854	255.06
466.073	261.06
466.293	259.06
466.512	237.06
466.732	236.06
466.951	247.06
467.171	237.06
467.391	250.06
467.61	247.06
467.829	261.06
468.049	247.06
468.268	259.06
468.488	235.06
468.707	237.06
468.927	251.06
469.146	236.06
469.365	242.06
469.585	242.06
469.804	230.06
470.023	255.06
470.243	240.06
470.462	253.06
470.681	264.06
470.901	258.06
471.12	241.06
471.339	248.06
471.558	266.06
471.777	251.06
471.997	238.06
472.216	248.06
472.435	294.06
472.654	281.06
472.873	229.06
473.092	239.06
473.311	239.06
473.53	251.06
473.749	268.06
473.968	290.06
474.187	332.06
474.406	330.06
474.625	262.06
474.844	241.06
475.063	243.06
475.282	237.06
475.501	263.06
475.72	264.06
475.939	260.06
476.158	254.06
476.377	250.06
476.596	236.06
476.814	267.06
477.033	242.06
477.252	250.06
477.471	261.06
477.69	261.06
477.908	264.06
478.127	258.06
478.346	246.06
478.564	279.06
478.783	256.06
479.002	274.06
479.22	274.06
479.439	267.06
479.658	290.06
479.876	291.06
480.095	310.06
480.313	322.06
480.532	303.06
480.751	278.06
480.969	328.06
481.188	366.06
481.406	425.06
481.624	323.06
481.843	310.06
482.061	287.06
482.28	294.06
482.498	271.06
482.717	263.06
482.935	285.06
483.153	291.06
483.372	290.06
483.59	270.06
483.808	292.06
484.027	274.06
484.245	297.06
484.463	283.06
484.681	300.06
484.9	297.06
485.118	318.06
485.336	279.06
485.554	298.06
485.772	291.06
485.99	273.06
486.209	287.06
486.427	274.06
486.645	292.06
486.863	312.06
487.081	306.06
487.299	306.06
487.517	296.06
487.735	311.06
487.953	316.06
488.171	330.06
488.389	302.06
488.607	307.06
488.825	326.06
489.043	311.06
489.261	306.06
489.479	318.06
489.696	326.06
489.914	301.06
490.132	312.06
490.35	324.06
490.568	304.06
490.786	326.06
491.003	327.06
491.221	345.06
491.439	337.06
491.657	315.06
491.874	352.06
492.092	364.06
492.31	363.06
492.527	371.06
492.745	364.06
492.963	365.06
493.18	360.06
493.398	365.06
493.615	362.06
493.833	347.06
494.05	364.06
494.268	361.06
494.485	337.06
494.703	342.06
494.92	368.06
495.138	362.06
495.355	359.06
495.573	363.06
495.79	340.06
496.008	355.06
496.225	366.06
496.442	337.06
496.66	355.06
496.877	357.06
497.094	361.06
497.312	344.06
497.529	359.06
497.746	353.06
497.963	370.06
498.181	371.06
498.398	370.06
498.615	376.06
498.832	366.06
499.049	382.06
499.267	394.06
499.484	407.06
499.701	400.06
499.918	430.06
500.135	435.06
500.352	449.06
500.569	440.06
500.786	474.06
501.003	467.06
501.22	432.06
501.437	446.06
501.654	419.06
501.871	420.06
502.088	408.06
502.305	400.06
502.522	383.06
502.739	354.06
502.956	352.06
503.172	356.06
503.389	350.06
503.606	345.06
503.823	359.06
504.04	359.06
504.256	352.06
504.473	345.06
504.69	354.06
504.907	322.06
505.123	335.06
505.34	340.06
505.557	330.06
505.773	331.06
505.99	326.06
506.207	351.06
506.423	347.06
506.64	345.06
506.856	320.06
507.073	338.06
507.289	325.06
507.506	343.06
507.722	321.06
507.939	338.06
508.155	335.06
508.372	321.06
508.588	312.06
508.805	314.06
509.021	329.06
509.238	330.06
509.454	347.06
509.67	346.06
509.887	327.06
510.103	308.06
510.319	336.06
510.536	411.06
510.752	810.06
510.968	574.06
511.184	324.06
511.401	333.06
511.617	300.06
511.833	305.06
512.049	304.06
512.265	290.06
512.481	301.06
512.698	302.06
512.914	289.06
513.13	299.06
513.346	304.06
513.562	319.06
513.778	300.06
513.994	313.06
514.21	300.06
514.426	326.06
514.642	353.06
514.858	377.06
515.074	404.06
515.29	505.06
515.506	876.06
515.721	666.06
515.937	396.06
516.153	353.06
516.369	327.06
516.585	323.06
516.801	313.06
517.016	324.06
517.232	302.06
517.448	312.06
517.664	310.06
517.879	296.06
518.095	314.06
518.311	314.06
518.527	317.06
518.742	304.06
518.958	319.06
519.173	296.06
519.389	322.06
519.605	292.06
519.82	313.06
520.036	322.06
520.251	328.06
520.467	344.06
520.682	343.06
520.898	344.06
521.113	357.06
521.329	384.06
521.544	446.06
521.76	638.06
521.975	1237.06
522.19	1168.06
522.406	536.06
522.621	377.06
522.836	318.06
523.052	305.06
523.267	290.06
523.482	285.06
523.698	275.06
523.913	276.06
524.128	283.06
524.343	261.06
524.559	272.06
524.774	286.06
524.989	285.06
525.204	266.06
525.419	279.06
525.634	267.06
525.849	264.06
526.064	273.06
526.28	248.06
526.495	239.06
526.71	246.06
526.925	245.06
527.14	252.06
527.355	252.06
527.57	235.06
527.785	239.06
527.999	248.06
528.214	257.06
528.429	242.06
528.644	242.06
528.859	265.06
529.074	244.06
529.289	268.06
529.503	321.06
529.718	300.06
529.933	278.06
530.148	265.06
530.363	253.06
530.577	250.06
530.792	230.06
531.007	248.06
531.221	223.06
531.436	237.06
531.651	238.06
531.865	246.06
532.08	258.06
532.295	237.06
532.509	237.06
532.724	212.06
532.938	249.06
533.153	242.06
533.367	236.06
533.582	242.06
533.796	241.06
534.011	235.06
534.225	253.06
534.44	245.06
534.654	234.06
534.868	250.06
535.083	242.06
535.297	242.06
535.511	228.06
535.726	251.06
535.94	268.06
536.154	246.06
536.369	236.06
536.583	246.06
536.797	247.06
537.011	230.06
537.225	221.06
537.44	242.06
537.654	238.06
537.868	225.06
538.082	251.06
538.296	235.06
538.51	235.06
538.724	226.06
538.938	207.06
539.153	228.06
539.367	232.06
539.581	238.06
539.795	240.06
540.009	260.06
540.222	237.06
540.436	247.06
540.65	219.06
540.864	258.06
541.078	258.06
541.292	240.06
541.506	241.06
541.72	242.06
541.934	232.06
542.147	238.06
542.361	233.06
542.575	241.06
542.789	230.06
543.002	237.06
543.216	248.06
543.43	234.06
543.644	232.06
543.857	223.06
544.071	224.06
544.285	242.06
544.498	230.06
544.712	245.06
544.925	227.06
545.139	226.06
545.352	229.06
545.566	228.06
545.779	228.06
545.993	241.06
546.206	235.06
546.42	243.06
546.633	236.06
546.847	225.06
547.06	235.06
547.274	211.06
547.487	226.06
547.7	228.06
547.914	211.06
548.127	217.06
548.34	227.06
548.554	215.06
548.767	212.06
548.98	226.06
549.193	220.06
549.407	223.06
549.62	236.06
549.833	220.06
550.046	223.06
550.259	228.06
550.473	220.06
550.686	222.06
550.899	227.06
551.112	215.06
551.325	196.06
551.538	230.06
551.751	206.06
551.964	209.06
552.177	203.06
552.39	207.06
552.603	220.06
552.816	222.06
553.029	227.06
553.242	218.06
553.455	235.06
553.667	256.06
553.88	236.06
554.093	226.06
554.306	227.06
554.519	217.06
554.732	220.06
554.944	226.06
555.157	221.06
555.37	219.06
555.583	211.06
555.795	223.06
556.008	202.06
556.221	198.06
556.433	195.06
556.646	212.06
556.859	217.06
557.071	212.06
557.284	205.06
557.496	212.06
557.709	182.06
557.921	196.06
558.134	198.06
558.346	207.06
558.559	210.06
558.771	200.06
558.984	204.06
559.196	212.06
559.409	199.06
559.621	192.06
559.833	191.06
560.046	201.06
560.258	206.06
560.47	222.06
560.683	187.06
560.895	206.06
561.107	206.06
561.32	196.06
561.532	196.06
561.744	214.06
561.956	196.06
562.168	212.06
562.381	213.06
562.593	201.06
562.805	205.06
563.017	219.06
563.229	208.06
563.441	189.06
563.653	198.06
563.865	206.06
564.077	192.06
564.289	209.06
564.501	201.06
564.713	211.06
564.925	214.06
565.137	208.06
565.349	220.06
565.561	206.06
565.773	224.06
565.985	235.06
566.197	229.06
566.408	214.06
566.62	223.06
566.832	240.06
567.044	246.06
567.255	229.06
567.467	228.06
567.679	235.06
567.891	252.06
568.102	248.06
568.314	242.06
568.526	233.06
568.737	219.06
568.949	212.06
569.161	220.06
569.372	210.06
569.584	220.06
569.795	212.06
570.007	217.06
570.218	216.06
570.43	221.06
570.641	207.06
570.853	195.06
571.064	182.06
571.276	197.06
571.487	185.06
571.698	191.06
571.91	185.06
572.121	185.06
572.333	175.06
572.544	193.06
572.755	189.06
572.966	182.06
573.178	172.06
573.389	191.06
573.6	163.06
573.811	184.06
574.023	180.06
574.234	190.06
574.445	190.06
574.656	196.06
574.867	177.06
575.078	191.06
575.289	170.06
575.501	182.06
575.712	183.06
575.923	190.06
576.134	174.06
576.345	177.06
576.556	177.06
576.767	171.06
576.978	169.06
577.188	186.06
577.399	159.06
577.61	164.06
577.821	162.06
578.032	171.06
578.243	202.06
578.454	394.06
578.665	272.06
578.875	186.06
579.086	180.06
579.297	173.06
579.508	172.06
579.718	179.06
579.929	178.06
580.14	169.06
580.35	164.06
580.561	161.06
580.772	161.06
580.982	162.06
581.193	165.06
581.403	169.06
581.614	192.06
581.825	175.06
582.035	161.06
582.246	163.06
582.456	160.06
582.667	161.06
582.877	168.06
583.087	160.06
583.298	172.06
583.508	176.06
583.719	167.06
583.929	158.06
584.139	159.06
584.35	147.06
584.56	167.06
584.77	167.06
584.981	161.06
585.191	169.06
585.401	169.06
585.611	149.06
585.821	165.06
586.032	172.06
586.242	156.06
586.452	168.06
586.662	158.06
586.872	171.06
587.082	169.06
587.292	158.06
587.502	152.06
587.713	165.06
587.923	145.06
588.133	160.06
588.343	167.06
588.553	159.06
588.762	171.06
588.972	154.06
589.182	179.06
589.392	167.06
589.602	164.06
589.812	157.06
590.022	169.06
590.232	159.06
590.441	169.06
590.651	160.06
590.861	173.06
591.071	163.06
591.281	171.06
591.49	167.06
591.7	159.06
591.91	162.06
592.119	157.06
592.329	162.06
592.539	157.06
592.748	153.06
592.958	168.06
593.167	159.06
593.377	166.06
593.587	162.06
593.796	158.06
594.006	170.06
594.215	165.06
594.424	164.06
594.634	146.06
594.843	168.06
595.053	174.06
595.262	158.06
595.472	164.06
595.681	158.06
595.89	159.06
596.1	155.06
596.309	162.06
596.518	146.06
596.727	161.06
596.937	159.06
597.146	154.06
597.355	148.06
597.564	159.06
597.774	161.06
597.983	149.06
598.192	152.06
598.401	135.06
598.61	162.06
598.819	164.06
599.028	159.06
599.237	158.06
599.446	148.06
599.655	157.06
599.864	162.06
600.073	152.06
600.282	157.06
600.491	142.06
600.7	156.06
600.909	154.06
601.118	141.06
601.327	166.06
601.536	139.06
601.745	146.06
601.953	138.06
602.162	144.06
602.371	155.06
602.58	162.06
602.789	162.06
602.997	159.06
603.206	152.06
603.415	151.06
603.623	148.06
603.832	160.06
604.041	149.06
604.249	163.06
604.458	139.06
604.666	131.06
604.875	128.06
605.084	157.06
605.292	154.06
605.501	134.06
605.709	136.06
605.918	149.06
606.126	148.06
606.334	153.06
606.543	160.06
606.751	143.06
606.96	129.06
607.168	140.06
607.376	148.06
607.585	136.06
607.793	138.06
608.001	140.06
608.21	138.06
608.418	140.06
608.626	144.06
608.834	148.06
609.043	139.06
609.251	144.06
609.459	147.06
609.667	151.06
609.875	158.06
610.083	138.06
610.291	137.06
610.499	160.06
610.707	152.06
610.916	147.06
611.124	150.06
611.332	156.06
611.54	162.06
611.748	154.06
611.955	148.06
612.163	154.06
612.371	143.06
612.579	140.06
612.787	125.06
612.995	147.06
613.203	152.06
613.411	149.06
613.618	141.06
613.826	139.06
614.034	143.06
614.242	144.06
614.449	159.06
614.657	152.06
614.865	152.06
615.072	153.06
615.28	151.06
615.488	138.06
615.695	129.06
615.903	142.06
616.111	149.06
616.318	161.06
616.526	143.06
616.733	143.06
616.941	163.06
617.148	139.06
617.356	145.06
617.563	145.06
617.771	165.06
617.978	143.06
618.185	148.06
618.393	130.06
618.6	132.06
618.807	138.06
619.015	147.06
619.222	131.06
619.429	138.06
619.637	142.06
619.844	140.06
620.051	153.06
620.258	147.06
620.466	142.06
620.673	138.06
620.88	150.06
621.087	154.06
621.294	146.06
621.501	147.06
621.708	140.06
621.915	147.06
622.122	131.06
622.329	140.06
622.536	141.06
622.743	140.06
622.95	142.06
623.157	124.06
623.364	133.06
623.571	142.06
623.778	129.06
623.985	151.06
624.192	136.06
624.399	135.06
624.606	129.06
624.812	128.06
625.019	142.06
625.226	139.06
625.433	144.06
625.639	140.06
625.846	126.06
626.053	126.06
626.259	128.06
626.466	138.06
626.673	124.06
626.879	126.06
627.086	136.06
627.293	126.06
627.499	127.06
627.706	143.06
627.912	140.06
628.119	154.06
628.325	138.06
628.532	126.06
628.738	129.06
628.945	117.06
629.151	102.06
629.357	132.06
629.564	127.06
629.77	145.06
629.976	133.06
630.183	136.06
630.389	142.06
630.595	142.06
630.802	127.06
631.008	130.06
631.214	124.06
631.42	143.06
631.627	138.06
631.833	129.06
632.039	116.06
632.245	124.06
632.451	146.06
632.657	138.06
632.863	125.06
633.069	128.06
633.275	128.06
633.481	128.06
633.688	134.06
633.893	134.06
634.099	119.06
634.305	129.06
634.511	109.06
634.717	120.06
634.923	129.06
635.129	128.06
635.335	137.06
635.541	134.06
635.747	111.06
635.952	128.06
636.158	121.06
636.364	126.06
636.57	124.06
636.775	129.06
636.981	113.06
637.187	140.06
637.392	119.06
637.598	118.06
637.804	131.06
638.009	138.06
638.215	138.06
638.421	118.06
638.626	127.06
638.832	110.06
639.037	123.06
639.243	112.06
639.448	120.06
639.654	130.06
639.859	124.06
640.065	120.06
640.27	132.06
640.475	138.06
640.681	121.06
640.886	116.06
641.091	110.06
641.297	131.06
641.502	106.06
641.707	123.06
641.913	127.06
642.118	130.06
642.323	131.06
642.528	121.06
642.733	107.06
642.939	123.06
643.144	122.06
643.349	131.06
643.554	130.06
643.759	124.06
643.964	120.06
644.169	126.06
644.374	102.06
644.579	114.06
644.784	124.06
644.989	126.06
645.194	122.06
645.399	123.06
645.604	125.06
645.809	117.06
646.014	119.06
646.219	124.06
646.423	121.06
646.628	116.06
646.833	109.06
647.038	120.06
647.243	119.06
647.447	118.06
647.652	112.06
647.857	123.06
648.062	120.06
648.266	120.06
648.471	129.06
648.676	125.06
648.88	129.06
649.085	123.06
649.289	119.06
649.494	124.06
649.698	134.06
649.903	129.06
650.107	135.06
650.312	120.06
650.516	107.06
650.721	118.06
650.925	123.06
651.13	120.06
651.334	127.06
651.539	120.06
651.743	113.06
651.947	121.06
652.152	124.06
652.356	121.06
652.56	110.06
652.764	102.06
652.969	110.06
653.173	120.06
653.377	123.06
653.581	107.06
653.785	118.06
653.99	121.06
654.194	115.06
654.398	114.06
654.602	105.06
654.806	115.06
655.01	121.06
655.214	124.06
655.418	107.06
655.622	114.06
655.826	111.06
656.03	121.06
656.234	115.06
656.438	107.06
656.642	115.06
656.846	106.06
657.049	118.06
657.253	106.06
657.457	94.06
657.661	103.06
657.865	111.06
658.068	93.06
658.272	102.06
658.476	108.06
658.68	95.06
658.883	100.06
659.087	92.06
659.291	95.06
659.494	107.06
659.698	103.06
659.901	88.06
660.105	85.06
660.309	82.06
660.512	87.06
660.716	90.06
660.919	106.06
661.123	90.06
661.326	91.06
661.53	97.06
661.733	94.06
661.936	98.06
662.14	101.06
662.343	102.06
662.546	101.06
662.75	96.06
662.953	98.06
663.156	85.06
663.36	99.06
663.563	81.06
663.766	82.06
663.969	96.06
664.173	86.06
664.376	102.06
664.579	79.06
664.782	78.06
664.985	79.06
665.188	87.06
665.391	89.06
665.594	99.06
665.797	94.06
666	88.06
666.203	94.06
666.406	87.06
666.609	83.06
666.812	88.06
667.015	85.06
667.218	80.06
667.421	96.06
667.624	95.06
667.827	90.06
668.03	79.06
668.232	73.06
668.435	92.06
668.638	96.06
668.841	89.06
669.043	93.06
669.246	83.06
669.449	74.06
669.651	81.06
669.854	85.06
670.057	105.06
670.259	74.06
670.462	82.06
670.665	88.06
670.867	83.06
671.07	96.06
671.272	80.06
671.475	88.06
671.677	100.06
671.88	83.06
672.082	93.06
672.284	84.06
672.487	90.06
672.689	69.06
672.892	82.06
