Data from 1966.PennyLincolnUp.Lamp.En5.5.200Scan.071719.P1.Scan2.head_HRD10591_14-18-11-168.txt Node
Date: Thu Jul 18 14:18:11 EDT 2019
User: cochatt
Spectrometer: HR+D1059
Trigger mode: 1
Integration Time (sec): 1.000000E-1
Scans to average: 1
Electric dark correction enabled: true
Nonlinearity correction enabled: false
Boxcar width: 0
XAxis mode: Wavelengths
Number of Pixels in Spectrum: 2048
>>>>>Begin Spectral Data<<<<<
223.165	-18.25
223.4	-18.25
223.635	-18.25
223.869	-14.25
224.104	-24.25
224.338	-16.25
224.573	-16.25
224.808	-0.25
225.042	-15.25
225.277	2.75
225.511	-17.25
225.746	-1.25
225.98	5.75
226.215	11.75
226.449	14.75
226.683	25.75
226.918	30.75
227.152	31.75
227.387	35.75
227.621	28.75
227.856	50.75
228.09	49.75
228.324	62.75
228.559	47.75
228.793	61.75
229.027	103.75
229.262	94.75
229.496	112.75
229.73	135.75
229.964	162.75
230.199	135.75
230.433	108.75
230.667	114.75
230.901	110.75
231.136	95.75
231.37	123.75
231.604	111.75
231.838	103.75
232.072	109.75
232.306	114.75
232.541	124.75
232.775	109.75
233.009	109.75
233.243	119.75
233.477	113.75
233.711	115.75
233.945	121.75
234.179	103.75
234.413	124.75
234.647	126.75
234.881	117.75
235.115	117.75
235.349	116.75
235.583	116.75
235.817	123.75
236.051	143.75
236.285	125.75
236.519	124.75
236.753	128.75
236.987	141.75
237.221	196.75
237.455	228.75
237.689	199.75
237.922	145.75
238.156	149.75
238.39	129.75
238.624	130.75
238.858	135.75
239.091	117.75
239.325	132.75
239.559	149.75
239.793	146.75
240.027	144.75
240.26	153.75
240.494	173.75
240.728	160.75
240.961	144.75
241.195	139.75
241.429	158.75
241.662	134.75
241.896	134.75
242.13	135.75
242.363	137.75
242.597	141.75
242.83	152.75
243.064	150.75
243.298	128.75
243.531	131.75
243.765	125.75
243.998	153.75
244.232	139.75
244.465	151.75
244.699	148.75
244.932	162.75
245.166	164.75
245.399	140.75
245.633	152.75
245.866	158.75
246.099	160.75
246.333	147.75
246.566	159.75
246.8	148.75
247.033	170.75
247.266	162.75
247.5	171.75
247.733	172.75
247.966	190.75
248.2	183.75
248.433	168.75
248.666	180.75
248.899	182.75
249.133	198.75
249.366	219.75
249.599	188.75
249.832	182.75
250.066	176.75
250.299	176.75
250.532	193.75
250.765	207.75
250.998	249.75
251.231	236.75
251.465	235.75
251.698	196.75
251.931	194.75
252.164	203.75
252.397	207.75
252.63	190.75
252.863	204.75
253.096	207.75
253.329	230.75
253.562	210.75
253.795	215.75
254.028	215.75
254.261	218.75
254.494	233.75
254.727	252.75
254.96	292.75
255.193	270.75
255.426	246.75
255.659	217.75
255.892	234.75
256.124	225.75
256.357	248.75
256.59	239.75
256.823	212.75
257.056	230.75
257.289	227.75
257.521	203.75
257.754	208.75
257.987	212.75
258.22	210.75
258.452	212.75
258.685	212.75
258.918	229.75
259.151	219.75
259.383	229.75
259.616	233.75
259.849	234.75
260.081	234.75
260.314	261.75
260.547	262.75
260.779	257.75
261.012	250.75
261.244	234.75
261.477	241.75
261.71	249.75
261.942	223.75
262.175	230.75
262.407	240.75
262.64	224.75
262.872	220.75
263.105	221.75
263.337	212.75
263.57	236.75
263.802	217.75
264.035	217.75
264.267	217.75
264.499	230.75
264.732	212.75
264.964	218.75
265.197	229.75
265.429	206.75
265.661	220.75
265.894	225.75
266.126	205.75
266.358	242.75
266.591	236.75
266.823	218.75
267.055	216.75
267.287	220.75
267.52	223.75
267.752	235.75
267.984	223.75
268.216	239.75
268.448	249.75
268.681	250.75
268.913	235.75
269.145	265.75
269.377	265.75
269.609	277.75
269.841	271.75
270.073	270.75
270.306	295.75
270.538	304.75
270.77	302.75
271.002	309.75
271.234	295.75
271.466	297.75
271.698	321.75
271.93	342.75
272.162	338.75
272.394	302.75
272.626	330.75
272.858	288.75
273.09	297.75
273.322	268.75
273.553	261.75
273.785	290.75
274.017	278.75
274.249	271.75
274.481	263.75
274.713	278.75
274.945	268.75
275.176	259.75
275.408	269.75
275.64	255.75
275.872	267.75
276.104	266.75
276.335	282.75
276.567	286.75
276.799	302.75
277.031	317.75
277.262	312.75
277.494	334.75
277.726	292.75
277.957	314.75
278.189	300.75
278.421	284.75
278.652	295.75
278.884	284.75
279.115	277.75
279.347	270.75
279.579	284.75
279.81	275.75
280.042	266.75
280.273	270.75
280.505	286.75
280.736	281.75
280.968	297.75
281.199	306.75
281.431	274.75
281.662	281.75
281.894	273.75
282.125	291.75
282.356	287.75
282.588	316.75
282.819	314.75
283.051	301.75
283.282	273.75
283.513	297.75
283.745	285.75
283.976	292.75
284.207	295.75
284.439	296.75
284.67	287.75
284.901	291.75
285.132	283.75
285.364	285.75
285.595	300.75
285.826	283.75
286.057	299.75
286.288	293.75
286.52	267.75
286.751	289.75
286.982	286.75
287.213	300.75
287.444	294.75
287.675	299.75
287.906	306.75
288.138	303.75
288.369	312.75
288.6	301.75
288.831	316.75
289.062	302.75
289.293	318.75
289.524	296.75
289.755	286.75
289.986	290.75
290.217	297.75
290.448	291.75
290.679	323.75
290.91	292.75
291.141	297.75
291.371	305.75
291.602	302.75
291.833	292.75
292.064	299.75
292.295	315.75
292.526	317.75
292.757	295.75
292.987	296.75
293.218	305.75
293.449	296.75
293.68	316.75
293.91	309.75
294.141	285.75
294.372	297.75
294.603	304.75
294.833	310.75
295.064	324.75
295.295	316.75
295.525	306.75
295.756	323.75
295.987	319.75
296.217	340.75
296.448	361.75
296.679	326.75
296.909	296.75
297.14	325.75
297.37	307.75
297.601	330.75
297.831	314.75
298.062	332.75
298.292	310.75
298.523	316.75
298.753	323.75
298.984	316.75
299.214	324.75
299.445	315.75
299.675	317.75
299.905	319.75
300.136	311.75
300.366	317.75
300.597	340.75
300.827	342.75
301.057	342.75
301.288	343.75
301.518	360.75
301.748	338.75
301.979	345.75
302.209	313.75
302.439	341.75
302.669	342.75
302.9	347.75
303.13	326.75
303.36	341.75
303.59	357.75
303.82	359.75
304.051	354.75
304.281	327.75
304.511	341.75
304.741	342.75
304.971	328.75
305.201	341.75
305.431	346.75
305.661	343.75
305.891	333.75
306.121	350.75
306.352	340.75
306.582	357.75
306.812	329.75
307.042	352.75
307.272	353.75
307.502	338.75
307.731	323.75
307.961	345.75
308.191	337.75
308.421	342.75
308.651	353.75
308.881	357.75
309.111	347.75
309.341	330.75
309.571	363.75
309.8	374.75
310.03	374.75
310.26	386.75
310.49	383.75
310.72	397.75
310.949	397.75
311.179	403.75
311.409	372.75
311.639	385.75
311.868	381.75
312.098	381.75
312.328	390.75
312.557	422.75
312.787	419.75
313.017	420.75
313.246	426.75
313.476	400.75
313.706	406.75
313.935	395.75
314.165	396.75
314.394	432.75
314.624	436.75
314.853	396.75
315.083	405.75
315.312	393.75
315.542	402.75
315.771	383.75
316.001	389.75
316.23	404.75
316.46	399.75
316.689	377.75
316.919	414.75
317.148	408.75
317.377	399.75
317.607	393.75
317.836	391.75
318.065	393.75
318.295	416.75
318.524	382.75
318.753	387.75
318.983	405.75
319.212	393.75
319.441	419.75
319.67	402.75
319.9	408.75
320.129	391.75
320.358	408.75
320.587	397.75
320.816	398.75
321.046	397.75
321.275	406.75
321.504	410.75
321.733	409.75
321.962	414.75
322.191	427.75
322.42	454.75
322.649	470.75
322.878	464.75
323.108	470.75
323.337	489.75
323.566	512.75
323.795	510.75
324.024	549.75
324.253	668.75
324.482	958.75
324.71	1506.75
324.939	2254.75
325.168	1934.75
325.397	978.75
325.626	642.75
325.855	565.75
326.084	518.75
326.313	503.75
326.542	515.75
326.77	575.75
326.999	653.75
327.228	862.75
327.457	1359.75
327.686	1703.75
327.914	1132.75
328.143	739.75
328.372	626.75
328.6	599.75
328.829	564.75
329.058	598.75
329.287	611.75
329.515	565.75
329.744	527.75
329.972	518.75
330.201	552.75
330.43	584.75
330.658	590.75
330.887	634.75
331.115	606.75
331.344	517.75
331.572	522.75
331.801	491.75
332.03	498.75
332.258	507.75
332.486	470.75
332.715	500.75
332.943	476.75
333.172	482.75
333.4	487.75
333.629	490.75
333.857	511.75
334.085	510.75
334.314	547.75
334.542	572.75
334.771	588.75
334.999	537.75
335.227	514.75
335.455	498.75
335.684	483.75
335.912	491.75
336.14	468.75
336.369	459.75
336.597	476.75
336.825	476.75
337.053	467.75
337.281	462.75
337.51	466.75
337.738	472.75
337.966	474.75
338.194	451.75
338.422	468.75
338.65	482.75
338.878	450.75
339.106	468.75
339.334	465.75
339.562	467.75
339.79	450.75
340.018	444.75
340.246	435.75
340.474	461.75
340.702	443.75
340.93	426.75
341.158	430.75
341.386	449.75
341.614	464.75
341.842	457.75
342.07	466.75
342.298	450.75
342.526	454.75
342.754	455.75
342.981	442.75
343.209	438.75
343.437	441.75
343.665	472.75
343.893	478.75
344.12	472.75
344.348	463.75
344.576	468.75
344.804	472.75
345.031	479.75
345.259	456.75
345.487	467.75
345.714	450.75
345.942	467.75
346.17	464.75
346.397	436.75
346.625	439.75
346.853	445.75
347.08	437.75
347.308	439.75
347.535	445.75
347.763	464.75
347.99	470.75
348.218	458.75
348.445	460.75
348.673	448.75
348.9	452.75
349.128	434.75
349.355	429.75
349.583	423.75
349.81	418.75
350.037	438.75
350.265	444.75
350.492	435.75
350.72	438.75
350.947	442.75
351.174	452.75
351.402	462.75
351.629	466.75
351.856	438.75
352.083	443.75
352.311	461.75
352.538	449.75
352.765	444.75
352.992	461.75
353.22	469.75
353.447	444.75
353.674	430.75
353.901	440.75
354.128	432.75
354.355	400.75
354.583	420.75
354.81	432.75
355.037	421.75
355.264	439.75
355.491	403.75
355.718	409.75
355.945	412.75
356.172	421.75
356.399	425.75
356.626	414.75
356.853	434.75
357.08	416.75
357.307	411.75
357.534	418.75
357.761	406.75
357.988	411.75
358.215	421.75
358.441	416.75
358.668	435.75
358.895	444.75
359.122	421.75
359.349	447.75
359.576	447.75
359.802	471.75
360.029	496.75
360.256	471.75
360.483	494.75
360.709	457.75
360.936	472.75
361.163	443.75
361.39	456.75
361.616	464.75
361.843	454.75
362.07	463.75
362.296	444.75
362.523	449.75
362.749	443.75
362.976	450.75
363.203	442.75
363.429	437.75
363.656	442.75
363.882	460.75
364.109	427.75
364.335	423.75
364.562	422.75
364.788	437.75
365.015	444.75
365.241	430.75
365.468	415.75
365.694	434.75
365.92	446.75
366.147	425.75
366.373	423.75
366.599	444.75
366.826	436.75
367.052	427.75
367.278	439.75
367.505	446.75
367.731	423.75
367.957	436.75
368.184	427.75
368.41	460.75
368.636	450.75
368.862	449.75
369.089	440.75
369.315	451.75
369.541	423.75
369.767	432.75
369.993	426.75
370.219	422.75
370.445	427.75
370.672	425.75
370.898	458.75
371.124	457.75
371.35	436.75
371.576	427.75
371.802	436.75
372.028	450.75
372.254	433.75
372.48	445.75
372.706	422.75
372.932	440.75
373.158	451.75
373.384	452.75
373.61	452.75
373.835	448.75
374.061	431.75
374.287	450.75
374.513	456.75
374.739	455.75
374.965	459.75
375.191	440.75
375.416	444.75
375.642	439.75
375.868	447.75
376.094	443.75
376.319	448.75
376.545	452.75
376.771	427.75
376.997	442.75
377.222	436.75
377.448	418.75
377.674	443.75
377.899	421.75
378.125	428.75
378.35	454.75
378.576	445.75
378.802	432.75
379.027	436.75
379.253	445.75
379.478	423.75
379.704	440.75
379.929	430.75
380.155	438.75
380.38	460.75
380.606	437.75
380.831	437.75
381.057	461.75
381.282	435.75
381.507	457.75
381.733	438.75
381.958	444.75
382.184	465.75
382.409	463.75
382.634	460.75
382.86	450.75
383.085	459.75
383.31	460.75
383.535	461.75
383.761	453.75
383.986	472.75
384.211	459.75
384.436	478.75
384.662	483.75
384.887	456.75
385.112	495.75
385.337	481.75
385.562	483.75
385.787	486.75
386.013	488.75
386.238	494.75
386.463	487.75
386.688	475.75
386.913	492.75
387.138	468.75
387.363	496.75
387.588	494.75
387.813	494.75
388.038	487.75
388.263	497.75
388.488	514.75
388.713	506.75
388.938	480.75
389.163	518.75
389.387	501.75
389.612	497.75
389.837	504.75
390.062	500.75
390.287	482.75
390.512	500.75
390.736	502.75
390.961	483.75
391.186	492.75
391.411	504.75
391.636	506.75
391.86	534.75
392.085	487.75
392.31	511.75
392.534	500.75
392.759	525.75
392.984	512.75
393.208	523.75
393.433	505.75
393.658	501.75
393.882	499.75
394.107	478.75
394.331	514.75
394.556	492.75
394.78	506.75
395.005	517.75
395.229	503.75
395.454	507.75
395.678	515.75
395.903	563.75
396.127	550.75
396.352	569.75
396.576	536.75
396.801	534.75
397.025	538.75
397.249	550.75
397.474	546.75
397.698	542.75
397.922	549.75
398.147	567.75
398.371	572.75
398.595	558.75
398.82	566.75
399.044	576.75
399.268	615.75
399.492	631.75
399.717	690.75
399.941	676.75
400.165	715.75
400.389	719.75
400.613	653.75
400.837	614.75
401.062	586.75
401.286	586.75
401.51	571.75
401.734	561.75
401.958	602.75
402.182	576.75
402.406	612.75
402.63	600.75
402.854	588.75
403.078	591.75
403.302	594.75
403.526	624.75
403.75	583.75
403.974	583.75
404.198	586.75
404.422	593.75
404.645	600.75
404.869	619.75
405.093	658.75
405.317	702.75
405.541	744.75
405.765	664.75
405.988	634.75
406.212	644.75
406.436	630.75
406.66	658.75
406.883	633.75
407.107	679.75
407.331	724.75
407.555	790.75
407.778	776.75
408.002	743.75
408.226	696.75
408.449	675.75
408.673	646.75
408.896	675.75
409.12	728.75
409.344	688.75
409.567	628.75
409.791	610.75
410.014	608.75
410.238	602.75
410.461	600.75
410.685	635.75
410.908	590.75
411.132	651.75
411.355	698.75
411.578	660.75
411.802	611.75
412.025	596.75
412.249	611.75
412.472	649.75
412.695	685.75
412.919	666.75
413.142	594.75
413.365	597.75
413.589	588.75
413.812	566.75
414.035	574.75
414.258	570.75
414.482	548.75
414.705	568.75
414.928	568.75
415.151	582.75
415.374	573.75
415.597	547.75
415.821	570.75
416.044	564.75
416.267	589.75
416.49	568.75
416.713	548.75
416.936	563.75
417.159	568.75
417.382	570.75
417.605	562.75
417.828	579.75
418.051	605.75
418.274	604.75
418.497	565.75
418.72	591.75
418.943	553.75
419.166	592.75
419.389	615.75
419.611	611.75
419.834	604.75
420.057	591.75
420.28	604.75
420.503	582.75
420.726	586.75
420.948	606.75
421.171	648.75
421.394	683.75
421.617	624.75
421.839	578.75
422.062	621.75
422.285	612.75
422.507	696.75
422.73	774.75
422.953	735.75
423.175	646.75
423.398	623.75
423.621	607.75
423.843	655.75
424.066	646.75
424.288	638.75
424.511	665.75
424.733	724.75
424.956	791.75
425.178	776.75
425.401	767.75
425.623	793.75
425.846	694.75
426.068	652.75
426.291	610.75
426.513	630.75
426.735	662.75
426.958	677.75
427.18	789.75
427.402	932.75
427.625	1010.75
427.847	904.75
428.069	783.75
428.292	674.75
428.514	657.75
428.736	635.75
428.958	600.75
429.181	582.75
429.403	595.75
429.625	601.75
429.847	659.75
430.069	723.75
430.292	694.75
430.514	618.75
430.736	610.75
430.958	576.75
431.18	576.75
431.402	564.75
431.624	552.75
431.846	557.75
432.068	568.75
432.29	553.75
432.512	564.75
432.734	562.75
432.956	580.75
433.178	581.75
433.4	597.75
433.622	580.75
433.844	576.75
434.066	559.75
434.287	576.75
434.509	585.75
434.731	601.75
434.953	580.75
435.175	598.75
435.397	629.75
435.618	636.75
435.84	674.75
436.062	794.75
436.284	869.75
436.505	715.75
436.727	649.75
436.949	597.75
437.17	574.75
437.392	602.75
437.614	593.75
437.835	642.75
438.057	735.75
438.278	876.75
438.5	855.75
438.721	928.75
438.943	898.75
439.165	725.75
439.386	661.75
439.608	662.75
439.829	629.75
440.05	648.75
440.272	714.75
440.493	712.75
440.715	624.75
440.936	617.75
441.158	603.75
441.379	582.75
441.6	598.75
441.822	654.75
442.043	666.75
442.264	794.75
442.486	837.75
442.707	694.75
442.928	653.75
443.149	672.75
443.371	692.75
443.592	723.75
443.813	825.75
444.034	896.75
444.255	747.75
444.476	700.75
444.698	666.75
444.919	642.75
445.14	777.75
445.361	716.75
445.582	681.75
445.803	750.75
446.024	868.75
446.245	893.75
446.466	807.75
446.687	678.75
446.908	636.75
447.129	615.75
447.35	587.75
447.571	570.75
447.792	601.75
448.013	588.75
448.234	624.75
448.455	665.75
448.675	798.75
448.896	918.75
449.117	794.75
449.338	749.75
449.559	874.75
449.779	962.75
450	749.75
450.221	668.75
450.442	597.75
450.662	587.75
450.883	586.75
451.104	610.75
451.324	560.75
451.545	556.75
451.766	540.75
451.986	521.75
452.207	535.75
452.428	500.75
452.648	525.75
452.869	530.75
453.089	542.75
453.31	539.75
453.53	532.75
453.751	525.75
453.971	507.75
454.192	537.75
454.412	555.75
454.633	542.75
454.853	523.75
455.073	521.75
455.294	531.75
455.514	630.75
455.734	613.75
455.955	554.75
456.175	510.75
456.395	521.75
456.616	506.75
456.836	503.75
457.056	484.75
457.276	477.75
457.497	496.75
457.717	492.75
457.937	507.75
458.157	522.75
458.377	519.75
458.598	541.75
458.818	597.75
459.038	688.75
459.258	714.75
459.478	612.75
459.698	577.75
459.918	568.75
460.138	564.75
460.358	592.75
460.578	574.75
460.798	546.75
461.018	579.75
461.238	564.75
461.458	590.75
461.678	578.75
461.898	558.75
462.118	568.75
462.338	591.75
462.558	604.75
462.777	621.75
462.997	636.75
463.217	642.75
463.437	645.75
463.657	611.75
463.876	616.75
464.096	614.75
464.316	602.75
464.536	632.75
464.755	621.75
464.975	621.75
465.195	637.75
465.414	703.75
465.634	639.75
465.854	587.75
466.073	604.75
466.293	567.75
466.512	527.75
466.732	553.75
466.951	516.75
467.171	574.75
467.391	539.75
467.61	524.75
467.829	566.75
468.049	557.75
468.268	547.75
468.488	543.75
468.707	535.75
468.927	510.75
469.146	540.75
469.365	515.75
469.585	542.75
469.804	536.75
470.023	543.75
470.243	557.75
470.462	556.75
470.681	567.75
470.901	564.75
471.12	548.75
471.339	528.75
471.558	518.75
471.777	576.75
471.997	554.75
472.216	554.75
472.435	589.75
472.654	566.75
472.873	559.75
473.092	555.75
473.311	533.75
473.53	557.75
473.749	542.75
473.968	571.75
474.187	702.75
474.406	702.75
474.625	594.75
474.844	546.75
475.063	565.75
475.282	555.75
475.501	539.75
475.72	558.75
475.939	559.75
476.158	575.75
476.377	564.75
476.596	564.75
476.814	581.75
477.033	594.75
477.252	579.75
477.471	582.75
477.69	583.75
477.908	600.75
478.127	611.75
478.346	595.75
478.564	614.75
478.783	626.75
479.002	628.75
479.22	627.75
479.439	651.75
479.658	666.75
479.876	687.75
480.095	646.75
480.313	713.75
480.532	679.75
480.751	659.75
480.969	683.75
481.188	736.75
481.406	808.75
481.624	717.75
481.843	671.75
482.061	682.75
482.28	680.75
482.498	650.75
482.717	631.75
482.935	649.75
483.153	635.75
483.372	637.75
483.59	656.75
483.808	659.75
484.027	633.75
484.245	652.75
484.463	635.75
484.681	662.75
484.9	666.75
485.118	662.75
485.336	649.75
485.554	648.75
485.772	657.75
485.99	677.75
486.209	700.75
486.427	683.75
486.645	685.75
486.863	700.75
487.081	716.75
487.299	694.75
487.517	702.75
487.735	699.75
487.953	710.75
488.171	723.75
488.389	694.75
488.607	699.75
488.825	698.75
489.043	695.75
489.261	705.75
489.479	697.75
489.696	720.75
489.914	720.75
490.132	735.75
490.35	718.75
490.568	754.75
490.786	711.75
491.003	751.75
491.221	751.75
491.439	733.75
491.657	763.75
491.874	800.75
492.092	788.75
492.31	799.75
492.527	811.75
492.745	781.75
492.963	809.75
493.18	799.75
493.398	822.75
493.615	834.75
493.833	829.75
494.05	842.75
494.268	829.75
494.485	820.75
494.703	823.75
494.92	848.75
495.138	818.75
495.355	840.75
495.573	828.75
495.79	809.75
496.008	836.75
496.225	829.75
496.442	805.75
496.66	853.75
496.877	836.75
497.094	842.75
497.312	850.75
497.529	855.75
497.746	835.75
497.963	856.75
498.181	892.75
498.398	889.75
498.615	950.75
498.832	962.75
499.049	977.75
499.267	986.75
499.484	1036.75
499.701	1069.75
499.918	1116.75
500.135	1139.75
500.352	1197.75
500.569	1184.75
500.786	1235.75
501.003	1202.75
501.22	1161.75
501.437	1128.75
501.654	1100.75
501.871	1094.75
502.088	1009.75
502.305	991.75
502.522	957.75
502.739	911.75
502.956	897.75
503.172	885.75
503.389	878.75
503.606	893.75
503.823	839.75
504.04	886.75
504.256	859.75
504.473	836.75
504.69	834.75
504.907	869.75
505.123	824.75
505.34	836.75
505.557	846.75
505.773	794.75
505.99	792.75
506.207	788.75
506.423	779.75
506.64	774.75
506.856	788.75
507.073	757.75
507.289	758.75
507.506	771.75
507.722	762.75
507.939	807.75
508.155	758.75
508.372	734.75
508.588	734.75
508.805	729.75
509.021	744.75
509.238	734.75
509.454	748.75
509.67	753.75
509.887	738.75
510.103	740.75
510.319	749.75
510.536	870.75
510.752	1300.75
510.968	1082.75
511.184	749.75
511.401	703.75
511.617	714.75
511.833	717.75
512.049	681.75
512.265	704.75
512.481	706.75
512.698	698.75
512.914	720.75
513.13	685.75
513.346	704.75
513.562	683.75
513.778	694.75
513.994	710.75
514.21	720.75
514.426	748.75
514.642	755.75
514.858	792.75
515.074	815.75
515.29	970.75
515.506	1339.75
515.721	1146.75
515.937	826.75
516.153	773.75
516.369	734.75
516.585	734.75
516.801	714.75
517.016	748.75
517.232	752.75
517.448	726.75
517.664	746.75
517.879	728.75
518.095	749.75
518.311	746.75
518.527	739.75
518.742	715.75
518.958	711.75
519.173	699.75
519.389	694.75
519.605	695.75
519.82	695.75
520.036	699.75
520.251	742.75
520.467	764.75
520.682	756.75
520.898	763.75
521.113	768.75
521.329	810.75
521.544	895.75
521.76	1057.75
521.975	1699.75
522.19	1676.75
522.406	964.75
522.621	768.75
522.836	698.75
523.052	677.75
523.267	679.75
523.482	654.75
523.698	640.75
523.913	631.75
524.128	652.75
524.343	646.75
524.559	625.75
524.774	614.75
524.989	616.75
525.204	615.75
525.419	632.75
525.634	611.75
525.849	627.75
526.064	616.75
526.28	586.75
526.495	564.75
526.71	582.75
526.925	570.75
527.14	572.75
527.355	570.75
527.57	566.75
527.785	570.75
527.999	559.75
528.214	568.75
528.429	568.75
528.644	569.75
528.859	578.75
529.074	582.75
529.289	608.75
529.503	682.75
529.718	668.75
529.933	623.75
530.148	602.75
530.363	581.75
530.577	590.75
530.792	545.75
531.007	558.75
531.221	555.75
531.436	550.75
531.651	560.75
531.865	557.75
532.08	549.75
532.295	559.75
532.509	546.75
532.724	550.75
532.938	548.75
533.153	554.75
533.367	551.75
533.582	568.75
533.796	557.75
534.011	543.75
534.225	554.75
534.44	542.75
534.654	567.75
534.868	534.75
535.083	545.75
535.297	529.75
535.511	575.75
535.726	560.75
535.94	549.75
536.154	551.75
536.369	553.75
536.583	533.75
536.797	553.75
537.011	550.75
537.225	516.75
537.44	519.75
537.654	536.75
537.868	525.75
538.082	515.75
538.296	536.75
538.51	523.75
538.724	533.75
538.938	524.75
539.153	542.75
539.367	558.75
539.581	553.75
539.795	529.75
540.009	548.75
540.222	524.75
540.436	527.75
540.65	534.75
540.864	541.75
541.078	507.75
541.292	553.75
541.506	551.75
541.72	532.75
541.934	531.75
542.147	513.75
542.361	508.75
542.575	524.75
542.789	523.75
543.002	533.75
543.216	517.75
543.43	541.75
543.644	528.75
543.857	524.75
544.071	526.75
544.285	535.75
544.498	538.75
544.712	528.75
544.925	518.75
545.139	515.75
545.352	496.75
545.566	510.75
545.779	503.75
545.993	512.75
546.206	515.75
546.42	520.75
546.633	499.75
546.847	514.75
547.06	491.75
547.274	501.75
547.487	514.75
547.7	521.75
547.914	507.75
548.127	513.75
548.34	513.75
548.554	492.75
548.767	511.75
548.98	505.75
549.193	504.75
549.407	507.75
549.62	524.75
549.833	533.75
550.046	518.75
550.259	516.75
550.473	490.75
550.686	473.75
550.899	472.75
551.112	505.75
551.325	481.75
551.538	526.75
551.751	511.75
551.964	508.75
552.177	495.75
552.39	492.75
552.603	526.75
552.816	533.75
553.029	527.75
553.242	503.75
553.455	506.75
553.667	542.75
553.88	532.75
554.093	526.75
554.306	533.75
554.519	524.75
554.732	504.75
554.944	498.75
555.157	504.75
555.37	484.75
555.583	476.75
555.795	469.75
556.008	485.75
556.221	434.75
556.433	469.75
556.646	465.75
556.859	462.75
557.071	465.75
557.284	465.75
557.496	452.75
557.709	454.75
557.921	458.75
558.134	459.75
558.346	445.75
558.559	451.75
558.771	447.75
558.984	438.75
559.196	448.75
559.409	432.75
559.621	456.75
559.833	455.75
560.046	452.75
560.258	433.75
560.47	442.75
560.683	469.75
560.895	443.75
561.107	456.75
561.32	450.75
561.532	451.75
561.744	445.75
561.956	451.75
562.168	441.75
562.381	458.75
562.593	477.75
562.805	459.75
563.017	458.75
563.229	446.75
563.441	450.75
563.653	464.75
563.865	449.75
564.077	454.75
564.289	469.75
564.501	487.75
564.713	462.75
564.925	480.75
565.137	473.75
565.349	505.75
565.561	496.75
565.773	491.75
565.985	514.75
566.197	518.75
566.408	542.75
566.62	540.75
566.832	559.75
567.044	572.75
567.255	562.75
567.467	566.75
567.679	578.75
567.891	588.75
568.102	598.75
568.314	571.75
568.526	554.75
568.737	546.75
568.949	522.75
569.161	506.75
569.372	483.75
569.584	490.75
569.795	463.75
570.007	482.75
570.218	490.75
570.43	464.75
570.641	459.75
570.853	449.75
571.064	422.75
571.276	445.75
571.487	443.75
571.698	432.75
571.91	422.75
572.121	421.75
572.333	409.75
572.544	412.75
572.755	403.75
572.966	404.75
573.178	408.75
573.389	393.75
573.6	422.75
573.811	393.75
574.023	386.75
574.234	412.75
574.445	406.75
574.656	395.75
574.867	390.75
575.078	399.75
575.289	393.75
575.501	374.75
575.712	386.75
575.923	401.75
576.134	375.75
576.345	379.75
576.556	379.75
576.767	387.75
576.978	382.75
577.188	384.75
577.399	387.75
577.61	370.75
577.821	358.75
578.032	386.75
578.243	412.75
578.454	604.75
578.665	474.75
578.875	391.75
579.086	350.75
579.297	366.75
579.508	358.75
579.718	364.75
579.929	373.75
580.14	360.75
580.35	346.75
580.561	375.75
580.772	374.75
580.982	346.75
581.193	336.75
581.403	350.75
581.614	368.75
581.825	352.75
582.035	363.75
582.246	358.75
582.456	341.75
582.667	332.75
582.877	350.75
583.087	358.75
583.298	355.75
583.508	359.75
583.719	345.75
583.929	350.75
584.139	346.75
584.35	362.75
584.56	349.75
584.77	361.75
584.981	347.75
585.191	361.75
585.401	357.75
585.611	341.75
585.821	346.75
586.032	361.75
586.242	334.75
586.452	336.75
586.662	336.75
586.872	339.75
587.082	351.75
587.292	327.75
587.502	340.75
587.713	330.75
587.923	335.75
588.133	351.75
588.343	348.75
588.553	326.75
588.762	330.75
588.972	326.75
589.182	358.75
589.392	346.75
589.602	331.75
589.812	335.75
590.022	341.75
590.232	356.75
590.441	341.75
590.651	343.75
590.861	319.75
591.071	347.75
591.281	354.75
591.49	344.75
591.7	349.75
591.91	356.75
592.119	344.75
592.329	354.75
592.539	347.75
592.748	373.75
592.958	358.75
593.167	372.75
593.377	356.75
593.587	374.75
593.796	378.75
594.006	354.75
594.215	359.75
594.424	370.75
594.634	370.75
594.843	356.75
595.053	361.75
595.262	339.75
595.472	341.75
595.681	339.75
595.89	334.75
596.1	335.75
596.309	340.75
596.518	348.75
596.727	326.75
596.937	304.75
597.146	329.75
597.355	314.75
597.564	322.75
597.774	307.75
597.983	320.75
598.192	323.75
598.401	322.75
598.61	292.75
598.819	291.75
599.028	298.75
599.237	307.75
599.446	309.75
599.655	299.75
599.864	311.75
600.073	309.75
600.282	320.75
600.491	296.75
600.7	289.75
600.909	296.75
601.118	285.75
601.327	291.75
601.536	308.75
601.745	309.75
601.953	298.75
602.162	286.75
602.371	298.75
602.58	284.75
602.789	267.75
602.997	294.75
603.206	294.75
603.415	295.75
603.623	294.75
603.832	307.75
604.041	284.75
604.249	273.75
604.458	283.75
604.666	283.75
604.875	265.75
605.084	299.75
605.292	271.75
605.501	265.75
605.709	270.75
605.918	287.75
606.126	290.75
606.334	288.75
606.543	266.75
606.751	280.75
606.96	292.75
607.168	271.75
607.376	287.75
607.585	282.75
607.793	283.75
608.001	271.75
608.21	279.75
608.418	264.75
608.626	271.75
608.834	263.75
609.043	294.75
609.251	278.75
609.459	267.75
609.667	272.75
609.875	270.75
610.083	277.75
610.291	285.75
610.499	273.75
610.707	276.75
610.916	279.75
611.124	280.75
611.332	252.75
611.54	276.75
611.748	275.75
611.955	284.75
612.163	277.75
612.371	273.75
612.579	285.75
612.787	269.75
612.995	271.75
613.203	278.75
613.411	261.75
613.618	253.75
613.826	282.75
614.034	264.75
614.242	267.75
614.449	282.75
614.657	264.75
614.865	253.75
615.072	270.75
615.28	288.75
615.488	261.75
615.695	273.75
615.903	264.75
616.111	276.75
616.318	271.75
616.526	270.75
616.733	276.75
616.941	270.75
617.148	264.75
617.356	265.75
617.563	252.75
617.771	269.75
617.978	240.75
618.185	264.75
618.393	259.75
618.6	263.75
618.807	279.75
619.015	278.75
619.222	259.75
619.429	244.75
619.637	264.75
619.844	248.75
620.051	237.75
620.258	258.75
620.466	263.75
620.673	256.75
620.88	250.75
621.087	253.75
621.294	252.75
621.501	254.75
621.708	252.75
621.915	257.75
622.122	246.75
622.329	256.75
622.536	244.75
622.743	243.75
622.95	232.75
623.157	229.75
623.364	251.75
623.571	238.75
623.778	251.75
623.985	236.75
624.192	240.75
624.399	232.75
624.606	238.75
624.812	232.75
625.019	249.75
625.226	253.75
625.433	260.75
625.639	246.75
625.846	229.75
626.053	231.75
626.259	223.75
626.466	230.75
626.673	231.75
626.879	232.75
627.086	225.75
627.293	246.75
627.499	226.75
627.706	244.75
627.912	232.75
628.119	232.75
628.325	222.75
628.532	221.75
628.738	231.75
628.945	219.75
629.151	207.75
629.357	213.75
629.564	234.75
629.77	238.75
629.976	226.75
630.183	219.75
630.389	224.75
630.595	232.75
630.802	212.75
631.008	211.75
631.214	219.75
631.42	216.75
631.627	215.75
631.833	220.75
632.039	213.75
632.245	226.75
632.451	218.75
632.657	204.75
632.863	219.75
633.069	224.75
633.275	211.75
633.481	205.75
633.688	220.75
633.893	212.75
634.099	213.75
634.305	207.75
634.511	207.75
634.717	205.75
634.923	204.75
635.129	206.75
635.335	212.75
635.541	196.75
635.747	210.75
635.952	209.75
636.158	210.75
636.364	211.75
636.57	204.75
636.775	203.75
636.981	204.75
637.187	190.75
637.392	211.75
637.598	210.75
637.804	199.75
638.009	184.75
638.215	200.75
638.421	200.75
638.626	207.75
638.832	198.75
639.037	180.75
639.243	202.75
639.448	195.75
639.654	190.75
639.859	195.75
640.065	186.75
640.27	189.75
640.475	195.75
640.681	198.75
640.886	208.75
641.091	198.75
641.297	197.75
641.502	201.75
641.707	162.75
641.913	207.75
642.118	191.75
642.323	197.75
642.528	187.75
642.733	197.75
642.939	202.75
643.144	200.75
643.349	187.75
643.554	189.75
643.759	182.75
643.964	183.75
644.169	185.75
644.374	180.75
644.579	183.75
644.784	169.75
644.989	185.75
645.194	188.75
645.399	195.75
645.604	184.75
645.809	183.75
646.014	195.75
646.219	176.75
646.423	173.75
646.628	186.75
646.833	184.75
647.038	195.75
647.243	178.75
647.447	200.75
647.652	178.75
647.857	180.75
648.062	170.75
648.266	196.75
648.471	201.75
648.676	197.75
648.88	191.75
649.085	178.75
649.289	173.75
649.494	187.75
649.698	217.75
649.903	193.75
650.107	191.75
650.312	170.75
650.516	187.75
650.721	172.75
650.925	163.75
651.13	170.75
651.334	173.75
651.539	163.75
651.743	160.75
651.947	158.75
652.152	162.75
652.356	155.75
652.56	148.75
652.764	145.75
652.969	168.75
653.173	147.75
653.377	154.75
653.581	155.75
653.785	168.75
653.99	163.75
654.194	146.75
654.398	138.75
654.602	141.75
654.806	140.75
655.01	163.75
655.214	157.75
655.418	164.75
655.622	148.75
655.826	149.75
656.03	152.75
656.234	151.75
656.438	142.75
656.642	162.75
656.846	149.75
657.049	152.75
657.253	140.75
657.457	126.75
657.661	128.75
657.865	127.75
658.068	122.75
658.272	122.75
658.476	107.75
658.68	114.75
658.883	106.75
659.087	114.75
659.291	98.75
659.494	102.75
659.698	107.75
659.901	89.75
660.105	90.75
660.309	96.75
660.512	93.75
660.716	102.75
660.919	100.75
661.123	102.75
661.326	102.75
661.53	94.75
661.733	91.75
661.936	95.75
662.14	97.75
662.343	87.75
662.546	90.75
662.75	94.75
662.953	106.75
663.156	89.75
663.36	93.75
663.563	107.75
663.766	93.75
663.969	82.75
664.173	77.75
664.376	90.75
664.579	87.75
664.782	84.75
664.985	78.75
665.188	75.75
665.391	89.75
665.594	81.75
665.797	85.75
666	69.75
666.203	63.75
666.406	80.75
666.609	86.75
666.812	87.75
667.015	90.75
667.218	78.75
667.421	87.75
667.624	79.75
667.827	80.75
668.03	87.75
668.232	88.75
668.435	75.75
668.638	78.75
668.841	81.75
669.043	87.75
669.246	89.75
669.449	86.75
669.651	93.75
669.854	86.75
670.057	85.75
670.259	75.75
670.462	86.75
670.665	72.75
670.867	88.75
671.07	80.75
671.272	96.75
671.475	78.75
671.677	104.75
671.88	90.75
672.082	92.75
672.284	82.75
672.487	93.75
672.689	86.75
672.892	90.75
