Data from 1966.PennyLincolnUp.Lamp.En5.5.200Scan.071719.P1.Scan2.head_HRD10591_14-17-07-084.txt Node
Date: Thu Jul 18 14:17:07 EDT 2019
User: cochatt
Spectrometer: HR+D1059
Trigger mode: 1
Integration Time (sec): 1.000000E-1
Scans to average: 1
Electric dark correction enabled: true
Nonlinearity correction enabled: false
Boxcar width: 0
XAxis mode: Wavelengths
Number of Pixels in Spectrum: 2048
>>>>>Begin Spectral Data<<<<<
223.165	-5.94
223.4	-5.94
223.635	-5.94
223.869	-5.94
224.104	-22.94
224.338	-2.94
224.573	-22.94
224.808	-0.94
225.042	-12.94
225.277	-11.94
225.511	-3.94
225.746	-4.94
225.98	-0.94
226.215	1.06
226.449	20.06
226.683	24.06
226.918	18.06
227.152	33.06
227.387	25.06
227.621	29.06
227.856	41.06
228.09	47.06
228.324	32.06
228.559	51.06
228.793	64.06
229.027	77.06
229.262	96.06
229.496	108.06
229.73	109.06
229.964	149.06
230.199	132.06
230.433	105.06
230.667	108.06
230.901	100.06
231.136	100.06
231.37	116.06
231.604	124.06
231.838	122.06
232.072	106.06
232.306	124.06
232.541	122.06
232.775	104.06
233.009	105.06
233.243	117.06
233.477	117.06
233.711	108.06
233.945	116.06
234.179	114.06
234.413	105.06
234.647	118.06
234.881	117.06
235.115	112.06
235.349	112.06
235.583	118.06
235.817	113.06
236.051	120.06
236.285	122.06
236.519	120.06
236.753	107.06
236.987	122.06
237.221	147.06
237.455	211.06
237.689	169.06
237.922	131.06
238.156	124.06
238.39	124.06
238.624	100.06
238.858	121.06
239.091	122.06
239.325	120.06
239.559	122.06
239.793	108.06
240.027	121.06
240.26	139.06
240.494	128.06
240.728	121.06
240.961	143.06
241.195	142.06
241.429	139.06
241.662	123.06
241.896	128.06
242.13	139.06
242.363	127.06
242.597	140.06
242.83	141.06
243.064	143.06
243.298	125.06
243.531	151.06
243.765	150.06
243.998	145.06
244.232	131.06
244.465	141.06
244.699	137.06
244.932	141.06
245.166	149.06
245.399	135.06
245.633	133.06
245.866	132.06
246.099	122.06
246.333	167.06
246.566	128.06
246.8	154.06
247.033	143.06
247.266	144.06
247.5	159.06
247.733	170.06
247.966	159.06
248.2	169.06
248.433	156.06
248.666	165.06
248.899	175.06
249.133	182.06
249.366	185.06
249.599	196.06
249.832	169.06
250.066	164.06
250.299	195.06
250.532	181.06
250.765	190.06
250.998	210.06
251.231	226.06
251.465	220.06
251.698	213.06
251.931	188.06
252.164	181.06
252.397	187.06
252.63	202.06
252.863	200.06
253.096	220.06
253.329	200.06
253.562	209.06
253.795	213.06
254.028	218.06
254.261	204.06
254.494	216.06
254.727	223.06
254.96	267.06
255.193	254.06
255.426	214.06
255.659	209.06
255.892	240.06
256.124	211.06
256.357	215.06
256.59	205.06
256.823	217.06
257.056	200.06
257.289	206.06
257.521	191.06
257.754	196.06
257.987	193.06
258.22	204.06
258.452	205.06
258.685	205.06
258.918	188.06
259.151	202.06
259.383	195.06
259.616	231.06
259.849	216.06
260.081	220.06
260.314	248.06
260.547	249.06
260.779	243.06
261.012	216.06
261.244	221.06
261.477	215.06
261.71	213.06
261.942	212.06
262.175	218.06
262.407	210.06
262.64	203.06
262.872	205.06
263.105	214.06
263.337	215.06
263.57	215.06
263.802	199.06
264.035	206.06
264.267	206.06
264.499	212.06
264.732	199.06
264.964	210.06
265.197	214.06
265.429	197.06
265.661	192.06
265.894	205.06
266.126	212.06
266.358	197.06
266.591	211.06
266.823	219.06
267.055	215.06
267.287	227.06
267.52	219.06
267.752	216.06
267.984	218.06
268.216	219.06
268.448	221.06
268.681	232.06
268.913	232.06
269.145	248.06
269.377	263.06
269.609	253.06
269.841	253.06
270.073	263.06
270.306	269.06
270.538	292.06
270.77	314.06
271.002	284.06
271.234	266.06
271.466	278.06
271.698	288.06
271.93	292.06
272.162	292.06
272.394	275.06
272.626	285.06
272.858	266.06
273.09	272.06
273.322	269.06
273.553	256.06
273.785	229.06
274.017	250.06
274.249	264.06
274.481	246.06
274.713	249.06
274.945	250.06
275.176	268.06
275.408	253.06
275.64	242.06
275.872	254.06
276.104	250.06
276.335	256.06
276.567	265.06
276.799	261.06
277.031	295.06
277.262	304.06
277.494	295.06
277.726	273.06
277.957	274.06
278.189	272.06
278.421	270.06
278.652	264.06
278.884	267.06
279.115	261.06
279.347	263.06
279.579	268.06
279.81	259.06
280.042	265.06
280.273	267.06
280.505	239.06
280.736	277.06
280.968	255.06
281.199	249.06
281.431	263.06
281.662	245.06
281.894	270.06
282.125	268.06
282.356	285.06
282.588	285.06
282.819	282.06
283.051	275.06
283.282	240.06
283.513	259.06
283.745	274.06
283.976	257.06
284.207	279.06
284.439	267.06
284.67	288.06
284.901	276.06
285.132	277.06
285.364	265.06
285.595	276.06
285.826	281.06
286.057	286.06
286.288	279.06
286.52	286.06
286.751	290.06
286.982	260.06
287.213	284.06
287.444	287.06
287.675	278.06
287.906	291.06
288.138	291.06
288.369	267.06
288.6	285.06
288.831	308.06
289.062	295.06
289.293	284.06
289.524	305.06
289.755	280.06
289.986	282.06
290.217	284.06
290.448	287.06
290.679	266.06
290.91	276.06
291.141	267.06
291.371	268.06
291.602	282.06
291.833	283.06
292.064	299.06
292.295	270.06
292.526	288.06
292.757	301.06
292.987	279.06
293.218	272.06
293.449	292.06
293.68	283.06
293.91	277.06
294.141	290.06
294.372	288.06
294.603	294.06
294.833	290.06
295.064	263.06
295.295	273.06
295.525	280.06
295.756	300.06
295.987	304.06
296.217	315.06
296.448	317.06
296.679	297.06
296.909	281.06
297.14	293.06
297.37	281.06
297.601	311.06
297.831	295.06
298.062	293.06
298.292	310.06
298.523	295.06
298.753	305.06
298.984	321.06
299.214	307.06
299.445	301.06
299.675	284.06
299.905	291.06
300.136	301.06
300.366	304.06
300.597	299.06
300.827	315.06
301.057	329.06
301.288	327.06
301.518	304.06
301.748	322.06
301.979	318.06
302.209	331.06
302.439	309.06
302.669	331.06
302.9	317.06
303.13	312.06
303.36	321.06
303.59	330.06
303.82	324.06
304.051	309.06
304.281	315.06
304.511	317.06
304.741	318.06
304.971	312.06
305.201	299.06
305.431	324.06
305.661	320.06
305.891	315.06
306.121	318.06
306.352	314.06
306.582	316.06
306.812	337.06
307.042	320.06
307.272	313.06
307.502	335.06
307.731	322.06
307.961	316.06
308.191	322.06
308.421	330.06
308.651	308.06
308.881	324.06
309.111	335.06
309.341	341.06
309.571	336.06
309.8	339.06
310.03	355.06
310.26	373.06
310.49	364.06
310.72	372.06
310.949	378.06
311.179	378.06
311.409	359.06
311.639	349.06
311.868	356.06
312.098	359.06
312.328	371.06
312.557	377.06
312.787	403.06
313.017	377.06
313.246	375.06
313.476	364.06
313.706	370.06
313.935	369.06
314.165	371.06
314.394	405.06
314.624	373.06
314.853	367.06
315.083	377.06
315.312	373.06
315.542	375.06
315.771	377.06
316.001	365.06
316.23	367.06
316.46	367.06
316.689	390.06
316.919	357.06
317.148	389.06
317.377	371.06
317.607	366.06
317.836	376.06
318.065	373.06
318.295	363.06
318.524	359.06
318.753	367.06
318.983	384.06
319.212	375.06
319.441	407.06
319.67	392.06
319.9	380.06
320.129	367.06
320.358	382.06
320.587	364.06
320.816	386.06
321.046	392.06
321.275	392.06
321.504	378.06
321.733	385.06
321.962	405.06
322.191	389.06
322.42	386.06
322.649	399.06
322.878	411.06
323.108	409.06
323.337	453.06
323.566	449.06
323.795	475.06
324.024	492.06
324.253	588.06
324.482	844.06
324.71	1315.06
324.939	1895.06
325.168	1660.06
325.397	841.06
325.626	575.06
325.855	515.06
326.084	460.06
326.313	473.06
326.542	473.06
326.77	479.06
326.999	551.06
327.228	777.06
327.457	1167.06
327.686	1459.06
327.914	966.06
328.143	630.06
328.372	563.06
328.6	552.06
328.829	517.06
329.058	548.06
329.287	515.06
329.515	514.06
329.744	467.06
329.972	469.06
330.201	510.06
330.43	523.06
330.658	555.06
330.887	583.06
331.115	541.06
331.344	490.06
331.572	460.06
331.801	464.06
332.03	463.06
332.258	461.06
332.486	464.06
332.715	453.06
332.943	421.06
333.172	447.06
333.4	428.06
333.629	463.06
333.857	468.06
334.085	489.06
334.314	482.06
334.542	524.06
334.771	521.06
334.999	482.06
335.227	499.06
335.455	488.06
335.684	451.06
335.912	453.06
336.14	468.06
336.369	443.06
336.597	462.06
336.825	463.06
337.053	441.06
337.281	440.06
337.51	421.06
337.738	440.06
337.966	439.06
338.194	410.06
338.422	445.06
338.65	443.06
338.878	429.06
339.106	428.06
339.334	426.06
339.562	439.06
339.79	420.06
340.018	431.06
340.246	421.06
340.474	422.06
340.702	450.06
340.93	445.06
341.158	428.06
341.386	421.06
341.614	428.06
341.842	411.06
342.07	427.06
342.298	428.06
342.526	419.06
342.754	405.06
342.981	405.06
343.209	410.06
343.437	447.06
343.665	426.06
343.893	439.06
344.12	432.06
344.348	451.06
344.576	442.06
344.804	457.06
345.031	427.06
345.259	441.06
345.487	431.06
345.714	415.06
345.942	440.06
346.17	389.06
346.397	427.06
346.625	435.06
346.853	417.06
347.08	412.06
347.308	428.06
347.535	428.06
347.763	418.06
347.99	424.06
348.218	437.06
348.445	431.06
348.673	419.06
348.9	424.06
349.128	415.06
349.355	413.06
349.583	404.06
349.81	405.06
350.037	413.06
350.265	404.06
350.492	417.06
350.72	400.06
350.947	417.06
351.174	429.06
351.402	419.06
351.629	425.06
351.856	416.06
352.083	434.06
352.311	443.06
352.538	440.06
352.765	419.06
352.992	428.06
353.22	425.06
353.447	392.06
353.674	401.06
353.901	377.06
354.128	387.06
354.355	395.06
354.583	381.06
354.81	393.06
355.037	389.06
355.264	392.06
355.491	389.06
355.718	382.06
355.945	390.06
356.172	406.06
356.399	385.06
356.626	379.06
356.853	378.06
357.08	387.06
357.307	413.06
357.534	386.06
357.761	404.06
357.988	401.06
358.215	409.06
358.441	408.06
358.668	396.06
358.895	410.06
359.122	405.06
359.349	408.06
359.576	403.06
359.802	413.06
360.029	451.06
360.256	461.06
360.483	461.06
360.709	412.06
360.936	408.06
361.163	422.06
361.39	424.06
361.616	429.06
361.843	422.06
362.07	416.06
362.296	428.06
362.523	407.06
362.749	434.06
362.976	419.06
363.203	415.06
363.429	415.06
363.656	431.06
363.882	409.06
364.109	413.06
364.335	389.06
364.562	410.06
364.788	413.06
365.015	412.06
365.241	396.06
365.468	412.06
365.694	403.06
365.92	427.06
366.147	409.06
366.373	395.06
366.599	415.06
366.826	423.06
367.052	398.06
367.278	404.06
367.505	403.06
367.731	404.06
367.957	422.06
368.184	399.06
368.41	405.06
368.636	439.06
368.862	441.06
369.089	446.06
369.315	426.06
369.541	401.06
369.767	421.06
369.993	409.06
370.219	393.06
370.445	427.06
370.672	401.06
370.898	418.06
371.124	420.06
371.35	424.06
371.576	417.06
371.802	401.06
372.028	422.06
372.254	417.06
372.48	418.06
372.706	417.06
372.932	428.06
373.158	426.06
373.384	436.06
373.61	406.06
373.835	436.06
374.061	418.06
374.287	433.06
374.513	437.06
374.739	441.06
374.965	429.06
375.191	422.06
375.416	427.06
375.642	423.06
375.868	419.06
376.094	434.06
376.319	420.06
376.545	432.06
376.771	425.06
376.997	419.06
377.222	432.06
377.448	406.06
377.674	411.06
377.899	411.06
378.125	416.06
378.35	431.06
378.576	407.06
378.802	410.06
379.027	416.06
379.253	433.06
379.478	410.06
379.704	422.06
379.929	449.06
380.155	426.06
380.38	439.06
380.606	420.06
380.831	426.06
381.057	451.06
381.282	436.06
381.507	427.06
381.733	436.06
381.958	425.06
382.184	423.06
382.409	445.06
382.634	426.06
382.86	427.06
383.085	441.06
383.31	429.06
383.535	444.06
383.761	446.06
383.986	457.06
384.211	470.06
384.436	456.06
384.662	472.06
384.887	459.06
385.112	451.06
385.337	453.06
385.562	474.06
385.787	461.06
386.013	465.06
386.238	461.06
386.463	483.06
386.688	468.06
386.913	490.06
387.138	480.06
387.363	456.06
387.588	467.06
387.813	460.06
388.038	475.06
388.263	464.06
388.488	471.06
388.713	474.06
388.938	481.06
389.163	484.06
389.387	469.06
389.612	480.06
389.837	487.06
390.062	447.06
390.287	472.06
390.512	481.06
390.736	463.06
390.961	466.06
391.186	481.06
391.411	488.06
391.636	467.06
391.86	488.06
392.085	475.06
392.31	522.06
392.534	470.06
392.759	496.06
392.984	475.06
393.208	481.06
393.433	498.06
393.658	500.06
393.882	502.06
394.107	460.06
394.331	467.06
394.556	479.06
394.78	483.06
395.005	468.06
395.229	532.06
395.454	504.06
395.678	491.06
395.903	492.06
396.127	522.06
396.352	506.06
396.576	480.06
396.801	495.06
397.025	514.06
397.249	506.06
397.474	519.06
397.698	502.06
397.922	528.06
398.147	521.06
398.371	554.06
398.595	531.06
398.82	545.06
399.044	525.06
399.268	578.06
399.492	600.06
399.717	659.06
399.941	663.06
400.165	669.06
400.389	680.06
400.613	641.06
400.837	595.06
401.062	566.06
401.286	556.06
401.51	544.06
401.734	554.06
401.958	551.06
402.182	576.06
402.406	577.06
402.63	565.06
402.854	569.06
403.078	553.06
403.302	544.06
403.526	570.06
403.75	587.06
403.974	562.06
404.198	550.06
404.422	573.06
404.645	590.06
404.869	583.06
405.093	614.06
405.317	669.06
405.541	694.06
405.765	625.06
405.988	603.06
406.212	607.06
406.436	639.06
406.66	631.06
406.883	637.06
407.107	646.06
407.331	683.06
407.555	746.06
407.778	748.06
408.002	652.06
408.226	644.06
408.449	631.06
408.673	619.06
408.896	657.06
409.12	677.06
409.344	664.06
409.567	590.06
409.791	604.06
410.014	592.06
410.238	577.06
410.461	581.06
410.685	584.06
410.908	589.06
411.132	640.06
411.355	655.06
411.578	643.06
411.802	592.06
412.025	567.06
412.249	567.06
412.472	612.06
412.695	649.06
412.919	642.06
413.142	555.06
413.365	585.06
413.589	555.06
413.812	557.06
414.035	567.06
414.258	561.06
414.482	538.06
414.705	539.06
414.928	565.06
415.151	546.06
415.374	555.06
415.597	533.06
415.821	536.06
416.044	524.06
416.267	556.06
416.49	546.06
416.713	537.06
416.936	565.06
417.159	530.06
417.382	556.06
417.605	555.06
417.828	553.06
418.051	554.06
418.274	552.06
418.497	541.06
418.72	553.06
418.943	536.06
419.166	553.06
419.389	592.06
419.611	579.06
419.834	593.06
420.057	556.06
420.28	595.06
420.503	566.06
420.726	557.06
420.948	588.06
421.171	631.06
421.394	647.06
421.617	579.06
421.839	562.06
422.062	562.06
422.285	563.06
422.507	664.06
422.73	723.06
422.953	680.06
423.175	613.06
423.398	580.06
423.621	584.06
423.843	609.06
424.066	619.06
424.288	609.06
424.511	605.06
424.733	684.06
424.956	763.06
425.178	724.06
425.401	719.06
425.623	747.06
425.846	641.06
426.068	590.06
426.291	589.06
426.513	575.06
426.735	585.06
426.958	624.06
427.18	707.06
427.402	867.06
427.625	953.06
427.847	825.06
428.069	720.06
428.292	640.06
428.514	584.06
428.736	582.06
428.958	588.06
429.181	550.06
429.403	561.06
429.625	563.06
429.847	586.06
430.069	667.06
430.292	641.06
430.514	562.06
430.736	584.06
430.958	536.06
431.18	552.06
431.402	545.06
431.624	521.06
431.846	531.06
432.068	502.06
432.29	536.06
432.512	547.06
432.734	541.06
432.956	526.06
433.178	533.06
433.4	563.06
433.622	532.06
433.844	564.06
434.066	538.06
434.287	523.06
434.509	543.06
434.731	553.06
434.953	564.06
435.175	556.06
435.397	569.06
435.618	609.06
435.84	638.06
436.062	723.06
436.284	775.06
436.505	654.06
436.727	628.06
436.949	565.06
437.17	558.06
437.392	555.06
437.614	534.06
437.835	588.06
438.057	672.06
438.278	819.06
438.5	794.06
438.721	876.06
438.943	832.06
439.165	665.06
439.386	623.06
439.608	627.06
439.829	614.06
440.05	641.06
440.272	678.06
440.493	621.06
440.715	596.06
440.936	578.06
441.158	555.06
441.379	564.06
441.6	594.06
441.822	596.06
442.043	626.06
442.264	718.06
442.486	757.06
442.707	659.06
442.928	606.06
443.149	616.06
443.371	636.06
443.592	677.06
443.813	771.06
444.034	841.06
444.255	693.06
444.476	641.06
444.698	611.06
444.919	619.06
445.14	709.06
445.361	648.06
445.582	643.06
445.803	709.06
446.024	802.06
446.245	791.06
446.466	739.06
446.687	657.06
446.908	603.06
447.129	575.06
447.35	563.06
447.571	563.06
447.792	560.06
448.013	559.06
448.234	589.06
448.455	604.06
448.675	725.06
448.896	890.06
449.117	727.06
449.338	676.06
449.559	822.06
449.779	890.06
450	730.06
450.221	601.06
450.442	567.06
450.662	533.06
450.883	559.06
451.104	553.06
451.324	523.06
451.545	522.06
451.766	507.06
451.986	506.06
452.207	487.06
452.428	479.06
452.648	492.06
452.869	496.06
453.089	497.06
453.31	503.06
453.53	509.06
453.751	470.06
453.971	511.06
454.192	518.06
454.412	498.06
454.633	476.06
454.853	502.06
455.073	515.06
455.294	526.06
455.514	586.06
455.734	544.06
455.955	489.06
456.175	479.06
456.395	464.06
456.616	458.06
456.836	487.06
457.056	491.06
457.276	476.06
457.497	480.06
457.717	472.06
457.937	476.06
458.157	501.06
458.377	505.06
458.598	510.06
458.818	563.06
459.038	629.06
459.258	647.06
459.478	575.06
459.698	559.06
459.918	570.06
460.138	546.06
460.358	534.06
460.578	551.06
460.798	569.06
461.018	567.06
461.238	547.06
461.458	542.06
461.678	539.06
461.898	570.06
462.118	524.06
462.338	551.06
462.558	574.06
462.777	598.06
462.997	598.06
463.217	616.06
463.437	633.06
463.657	599.06
463.876	591.06
464.096	605.06
464.316	560.06
464.536	591.06
464.755	589.06
464.975	599.06
465.195	604.06
465.414	650.06
465.634	625.06
465.854	571.06
466.073	544.06
466.293	529.06
466.512	519.06
466.732	533.06
466.951	514.06
467.171	497.06
467.391	519.06
467.61	511.06
467.829	538.06
468.049	531.06
468.268	516.06
468.488	526.06
468.707	501.06
468.927	511.06
469.146	495.06
469.365	522.06
469.585	516.06
469.804	492.06
470.023	523.06
470.243	531.06
470.462	530.06
470.681	525.06
470.901	529.06
471.12	511.06
471.339	528.06
471.558	535.06
471.777	524.06
471.997	514.06
472.216	525.06
472.435	541.06
472.654	556.06
472.873	499.06
473.092	509.06
473.311	515.06
473.53	523.06
473.749	545.06
473.968	567.06
474.187	659.06
474.406	681.06
474.625	576.06
474.844	521.06
475.063	530.06
475.282	523.06
475.501	529.06
475.72	513.06
475.939	525.06
476.158	539.06
476.377	529.06
476.596	541.06
476.814	578.06
477.033	563.06
477.252	585.06
477.471	580.06
477.69	539.06
477.908	567.06
478.127	583.06
478.346	556.06
478.564	572.06
478.783	596.06
479.002	636.06
479.22	592.06
479.439	614.06
479.658	628.06
479.876	628.06
480.095	635.06
480.313	656.06
480.532	661.06
480.751	618.06
480.969	657.06
481.188	684.06
481.406	695.06
481.624	661.06
481.843	638.06
482.061	641.06
482.28	608.06
482.498	623.06
482.717	627.06
482.935	582.06
483.153	603.06
483.372	630.06
483.59	612.06
483.808	620.06
484.027	631.06
484.245	627.06
484.463	626.06
484.681	602.06
484.9	627.06
485.118	607.06
485.336	618.06
485.554	645.06
485.772	632.06
485.99	635.06
486.209	633.06
486.427	637.06
486.645	658.06
486.863	663.06
487.081	674.06
487.299	658.06
487.517	670.06
487.735	669.06
487.953	644.06
488.171	680.06
488.389	652.06
488.607	641.06
488.825	664.06
489.043	665.06
489.261	677.06
489.479	664.06
489.696	659.06
489.914	688.06
490.132	661.06
490.35	663.06
490.568	673.06
490.786	690.06
491.003	680.06
491.221	718.06
491.439	735.06
491.657	706.06
491.874	727.06
492.092	745.06
492.31	740.06
492.527	751.06
492.745	744.06
492.963	745.06
493.18	765.06
493.398	745.06
493.615	785.06
493.833	774.06
494.05	758.06
494.268	761.06
494.485	741.06
494.703	749.06
494.92	768.06
495.138	787.06
495.355	765.06
495.573	765.06
495.79	749.06
496.008	779.06
496.225	776.06
496.442	802.06
496.66	800.06
496.877	754.06
497.094	796.06
497.312	783.06
497.529	836.06
497.746	833.06
497.963	791.06
498.181	843.06
498.398	854.06
498.615	869.06
498.832	899.06
499.049	901.06
499.267	983.06
499.484	971.06
499.701	999.06
499.918	1048.06
500.135	1107.06
500.352	1149.06
500.569	1185.06
500.786	1157.06
501.003	1147.06
501.22	1096.06
501.437	1053.06
501.654	1057.06
501.871	1024.06
502.088	988.06
502.305	945.06
502.522	907.06
502.739	887.06
502.956	863.06
503.172	840.06
503.389	852.06
503.606	796.06
503.823	849.06
504.04	808.06
504.256	823.06
504.473	784.06
504.69	799.06
504.907	790.06
505.123	779.06
505.34	791.06
505.557	745.06
505.773	743.06
505.99	739.06
506.207	741.06
506.423	720.06
506.64	731.06
506.856	721.06
507.073	716.06
507.289	736.06
507.506	736.06
507.722	712.06
507.939	696.06
508.155	713.06
508.372	710.06
508.588	697.06
508.805	691.06
509.021	696.06
509.238	719.06
509.454	698.06
509.67	698.06
509.887	715.06
510.103	673.06
510.319	690.06
510.536	727.06
510.752	1123.06
510.968	956.06
511.184	685.06
511.401	671.06
511.617	670.06
511.833	666.06
512.049	660.06
512.265	659.06
512.481	641.06
512.698	656.06
512.914	635.06
513.13	646.06
513.346	650.06
513.562	644.06
513.778	669.06
513.994	662.06
514.21	653.06
514.426	641.06
514.642	697.06
514.858	729.06
515.074	760.06
515.29	872.06
515.506	1144.06
515.721	997.06
515.937	764.06
516.153	696.06
516.369	692.06
516.585	703.06
516.801	686.06
517.016	696.06
517.232	680.06
517.448	685.06
517.664	707.06
517.879	672.06
518.095	697.06
518.311	722.06
518.527	681.06
518.742	663.06
518.958	670.06
519.173	668.06
519.389	647.06
519.605	633.06
519.82	652.06
520.036	665.06
520.251	667.06
520.467	707.06
520.682	678.06
520.898	683.06
521.113	697.06
521.329	736.06
521.544	796.06
521.76	947.06
521.975	1454.06
522.19	1419.06
522.406	863.06
522.621	700.06
522.836	651.06
523.052	624.06
523.267	605.06
523.482	627.06
523.698	598.06
523.913	616.06
524.128	583.06
524.343	578.06
524.559	588.06
524.774	582.06
524.989	585.06
525.204	555.06
525.419	593.06
525.634	572.06
525.849	567.06
526.064	575.06
526.28	566.06
526.495	551.06
526.71	544.06
526.925	565.06
527.14	556.06
527.355	554.06
527.57	536.06
527.785	550.06
527.999	559.06
528.214	538.06
528.429	577.06
528.644	552.06
528.859	538.06
529.074	565.06
529.289	572.06
529.503	641.06
529.718	639.06
529.933	568.06
530.148	572.06
530.363	557.06
530.577	541.06
530.792	540.06
531.007	551.06
531.221	530.06
531.436	527.06
531.651	529.06
531.865	538.06
532.08	550.06
532.295	533.06
532.509	548.06
532.724	549.06
532.938	524.06
533.153	525.06
533.367	545.06
533.582	528.06
533.796	516.06
534.011	540.06
534.225	526.06
534.44	568.06
534.654	503.06
534.868	533.06
535.083	500.06
535.297	515.06
535.511	525.06
535.726	529.06
535.94	512.06
536.154	505.06
536.369	524.06
536.583	498.06
536.797	495.06
537.011	502.06
537.225	518.06
537.44	508.06
537.654	522.06
537.868	500.06
538.082	507.06
538.296	498.06
538.51	518.06
538.724	509.06
538.938	493.06
539.153	519.06
539.367	509.06
539.581	513.06
539.795	512.06
540.009	485.06
540.222	483.06
540.436	493.06
540.65	499.06
540.864	498.06
541.078	522.06
541.292	510.06
541.506	520.06
541.72	499.06
541.934	521.06
542.147	499.06
542.361	497.06
542.575	504.06
542.789	517.06
543.002	486.06
543.216	490.06
543.43	524.06
543.644	515.06
543.857	504.06
544.071	480.06
544.285	497.06
544.498	496.06
544.712	472.06
544.925	497.06
545.139	498.06
545.352	515.06
545.566	489.06
545.779	502.06
545.993	497.06
546.206	524.06
546.42	482.06
546.633	481.06
546.847	516.06
547.06	491.06
547.274	482.06
547.487	485.06
547.7	483.06
547.914	502.06
548.127	484.06
548.34	475.06
548.554	503.06
548.767	484.06
548.98	488.06
549.193	499.06
549.407	484.06
549.62	495.06
549.833	481.06
550.046	488.06
550.259	489.06
550.473	463.06
550.686	488.06
550.899	483.06
551.112	476.06
551.325	474.06
551.538	455.06
551.751	472.06
551.964	480.06
552.177	500.06
552.39	481.06
552.603	457.06
552.816	511.06
553.029	500.06
553.242	492.06
553.455	491.06
553.667	507.06
553.88	513.06
554.093	508.06
554.306	500.06
554.519	489.06
554.732	493.06
554.944	480.06
555.157	461.06
555.37	459.06
555.583	465.06
555.795	455.06
556.008	449.06
556.221	444.06
556.433	437.06
556.646	446.06
556.859	476.06
557.071	430.06
557.284	444.06
557.496	426.06
557.709	428.06
557.921	441.06
558.134	455.06
558.346	438.06
558.559	440.06
558.771	416.06
558.984	435.06
559.196	411.06
559.409	429.06
559.621	421.06
559.833	427.06
560.046	428.06
560.258	439.06
560.47	417.06
560.683	450.06
560.895	418.06
561.107	406.06
561.32	423.06
561.532	422.06
561.744	431.06
561.956	439.06
562.168	437.06
562.381	421.06
562.593	450.06
562.805	459.06
563.017	438.06
563.229	441.06
563.441	436.06
563.653	446.06
563.865	453.06
564.077	445.06
564.289	426.06
564.501	445.06
564.713	459.06
564.925	478.06
565.137	469.06
565.349	465.06
565.561	482.06
565.773	483.06
565.985	487.06
566.197	468.06
566.408	513.06
566.62	513.06
566.832	546.06
567.044	546.06
567.255	537.06
567.467	551.06
567.679	550.06
567.891	575.06
568.102	571.06
568.314	554.06
568.526	549.06
568.737	533.06
568.949	508.06
569.161	499.06
569.372	472.06
569.584	460.06
569.795	452.06
570.007	459.06
570.218	472.06
570.43	468.06
570.641	440.06
570.853	420.06
571.064	431.06
571.276	422.06
571.487	423.06
571.698	427.06
571.91	409.06
572.121	434.06
572.333	415.06
572.544	401.06
572.755	398.06
572.966	387.06
573.178	406.06
573.389	374.06
573.6	374.06
573.811	392.06
574.023	376.06
574.234	374.06
574.445	373.06
574.656	387.06
574.867	380.06
575.078	370.06
575.289	378.06
575.501	379.06
575.712	366.06
575.923	379.06
576.134	361.06
576.345	377.06
576.556	361.06
576.767	364.06
576.978	355.06
577.188	350.06
577.399	346.06
577.61	367.06
577.821	342.06
578.032	353.06
578.243	371.06
578.454	551.06
578.665	438.06
578.875	359.06
579.086	372.06
579.297	344.06
579.508	346.06
579.718	336.06
579.929	377.06
580.14	365.06
580.35	337.06
580.561	352.06
580.772	333.06
580.982	338.06
581.193	352.06
581.403	334.06
581.614	352.06
581.825	350.06
582.035	337.06
582.246	343.06
582.456	329.06
582.667	334.06
582.877	328.06
583.087	309.06
583.298	322.06
583.508	345.06
583.719	335.06
583.929	344.06
584.139	335.06
584.35	323.06
584.56	333.06
584.77	350.06
584.981	325.06
585.191	345.06
585.401	331.06
585.611	329.06
585.821	339.06
586.032	330.06
586.242	334.06
586.452	329.06
586.662	345.06
586.872	337.06
587.082	323.06
587.292	339.06
587.502	316.06
587.713	327.06
587.923	306.06
588.133	327.06
588.343	321.06
588.553	330.06
588.762	350.06
588.972	340.06
589.182	350.06
589.392	344.06
589.602	352.06
589.812	347.06
590.022	324.06
590.232	332.06
590.441	321.06
590.651	324.06
590.861	325.06
591.071	339.06
591.281	329.06
591.49	338.06
591.7	324.06
591.91	332.06
592.119	337.06
592.329	337.06
592.539	351.06
592.748	357.06
592.958	357.06
593.167	349.06
593.377	346.06
593.587	360.06
593.796	347.06
594.006	354.06
594.215	371.06
594.424	348.06
594.634	347.06
594.843	343.06
595.053	324.06
595.262	353.06
595.472	328.06
595.681	333.06
595.89	332.06
596.1	324.06
596.309	319.06
596.518	318.06
596.727	311.06
596.937	299.06
597.146	319.06
597.355	284.06
597.564	312.06
597.774	280.06
597.983	295.06
598.192	297.06
598.401	294.06
598.61	278.06
598.819	297.06
599.028	290.06
599.237	289.06
599.446	296.06
599.655	284.06
599.864	294.06
600.073	285.06
600.282	291.06
600.491	285.06
600.7	281.06
600.909	297.06
601.118	286.06
601.327	291.06
601.536	298.06
601.745	275.06
601.953	282.06
602.162	282.06
602.371	266.06
602.58	273.06
602.789	285.06
602.997	276.06
603.206	269.06
603.415	284.06
603.623	266.06
603.832	280.06
604.041	261.06
604.249	274.06
604.458	288.06
604.666	265.06
604.875	284.06
605.084	289.06
605.292	272.06
605.501	274.06
605.709	268.06
605.918	275.06
606.126	270.06
606.334	279.06
606.543	265.06
606.751	289.06
606.96	267.06
607.168	267.06
607.376	269.06
607.585	293.06
607.793	263.06
608.001	271.06
608.21	269.06
608.418	255.06
608.626	255.06
608.834	266.06
609.043	279.06
609.251	264.06
609.459	259.06
609.667	269.06
609.875	251.06
610.083	269.06
610.291	265.06
610.499	251.06
610.707	248.06
610.916	262.06
611.124	267.06
611.332	268.06
611.54	272.06
611.748	268.06
611.955	255.06
612.163	272.06
612.371	270.06
612.579	265.06
612.787	271.06
612.995	256.06
613.203	280.06
613.411	252.06
613.618	277.06
613.826	269.06
614.034	263.06
614.242	270.06
614.449	277.06
614.657	265.06
614.865	265.06
615.072	266.06
615.28	242.06
615.488	258.06
615.695	236.06
615.903	255.06
616.111	259.06
616.318	269.06
616.526	245.06
616.733	261.06
616.941	258.06
617.148	257.06
617.356	255.06
617.563	267.06
617.771	278.06
617.978	257.06
618.185	254.06
618.393	241.06
618.6	264.06
618.807	252.06
619.015	250.06
619.222	245.06
619.429	259.06
619.637	254.06
619.844	255.06
620.051	256.06
620.258	241.06
620.466	230.06
620.673	255.06
620.88	245.06
621.087	256.06
621.294	221.06
621.501	243.06
621.708	258.06
621.915	258.06
622.122	253.06
622.329	229.06
622.536	248.06
622.743	243.06
622.95	248.06
623.157	226.06
623.364	251.06
623.571	236.06
623.778	240.06
623.985	221.06
624.192	223.06
624.399	216.06
624.606	234.06
624.812	215.06
625.019	227.06
625.226	218.06
625.433	233.06
625.639	218.06
625.846	232.06
626.053	224.06
626.259	221.06
626.466	228.06
626.673	237.06
626.879	235.06
627.086	239.06
627.293	215.06
627.499	232.06
627.706	218.06
627.912	223.06
628.119	226.06
628.325	211.06
628.532	222.06
628.738	224.06
628.945	239.06
629.151	218.06
629.357	225.06
629.564	221.06
629.77	226.06
629.976	212.06
630.183	209.06
630.389	207.06
630.595	208.06
630.802	208.06
631.008	199.06
631.214	214.06
631.42	202.06
631.627	211.06
631.833	214.06
632.039	212.06
632.245	204.06
632.451	220.06
632.657	212.06
632.863	193.06
633.069	197.06
633.275	190.06
633.481	199.06
633.688	216.06
633.893	194.06
634.099	191.06
634.305	211.06
634.511	210.06
634.717	206.06
634.923	208.06
635.129	200.06
635.335	200.06
635.541	182.06
635.747	207.06
635.952	204.06
636.158	199.06
636.364	199.06
636.57	196.06
636.775	187.06
636.981	188.06
637.187	204.06
637.392	197.06
637.598	169.06
637.804	184.06
638.009	189.06
638.215	199.06
638.421	202.06
638.626	183.06
638.832	181.06
639.037	179.06
639.243	186.06
639.448	185.06
639.654	190.06
639.859	186.06
640.065	193.06
640.27	193.06
640.475	188.06
640.681	191.06
640.886	196.06
641.091	192.06
641.297	185.06
641.502	184.06
641.707	202.06
641.913	188.06
642.118	164.06
642.323	171.06
642.528	181.06
642.733	176.06
642.939	177.06
643.144	187.06
643.349	199.06
643.554	183.06
643.759	168.06
643.964	172.06
644.169	167.06
644.374	167.06
644.579	194.06
644.784	178.06
644.989	191.06
645.194	180.06
645.399	173.06
645.604	169.06
645.809	185.06
646.014	167.06
646.219	168.06
646.423	179.06
646.628	177.06
646.833	180.06
647.038	170.06
647.243	191.06
647.447	180.06
647.652	161.06
647.857	170.06
648.062	175.06
648.266	156.06
648.471	170.06
648.676	194.06
648.88	196.06
649.085	179.06
649.289	195.06
649.494	186.06
649.698	178.06
649.903	188.06
650.107	184.06
650.312	184.06
650.516	158.06
650.721	163.06
650.925	154.06
651.13	171.06
651.334	143.06
651.539	161.06
651.743	160.06
651.947	146.06
652.152	138.06
652.356	141.06
652.56	157.06
652.764	159.06
652.969	162.06
653.173	159.06
653.377	160.06
653.581	157.06
653.785	148.06
653.99	157.06
654.194	147.06
654.398	140.06
654.602	149.06
654.806	137.06
655.01	153.06
655.214	154.06
655.418	136.06
655.622	143.06
655.826	143.06
656.03	145.06
656.234	156.06
656.438	147.06
656.642	142.06
656.846	145.06
657.049	146.06
657.253	139.06
657.457	125.06
657.661	116.06
657.865	112.06
658.068	114.06
658.272	106.06
658.476	115.06
658.68	117.06
658.883	93.06
659.087	99.06
659.291	105.06
659.494	94.06
659.698	100.06
659.901	91.06
660.105	100.06
660.309	86.06
660.512	92.06
660.716	111.06
660.919	113.06
661.123	74.06
661.326	89.06
661.53	100.06
661.733	91.06
661.936	93.06
662.14	87.06
662.343	96.06
662.546	87.06
662.75	86.06
662.953	87.06
663.156	83.06
663.36	93.06
663.563	87.06
663.766	78.06
663.969	80.06
664.173	83.06
664.376	83.06
664.579	80.06
664.782	85.06
664.985	83.06
665.188	89.06
665.391	77.06
665.594	78.06
665.797	78.06
666	78.06
666.203	82.06
666.406	69.06
666.609	94.06
666.812	89.06
667.015	82.06
667.218	72.06
667.421	81.06
667.624	87.06
667.827	75.06
668.03	87.06
668.232	80.06
668.435	92.06
668.638	97.06
668.841	93.06
669.043	90.06
669.246	87.06
669.449	73.06
669.651	85.06
669.854	77.06
670.057	92.06
670.259	76.06
670.462	83.06
670.665	96.06
670.867	90.06
671.07	82.06
671.272	92.06
671.475	76.06
671.677	85.06
671.88	65.06
672.082	72.06
672.284	86.06
672.487	66.06
672.689	90.06
672.892	90.06
