Data from 1966.PennyLincolnUp.Lamp.En5.5.200Scan.071719.P1.Scan2.head_HRD10591_14-19-02-236.txt Node
Date: Thu Jul 18 14:19:02 EDT 2019
User: cochatt
Spectrometer: HR+D1059
Trigger mode: 1
Integration Time (sec): 1.000000E-1
Scans to average: 1
Electric dark correction enabled: true
Nonlinearity correction enabled: false
Boxcar width: 0
XAxis mode: Wavelengths
Number of Pixels in Spectrum: 2048
>>>>>Begin Spectral Data<<<<<
223.165	-19.62
223.4	-19.62
223.635	-19.62
223.869	8.38
224.104	-11.62
224.338	-18.62
224.573	-9.62
224.808	-11.62
225.042	-15.62
225.277	-17.62
225.511	-10.62
225.746	16.38
225.98	8.38
226.215	-1.62
226.449	20.38
226.683	13.38
226.918	22.38
227.152	27.38
227.387	18.38
227.621	28.38
227.856	44.38
228.09	39.38
228.324	41.38
228.559	41.38
228.793	66.38
229.027	109.38
229.262	101.38
229.496	122.38
229.73	140.38
229.964	158.38
230.199	138.38
230.433	113.38
230.667	116.38
230.901	124.38
231.136	108.38
231.37	114.38
231.604	116.38
231.838	128.38
232.072	118.38
232.306	125.38
232.541	106.38
232.775	114.38
233.009	118.38
233.243	114.38
233.477	114.38
233.711	123.38
233.945	122.38
234.179	111.38
234.413	129.38
234.647	122.38
234.881	120.38
235.115	120.38
235.349	127.38
235.583	143.38
235.817	113.38
236.051	126.38
236.285	144.38
236.519	118.38
236.753	121.38
236.987	144.38
237.221	189.38
237.455	240.38
237.689	194.38
237.922	141.38
238.156	123.38
238.39	128.38
238.624	123.38
238.858	121.38
239.091	127.38
239.325	136.38
239.559	125.38
239.793	129.38
240.027	149.38
240.26	156.38
240.494	161.38
240.728	166.38
240.961	146.38
241.195	155.38
241.429	158.38
241.662	133.38
241.896	130.38
242.13	152.38
242.363	134.38
242.597	148.38
242.83	140.38
243.064	128.38
243.298	143.38
243.531	144.38
243.765	152.38
243.998	146.38
244.232	155.38
244.465	146.38
244.699	148.38
244.932	153.38
245.166	159.38
245.399	144.38
245.633	150.38
245.866	164.38
246.099	144.38
246.333	158.38
246.566	168.38
246.8	164.38
247.033	159.38
247.266	188.38
247.5	169.38
247.733	172.38
247.966	190.38
248.2	169.38
248.433	174.38
248.666	182.38
248.899	177.38
249.133	214.38
249.366	225.38
249.599	209.38
249.832	192.38
250.066	181.38
250.299	183.38
250.532	183.38
250.765	218.38
250.998	226.38
251.231	227.38
251.465	234.38
251.698	218.38
251.931	198.38
252.164	198.38
252.397	216.38
252.63	230.38
252.863	224.38
253.096	216.38
253.329	220.38
253.562	239.38
253.795	231.38
254.028	218.38
254.261	224.38
254.494	237.38
254.727	280.38
254.96	290.38
255.193	272.38
255.426	261.38
255.659	230.38
255.892	239.38
256.124	263.38
256.357	250.38
256.59	238.38
256.823	218.38
257.056	208.38
257.289	212.38
257.521	224.38
257.754	224.38
257.987	218.38
258.22	203.38
258.452	204.38
258.685	205.38
258.918	225.38
259.151	207.38
259.383	216.38
259.616	229.38
259.849	233.38
260.081	240.38
260.314	246.38
260.547	275.38
260.779	250.38
261.012	236.38
261.244	239.38
261.477	226.38
261.71	228.38
261.942	218.38
262.175	236.38
262.407	218.38
262.64	224.38
262.872	219.38
263.105	214.38
263.337	218.38
263.57	213.38
263.802	220.38
264.035	218.38
264.267	202.38
264.499	209.38
264.732	228.38
264.964	222.38
265.197	225.38
265.429	226.38
265.661	222.38
265.894	225.38
266.126	227.38
266.358	219.38
266.591	216.38
266.823	224.38
267.055	230.38
267.287	237.38
267.52	208.38
267.752	235.38
267.984	231.38
268.216	221.38
268.448	238.38
268.681	242.38
268.913	252.38
269.145	264.38
269.377	280.38
269.609	264.38
269.841	268.38
270.073	274.38
270.306	312.38
270.538	308.38
270.77	314.38
271.002	303.38
271.234	300.38
271.466	319.38
271.698	302.38
271.93	312.38
272.162	327.38
272.394	330.38
272.626	316.38
272.858	287.38
273.09	280.38
273.322	273.38
273.553	282.38
273.785	287.38
274.017	272.38
274.249	290.38
274.481	274.38
274.713	253.38
274.945	262.38
275.176	273.38
275.408	275.38
275.64	279.38
275.872	277.38
276.104	282.38
276.335	255.38
276.567	284.38
276.799	300.38
277.031	309.38
277.262	322.38
277.494	330.38
277.726	321.38
277.957	308.38
278.189	297.38
278.421	292.38
278.652	285.38
278.884	270.38
279.115	278.38
279.347	274.38
279.579	265.38
279.81	264.38
280.042	285.38
280.273	281.38
280.505	289.38
280.736	286.38
280.968	282.38
281.199	287.38
281.431	292.38
281.662	292.38
281.894	288.38
282.125	286.38
282.356	284.38
282.588	304.38
282.819	325.38
283.051	304.38
283.282	284.38
283.513	290.38
283.745	287.38
283.976	303.38
284.207	292.38
284.439	292.38
284.67	295.38
284.901	288.38
285.132	268.38
285.364	291.38
285.595	276.38
285.826	274.38
286.057	284.38
286.288	290.38
286.52	263.38
286.751	284.38
286.982	280.38
287.213	292.38
287.444	280.38
287.675	300.38
287.906	308.38
288.138	305.38
288.369	324.38
288.6	315.38
288.831	309.38
289.062	309.38
289.293	309.38
289.524	295.38
289.755	310.38
289.986	299.38
290.217	300.38
290.448	306.38
290.679	316.38
290.91	293.38
291.141	311.38
291.371	303.38
291.602	313.38
291.833	298.38
292.064	301.38
292.295	314.38
292.526	286.38
292.757	315.38
292.987	312.38
293.218	296.38
293.449	299.38
293.68	309.38
293.91	296.38
294.141	302.38
294.372	303.38
294.603	300.38
294.833	308.38
295.064	305.38
295.295	312.38
295.525	310.38
295.756	306.38
295.987	329.38
296.217	329.38
296.448	345.38
296.679	297.38
296.909	316.38
297.14	310.38
297.37	317.38
297.601	314.38
297.831	306.38
298.062	301.38
298.292	304.38
298.523	308.38
298.753	312.38
298.984	305.38
299.214	312.38
299.445	318.38
299.675	321.38
299.905	330.38
300.136	337.38
300.366	303.38
300.597	315.38
300.827	328.38
301.057	330.38
301.288	357.38
301.518	349.38
301.748	342.38
301.979	351.38
302.209	323.38
302.439	349.38
302.669	344.38
302.9	339.38
303.13	329.38
303.36	341.38
303.59	328.38
303.82	348.38
304.051	348.38
304.281	350.38
304.511	328.38
304.741	346.38
304.971	351.38
305.201	328.38
305.431	326.38
305.661	343.38
305.891	322.38
306.121	328.38
306.352	325.38
306.582	334.38
306.812	351.38
307.042	332.38
307.272	329.38
307.502	336.38
307.731	377.38
307.961	313.38
308.191	330.38
308.421	329.38
308.651	335.38
308.881	350.38
309.111	369.38
309.341	351.38
309.571	380.38
309.8	374.38
310.03	385.38
310.26	393.38
310.49	367.38
310.72	372.38
310.949	380.38
311.179	388.38
311.409	384.38
311.639	386.38
311.868	393.38
312.098	406.38
312.328	388.38
312.557	440.38
312.787	426.38
313.017	424.38
313.246	400.38
313.476	368.38
313.706	394.38
313.935	385.38
314.165	403.38
314.394	409.38
314.624	421.38
314.853	412.38
315.083	394.38
315.312	388.38
315.542	388.38
315.771	377.38
316.001	384.38
316.23	394.38
316.46	375.38
316.689	387.38
316.919	399.38
317.148	411.38
317.377	395.38
317.607	396.38
317.836	381.38
318.065	378.38
318.295	396.38
318.524	385.38
318.753	391.38
318.983	384.38
319.212	384.38
319.441	405.38
319.67	400.38
319.9	390.38
320.129	391.38
320.358	396.38
320.587	404.38
320.816	400.38
321.046	391.38
321.275	397.38
321.504	418.38
321.733	436.38
321.962	414.38
322.191	436.38
322.42	448.38
322.649	446.38
322.878	463.38
323.108	461.38
323.337	495.38
323.566	518.38
323.795	552.38
324.024	599.38
324.253	669.38
324.482	975.38
324.71	1542.38
324.939	2279.38
325.168	1968.38
325.397	971.38
325.626	658.38
325.855	566.38
326.084	503.38
326.313	492.38
326.542	513.38
326.77	548.38
326.999	666.38
327.228	908.38
327.457	1375.38
327.686	1745.38
327.914	1119.38
328.143	729.38
328.372	620.38
328.6	599.38
328.829	560.38
329.058	578.38
329.287	588.38
329.515	549.38
329.744	516.38
329.972	527.38
330.201	553.38
330.43	595.38
330.658	592.38
330.887	604.38
331.115	618.38
331.344	561.38
331.572	532.38
331.801	496.38
332.03	487.38
332.258	503.38
332.486	472.38
332.715	472.38
332.943	463.38
333.172	490.38
333.4	490.38
333.629	490.38
333.857	513.38
334.085	518.38
334.314	547.38
334.542	560.38
334.771	585.38
334.999	512.38
335.227	520.38
335.455	493.38
335.684	493.38
335.912	478.38
336.14	456.38
336.369	480.38
336.597	448.38
336.825	481.38
337.053	461.38
337.281	456.38
337.51	456.38
337.738	461.38
337.966	461.38
338.194	452.38
338.422	454.38
338.65	452.38
338.878	466.38
339.106	448.38
339.334	436.38
339.562	454.38
339.79	444.38
340.018	458.38
340.246	443.38
340.474	456.38
340.702	442.38
340.93	444.38
341.158	453.38
341.386	464.38
341.614	465.38
341.842	437.38
342.07	436.38
342.298	427.38
342.526	446.38
342.754	447.38
342.981	444.38
343.209	431.38
343.437	442.38
343.665	447.38
343.893	457.38
344.12	459.38
344.348	449.38
344.576	465.38
344.804	458.38
345.031	453.38
345.259	471.38
345.487	466.38
345.714	444.38
345.942	442.38
346.17	440.38
346.397	441.38
346.625	443.38
346.853	442.38
347.08	444.38
347.308	420.38
347.535	442.38
347.763	446.38
347.99	441.38
348.218	439.38
348.445	455.38
348.673	471.38
348.9	420.38
349.128	433.38
349.355	430.38
349.583	423.38
349.81	443.38
350.037	440.38
350.265	442.38
350.492	442.38
350.72	422.38
350.947	428.38
351.174	447.38
351.402	447.38
351.629	437.38
351.856	436.38
352.083	445.38
352.311	451.38
352.538	458.38
352.765	477.38
352.992	460.38
353.22	444.38
353.447	446.38
353.674	427.38
353.901	422.38
354.128	433.38
354.355	425.38
354.583	416.38
354.81	424.38
355.037	405.38
355.264	412.38
355.491	385.38
355.718	418.38
355.945	426.38
356.172	414.38
356.399	404.38
356.626	403.38
356.853	406.38
357.08	401.38
357.307	405.38
357.534	382.38
357.761	401.38
357.988	416.38
358.215	406.38
358.441	420.38
358.668	430.38
358.895	433.38
359.122	413.38
359.349	414.38
359.576	428.38
359.802	472.38
360.029	469.38
360.256	487.38
360.483	464.38
360.709	463.38
360.936	421.38
361.163	432.38
361.39	442.38
361.616	452.38
361.843	454.38
362.07	462.38
362.296	453.38
362.523	426.38
362.749	432.38
362.976	446.38
363.203	424.38
363.429	408.38
363.656	434.38
363.882	434.38
364.109	420.38
364.335	442.38
364.562	436.38
364.788	459.38
365.015	429.38
365.241	433.38
365.468	441.38
365.694	440.38
365.92	435.38
366.147	447.38
366.373	432.38
366.599	424.38
366.826	433.38
367.052	418.38
367.278	448.38
367.505	419.38
367.731	440.38
367.957	451.38
368.184	438.38
368.41	437.38
368.636	445.38
368.862	460.38
369.089	427.38
369.315	423.38
369.541	408.38
369.767	433.38
369.993	415.38
370.219	425.38
370.445	444.38
370.672	412.38
370.898	436.38
371.124	436.38
371.35	444.38
371.576	442.38
371.802	421.38
372.028	429.38
372.254	432.38
372.48	446.38
372.706	412.38
372.932	406.38
373.158	415.38
373.384	452.38
373.61	444.38
373.835	442.38
374.061	431.38
374.287	431.38
374.513	431.38
374.739	440.38
374.965	448.38
375.191	449.38
375.416	460.38
375.642	445.38
375.868	437.38
376.094	441.38
376.319	422.38
376.545	418.38
376.771	447.38
376.997	425.38
377.222	440.38
377.448	442.38
377.674	430.38
377.899	442.38
378.125	445.38
378.35	431.38
378.576	460.38
378.802	421.38
379.027	423.38
379.253	423.38
379.478	439.38
379.704	428.38
379.929	425.38
380.155	449.38
380.38	432.38
380.606	446.38
380.831	450.38
381.057	445.38
381.282	451.38
381.507	422.38
381.733	460.38
381.958	455.38
382.184	441.38
382.409	455.38
382.634	441.38
382.86	457.38
383.085	436.38
383.31	448.38
383.535	465.38
383.761	464.38
383.986	454.38
384.211	465.38
384.436	462.38
384.662	449.38
384.887	470.38
385.112	457.38
385.337	485.38
385.562	513.38
385.787	486.38
386.013	491.38
386.238	479.38
386.463	494.38
386.688	499.38
386.913	494.38
387.138	489.38
387.363	477.38
387.588	507.38
387.813	504.38
388.038	477.38
388.263	485.38
388.488	474.38
388.713	483.38
388.938	495.38
389.163	486.38
389.387	476.38
389.612	478.38
389.837	488.38
390.062	491.38
390.287	462.38
390.512	495.38
390.736	482.38
390.961	493.38
391.186	486.38
391.411	493.38
391.636	503.38
391.86	512.38
392.085	496.38
392.31	522.38
392.534	526.38
392.759	506.38
392.984	494.38
393.208	481.38
393.433	488.38
393.658	497.38
393.882	477.38
394.107	500.38
394.331	499.38
394.556	491.38
394.78	501.38
395.005	494.38
395.229	500.38
395.454	508.38
395.678	507.38
395.903	543.38
396.127	548.38
396.352	539.38
396.576	509.38
396.801	509.38
397.025	514.38
397.249	521.38
397.474	515.38
397.698	502.38
397.922	546.38
398.147	550.38
398.371	568.38
398.595	579.38
398.82	554.38
399.044	579.38
399.268	590.38
399.492	610.38
399.717	637.38
399.941	671.38
400.165	696.38
400.389	694.38
400.613	632.38
400.837	616.38
401.062	616.38
401.286	582.38
401.51	560.38
401.734	573.38
401.958	576.38
402.182	590.38
402.406	588.38
402.63	600.38
402.854	574.38
403.078	566.38
403.302	590.38
403.526	584.38
403.75	591.38
403.974	602.38
404.198	584.38
404.422	589.38
404.645	589.38
404.869	606.38
405.093	621.38
405.317	666.38
405.541	715.38
405.765	638.38
405.988	625.38
406.212	625.38
406.436	635.38
406.66	655.38
406.883	639.38
407.107	649.38
407.331	697.38
407.555	767.38
407.778	770.38
408.002	696.38
408.226	666.38
408.449	639.38
408.673	660.38
408.896	675.38
409.12	701.38
409.344	685.38
409.567	608.38
409.791	609.38
410.014	621.38
410.238	572.38
410.461	602.38
410.685	591.38
410.908	625.38
411.132	644.38
411.355	664.38
411.578	655.38
411.802	626.38
412.025	594.38
412.249	616.38
412.472	652.38
412.695	678.38
412.919	639.38
413.142	636.38
413.365	586.38
413.589	564.38
413.812	565.38
414.035	576.38
414.258	557.38
414.482	591.38
414.705	547.38
414.928	559.38
415.151	552.38
415.374	554.38
415.597	561.38
415.821	537.38
416.044	573.38
416.267	564.38
416.49	536.38
416.713	564.38
416.936	564.38
417.159	558.38
417.382	580.38
417.605	553.38
417.828	583.38
418.051	588.38
418.274	590.38
418.497	556.38
418.72	559.38
418.943	540.38
419.166	573.38
419.389	586.38
419.611	597.38
419.834	601.38
420.057	600.38
420.28	609.38
420.503	604.38
420.726	585.38
420.948	594.38
421.171	641.38
421.394	671.38
421.617	625.38
421.839	578.38
422.062	587.38
422.285	623.38
422.507	669.38
422.73	742.38
422.953	711.38
423.175	659.38
423.398	589.38
423.621	616.38
423.843	630.38
424.066	615.38
424.288	620.38
424.511	640.38
424.733	701.38
424.956	796.38
425.178	752.38
425.401	762.38
425.623	804.38
425.846	678.38
426.068	638.38
426.291	624.38
426.513	618.38
426.735	645.38
426.958	656.38
427.18	772.38
427.402	906.38
427.625	1028.38
427.847	909.38
428.069	791.38
428.292	690.38
428.514	618.38
428.736	609.38
428.958	584.38
429.181	581.38
429.403	559.38
429.625	582.38
429.847	631.38
430.069	705.38
430.292	687.38
430.514	614.38
430.736	578.38
430.958	568.38
431.18	556.38
431.402	562.38
431.624	547.38
431.846	553.38
432.068	573.38
432.29	530.38
432.512	559.38
432.734	571.38
432.956	562.38
433.178	553.38
433.4	553.38
433.622	559.38
433.844	564.38
434.066	554.38
434.287	577.38
434.509	552.38
434.731	560.38
434.953	568.38
435.175	586.38
435.397	611.38
435.618	629.38
435.84	692.38
436.062	786.38
436.284	868.38
436.505	730.38
436.727	638.38
436.949	602.38
437.17	613.38
437.392	580.38
437.614	583.38
437.835	635.38
438.057	737.38
438.278	853.38
438.5	861.38
438.721	944.38
438.943	906.38
439.165	698.38
439.386	639.38
439.608	648.38
439.829	639.38
440.05	645.38
440.272	720.38
440.493	665.38
440.715	630.38
440.936	586.38
441.158	611.38
441.379	576.38
441.6	606.38
441.822	633.38
442.043	664.38
442.264	762.38
442.486	801.38
442.707	654.38
442.928	637.38
443.149	662.38
443.371	674.38
443.592	735.38
443.813	817.38
444.034	889.38
444.255	716.38
444.476	664.38
444.698	621.38
444.919	624.38
445.14	716.38
445.361	680.38
445.582	700.38
445.803	742.38
446.024	872.38
446.245	872.38
446.466	804.38
446.687	694.38
446.908	619.38
447.129	604.38
447.35	572.38
447.571	599.38
447.792	573.38
448.013	612.38
448.234	595.38
448.455	645.38
448.675	801.38
448.896	906.38
449.117	776.38
449.338	721.38
449.559	854.38
449.779	966.38
450	756.38
450.221	641.38
450.442	603.38
450.662	591.38
450.883	569.38
451.104	565.38
451.324	580.38
451.545	550.38
451.766	549.38
451.986	555.38
452.207	518.38
452.428	521.38
452.648	522.38
452.869	519.38
453.089	526.38
453.31	540.38
453.53	530.38
453.751	520.38
453.971	536.38
454.192	541.38
454.412	538.38
454.633	520.38
454.853	520.38
455.073	528.38
455.294	538.38
455.514	616.38
455.734	609.38
455.955	530.38
456.175	504.38
456.395	473.38
456.616	478.38
456.836	488.38
457.056	515.38
457.276	484.38
457.497	514.38
457.717	480.38
457.937	492.38
458.157	516.38
458.377	518.38
458.598	541.38
458.818	570.38
459.038	689.38
459.258	702.38
459.478	598.38
459.698	564.38
459.918	561.38
460.138	554.38
460.358	566.38
460.578	577.38
460.798	567.38
461.018	569.38
461.238	584.38
461.458	555.38
461.678	545.38
461.898	575.38
462.118	560.38
462.338	585.38
462.558	568.38
462.777	592.38
462.997	598.38
463.217	631.38
463.437	626.38
463.657	608.38
463.876	579.38
464.096	588.38
464.316	600.38
464.536	602.38
464.755	615.38
464.975	599.38
465.195	660.38
465.414	698.38
465.634	633.38
465.854	597.38
466.073	581.38
466.293	562.38
466.512	544.38
466.732	530.38
466.951	520.38
467.171	534.38
467.391	520.38
467.61	556.38
467.829	561.38
468.049	557.38
468.268	524.38
468.488	531.38
468.707	525.38
468.927	520.38
469.146	524.38
469.365	520.38
469.585	522.38
469.804	533.38
470.023	517.38
470.243	526.38
470.462	545.38
470.681	561.38
470.901	556.38
471.12	534.38
471.339	529.38
471.558	559.38
471.777	548.38
471.997	518.38
472.216	543.38
472.435	566.38
472.654	587.38
472.873	543.38
473.092	552.38
473.311	542.38
473.53	549.38
473.749	529.38
473.968	602.38
474.187	682.38
474.406	753.38
474.625	600.38
474.844	558.38
475.063	520.38
475.282	541.38
475.501	549.38
475.72	545.38
475.939	563.38
476.158	559.38
476.377	568.38
476.596	549.38
476.814	584.38
477.033	567.38
477.252	572.38
477.471	584.38
477.69	583.38
477.908	578.38
478.127	594.38
478.346	602.38
478.564	602.38
478.783	611.38
479.002	612.38
479.22	622.38
479.439	626.38
479.658	656.38
479.876	689.38
480.095	660.38
480.313	710.38
480.532	681.38
480.751	652.38
480.969	702.38
481.188	723.38
481.406	763.38
481.624	710.38
481.843	688.38
482.061	676.38
482.28	669.38
482.498	636.38
482.717	638.38
482.935	635.38
483.153	633.38
483.372	639.38
483.59	638.38
483.808	646.38
484.027	654.38
484.245	666.38
484.463	649.38
484.681	665.38
484.9	652.38
485.118	656.38
485.336	655.38
485.554	685.38
485.772	687.38
485.99	670.38
486.209	659.38
486.427	674.38
486.645	670.38
486.863	693.38
487.081	710.38
487.299	692.38
487.517	700.38
487.735	681.38
487.953	687.38
488.171	700.38
488.389	721.38
488.607	676.38
488.825	697.38
489.043	714.38
489.261	701.38
489.479	712.38
489.696	688.38
489.914	682.38
490.132	707.38
490.35	728.38
490.568	717.38
490.786	747.38
491.003	740.38
491.221	752.38
491.439	760.38
491.657	785.38
491.874	792.38
492.092	780.38
492.31	778.38
492.527	800.38
492.745	811.38
492.963	780.38
493.18	797.38
493.398	826.38
493.615	828.38
493.833	842.38
494.05	817.38
494.268	813.38
494.485	794.38
494.703	804.38
494.92	815.38
495.138	822.38
495.355	811.38
495.573	824.38
495.79	814.38
496.008	830.38
496.225	813.38
496.442	791.38
496.66	799.38
496.877	825.38
497.094	802.38
497.312	820.38
497.529	856.38
497.746	869.38
497.963	886.38
498.181	918.38
498.398	918.38
498.615	904.38
498.832	918.38
499.049	970.38
499.267	945.38
499.484	995.38
499.701	1014.38
499.918	1079.38
500.135	1122.38
500.352	1136.38
500.569	1183.38
500.786	1189.38
501.003	1176.38
501.22	1123.38
501.437	1097.38
501.654	1093.38
501.871	1039.38
502.088	1022.38
502.305	967.38
502.522	946.38
502.739	910.38
502.956	900.38
503.172	867.38
503.389	879.38
503.606	857.38
503.823	852.38
504.04	845.38
504.256	813.38
504.473	813.38
504.69	821.38
504.907	838.38
505.123	811.38
505.34	789.38
505.557	801.38
505.773	802.38
505.99	778.38
506.207	772.38
506.423	799.38
506.64	786.38
506.856	768.38
507.073	733.38
507.289	745.38
507.506	731.38
507.722	769.38
507.939	776.38
508.155	762.38
508.372	757.38
508.588	772.38
508.805	732.38
509.021	744.38
509.238	780.38
509.454	764.38
509.67	770.38
509.887	749.38
510.103	726.38
510.319	724.38
510.536	836.38
510.752	1288.38
510.968	1054.38
511.184	743.38
511.401	684.38
511.617	727.38
511.833	703.38
512.049	710.38
512.265	690.38
512.481	685.38
512.698	687.38
512.914	687.38
513.13	706.38
513.346	662.38
513.562	710.38
513.778	666.38
513.994	717.38
514.21	712.38
514.426	725.38
514.642	783.38
514.858	794.38
515.074	816.38
515.29	954.38
515.506	1318.38
515.721	1128.38
515.937	805.38
516.153	775.38
516.369	748.38
516.585	717.38
516.801	745.38
517.016	726.38
517.232	749.38
517.448	729.38
517.664	718.38
517.879	719.38
518.095	732.38
518.311	724.38
518.527	721.38
518.742	726.38
518.958	709.38
519.173	707.38
519.389	698.38
519.605	712.38
519.82	705.38
520.036	725.38
520.251	715.38
520.467	737.38
520.682	738.38
520.898	760.38
521.113	776.38
521.329	828.38
521.544	889.38
521.76	1076.38
521.975	1710.38
522.19	1677.38
522.406	998.38
522.621	760.38
522.836	708.38
523.052	695.38
523.267	666.38
523.482	640.38
523.698	628.38
523.913	630.38
524.128	640.38
524.343	595.38
524.559	600.38
524.774	593.38
524.989	600.38
525.204	623.38
525.419	601.38
525.634	597.38
525.849	605.38
526.064	575.38
526.28	569.38
526.495	555.38
526.71	600.38
526.925	561.38
527.14	582.38
527.355	576.38
527.57	584.38
527.785	580.38
527.999	581.38
528.214	570.38
528.429	571.38
528.644	584.38
528.859	590.38
529.074	580.38
529.289	584.38
529.503	653.38
529.718	650.38
529.933	605.38
530.148	580.38
530.363	564.38
530.577	559.38
530.792	583.38
531.007	576.38
531.221	556.38
531.436	554.38
531.651	562.38
531.865	562.38
532.08	530.38
532.295	554.38
532.509	544.38
532.724	535.38
532.938	551.38
533.153	555.38
533.367	528.38
533.582	515.38
533.796	529.38
534.011	553.38
534.225	534.38
534.44	535.38
534.654	539.38
534.868	525.38
535.083	535.38
535.297	511.38
535.511	560.38
535.726	534.38
535.94	554.38
536.154	534.38
536.369	551.38
536.583	543.38
536.797	532.38
537.011	525.38
537.225	528.38
537.44	507.38
537.654	524.38
537.868	538.38
538.082	526.38
538.296	528.38
538.51	532.38
538.724	553.38
538.938	524.38
539.153	528.38
539.367	544.38
539.581	531.38
539.795	514.38
540.009	529.38
540.222	541.38
540.436	534.38
540.65	531.38
540.864	538.38
541.078	521.38
541.292	535.38
541.506	501.38
541.72	504.38
541.934	524.38
542.147	519.38
542.361	501.38
542.575	530.38
542.789	514.38
543.002	540.38
543.216	523.38
543.43	516.38
543.644	528.38
543.857	526.38
544.071	525.38
544.285	501.38
544.498	516.38
544.712	501.38
544.925	504.38
545.139	503.38
545.352	491.38
545.566	515.38
545.779	510.38
545.993	507.38
546.206	506.38
546.42	515.38
546.633	496.38
546.847	513.38
547.06	514.38
547.274	492.38
547.487	481.38
547.7	500.38
547.914	494.38
548.127	489.38
548.34	473.38
548.554	525.38
548.767	512.38
548.98	510.38
549.193	489.38
549.407	495.38
549.62	516.38
549.833	517.38
550.046	518.38
550.259	503.38
550.473	489.38
550.686	504.38
550.899	494.38
551.112	493.38
551.325	496.38
551.538	492.38
551.751	479.38
551.964	480.38
552.177	485.38
552.39	493.38
552.603	494.38
552.816	478.38
553.029	493.38
553.242	484.38
553.455	529.38
553.667	505.38
553.88	518.38
554.093	513.38
554.306	507.38
554.519	504.38
554.732	500.38
554.944	478.38
555.157	474.38
555.37	501.38
555.583	511.38
555.795	461.38
556.008	473.38
556.221	461.38
556.433	456.38
556.646	462.38
556.859	447.38
557.071	451.38
557.284	467.38
557.496	448.38
557.709	458.38
557.921	450.38
558.134	442.38
558.346	444.38
558.559	446.38
558.771	440.38
558.984	454.38
559.196	444.38
559.409	455.38
559.621	440.38
559.833	432.38
560.046	433.38
560.258	446.38
560.47	431.38
560.683	461.38
560.895	441.38
561.107	434.38
561.32	440.38
561.532	439.38
561.744	464.38
561.956	437.38
562.168	438.38
562.381	430.38
562.593	458.38
562.805	454.38
563.017	445.38
563.229	452.38
563.441	446.38
563.653	441.38
563.865	458.38
564.077	442.38
564.289	447.38
564.501	455.38
564.713	465.38
564.925	457.38
565.137	479.38
565.349	486.38
565.561	466.38
565.773	495.38
565.985	515.38
566.197	517.38
566.408	535.38
566.62	530.38
566.832	545.38
567.044	549.38
567.255	550.38
567.467	562.38
567.679	573.38
567.891	564.38
568.102	577.38
568.314	585.38
568.526	576.38
568.737	538.38
568.949	490.38
569.161	488.38
569.372	488.38
569.584	459.38
569.795	470.38
570.007	473.38
570.218	509.38
570.43	476.38
570.641	467.38
570.853	436.38
571.064	440.38
571.276	446.38
571.487	433.38
571.698	433.38
571.91	423.38
572.121	413.38
572.333	416.38
572.544	419.38
572.755	398.38
572.966	416.38
573.178	402.38
573.389	392.38
573.6	412.38
573.811	382.38
574.023	396.38
574.234	377.38
574.445	382.38
574.656	382.38
574.867	377.38
575.078	376.38
575.289	400.38
575.501	398.38
575.712	392.38
575.923	382.38
576.134	381.38
576.345	361.38
576.556	372.38
576.767	375.38
576.978	352.38
577.188	358.38
577.399	362.38
577.61	373.38
577.821	381.38
578.032	369.38
578.243	410.38
578.454	580.38
578.665	472.38
578.875	387.38
579.086	367.38
579.297	372.38
579.508	360.38
579.718	362.38
579.929	364.38
580.14	367.38
580.35	357.38
580.561	342.38
580.772	358.38
580.982	349.38
581.193	336.38
581.403	353.38
581.614	351.38
581.825	358.38
582.035	358.38
582.246	346.38
582.456	337.38
582.667	356.38
582.877	331.38
583.087	338.38
583.298	346.38
583.508	350.38
583.719	338.38
583.929	343.38
584.139	344.38
584.35	359.38
584.56	342.38
584.77	323.38
584.981	338.38
585.191	344.38
585.401	338.38
585.611	310.38
585.821	336.38
586.032	342.38
586.242	347.38
586.452	347.38
586.662	334.38
586.872	328.38
587.082	336.38
587.292	335.38
587.502	336.38
587.713	343.38
587.923	348.38
588.133	348.38
588.343	332.38
588.553	357.38
588.762	330.38
588.972	330.38
589.182	328.38
589.392	331.38
589.602	342.38
589.812	328.38
590.022	334.38
590.232	327.38
590.441	320.38
590.651	350.38
590.861	345.38
591.071	312.38
591.281	333.38
591.49	342.38
591.7	338.38
591.91	341.38
592.119	344.38
592.329	347.38
592.539	372.38
592.748	382.38
592.958	360.38
593.167	363.38
593.377	356.38
593.587	359.38
593.796	364.38
594.006	359.38
594.215	357.38
594.424	371.38
594.634	367.38
594.843	353.38
595.053	369.38
595.262	337.38
595.472	335.38
595.681	334.38
595.89	321.38
596.1	319.38
596.309	328.38
596.518	333.38
596.727	307.38
596.937	337.38
597.146	315.38
597.355	320.38
597.564	316.38
597.774	319.38
597.983	310.38
598.192	312.38
598.401	309.38
598.61	288.38
598.819	319.38
599.028	305.38
599.237	299.38
599.446	295.38
599.655	311.38
599.864	295.38
600.073	289.38
600.282	296.38
600.491	291.38
600.7	308.38
600.909	300.38
601.118	283.38
601.327	297.38
601.536	285.38
601.745	287.38
601.953	288.38
602.162	296.38
602.371	286.38
602.58	276.38
602.789	282.38
602.997	273.38
603.206	292.38
603.415	277.38
603.623	273.38
603.832	274.38
604.041	270.38
604.249	292.38
604.458	293.38
604.666	286.38
604.875	278.38
605.084	252.38
605.292	257.38
605.501	276.38
605.709	300.38
605.918	289.38
606.126	268.38
606.334	276.38
606.543	273.38
606.751	282.38
606.96	276.38
607.168	284.38
607.376	268.38
607.585	268.38
607.793	289.38
608.001	298.38
608.21	281.38
608.418	278.38
608.626	285.38
608.834	291.38
609.043	267.38
609.251	270.38
609.459	284.38
609.667	279.38
609.875	277.38
610.083	274.38
610.291	270.38
610.499	264.38
610.707	282.38
610.916	296.38
611.124	264.38
611.332	271.38
611.54	277.38
611.748	267.38
611.955	273.38
612.163	261.38
612.371	276.38
612.579	263.38
612.787	256.38
612.995	270.38
613.203	268.38
613.411	265.38
613.618	264.38
613.826	265.38
614.034	258.38
614.242	268.38
614.449	265.38
614.657	244.38
614.865	276.38
615.072	264.38
615.28	275.38
615.488	274.38
615.695	257.38
615.903	258.38
616.111	280.38
616.318	262.38
616.526	267.38
616.733	265.38
616.941	249.38
617.148	254.38
617.356	268.38
617.563	264.38
617.771	257.38
617.978	263.38
618.185	258.38
618.393	254.38
618.6	262.38
618.807	264.38
619.015	284.38
619.222	245.38
619.429	260.38
619.637	254.38
619.844	268.38
620.051	259.38
620.258	249.38
620.466	239.38
620.673	224.38
620.88	231.38
621.087	233.38
621.294	252.38
621.501	235.38
621.708	241.38
621.915	235.38
622.122	252.38
622.329	250.38
622.536	254.38
622.743	249.38
622.95	233.38
623.157	240.38
623.364	240.38
623.571	248.38
623.778	246.38
623.985	252.38
624.192	234.38
624.399	225.38
624.606	233.38
624.812	235.38
625.019	245.38
625.226	245.38
625.433	237.38
625.639	252.38
625.846	241.38
626.053	237.38
626.259	231.38
626.466	223.38
626.673	228.38
626.879	242.38
627.086	255.38
627.293	226.38
627.499	228.38
627.706	231.38
627.912	236.38
628.119	234.38
628.325	233.38
628.532	219.38
628.738	247.38
628.945	210.38
629.151	221.38
629.357	215.38
629.564	208.38
629.77	232.38
629.976	229.38
630.183	192.38
630.389	220.38
630.595	228.38
630.802	209.38
631.008	219.38
631.214	206.38
631.42	204.38
631.627	219.38
631.833	223.38
632.039	201.38
632.245	212.38
632.451	214.38
632.657	217.38
632.863	209.38
633.069	192.38
633.275	210.38
633.481	202.38
633.688	197.38
633.893	199.38
634.099	196.38
634.305	202.38
634.511	205.38
634.717	215.38
634.923	202.38
635.129	198.38
635.335	204.38
635.541	188.38
635.747	193.38
635.952	210.38
636.158	215.38
636.364	209.38
636.57	216.38
636.775	204.38
636.981	213.38
637.187	194.38
637.392	207.38
637.598	184.38
637.804	198.38
638.009	202.38
638.215	190.38
638.421	175.38
638.626	196.38
638.832	200.38
639.037	194.38
639.243	185.38
639.448	206.38
639.654	182.38
639.859	183.38
640.065	207.38
640.27	198.38
640.475	202.38
640.681	187.38
640.886	192.38
641.091	197.38
641.297	192.38
641.502	176.38
641.707	192.38
641.913	181.38
642.118	172.38
642.323	184.38
642.528	190.38
642.733	176.38
642.939	174.38
643.144	171.38
643.349	169.38
643.554	181.38
643.759	169.38
643.964	199.38
644.169	186.38
644.374	166.38
644.579	194.38
644.784	189.38
644.989	178.38
645.194	190.38
645.399	179.38
645.604	192.38
645.809	186.38
646.014	186.38
646.219	189.38
646.423	162.38
646.628	168.38
646.833	191.38
647.038	192.38
647.243	181.38
647.447	180.38
647.652	175.38
647.857	175.38
648.062	196.38
648.266	174.38
648.471	192.38
648.676	186.38
648.88	190.38
649.085	169.38
649.289	178.38
649.494	183.38
649.698	204.38
649.903	206.38
650.107	189.38
650.312	166.38
650.516	185.38
650.721	177.38
650.925	160.38
651.13	174.38
651.334	162.38
651.539	150.38
651.743	162.38
651.947	149.38
652.152	171.38
652.356	153.38
652.56	147.38
652.764	143.38
652.969	164.38
653.173	154.38
653.377	160.38
653.581	141.38
653.785	150.38
653.99	156.38
654.194	138.38
654.398	150.38
654.602	147.38
654.806	132.38
655.01	158.38
655.214	134.38
655.418	140.38
655.622	159.38
655.826	138.38
656.03	137.38
656.234	138.38
656.438	153.38
656.642	146.38
656.846	138.38
657.049	133.38
657.253	132.38
657.457	132.38
657.661	139.38
657.865	136.38
658.068	128.38
658.272	105.38
658.476	126.38
658.68	112.38
658.883	104.38
659.087	104.38
659.291	112.38
659.494	101.38
659.698	98.38
659.901	90.38
660.105	95.38
660.309	100.38
660.512	113.38
660.716	92.38
660.919	87.38
661.123	103.38
661.326	106.38
661.53	99.38
661.733	100.38
661.936	87.38
662.14	95.38
662.343	81.38
662.546	88.38
662.75	97.38
662.953	80.38
663.156	97.38
663.36	90.38
663.563	88.38
663.766	88.38
663.969	93.38
664.173	89.38
664.376	79.38
664.579	84.38
664.782	81.38
664.985	93.38
665.188	84.38
665.391	77.38
665.594	81.38
665.797	89.38
666	92.38
666.203	85.38
666.406	75.38
666.609	84.38
666.812	92.38
667.015	86.38
667.218	78.38
667.421	80.38
667.624	82.38
667.827	82.38
668.03	90.38
668.232	73.38
668.435	80.38
668.638	82.38
668.841	82.38
669.043	89.38
669.246	83.38
669.449	73.38
669.651	85.38
669.854	90.38
670.057	68.38
670.259	76.38
670.462	71.38
670.665	77.38
670.867	76.38
671.07	79.38
671.272	93.38
671.475	107.38
671.677	87.38
671.88	102.38
672.082	81.38
672.284	94.38
672.487	80.38
672.689	87.38
672.892	89.38
