Data from 1966.PennyLincolnUp.Lamp.En5.5.200Scan.071719.P1.Scan2.head_HRD10591_14-16-49-058.txt Node
Date: Thu Jul 18 14:16:49 EDT 2019
User: cochatt
Spectrometer: HR+D1059
Trigger mode: 1
Integration Time (sec): 1.000000E-1
Scans to average: 1
Electric dark correction enabled: true
Nonlinearity correction enabled: false
Boxcar width: 0
XAxis mode: Wavelengths
Number of Pixels in Spectrum: 2048
>>>>>Begin Spectral Data<<<<<
223.165	-11.94
223.4	-11.94
223.635	-11.94
223.869	-30.94
224.104	-29.94
224.338	-19.94
224.573	-10.94
224.808	-7.94
225.042	-14.94
225.277	-14.94
225.511	21.06
225.746	7.06
225.98	-2.94
226.215	21.06
226.449	17.06
226.683	12.06
226.918	18.06
227.152	48.06
227.387	30.06
227.621	45.06
227.856	46.06
228.09	51.06
228.324	40.06
228.559	44.06
228.793	66.06
229.027	99.06
229.262	80.06
229.496	91.06
229.73	120.06
229.964	132.06
230.199	122.06
230.433	102.06
230.667	99.06
230.901	117.06
231.136	97.06
231.37	113.06
231.604	116.06
231.838	125.06
232.072	102.06
232.306	104.06
232.541	123.06
232.775	100.06
233.009	116.06
233.243	100.06
233.477	118.06
233.711	110.06
233.945	89.06
234.179	119.06
234.413	121.06
234.647	94.06
234.881	127.06
235.115	123.06
235.349	102.06
235.583	110.06
235.817	113.06
236.051	114.06
236.285	116.06
236.519	127.06
236.753	110.06
236.987	125.06
237.221	160.06
237.455	209.06
237.689	170.06
237.922	138.06
238.156	128.06
238.39	127.06
238.624	120.06
238.858	122.06
239.091	109.06
239.325	112.06
239.559	122.06
239.793	126.06
240.027	126.06
240.26	136.06
240.494	139.06
240.728	159.06
240.961	150.06
241.195	140.06
241.429	132.06
241.662	128.06
241.896	125.06
242.13	120.06
242.363	137.06
242.597	125.06
242.83	147.06
243.064	133.06
243.298	136.06
243.531	131.06
243.765	141.06
243.998	147.06
244.232	152.06
244.465	132.06
244.699	147.06
244.932	152.06
245.166	141.06
245.399	138.06
245.633	152.06
245.866	142.06
246.099	138.06
246.333	155.06
246.566	147.06
246.8	144.06
247.033	155.06
247.266	165.06
247.5	156.06
247.733	160.06
247.966	160.06
248.2	169.06
248.433	169.06
248.666	147.06
248.899	150.06
249.133	186.06
249.366	188.06
249.599	190.06
249.832	170.06
250.066	171.06
250.299	184.06
250.532	177.06
250.765	202.06
250.998	209.06
251.231	201.06
251.465	209.06
251.698	199.06
251.931	188.06
252.164	181.06
252.397	174.06
252.63	188.06
252.863	205.06
253.096	193.06
253.329	213.06
253.562	206.06
253.795	192.06
254.028	215.06
254.261	190.06
254.494	206.06
254.727	228.06
254.96	244.06
255.193	237.06
255.426	220.06
255.659	221.06
255.892	228.06
256.124	207.06
256.357	189.06
256.59	212.06
256.823	207.06
257.056	204.06
257.289	190.06
257.521	201.06
257.754	208.06
257.987	208.06
258.22	169.06
258.452	208.06
258.685	201.06
258.918	193.06
259.151	177.06
259.383	199.06
259.616	196.06
259.849	216.06
260.081	223.06
260.314	218.06
260.547	226.06
260.779	222.06
261.012	220.06
261.244	216.06
261.477	218.06
261.71	213.06
261.942	206.06
262.175	209.06
262.407	213.06
262.64	186.06
262.872	215.06
263.105	197.06
263.337	199.06
263.57	208.06
263.802	207.06
264.035	189.06
264.267	212.06
264.499	206.06
264.732	202.06
264.964	185.06
265.197	194.06
265.429	198.06
265.661	189.06
265.894	200.06
266.126	182.06
266.358	185.06
266.591	202.06
266.823	214.06
267.055	217.06
267.287	230.06
267.52	220.06
267.752	206.06
267.984	210.06
268.216	204.06
268.448	207.06
268.681	225.06
268.913	223.06
269.145	237.06
269.377	235.06
269.609	240.06
269.841	240.06
270.073	241.06
270.306	247.06
270.538	263.06
270.77	266.06
271.002	281.06
271.234	280.06
271.466	282.06
271.698	273.06
271.93	258.06
272.162	260.06
272.394	288.06
272.626	288.06
272.858	261.06
273.09	252.06
273.322	236.06
273.553	237.06
273.785	255.06
274.017	260.06
274.249	234.06
274.481	240.06
274.713	241.06
274.945	250.06
275.176	251.06
275.408	254.06
275.64	244.06
275.872	267.06
276.104	246.06
276.335	247.06
276.567	237.06
276.799	256.06
277.031	257.06
277.262	285.06
277.494	280.06
277.726	295.06
277.957	267.06
278.189	263.06
278.421	263.06
278.652	256.06
278.884	247.06
279.115	251.06
279.347	244.06
279.579	264.06
279.81	264.06
280.042	252.06
280.273	243.06
280.505	258.06
280.736	252.06
280.968	247.06
281.199	260.06
281.431	239.06
281.662	260.06
281.894	240.06
282.125	249.06
282.356	274.06
282.588	287.06
282.819	276.06
283.051	256.06
283.282	252.06
283.513	257.06
283.745	252.06
283.976	260.06
284.207	280.06
284.439	263.06
284.67	269.06
284.901	269.06
285.132	268.06
285.364	260.06
285.595	274.06
285.826	265.06
286.057	271.06
286.288	261.06
286.52	261.06
286.751	268.06
286.982	277.06
287.213	257.06
287.444	256.06
287.675	284.06
287.906	273.06
288.138	292.06
288.369	287.06
288.6	257.06
288.831	266.06
289.062	284.06
289.293	265.06
289.524	270.06
289.755	282.06
289.986	268.06
290.217	262.06
290.448	286.06
290.679	277.06
290.91	286.06
291.141	274.06
291.371	285.06
291.602	282.06
291.833	262.06
292.064	261.06
292.295	278.06
292.526	262.06
292.757	286.06
292.987	279.06
293.218	278.06
293.449	267.06
293.68	268.06
293.91	253.06
294.141	264.06
294.372	289.06
294.603	272.06
294.833	273.06
295.064	282.06
295.295	292.06
295.525	285.06
295.756	286.06
295.987	275.06
296.217	295.06
296.448	306.06
296.679	285.06
296.909	304.06
297.14	279.06
297.37	281.06
297.601	277.06
297.831	267.06
298.062	297.06
298.292	293.06
298.523	290.06
298.753	305.06
298.984	291.06
299.214	287.06
299.445	287.06
299.675	291.06
299.905	310.06
300.136	305.06
300.366	305.06
300.597	301.06
300.827	302.06
301.057	306.06
301.288	308.06
301.518	305.06
301.748	286.06
301.979	296.06
302.209	306.06
302.439	326.06
302.669	312.06
302.9	324.06
303.13	306.06
303.36	320.06
303.59	314.06
303.82	312.06
304.051	327.06
304.281	299.06
304.511	314.06
304.741	309.06
304.971	294.06
305.201	310.06
305.431	296.06
305.661	321.06
305.891	321.06
306.121	311.06
306.352	310.06
306.582	303.06
306.812	306.06
307.042	309.06
307.272	326.06
307.502	317.06
307.731	303.06
307.961	310.06
308.191	312.06
308.421	316.06
308.651	323.06
308.881	320.06
309.111	327.06
309.341	318.06
309.571	327.06
309.8	330.06
310.03	324.06
310.26	342.06
310.49	337.06
310.72	350.06
310.949	352.06
311.179	364.06
311.409	357.06
311.639	326.06
311.868	355.06
312.098	349.06
312.328	350.06
312.557	351.06
312.787	382.06
313.017	363.06
313.246	363.06
313.476	360.06
313.706	359.06
313.935	354.06
314.165	354.06
314.394	370.06
314.624	347.06
314.853	348.06
315.083	348.06
315.312	377.06
315.542	362.06
315.771	329.06
316.001	344.06
316.23	352.06
316.46	373.06
316.689	348.06
316.919	345.06
317.148	342.06
317.377	361.06
317.607	370.06
317.836	349.06
318.065	366.06
318.295	351.06
318.524	347.06
318.753	350.06
318.983	357.06
319.212	362.06
319.441	343.06
319.67	345.06
319.9	357.06
320.129	364.06
320.358	347.06
320.587	351.06
320.816	355.06
321.046	356.06
321.275	358.06
321.504	380.06
321.733	388.06
321.962	378.06
322.191	384.06
322.42	399.06
322.649	419.06
322.878	405.06
323.108	417.06
323.337	423.06
323.566	437.06
323.795	450.06
324.024	459.06
324.253	537.06
324.482	750.06
324.71	1175.06
324.939	1725.06
325.168	1487.06
325.397	763.06
325.626	558.06
325.855	476.06
326.084	426.06
326.313	429.06
326.542	438.06
326.77	493.06
326.999	533.06
327.228	731.06
327.457	1060.06
327.686	1344.06
327.914	870.06
328.143	583.06
328.372	532.06
328.6	485.06
328.829	462.06
329.058	501.06
329.287	481.06
329.515	450.06
329.744	444.06
329.972	440.06
330.201	441.06
330.43	506.06
330.658	528.06
330.887	529.06
331.115	501.06
331.344	467.06
331.572	410.06
331.801	420.06
332.03	428.06
332.258	417.06
332.486	416.06
332.715	420.06
332.943	422.06
333.172	421.06
333.4	428.06
333.629	434.06
333.857	454.06
334.085	440.06
334.314	500.06
334.542	480.06
334.771	505.06
334.999	450.06
335.227	466.06
335.455	443.06
335.684	433.06
335.912	448.06
336.14	423.06
336.369	410.06
336.597	432.06
336.825	431.06
337.053	440.06
337.281	423.06
337.51	406.06
337.738	418.06
337.966	407.06
338.194	405.06
338.422	426.06
338.65	417.06
338.878	424.06
339.106	410.06
339.334	403.06
339.562	383.06
339.79	395.06
340.018	412.06
340.246	422.06
340.474	412.06
340.702	402.06
340.93	409.06
341.158	421.06
341.386	400.06
341.614	417.06
341.842	396.06
342.07	402.06
342.298	397.06
342.526	416.06
342.754	406.06
342.981	409.06
343.209	414.06
343.437	400.06
343.665	410.06
343.893	416.06
344.12	426.06
344.348	427.06
344.576	409.06
344.804	422.06
345.031	437.06
345.259	446.06
345.487	428.06
345.714	408.06
345.942	430.06
346.17	420.06
346.397	409.06
346.625	414.06
346.853	392.06
347.08	393.06
347.308	372.06
347.535	401.06
347.763	401.06
347.99	426.06
348.218	411.06
348.445	413.06
348.673	410.06
348.9	385.06
349.128	391.06
349.355	389.06
349.583	394.06
349.81	389.06
350.037	400.06
350.265	392.06
350.492	410.06
350.72	416.06
350.947	400.06
351.174	400.06
351.402	413.06
351.629	413.06
351.856	403.06
352.083	409.06
352.311	416.06
352.538	400.06
352.765	416.06
352.992	412.06
353.22	383.06
353.447	393.06
353.674	408.06
353.901	362.06
354.128	378.06
354.355	385.06
354.583	393.06
354.81	389.06
355.037	389.06
355.264	390.06
355.491	383.06
355.718	364.06
355.945	386.06
356.172	386.06
356.399	364.06
356.626	388.06
356.853	383.06
357.08	388.06
357.307	389.06
357.534	385.06
357.761	364.06
357.988	375.06
358.215	401.06
358.441	400.06
358.668	381.06
358.895	375.06
359.122	384.06
359.349	387.06
359.576	391.06
359.802	397.06
360.029	440.06
360.256	449.06
360.483	438.06
360.709	403.06
360.936	400.06
361.163	394.06
361.39	432.06
361.616	418.06
361.843	391.06
362.07	407.06
362.296	405.06
362.523	399.06
362.749	393.06
362.976	380.06
363.203	400.06
363.429	379.06
363.656	386.06
363.882	388.06
364.109	406.06
364.335	403.06
364.562	405.06
364.788	406.06
365.015	392.06
365.241	400.06
365.468	392.06
365.694	424.06
365.92	388.06
366.147	399.06
366.373	397.06
366.599	390.06
366.826	392.06
367.052	397.06
367.278	399.06
367.505	401.06
367.731	396.06
367.957	385.06
368.184	408.06
368.41	430.06
368.636	418.06
368.862	424.06
369.089	412.06
369.315	412.06
369.541	399.06
369.767	422.06
369.993	412.06
370.219	410.06
370.445	416.06
370.672	389.06
370.898	382.06
371.124	393.06
371.35	408.06
371.576	403.06
371.802	400.06
372.028	390.06
372.254	408.06
372.48	383.06
372.706	401.06
372.932	403.06
373.158	377.06
373.384	407.06
373.61	430.06
373.835	420.06
374.061	401.06
374.287	424.06
374.513	425.06
374.739	415.06
374.965	405.06
375.191	413.06
375.416	424.06
375.642	429.06
375.868	420.06
376.094	403.06
376.319	415.06
376.545	427.06
376.771	410.06
376.997	408.06
377.222	396.06
377.448	400.06
377.674	416.06
377.899	432.06
378.125	402.06
378.35	422.06
378.576	414.06
378.802	400.06
379.027	396.06
379.253	403.06
379.478	398.06
379.704	390.06
379.929	420.06
380.155	388.06
380.38	418.06
380.606	421.06
380.831	418.06
381.057	412.06
381.282	407.06
381.507	386.06
381.733	428.06
381.958	420.06
382.184	416.06
382.409	431.06
382.634	423.06
382.86	418.06
383.085	430.06
383.31	427.06
383.535	437.06
383.761	434.06
383.986	440.06
384.211	431.06
384.436	428.06
384.662	431.06
384.887	449.06
385.112	430.06
385.337	461.06
385.562	465.06
385.787	442.06
386.013	469.06
386.238	454.06
386.463	448.06
386.688	462.06
386.913	461.06
387.138	449.06
387.363	439.06
387.588	452.06
387.813	468.06
388.038	449.06
388.263	458.06
388.488	457.06
388.713	469.06
388.938	439.06
389.163	476.06
389.387	454.06
389.612	454.06
389.837	461.06
390.062	447.06
390.287	459.06
390.512	446.06
390.736	445.06
390.961	459.06
391.186	458.06
391.411	448.06
391.636	480.06
391.86	486.06
392.085	472.06
392.31	475.06
392.534	462.06
392.759	464.06
392.984	464.06
393.208	489.06
393.433	504.06
393.658	481.06
393.882	478.06
394.107	460.06
394.331	466.06
394.556	458.06
394.78	469.06
395.005	486.06
395.229	477.06
395.454	466.06
395.678	481.06
395.903	496.06
396.127	497.06
396.352	525.06
396.576	502.06
396.801	506.06
397.025	482.06
397.249	476.06
397.474	493.06
397.698	487.06
397.922	522.06
398.147	516.06
398.371	508.06
398.595	533.06
398.82	496.06
399.044	540.06
399.268	566.06
399.492	596.06
399.717	590.06
399.941	624.06
400.165	663.06
400.389	658.06
400.613	593.06
400.837	546.06
401.062	545.06
401.286	541.06
401.51	521.06
401.734	536.06
401.958	536.06
402.182	530.06
402.406	537.06
402.63	545.06
402.854	557.06
403.078	525.06
403.302	559.06
403.526	554.06
403.75	556.06
403.974	546.06
404.198	544.06
404.422	541.06
404.645	543.06
404.869	553.06
405.093	616.06
405.317	609.06
405.541	655.06
405.765	611.06
405.988	593.06
406.212	594.06
406.436	578.06
406.66	619.06
406.883	574.06
407.107	607.06
407.331	632.06
407.555	697.06
407.778	729.06
408.002	663.06
408.226	601.06
408.449	614.06
408.673	582.06
408.896	626.06
409.12	672.06
409.344	623.06
409.567	568.06
409.791	576.06
410.014	530.06
410.238	540.06
410.461	555.06
410.685	571.06
410.908	566.06
411.132	609.06
411.355	625.06
411.578	588.06
411.802	556.06
412.025	542.06
412.249	575.06
412.472	594.06
412.695	605.06
412.919	602.06
413.142	557.06
413.365	550.06
413.589	545.06
413.812	527.06
414.035	538.06
414.258	522.06
414.482	524.06
414.705	522.06
414.928	509.06
415.151	524.06
415.374	520.06
415.597	533.06
415.821	516.06
416.044	522.06
416.267	523.06
416.49	513.06
416.713	527.06
416.936	525.06
417.159	509.06
417.382	530.06
417.605	530.06
417.828	532.06
418.051	521.06
418.274	522.06
418.497	508.06
418.72	544.06
418.943	505.06
419.166	514.06
419.389	556.06
419.611	564.06
419.834	549.06
420.057	526.06
420.28	530.06
420.503	530.06
420.726	533.06
420.948	542.06
421.171	596.06
421.394	636.06
421.617	587.06
421.839	556.06
422.062	529.06
422.285	557.06
422.507	619.06
422.73	673.06
422.953	657.06
423.175	571.06
423.398	556.06
423.621	564.06
423.843	567.06
424.066	575.06
424.288	591.06
424.511	582.06
424.733	640.06
424.956	731.06
425.178	671.06
425.401	674.06
425.623	706.06
425.846	614.06
426.068	554.06
426.291	551.06
426.513	559.06
426.735	590.06
426.958	610.06
427.18	684.06
427.402	809.06
427.625	894.06
427.847	762.06
428.069	704.06
428.292	606.06
428.514	568.06
428.736	557.06
428.958	552.06
429.181	544.06
429.403	513.06
429.625	526.06
429.847	568.06
430.069	609.06
430.292	633.06
430.514	556.06
430.736	514.06
430.958	540.06
431.18	497.06
431.402	520.06
431.624	514.06
431.846	503.06
432.068	521.06
432.29	514.06
432.512	526.06
432.734	519.06
432.956	528.06
433.178	517.06
433.4	512.06
433.622	522.06
433.844	519.06
434.066	506.06
434.287	520.06
434.509	510.06
434.731	509.06
434.953	516.06
435.175	534.06
435.397	577.06
435.618	592.06
435.84	591.06
436.062	724.06
436.284	786.06
436.505	632.06
436.727	574.06
436.949	555.06
437.17	538.06
437.392	536.06
437.614	531.06
437.835	582.06
438.057	634.06
438.278	728.06
438.5	767.06
438.721	832.06
438.943	783.06
439.165	634.06
439.386	579.06
439.608	577.06
439.829	586.06
440.05	576.06
440.272	643.06
440.493	586.06
440.715	565.06
440.936	546.06
441.158	532.06
441.379	550.06
441.6	549.06
441.822	560.06
442.043	594.06
442.264	704.06
442.486	713.06
442.707	629.06
442.928	575.06
443.149	585.06
443.371	593.06
443.592	638.06
443.813	737.06
444.034	792.06
444.255	668.06
444.476	591.06
444.698	584.06
444.919	564.06
445.14	676.06
445.361	628.06
445.582	623.06
445.803	668.06
446.024	735.06
446.245	789.06
446.466	697.06
446.687	602.06
446.908	571.06
447.129	546.06
447.35	536.06
447.571	552.06
447.792	509.06
448.013	530.06
448.234	556.06
448.455	580.06
448.675	719.06
448.896	814.06
449.117	666.06
449.338	654.06
449.559	743.06
449.779	880.06
450	690.06
450.221	553.06
450.442	511.06
450.662	507.06
450.883	527.06
451.104	542.06
451.324	506.06
451.545	489.06
451.766	485.06
451.986	473.06
452.207	469.06
452.428	488.06
452.648	463.06
452.869	475.06
453.089	477.06
453.31	504.06
453.53	475.06
453.751	486.06
453.971	481.06
454.192	493.06
454.412	460.06
454.633	463.06
454.853	458.06
455.073	471.06
455.294	482.06
455.514	556.06
455.734	529.06
455.955	475.06
456.175	454.06
456.395	456.06
456.616	441.06
456.836	456.06
457.056	465.06
457.276	445.06
457.497	458.06
457.717	441.06
457.937	466.06
458.157	458.06
458.377	487.06
458.598	501.06
458.818	518.06
459.038	581.06
459.258	586.06
459.478	565.06
459.698	508.06
459.918	525.06
460.138	526.06
460.358	513.06
460.578	538.06
460.798	524.06
461.018	560.06
461.238	545.06
461.458	534.06
461.678	515.06
461.898	526.06
462.118	549.06
462.338	550.06
462.558	537.06
462.777	558.06
462.997	593.06
463.217	606.06
463.437	593.06
463.657	581.06
463.876	568.06
464.096	574.06
464.316	575.06
464.536	571.06
464.755	560.06
464.975	570.06
465.195	595.06
465.414	636.06
465.634	584.06
465.854	558.06
466.073	520.06
466.293	495.06
466.512	514.06
466.732	472.06
466.951	491.06
467.171	489.06
467.391	492.06
467.61	500.06
467.829	490.06
468.049	493.06
468.268	476.06
468.488	480.06
468.707	494.06
468.927	472.06
469.146	491.06
469.365	500.06
469.585	476.06
469.804	500.06
470.023	525.06
470.243	495.06
470.462	492.06
470.681	524.06
470.901	513.06
471.12	506.06
471.339	489.06
471.558	508.06
471.777	501.06
471.997	498.06
472.216	512.06
472.435	528.06
472.654	528.06
472.873	498.06
473.092	484.06
473.311	490.06
473.53	484.06
473.749	507.06
473.968	545.06
474.187	635.06
474.406	648.06
474.625	559.06
474.844	506.06
475.063	517.06
475.282	485.06
475.501	486.06
475.72	512.06
475.939	494.06
476.158	514.06
476.377	520.06
476.596	522.06
476.814	523.06
477.033	526.06
477.252	541.06
477.471	544.06
477.69	551.06
477.908	520.06
478.127	557.06
478.346	544.06
478.564	565.06
478.783	568.06
479.002	551.06
479.22	586.06
479.439	590.06
479.658	594.06
479.876	592.06
480.095	607.06
480.313	619.06
480.532	613.06
480.751	607.06
480.969	608.06
481.188	671.06
481.406	694.06
481.624	636.06
481.843	605.06
482.061	586.06
482.28	559.06
482.498	577.06
482.717	596.06
482.935	596.06
483.153	595.06
483.372	593.06
483.59	611.06
483.808	580.06
484.027	585.06
484.245	575.06
484.463	616.06
484.681	623.06
484.9	600.06
485.118	609.06
485.336	602.06
485.554	601.06
485.772	624.06
485.99	624.06
486.209	595.06
486.427	618.06
486.645	625.06
486.863	598.06
487.081	628.06
487.299	649.06
487.517	657.06
487.735	618.06
487.953	643.06
488.171	626.06
488.389	635.06
488.607	617.06
488.825	636.06
489.043	635.06
489.261	640.06
489.479	632.06
489.696	665.06
489.914	643.06
490.132	637.06
490.35	644.06
490.568	646.06
490.786	650.06
491.003	656.06
491.221	675.06
491.439	691.06
491.657	700.06
491.874	693.06
492.092	698.06
492.31	701.06
492.527	704.06
492.745	725.06
492.963	728.06
493.18	710.06
493.398	721.06
493.615	723.06
493.833	735.06
494.05	744.06
494.268	718.06
494.485	713.06
494.703	711.06
494.92	704.06
495.138	730.06
495.355	744.06
495.573	747.06
495.79	756.06
496.008	758.06
496.225	734.06
496.442	726.06
496.66	762.06
496.877	735.06
497.094	764.06
497.312	749.06
497.529	765.06
497.746	762.06
497.963	799.06
498.181	810.06
498.398	805.06
498.615	841.06
498.832	841.06
499.049	877.06
499.267	873.06
499.484	949.06
499.701	948.06
499.918	997.06
500.135	1049.06
500.352	1095.06
500.569	1098.06
500.786	1127.06
501.003	1098.06
501.22	1062.06
501.437	1016.06
501.654	1007.06
501.871	960.06
502.088	907.06
502.305	887.06
502.522	832.06
502.739	849.06
502.956	815.06
503.172	818.06
503.389	806.06
503.606	793.06
503.823	781.06
504.04	781.06
504.256	774.06
504.473	750.06
504.69	759.06
504.907	760.06
505.123	738.06
505.34	727.06
505.557	714.06
505.773	722.06
505.99	706.06
506.207	717.06
506.423	719.06
506.64	678.06
506.856	692.06
507.073	675.06
507.289	694.06
507.506	696.06
507.722	698.06
507.939	702.06
508.155	652.06
508.372	684.06
508.588	686.06
508.805	652.06
509.021	650.06
509.238	658.06
509.454	676.06
509.67	649.06
509.887	677.06
510.103	644.06
510.319	655.06
510.536	704.06
510.752	1042.06
510.968	889.06
511.184	664.06
511.401	632.06
511.617	618.06
511.833	607.06
512.049	616.06
512.265	614.06
512.481	621.06
512.698	644.06
512.914	630.06
513.13	618.06
513.346	605.06
513.562	634.06
513.778	604.06
513.994	617.06
514.21	625.06
514.426	630.06
514.642	669.06
514.858	695.06
515.074	725.06
515.29	782.06
515.506	1072.06
515.721	918.06
515.937	700.06
516.153	700.06
516.369	654.06
516.585	642.06
516.801	644.06
517.016	654.06
517.232	638.06
517.448	656.06
517.664	664.06
517.879	655.06
518.095	650.06
518.311	653.06
518.527	666.06
518.742	668.06
518.958	630.06
519.173	648.06
519.389	642.06
519.605	620.06
519.82	617.06
520.036	632.06
520.251	638.06
520.467	657.06
520.682	676.06
520.898	657.06
521.113	661.06
521.329	684.06
521.544	730.06
521.76	875.06
521.975	1309.06
522.19	1317.06
522.406	825.06
522.621	670.06
522.836	622.06
523.052	600.06
523.267	598.06
523.482	586.06
523.698	587.06
523.913	557.06
524.128	550.06
524.343	575.06
524.559	544.06
524.774	548.06
524.989	555.06
525.204	534.06
525.419	546.06
525.634	546.06
525.849	529.06
526.064	530.06
526.28	519.06
526.495	517.06
526.71	532.06
526.925	527.06
527.14	524.06
527.355	517.06
527.57	535.06
527.785	520.06
527.999	508.06
528.214	520.06
528.429	518.06
528.644	543.06
528.859	548.06
529.074	534.06
529.289	558.06
529.503	589.06
529.718	581.06
529.933	569.06
530.148	542.06
530.363	504.06
530.577	517.06
530.792	504.06
531.007	522.06
531.221	517.06
531.436	503.06
531.651	509.06
531.865	510.06
532.08	517.06
532.295	517.06
532.509	513.06
532.724	507.06
532.938	525.06
533.153	520.06
533.367	487.06
533.582	505.06
533.796	520.06
534.011	503.06
534.225	498.06
534.44	493.06
534.654	506.06
534.868	514.06
535.083	475.06
535.297	490.06
535.511	512.06
535.726	510.06
535.94	509.06
536.154	489.06
536.369	491.06
536.583	484.06
536.797	506.06
537.011	524.06
537.225	493.06
537.44	494.06
537.654	496.06
537.868	475.06
538.082	471.06
538.296	476.06
538.51	502.06
538.724	502.06
538.938	458.06
539.153	470.06
539.367	505.06
539.581	499.06
539.795	487.06
540.009	475.06
540.222	486.06
540.436	496.06
540.65	474.06
540.864	484.06
541.078	479.06
541.292	483.06
541.506	488.06
541.72	480.06
541.934	482.06
542.147	472.06
542.361	474.06
542.575	472.06
542.789	482.06
543.002	483.06
543.216	486.06
543.43	466.06
543.644	492.06
543.857	493.06
544.071	484.06
544.285	489.06
544.498	480.06
544.712	493.06
544.925	496.06
545.139	484.06
545.352	454.06
545.566	466.06
545.779	468.06
545.993	469.06
546.206	484.06
546.42	498.06
546.633	468.06
546.847	472.06
547.06	458.06
547.274	454.06
547.487	465.06
547.7	467.06
547.914	462.06
548.127	469.06
548.34	499.06
548.554	462.06
548.767	463.06
548.98	469.06
549.193	470.06
549.407	462.06
549.62	466.06
549.833	469.06
550.046	467.06
550.259	462.06
550.473	464.06
550.686	451.06
550.899	464.06
551.112	457.06
551.325	466.06
551.538	462.06
551.751	462.06
551.964	470.06
552.177	453.06
552.39	450.06
552.603	484.06
552.816	484.06
553.029	467.06
553.242	475.06
553.455	487.06
553.667	474.06
553.88	484.06
554.093	476.06
554.306	476.06
554.519	478.06
554.732	474.06
554.944	464.06
555.157	478.06
555.37	422.06
555.583	452.06
555.795	438.06
556.008	426.06
556.221	418.06
556.433	417.06
556.646	436.06
556.859	428.06
557.071	452.06
557.284	428.06
557.496	424.06
557.709	432.06
557.921	433.06
558.134	407.06
558.346	411.06
558.559	425.06
558.771	442.06
558.984	417.06
559.196	408.06
559.409	417.06
559.621	412.06
559.833	432.06
560.046	424.06
560.258	426.06
560.47	433.06
560.683	407.06
560.895	425.06
561.107	423.06
561.32	416.06
561.532	439.06
561.744	420.06
561.956	407.06
562.168	424.06
562.381	418.06
562.593	428.06
562.805	415.06
563.017	418.06
563.229	429.06
563.441	431.06
563.653	432.06
563.865	414.06
564.077	433.06
564.289	438.06
564.501	433.06
564.713	426.06
564.925	441.06
565.137	452.06
565.349	450.06
565.561	473.06
565.773	486.06
565.985	482.06
566.197	495.06
566.408	507.06
566.62	516.06
566.832	505.06
567.044	509.06
567.255	538.06
567.467	546.06
567.679	522.06
567.891	562.06
568.102	552.06
568.314	531.06
568.526	524.06
568.737	514.06
568.949	504.06
569.161	471.06
569.372	471.06
569.584	444.06
569.795	424.06
570.007	437.06
570.218	466.06
570.43	440.06
570.641	427.06
570.853	433.06
571.064	421.06
571.276	406.06
571.487	413.06
571.698	410.06
571.91	407.06
572.121	398.06
572.333	385.06
572.544	398.06
572.755	382.06
572.966	385.06
573.178	381.06
573.389	373.06
573.6	381.06
573.811	369.06
574.023	353.06
574.234	369.06
574.445	377.06
574.656	390.06
574.867	375.06
575.078	378.06
575.289	382.06
575.501	372.06
575.712	351.06
575.923	358.06
576.134	366.06
576.345	369.06
576.556	377.06
576.767	358.06
576.978	346.06
577.188	352.06
577.399	372.06
577.61	356.06
577.821	354.06
578.032	350.06
578.243	361.06
578.454	505.06
578.665	413.06
578.875	367.06
579.086	340.06
579.297	332.06
579.508	345.06
579.718	324.06
579.929	316.06
580.14	338.06
580.35	321.06
580.561	347.06
580.772	340.06
580.982	332.06
581.193	345.06
581.403	343.06
581.614	338.06
581.825	353.06
582.035	331.06
582.246	318.06
582.456	321.06
582.667	329.06
582.877	324.06
583.087	319.06
583.298	318.06
583.508	325.06
583.719	300.06
583.929	318.06
584.139	317.06
584.35	327.06
584.56	329.06
584.77	331.06
584.981	319.06
585.191	332.06
585.401	322.06
585.611	325.06
585.821	331.06
586.032	336.06
586.242	316.06
586.452	324.06
586.662	309.06
586.872	328.06
587.082	319.06
587.292	322.06
587.502	338.06
587.713	320.06
587.923	337.06
588.133	325.06
588.343	328.06
588.553	312.06
588.762	321.06
588.972	322.06
589.182	361.06
589.392	354.06
589.602	335.06
589.812	344.06
590.022	338.06
590.232	335.06
590.441	313.06
590.651	331.06
590.861	317.06
591.071	310.06
591.281	347.06
591.49	341.06
591.7	308.06
591.91	330.06
592.119	331.06
592.329	317.06
592.539	324.06
592.748	340.06
592.958	337.06
593.167	367.06
593.377	342.06
593.587	338.06
593.796	342.06
594.006	339.06
594.215	342.06
594.424	341.06
594.634	345.06
594.843	339.06
595.053	342.06
595.262	342.06
595.472	329.06
595.681	312.06
595.89	304.06
596.1	321.06
596.309	316.06
596.518	304.06
596.727	312.06
596.937	296.06
597.146	298.06
597.355	302.06
597.564	292.06
597.774	301.06
597.983	280.06
598.192	311.06
598.401	293.06
598.61	303.06
598.819	298.06
599.028	300.06
599.237	289.06
599.446	282.06
599.655	265.06
599.864	276.06
600.073	275.06
600.282	281.06
600.491	284.06
600.7	262.06
600.909	292.06
601.118	281.06
601.327	300.06
601.536	282.06
601.745	290.06
601.953	277.06
602.162	293.06
602.371	271.06
602.58	292.06
602.789	252.06
602.997	285.06
603.206	284.06
603.415	269.06
603.623	270.06
603.832	268.06
604.041	283.06
604.249	274.06
604.458	268.06
604.666	270.06
604.875	269.06
605.084	253.06
605.292	268.06
605.501	264.06
605.709	264.06
605.918	260.06
606.126	266.06
606.334	260.06
606.543	266.06
606.751	266.06
606.96	258.06
607.168	253.06
607.376	260.06
607.585	264.06
607.793	260.06
608.001	283.06
608.21	251.06
608.418	256.06
608.626	272.06
608.834	269.06
609.043	255.06
609.251	261.06
609.459	258.06
609.667	262.06
609.875	264.06
610.083	257.06
610.291	263.06
610.499	261.06
610.707	256.06
610.916	269.06
611.124	266.06
611.332	273.06
611.54	287.06
611.748	268.06
611.955	260.06
612.163	257.06
612.371	252.06
612.579	241.06
612.787	247.06
612.995	262.06
613.203	282.06
613.411	247.06
613.618	251.06
613.826	236.06
614.034	261.06
614.242	238.06
614.449	244.06
614.657	260.06
614.865	238.06
615.072	257.06
615.28	247.06
615.488	261.06
615.695	244.06
615.903	253.06
616.111	248.06
616.318	269.06
616.526	233.06
616.733	257.06
616.941	235.06
617.148	246.06
617.356	271.06
617.563	258.06
617.771	247.06
617.978	248.06
618.185	246.06
618.393	255.06
618.6	246.06
618.807	243.06
619.015	237.06
619.222	249.06
619.429	248.06
619.637	245.06
619.844	237.06
620.051	245.06
620.258	250.06
620.466	234.06
620.673	237.06
620.88	229.06
621.087	226.06
621.294	236.06
621.501	236.06
621.708	236.06
621.915	228.06
622.122	241.06
622.329	235.06
622.536	236.06
622.743	231.06
622.95	237.06
623.157	235.06
623.364	228.06
623.571	222.06
623.778	235.06
623.985	218.06
624.192	240.06
624.399	218.06
624.606	218.06
624.812	232.06
625.019	245.06
625.226	251.06
625.433	234.06
625.639	222.06
625.846	216.06
626.053	213.06
626.259	218.06
626.466	227.06
626.673	231.06
626.879	211.06
627.086	206.06
627.293	231.06
627.499	214.06
627.706	219.06
627.912	224.06
628.119	204.06
628.325	220.06
628.532	217.06
628.738	213.06
628.945	210.06
629.151	218.06
629.357	234.06
629.564	196.06
629.77	224.06
629.976	185.06
630.183	202.06
630.389	205.06
630.595	196.06
630.802	190.06
631.008	201.06
631.214	187.06
631.42	206.06
631.627	214.06
631.833	197.06
632.039	193.06
632.245	208.06
632.451	207.06
632.657	210.06
632.863	188.06
633.069	219.06
633.275	202.06
633.481	206.06
633.688	194.06
633.893	201.06
634.099	200.06
634.305	207.06
634.511	194.06
634.717	201.06
634.923	185.06
635.129	202.06
635.335	185.06
635.541	197.06
635.747	180.06
635.952	190.06
636.158	199.06
636.364	195.06
636.57	206.06
636.775	183.06
636.981	208.06
637.187	190.06
637.392	182.06
637.598	205.06
637.804	199.06
638.009	197.06
638.215	184.06
638.421	196.06
638.626	189.06
638.832	201.06
639.037	175.06
639.243	188.06
639.448	198.06
639.654	219.06
639.859	185.06
640.065	183.06
640.27	206.06
640.475	196.06
640.681	205.06
640.886	193.06
641.091	177.06
641.297	180.06
641.502	182.06
641.707	188.06
641.913	186.06
642.118	173.06
642.323	184.06
642.528	189.06
642.733	193.06
642.939	176.06
643.144	173.06
643.349	193.06
643.554	171.06
643.759	180.06
643.964	166.06
644.169	180.06
644.374	177.06
644.579	184.06
644.784	185.06
644.989	187.06
645.194	190.06
645.399	171.06
645.604	166.06
645.809	172.06
646.014	173.06
646.219	173.06
646.423	190.06
646.628	190.06
646.833	189.06
647.038	176.06
647.243	182.06
647.447	182.06
647.652	175.06
647.857	186.06
648.062	173.06
648.266	178.06
648.471	183.06
648.676	201.06
648.88	186.06
649.085	202.06
649.289	176.06
649.494	184.06
649.698	201.06
649.903	211.06
650.107	180.06
650.312	171.06
650.516	146.06
650.721	176.06
650.925	177.06
651.13	154.06
651.334	159.06
651.539	175.06
651.743	154.06
651.947	153.06
652.152	159.06
652.356	145.06
652.56	157.06
652.764	154.06
652.969	162.06
653.173	145.06
653.377	152.06
653.581	140.06
653.785	140.06
653.99	148.06
654.194	147.06
654.398	140.06
654.602	161.06
654.806	146.06
655.01	148.06
655.214	155.06
655.418	143.06
655.622	144.06
655.826	144.06
656.03	132.06
656.234	150.06
656.438	144.06
656.642	155.06
656.846	150.06
657.049	143.06
657.253	127.06
657.457	136.06
657.661	136.06
657.865	128.06
658.068	143.06
658.272	127.06
658.476	126.06
658.68	121.06
658.883	112.06
659.087	105.06
659.291	116.06
659.494	94.06
659.698	117.06
659.901	106.06
660.105	102.06
660.309	96.06
660.512	101.06
660.716	95.06
660.919	111.06
661.123	116.06
661.326	84.06
661.53	93.06
661.733	85.06
661.936	95.06
662.14	84.06
662.343	95.06
662.546	84.06
662.75	89.06
662.953	80.06
663.156	88.06
663.36	75.06
663.563	93.06
663.766	94.06
663.969	87.06
664.173	80.06
664.376	97.06
664.579	89.06
664.782	83.06
664.985	88.06
665.188	86.06
665.391	89.06
665.594	89.06
665.797	77.06
666	96.06
666.203	86.06
666.406	81.06
666.609	94.06
666.812	85.06
667.015	79.06
667.218	90.06
667.421	93.06
667.624	82.06
667.827	103.06
668.03	103.06
668.232	83.06
668.435	75.06
668.638	86.06
668.841	74.06
669.043	92.06
669.246	77.06
669.449	88.06
669.651	70.06
669.854	80.06
670.057	94.06
670.259	97.06
670.462	91.06
670.665	83.06
670.867	73.06
671.07	79.06
671.272	92.06
671.475	89.06
671.677	83.06
671.88	90.06
672.082	73.06
672.284	79.06
672.487	89.06
672.689	90.06
672.892	89.06
