Data from 1966.PennyLincolnUp.Lamp.En5.5.200Scan.071719.P1._HRD10591_14-15-15-935.txt Node
Date: Thu Jul 18 14:15:15 EDT 2019
User: cochatt
Spectrometer: HR+D1059
Trigger mode: 1
Integration Time (sec): 1.000000E-1
Scans to average: 1
Electric dark correction enabled: true
Nonlinearity correction enabled: false
Boxcar width: 0
XAxis mode: Wavelengths
Number of Pixels in Spectrum: 2048
>>>>>Begin Spectral Data<<<<<
223.165	-26.12
223.4	-26.12
223.635	-26.12
223.869	-11.12
224.104	-14.12
224.338	-3.12
224.573	-33.12
224.808	-25.12
225.042	6.88
225.277	-9.12
225.511	-7.12
225.746	-1.12
225.98	12.88
226.215	11.88
226.449	21.88
226.683	25.88
226.918	21.88
227.152	28.88
227.387	24.88
227.621	45.88
227.856	29.88
228.09	42.88
228.324	60.88
228.559	54.88
228.793	57.88
229.027	78.88
229.262	85.88
229.496	85.88
229.73	93.88
229.964	103.88
230.199	99.88
230.433	97.88
230.667	94.88
230.901	99.88
231.136	91.88
231.37	93.88
231.604	93.88
231.838	87.88
232.072	107.88
232.306	88.88
232.541	86.88
232.775	102.88
233.009	102.88
233.243	120.88
233.477	100.88
233.711	91.88
233.945	87.88
234.179	97.88
234.413	105.88
234.647	93.88
234.881	87.88
235.115	90.88
235.349	92.88
235.583	103.88
235.817	105.88
236.051	93.88
236.285	108.88
236.519	107.88
236.753	100.88
236.987	114.88
237.221	129.88
237.455	150.88
237.689	133.88
237.922	112.88
238.156	102.88
238.39	103.88
238.624	95.88
238.858	99.88
239.091	98.88
239.325	95.88
239.559	102.88
239.793	95.88
240.027	103.88
240.26	117.88
240.494	121.88
240.728	118.88
240.961	106.88
241.195	91.88
241.429	108.88
241.662	106.88
241.896	105.88
242.13	120.88
242.363	102.88
242.597	90.88
242.83	106.88
243.064	112.88
243.298	96.88
243.531	97.88
243.765	126.88
243.998	116.88
244.232	107.88
244.465	99.88
244.699	102.88
244.932	112.88
245.166	102.88
245.399	121.88
245.633	113.88
245.866	111.88
246.099	119.88
246.333	107.88
246.566	116.88
246.8	90.88
247.033	124.88
247.266	111.88
247.5	123.88
247.733	112.88
247.966	128.88
248.2	120.88
248.433	127.88
248.666	116.88
248.899	122.88
249.133	137.88
249.366	149.88
249.599	140.88
249.832	137.88
250.066	121.88
250.299	135.88
250.532	140.88
250.765	137.88
250.998	149.88
251.231	141.88
251.465	134.88
251.698	129.88
251.931	137.88
252.164	126.88
252.397	129.88
252.63	137.88
252.863	141.88
253.096	124.88
253.329	140.88
253.562	132.88
253.795	130.88
254.028	121.88
254.261	139.88
254.494	144.88
254.727	165.88
254.96	164.88
255.193	159.88
255.426	151.88
255.659	138.88
255.892	158.88
256.124	145.88
256.357	130.88
256.59	145.88
256.823	137.88
257.056	133.88
257.289	135.88
257.521	133.88
257.754	127.88
257.987	128.88
258.22	132.88
258.452	139.88
258.685	140.88
258.918	140.88
259.151	134.88
259.383	136.88
259.616	140.88
259.849	152.88
260.081	138.88
260.314	148.88
260.547	177.88
260.779	155.88
261.012	160.88
261.244	145.88
261.477	140.88
261.71	156.88
261.942	152.88
262.175	148.88
262.407	146.88
262.64	134.88
262.872	152.88
263.105	150.88
263.337	129.88
263.57	136.88
263.802	152.88
264.035	132.88
264.267	134.88
264.499	141.88
264.732	131.88
264.964	132.88
265.197	143.88
265.429	130.88
265.661	146.88
265.894	157.88
266.126	147.88
266.358	144.88
266.591	146.88
266.823	144.88
267.055	150.88
267.287	152.88
267.52	138.88
267.752	132.88
267.984	134.88
268.216	157.88
268.448	159.88
268.681	156.88
268.913	155.88
269.145	162.88
269.377	162.88
269.609	171.88
269.841	160.88
270.073	157.88
270.306	185.88
270.538	186.88
270.77	191.88
271.002	174.88
271.234	168.88
271.466	188.88
271.698	201.88
271.93	189.88
272.162	206.88
272.394	189.88
272.626	179.88
272.858	173.88
273.09	167.88
273.322	156.88
273.553	169.88
273.785	162.88
274.017	151.88
274.249	154.88
274.481	162.88
274.713	156.88
274.945	167.88
275.176	168.88
275.408	175.88
275.64	173.88
275.872	164.88
276.104	166.88
276.335	167.88
276.567	185.88
276.799	163.88
277.031	191.88
277.262	200.88
277.494	190.88
277.726	175.88
277.957	192.88
278.189	182.88
278.421	148.88
278.652	153.88
278.884	167.88
279.115	173.88
279.347	177.88
279.579	152.88
279.81	177.88
280.042	169.88
280.273	160.88
280.505	159.88
280.736	156.88
280.968	161.88
281.199	165.88
281.431	170.88
281.662	163.88
281.894	164.88
282.125	168.88
282.356	168.88
282.588	184.88
282.819	183.88
283.051	169.88
283.282	175.88
283.513	161.88
283.745	187.88
283.976	168.88
284.207	171.88
284.439	175.88
284.67	180.88
284.901	162.88
285.132	163.88
285.364	169.88
285.595	162.88
285.826	161.88
286.057	160.88
286.288	188.88
286.52	157.88
286.751	183.88
286.982	169.88
287.213	164.88
287.444	173.88
287.675	150.88
287.906	164.88
288.138	192.88
288.369	201.88
288.6	185.88
288.831	175.88
289.062	172.88
289.293	173.88
289.524	187.88
289.755	177.88
289.986	171.88
290.217	160.88
290.448	168.88
290.679	143.88
290.91	166.88
291.141	156.88
291.371	173.88
291.602	172.88
291.833	176.88
292.064	172.88
292.295	153.88
292.526	175.88
292.757	165.88
292.987	182.88
293.218	182.88
293.449	172.88
293.68	186.88
293.91	175.88
294.141	170.88
294.372	176.88
294.603	186.88
294.833	163.88
295.064	189.88
295.295	173.88
295.525	175.88
295.756	203.88
295.987	187.88
296.217	199.88
296.448	199.88
296.679	164.88
296.909	164.88
297.14	183.88
297.37	183.88
297.601	191.88
297.831	191.88
298.062	176.88
298.292	190.88
298.523	170.88
298.753	176.88
298.984	167.88
299.214	185.88
299.445	176.88
299.675	184.88
299.905	199.88
300.136	206.88
300.366	190.88
300.597	201.88
300.827	187.88
301.057	188.88
301.288	200.88
301.518	193.88
301.748	190.88
301.979	170.88
302.209	188.88
302.439	177.88
302.669	186.88
302.9	192.88
303.13	184.88
303.36	185.88
303.59	195.88
303.82	192.88
304.051	194.88
304.281	217.88
304.511	190.88
304.741	184.88
304.971	192.88
305.201	186.88
305.431	187.88
305.661	189.88
305.891	172.88
306.121	191.88
306.352	194.88
306.582	217.88
306.812	210.88
307.042	201.88
307.272	188.88
307.502	186.88
307.731	193.88
307.961	185.88
308.191	206.88
308.421	209.88
308.651	198.88
308.881	200.88
309.111	200.88
309.341	197.88
309.571	209.88
309.8	204.88
310.03	222.88
310.26	231.88
310.49	213.88
310.72	222.88
310.949	207.88
311.179	213.88
311.409	220.88
311.639	215.88
311.868	214.88
312.098	202.88
312.328	224.88
312.557	215.88
312.787	230.88
313.017	228.88
313.246	230.88
313.476	223.88
313.706	223.88
313.935	209.88
314.165	221.88
314.394	225.88
314.624	229.88
314.853	230.88
315.083	232.88
315.312	209.88
315.542	205.88
315.771	202.88
316.001	197.88
316.23	205.88
316.46	220.88
316.689	225.88
316.919	222.88
317.148	215.88
317.377	213.88
317.607	222.88
317.836	201.88
318.065	184.88
318.295	205.88
318.524	210.88
318.753	202.88
318.983	213.88
319.212	201.88
319.441	221.88
319.67	193.88
319.9	215.88
320.129	196.88
320.358	222.88
320.587	219.88
320.816	223.88
321.046	207.88
321.275	213.88
321.504	223.88
321.733	212.88
321.962	203.88
322.191	237.88
322.42	248.88
322.649	248.88
322.878	258.88
323.108	246.88
323.337	269.88
323.566	270.88
323.795	318.88
324.024	323.88
324.253	364.88
324.482	547.88
324.71	770.88
324.939	1035.88
325.168	843.88
325.397	453.88
325.626	297.88
325.855	271.88
326.084	272.88
326.313	252.88
326.542	279.88
326.77	294.88
326.999	355.88
327.228	465.88
327.457	650.88
327.686	779.88
327.914	527.88
328.143	358.88
328.372	327.88
328.6	327.88
328.829	310.88
329.058	334.88
329.287	333.88
329.515	287.88
329.744	274.88
329.972	273.88
330.201	298.88
330.43	305.88
330.658	353.88
330.887	361.88
331.115	310.88
331.344	291.88
331.572	250.88
331.801	272.88
332.03	263.88
332.258	260.88
332.486	252.88
332.715	246.88
332.943	245.88
333.172	260.88
333.4	260.88
333.629	266.88
333.857	277.88
334.085	282.88
334.314	286.88
334.542	312.88
334.771	319.88
334.999	304.88
335.227	268.88
335.455	252.88
335.684	251.88
335.912	261.88
336.14	238.88
336.369	231.88
336.597	250.88
336.825	266.88
337.053	240.88
337.281	248.88
337.51	228.88
337.738	234.88
337.966	234.88
338.194	245.88
338.422	256.88
338.65	245.88
338.878	252.88
339.106	223.88
339.334	234.88
339.562	247.88
339.79	239.88
340.018	223.88
340.246	224.88
340.474	251.88
340.702	248.88
340.93	234.88
341.158	236.88
341.386	239.88
341.614	221.88
341.842	232.88
342.07	232.88
342.298	221.88
342.526	233.88
342.754	221.88
342.981	220.88
343.209	241.88
343.437	224.88
343.665	223.88
343.893	249.88
344.12	224.88
344.348	242.88
344.576	253.88
344.804	235.88
345.031	238.88
345.259	251.88
345.487	240.88
345.714	243.88
345.942	229.88
346.17	202.88
346.397	231.88
346.625	232.88
346.853	221.88
347.08	231.88
347.308	217.88
347.535	219.88
347.763	224.88
347.99	236.88
348.218	235.88
348.445	245.88
348.673	244.88
348.9	232.88
349.128	228.88
349.355	220.88
349.583	221.88
349.81	229.88
350.037	239.88
350.265	209.88
350.492	214.88
350.72	214.88
350.947	225.88
351.174	226.88
351.402	227.88
351.629	237.88
351.856	252.88
352.083	235.88
352.311	246.88
352.538	234.88
352.765	254.88
352.992	217.88
353.22	218.88
353.447	241.88
353.674	224.88
353.901	222.88
354.128	232.88
354.355	208.88
354.583	209.88
354.81	213.88
355.037	218.88
355.264	207.88
355.491	198.88
355.718	187.88
355.945	214.88
356.172	198.88
356.399	202.88
356.626	218.88
356.853	224.88
357.08	202.88
357.307	205.88
357.534	197.88
357.761	210.88
357.988	219.88
358.215	212.88
358.441	191.88
358.668	217.88
358.895	208.88
359.122	204.88
359.349	211.88
359.576	218.88
359.802	225.88
360.029	249.88
360.256	260.88
360.483	238.88
360.709	230.88
360.936	217.88
361.163	228.88
361.39	234.88
361.616	224.88
361.843	191.88
362.07	222.88
362.296	240.88
362.523	246.88
362.749	230.88
362.976	227.88
363.203	215.88
363.429	226.88
363.656	226.88
363.882	216.88
364.109	222.88
364.335	206.88
364.562	205.88
364.788	216.88
365.015	220.88
365.241	223.88
365.468	221.88
365.694	204.88
365.92	204.88
366.147	227.88
366.373	201.88
366.599	232.88
366.826	215.88
367.052	218.88
367.278	214.88
367.505	191.88
367.731	236.88
367.957	208.88
368.184	209.88
368.41	217.88
368.636	241.88
368.862	224.88
369.089	226.88
369.315	205.88
369.541	222.88
369.767	216.88
369.993	221.88
370.219	212.88
370.445	211.88
370.672	203.88
370.898	196.88
371.124	221.88
371.35	221.88
371.576	200.88
371.802	216.88
372.028	217.88
372.254	235.88
372.48	218.88
372.706	219.88
372.932	212.88
373.158	209.88
373.384	229.88
373.61	224.88
373.835	225.88
374.061	195.88
374.287	223.88
374.513	215.88
374.739	208.88
374.965	232.88
375.191	210.88
375.416	218.88
375.642	210.88
375.868	207.88
376.094	198.88
376.319	212.88
376.545	197.88
376.771	203.88
376.997	227.88
377.222	205.88
377.448	211.88
377.674	222.88
377.899	192.88
378.125	214.88
378.35	208.88
378.576	214.88
378.802	209.88
379.027	201.88
379.253	209.88
379.478	216.88
379.704	215.88
379.929	200.88
380.155	225.88
380.38	221.88
380.606	214.88
380.831	210.88
381.057	218.88
381.282	213.88
381.507	215.88
381.733	214.88
381.958	213.88
382.184	213.88
382.409	218.88
382.634	222.88
382.86	210.88
383.085	216.88
383.31	221.88
383.535	240.88
383.761	202.88
383.986	213.88
384.211	223.88
384.436	224.88
384.662	228.88
384.887	221.88
385.112	222.88
385.337	217.88
385.562	207.88
385.787	220.88
386.013	242.88
386.238	237.88
386.463	241.88
386.688	229.88
386.913	232.88
387.138	232.88
387.363	231.88
387.588	233.88
387.813	222.88
388.038	230.88
388.263	219.88
388.488	220.88
388.713	237.88
388.938	238.88
389.163	214.88
389.387	230.88
389.612	233.88
389.837	218.88
390.062	230.88
390.287	216.88
390.512	209.88
390.736	214.88
390.961	233.88
391.186	210.88
391.411	218.88
391.636	230.88
391.86	239.88
392.085	238.88
392.31	254.88
392.534	231.88
392.759	219.88
392.984	228.88
393.208	234.88
393.433	233.88
393.658	248.88
393.882	238.88
394.107	247.88
394.331	239.88
394.556	228.88
394.78	228.88
395.005	228.88
395.229	232.88
395.454	244.88
395.678	225.88
395.903	238.88
396.127	254.88
396.352	252.88
396.576	233.88
396.801	226.88
397.025	226.88
397.249	234.88
397.474	244.88
397.698	225.88
397.922	240.88
398.147	271.88
398.371	229.88
398.595	247.88
398.82	252.88
399.044	268.88
399.268	258.88
399.492	286.88
399.717	288.88
399.941	297.88
400.165	296.88
400.389	271.88
400.613	274.88
400.837	271.88
401.062	266.88
401.286	271.88
401.51	245.88
401.734	264.88
401.958	244.88
402.182	262.88
402.406	264.88
402.63	285.88
402.854	273.88
403.078	242.88
403.302	270.88
403.526	283.88
403.75	263.88
403.974	258.88
404.198	239.88
404.422	264.88
404.645	272.88
404.869	272.88
405.093	277.88
405.317	290.88
405.541	300.88
405.765	296.88
405.988	273.88
406.212	296.88
406.436	301.88
406.66	319.88
406.883	300.88
407.107	300.88
407.331	301.88
407.555	338.88
407.778	336.88
408.002	297.88
408.226	298.88
408.449	271.88
408.673	282.88
408.896	294.88
409.12	301.88
409.344	299.88
409.567	265.88
409.791	258.88
410.014	281.88
410.238	277.88
410.461	270.88
410.685	272.88
410.908	276.88
411.132	288.88
411.355	295.88
411.578	286.88
411.802	280.88
412.025	271.88
412.249	278.88
412.472	277.88
412.695	304.88
412.919	282.88
413.142	277.88
413.365	252.88
413.589	265.88
413.812	258.88
414.035	257.88
414.258	253.88
414.482	253.88
414.705	257.88
414.928	268.88
415.151	253.88
415.374	253.88
415.597	247.88
415.821	233.88
416.044	253.88
416.267	256.88
416.49	249.88
416.713	245.88
416.936	238.88
417.159	232.88
417.382	260.88
417.605	257.88
417.828	255.88
418.051	271.88
418.274	256.88
418.497	262.88
418.72	264.88
418.943	242.88
419.166	271.88
419.389	259.88
419.611	269.88
419.834	277.88
420.057	260.88
420.28	257.88
420.503	278.88
420.726	265.88
420.948	277.88
421.171	290.88
421.394	308.88
421.617	288.88
421.839	276.88
422.062	254.88
422.285	270.88
422.507	312.88
422.73	325.88
422.953	310.88
423.175	287.88
423.398	283.88
423.621	292.88
423.843	295.88
424.066	286.88
424.288	286.88
424.511	304.88
424.733	316.88
424.956	364.88
425.178	333.88
425.401	332.88
425.623	336.88
425.846	311.88
426.068	270.88
426.291	288.88
426.513	277.88
426.735	306.88
426.958	305.88
427.18	337.88
427.402	404.88
427.625	433.88
427.847	379.88
428.069	340.88
428.292	303.88
428.514	278.88
428.736	250.88
428.958	268.88
429.181	282.88
429.403	248.88
429.625	285.88
429.847	292.88
430.069	293.88
430.292	310.88
430.514	269.88
430.736	263.88
430.958	258.88
431.18	254.88
431.402	247.88
431.624	238.88
431.846	249.88
432.068	244.88
432.29	247.88
432.512	244.88
432.734	269.88
432.956	252.88
433.178	255.88
433.4	270.88
433.622	260.88
433.844	260.88
434.066	252.88
434.287	249.88
434.509	257.88
434.731	248.88
434.953	253.88
435.175	270.88
435.397	288.88
435.618	283.88
435.84	287.88
436.062	332.88
436.284	342.88
436.505	305.88
436.727	264.88
436.949	268.88
437.17	263.88
437.392	267.88
437.614	265.88
437.835	288.88
438.057	352.88
438.278	358.88
438.5	366.88
438.721	405.88
438.943	360.88
439.165	305.88
439.386	280.88
439.608	274.88
439.829	284.88
440.05	292.88
440.272	320.88
440.493	298.88
440.715	277.88
440.936	277.88
441.158	269.88
441.379	269.88
441.6	277.88
441.822	277.88
442.043	299.88
442.264	327.88
442.486	347.88
442.707	287.88
442.928	292.88
443.149	303.88
443.371	309.88
443.592	329.88
443.813	348.88
444.034	384.88
444.255	310.88
444.476	282.88
444.698	294.88
444.919	290.88
445.14	381.88
445.361	321.88
445.582	297.88
445.803	332.88
446.024	379.88
446.245	380.88
446.466	348.88
446.687	297.88
446.908	274.88
447.129	254.88
447.35	282.88
447.571	274.88
447.792	261.88
448.013	266.88
448.234	260.88
448.455	304.88
448.675	358.88
448.896	385.88
449.117	312.88
449.338	316.88
449.559	359.88
449.779	416.88
450	319.88
450.221	270.88
450.442	262.88
450.662	252.88
450.883	273.88
451.104	272.88
451.324	280.88
451.545	268.88
451.766	246.88
451.986	242.88
452.207	229.88
452.428	220.88
452.648	238.88
452.869	255.88
453.089	236.88
453.31	250.88
453.53	260.88
453.751	242.88
453.971	242.88
454.192	257.88
454.412	255.88
454.633	236.88
454.853	226.88
455.073	230.88
455.294	251.88
455.514	294.88
455.734	256.88
455.955	237.88
456.175	234.88
456.395	221.88
456.616	210.88
456.836	218.88
457.056	224.88
457.276	206.88
457.497	226.88
457.717	217.88
457.937	241.88
458.157	240.88
458.377	233.88
458.598	244.88
458.818	278.88
459.038	320.88
459.258	306.88
459.478	271.88
459.698	246.88
459.918	229.88
460.138	261.88
460.358	248.88
460.578	249.88
460.798	244.88
461.018	247.88
461.238	253.88
461.458	264.88
461.678	241.88
461.898	258.88
462.118	265.88
462.338	249.88
462.558	248.88
462.777	262.88
462.997	255.88
463.217	282.88
463.437	265.88
463.657	257.88
463.876	260.88
464.096	264.88
464.316	279.88
464.536	273.88
464.755	290.88
464.975	291.88
465.195	318.88
465.414	373.88
465.634	322.88
465.854	273.88
466.073	249.88
466.293	270.88
466.512	238.88
466.732	260.88
466.951	234.88
467.171	246.88
467.391	239.88
467.61	259.88
467.829	249.88
468.049	250.88
468.268	260.88
468.488	249.88
468.707	232.88
468.927	245.88
469.146	242.88
469.365	230.88
469.585	220.88
469.804	224.88
470.023	268.88
470.243	230.88
470.462	249.88
470.681	253.88
470.901	257.88
471.12	254.88
471.339	254.88
471.558	254.88
471.777	240.88
471.997	241.88
472.216	266.88
472.435	280.88
472.654	277.88
472.873	242.88
473.092	228.88
473.311	249.88
473.53	249.88
473.749	253.88
473.968	286.88
474.187	331.88
474.406	309.88
474.625	260.88
474.844	250.88
475.063	249.88
475.282	273.88
475.501	248.88
475.72	245.88
475.939	260.88
476.158	268.88
476.377	256.88
476.596	263.88
476.814	266.88
477.033	250.88
477.252	250.88
477.471	268.88
477.69	267.88
477.908	268.88
478.127	258.88
478.346	270.88
478.564	269.88
478.783	280.88
479.002	281.88
479.22	271.88
479.439	286.88
479.658	287.88
479.876	287.88
480.095	284.88
480.313	303.88
480.532	302.88
480.751	306.88
480.969	324.88
481.188	356.88
481.406	388.88
481.624	312.88
481.843	304.88
482.061	277.88
482.28	268.88
482.498	294.88
482.717	283.88
482.935	280.88
483.153	290.88
483.372	282.88
483.59	301.88
483.808	284.88
484.027	272.88
484.245	275.88
484.463	289.88
484.681	290.88
484.9	280.88
485.118	291.88
485.336	278.88
485.554	293.88
485.772	301.88
485.99	284.88
486.209	293.88
486.427	309.88
486.645	315.88
486.863	335.88
487.081	335.88
487.299	288.88
487.517	300.88
487.735	293.88
487.953	296.88
488.171	303.88
488.389	309.88
488.607	314.88
488.825	297.88
489.043	298.88
489.261	294.88
489.479	304.88
489.696	294.88
489.914	303.88
490.132	326.88
490.35	322.88
490.568	320.88
490.786	337.88
491.003	335.88
491.221	345.88
491.439	336.88
491.657	346.88
491.874	344.88
492.092	376.88
492.31	352.88
492.527	346.88
492.745	364.88
492.963	374.88
493.18	346.88
493.398	374.88
493.615	374.88
493.833	370.88
494.05	367.88
494.268	356.88
494.485	362.88
494.703	363.88
494.92	352.88
495.138	352.88
495.355	350.88
495.573	350.88
495.79	342.88
496.008	374.88
496.225	348.88
496.442	342.88
496.66	342.88
496.877	357.88
497.094	373.88
497.312	346.88
497.529	364.88
497.746	368.88
497.963	348.88
498.181	360.88
498.398	369.88
498.615	369.88
498.832	385.88
499.049	382.88
499.267	404.88
499.484	412.88
499.701	426.88
499.918	428.88
500.135	433.88
500.352	442.88
500.569	458.88
500.786	453.88
501.003	464.88
501.22	452.88
501.437	442.88
501.654	432.88
501.871	417.88
502.088	400.88
502.305	406.88
502.522	388.88
502.739	384.88
502.956	364.88
503.172	377.88
503.389	358.88
503.606	355.88
503.823	353.88
504.04	361.88
504.256	350.88
504.473	344.88
504.69	339.88
504.907	343.88
505.123	313.88
505.34	314.88
505.557	332.88
505.773	351.88
505.99	330.88
506.207	356.88
506.423	332.88
506.64	327.88
506.856	331.88
507.073	335.88
507.289	348.88
507.506	344.88
507.722	337.88
507.939	336.88
508.155	322.88
508.372	333.88
508.588	322.88
508.805	324.88
509.021	324.88
509.238	301.88
509.454	338.88
509.67	322.88
509.887	322.88
510.103	331.88
510.319	331.88
510.536	400.88
510.752	782.88
510.968	572.88
511.184	318.88
511.401	307.88
511.617	308.88
511.833	300.88
512.049	327.88
512.265	297.88
512.481	301.88
512.698	318.88
512.914	297.88
513.13	291.88
513.346	286.88
513.562	295.88
513.778	301.88
513.994	301.88
514.21	306.88
514.426	344.88
514.642	355.88
514.858	383.88
515.074	386.88
515.29	505.88
515.506	838.88
515.721	640.88
515.937	398.88
516.153	355.88
516.369	336.88
516.585	312.88
516.801	317.88
517.016	291.88
517.232	324.88
517.448	311.88
517.664	320.88
517.879	322.88
518.095	305.88
518.311	302.88
518.527	299.88
518.742	311.88
518.958	306.88
519.173	301.88
519.389	285.88
519.605	293.88
519.82	288.88
520.036	297.88
520.251	324.88
520.467	359.88
520.682	313.88
520.898	325.88
521.113	360.88
521.329	382.88
521.544	441.88
521.76	590.88
521.975	1129.88
522.19	1102.88
522.406	533.88
522.621	361.88
522.836	309.88
523.052	300.88
523.267	294.88
523.482	268.88
523.698	268.88
523.913	295.88
524.128	281.88
524.343	281.88
524.559	256.88
524.774	258.88
524.989	263.88
525.204	297.88
525.419	276.88
525.634	257.88
525.849	256.88
526.064	266.88
526.28	240.88
526.495	251.88
526.71	258.88
526.925	252.88
527.14	260.88
527.355	249.88
527.57	250.88
527.785	248.88
527.999	241.88
528.214	256.88
528.429	231.88
528.644	248.88
528.859	255.88
529.074	267.88
529.289	260.88
529.503	328.88
529.718	313.88
529.933	277.88
530.148	244.88
530.363	255.88
530.577	237.88
530.792	250.88
531.007	249.88
531.221	247.88
531.436	244.88
531.651	253.88
531.865	244.88
532.08	250.88
532.295	232.88
532.509	240.88
532.724	247.88
532.938	258.88
533.153	244.88
533.367	232.88
533.582	235.88
533.796	257.88
534.011	268.88
534.225	245.88
534.44	226.88
534.654	236.88
534.868	240.88
535.083	250.88
535.297	249.88
535.511	248.88
535.726	258.88
535.94	252.88
536.154	228.88
536.369	237.88
536.583	239.88
536.797	241.88
537.011	229.88
537.225	225.88
537.44	240.88
537.654	225.88
537.868	245.88
538.082	248.88
538.296	238.88
538.51	249.88
538.724	245.88
538.938	238.88
539.153	241.88
539.367	239.88
539.581	245.88
539.795	224.88
540.009	250.88
540.222	218.88
540.436	227.88
540.65	238.88
540.864	235.88
541.078	252.88
541.292	257.88
541.506	236.88
541.72	221.88
541.934	261.88
542.147	238.88
542.361	237.88
542.575	232.88
542.789	243.88
543.002	258.88
543.216	233.88
543.43	245.88
543.644	240.88
543.857	250.88
544.071	241.88
544.285	248.88
544.498	243.88
544.712	252.88
544.925	229.88
545.139	238.88
545.352	239.88
545.566	221.88
545.779	262.88
545.993	239.88
546.206	243.88
546.42	249.88
546.633	240.88
546.847	248.88
547.06	227.88
547.274	239.88
547.487	233.88
547.7	230.88
547.914	224.88
548.127	242.88
548.34	216.88
548.554	221.88
548.767	199.88
548.98	241.88
549.193	210.88
549.407	227.88
549.62	221.88
549.833	205.88
550.046	237.88
550.259	229.88
550.473	211.88
550.686	224.88
550.899	222.88
551.112	222.88
551.325	214.88
551.538	216.88
551.751	225.88
551.964	214.88
552.177	242.88
552.39	223.88
552.603	229.88
552.816	216.88
553.029	228.88
553.242	220.88
553.455	246.88
553.667	236.88
553.88	248.88
554.093	224.88
554.306	239.88
554.519	240.88
554.732	229.88
554.944	215.88
555.157	226.88
555.37	233.88
555.583	236.88
555.795	223.88
556.008	207.88
556.221	211.88
556.433	205.88
556.646	206.88
556.859	202.88
557.071	217.88
557.284	206.88
557.496	220.88
557.709	202.88
557.921	217.88
558.134	198.88
558.346	213.88
558.559	214.88
558.771	208.88
558.984	192.88
559.196	209.88
559.409	208.88
559.621	210.88
559.833	193.88
560.046	208.88
560.258	207.88
560.47	220.88
560.683	203.88
560.895	195.88
561.107	220.88
561.32	207.88
561.532	205.88
561.744	214.88
561.956	211.88
562.168	205.88
562.381	218.88
562.593	202.88
562.805	207.88
563.017	202.88
563.229	206.88
563.441	203.88
563.653	205.88
563.865	196.88
564.077	210.88
564.289	226.88
564.501	225.88
564.713	217.88
564.925	216.88
565.137	212.88
565.349	218.88
565.561	222.88
565.773	221.88
565.985	238.88
566.197	222.88
566.408	207.88
566.62	244.88
566.832	235.88
567.044	240.88
567.255	237.88
567.467	234.88
567.679	242.88
567.891	275.88
568.102	245.88
568.314	263.88
568.526	230.88
568.737	214.88
568.949	229.88
569.161	214.88
569.372	203.88
569.584	207.88
569.795	217.88
570.007	192.88
570.218	257.88
570.43	240.88
570.641	205.88
570.853	214.88
571.064	213.88
571.276	211.88
571.487	206.88
571.698	195.88
571.91	198.88
572.121	197.88
572.333	193.88
572.544	180.88
572.755	186.88
572.966	193.88
573.178	182.88
573.389	201.88
573.6	191.88
573.811	182.88
574.023	194.88
574.234	186.88
574.445	204.88
574.656	184.88
574.867	193.88
575.078	176.88
575.289	162.88
575.501	198.88
575.712	180.88
575.923	173.88
576.134	169.88
576.345	190.88
576.556	171.88
576.767	171.88
576.978	186.88
577.188	180.88
577.399	180.88
577.61	183.88
577.821	182.88
578.032	182.88
578.243	186.88
578.454	360.88
578.665	254.88
578.875	196.88
579.086	174.88
579.297	172.88
579.508	176.88
579.718	183.88
579.929	179.88
580.14	164.88
580.35	175.88
580.561	163.88
580.772	166.88
580.982	167.88
581.193	161.88
581.403	172.88
581.614	168.88
581.825	164.88
582.035	185.88
582.246	180.88
582.456	169.88
582.667	169.88
582.877	177.88
583.087	184.88
583.298	168.88
583.508	154.88
583.719	175.88
583.929	172.88
584.139	155.88
584.35	179.88
584.56	157.88
584.77	162.88
584.981	154.88
585.191	168.88
585.401	164.88
585.611	170.88
585.821	158.88
586.032	164.88
586.242	164.88
586.452	150.88
586.662	150.88
586.872	161.88
587.082	151.88
587.292	170.88
587.502	170.88
587.713	161.88
587.923	154.88
588.133	161.88
588.343	159.88
588.553	164.88
588.762	177.88
588.972	161.88
589.182	169.88
589.392	170.88
589.602	165.88
589.812	150.88
590.022	165.88
590.232	159.88
590.441	158.88
590.651	170.88
590.861	180.88
591.071	169.88
591.281	172.88
591.49	156.88
591.7	169.88
591.91	162.88
592.119	167.88
592.329	166.88
592.539	199.88
592.748	175.88
592.958	167.88
593.167	174.88
593.377	179.88
593.587	156.88
593.796	173.88
594.006	159.88
594.215	166.88
594.424	180.88
594.634	162.88
594.843	177.88
595.053	146.88
595.262	170.88
595.472	161.88
595.681	174.88
595.89	156.88
596.1	159.88
596.309	161.88
596.518	162.88
596.727	161.88
596.937	161.88
597.146	157.88
597.355	155.88
597.564	158.88
597.774	165.88
597.983	143.88
598.192	159.88
598.401	145.88
598.61	152.88
598.819	152.88
599.028	139.88
599.237	154.88
599.446	164.88
599.655	151.88
599.864	153.88
600.073	154.88
600.282	146.88
600.491	141.88
600.7	157.88
600.909	145.88
601.118	152.88
601.327	136.88
601.536	144.88
601.745	147.88
601.953	152.88
602.162	165.88
602.371	146.88
602.58	168.88
602.789	158.88
602.997	161.88
603.206	148.88
603.415	144.88
603.623	153.88
603.832	154.88
604.041	142.88
604.249	145.88
604.458	169.88
604.666	141.88
604.875	142.88
605.084	145.88
605.292	145.88
605.501	152.88
605.709	158.88
605.918	160.88
606.126	155.88
606.334	159.88
606.543	144.88
606.751	149.88
606.96	153.88
607.168	153.88
607.376	149.88
607.585	144.88
607.793	150.88
608.001	152.88
608.21	149.88
608.418	136.88
608.626	149.88
608.834	141.88
609.043	151.88
609.251	150.88
609.459	145.88
609.667	130.88
609.875	148.88
610.083	161.88
610.291	156.88
610.499	141.88
610.707	142.88
610.916	146.88
611.124	151.88
611.332	156.88
611.54	150.88
611.748	152.88
611.955	146.88
612.163	160.88
612.371	152.88
612.579	156.88
612.787	160.88
612.995	141.88
613.203	142.88
613.411	154.88
613.618	134.88
613.826	136.88
614.034	150.88
614.242	156.88
614.449	140.88
614.657	145.88
614.865	159.88
615.072	162.88
615.28	153.88
615.488	144.88
615.695	139.88
615.903	150.88
616.111	148.88
616.318	153.88
616.526	150.88
616.733	150.88
616.941	157.88
617.148	144.88
617.356	148.88
617.563	140.88
617.771	146.88
617.978	162.88
618.185	141.88
618.393	128.88
618.6	156.88
618.807	137.88
619.015	148.88
619.222	147.88
619.429	133.88
619.637	145.88
619.844	129.88
620.051	142.88
620.258	156.88
620.466	141.88
620.673	134.88
620.88	141.88
621.087	142.88
621.294	138.88
621.501	141.88
621.708	136.88
621.915	140.88
622.122	149.88
622.329	149.88
622.536	143.88
622.743	156.88
622.95	148.88
623.157	133.88
623.364	134.88
623.571	128.88
623.778	135.88
623.985	145.88
624.192	136.88
624.399	125.88
624.606	132.88
624.812	140.88
625.019	152.88
625.226	138.88
625.433	134.88
625.639	156.88
625.846	144.88
626.053	150.88
626.259	137.88
626.466	136.88
626.673	120.88
626.879	125.88
627.086	138.88
627.293	130.88
627.499	126.88
627.706	134.88
627.912	124.88
628.119	129.88
628.325	144.88
628.532	134.88
628.738	143.88
628.945	132.88
629.151	141.88
629.357	136.88
629.564	131.88
629.77	124.88
629.976	120.88
630.183	121.88
630.389	130.88
630.595	120.88
630.802	127.88
631.008	124.88
631.214	119.88
631.42	146.88
631.627	132.88
631.833	125.88
632.039	122.88
632.245	119.88
632.451	127.88
632.657	117.88
632.863	128.88
633.069	127.88
633.275	125.88
633.481	127.88
633.688	121.88
633.893	128.88
634.099	126.88
634.305	119.88
634.511	119.88
634.717	120.88
634.923	120.88
635.129	126.88
635.335	126.88
635.541	135.88
635.747	124.88
635.952	121.88
636.158	139.88
636.364	113.88
636.57	137.88
636.775	139.88
636.981	123.88
637.187	137.88
637.392	111.88
637.598	119.88
637.804	120.88
638.009	132.88
638.215	127.88
638.421	127.88
638.626	136.88
638.832	132.88
639.037	133.88
639.243	114.88
639.448	104.88
639.654	139.88
639.859	123.88
640.065	124.88
640.27	125.88
640.475	118.88
640.681	107.88
640.886	110.88
641.091	130.88
641.297	119.88
641.502	128.88
641.707	121.88
641.913	118.88
642.118	120.88
642.323	124.88
642.528	113.88
642.733	122.88
642.939	131.88
643.144	125.88
643.349	119.88
643.554	124.88
643.759	118.88
643.964	123.88
644.169	114.88
644.374	125.88
644.579	118.88
644.784	125.88
644.989	118.88
645.194	117.88
645.399	113.88
645.604	119.88
645.809	120.88
646.014	113.88
646.219	120.88
646.423	126.88
646.628	108.88
646.833	130.88
647.038	119.88
647.243	121.88
647.447	106.88
647.652	122.88
647.857	135.88
648.062	138.88
648.266	121.88
648.471	106.88
648.676	112.88
648.88	119.88
649.085	114.88
649.289	118.88
649.494	127.88
649.698	137.88
649.903	136.88
650.107	129.88
650.312	120.88
650.516	118.88
650.721	107.88
650.925	121.88
651.13	102.88
651.334	116.88
651.539	116.88
651.743	111.88
651.947	110.88
652.152	118.88
652.356	123.88
652.56	108.88
652.764	103.88
652.969	104.88
653.173	109.88
653.377	113.88
653.581	117.88
653.785	100.88
653.99	110.88
654.194	113.88
654.398	117.88
654.602	112.88
654.806	126.88
655.01	132.88
655.214	110.88
655.418	112.88
655.622	113.88
655.826	111.88
656.03	108.88
656.234	119.88
656.438	104.88
656.642	103.88
656.846	117.88
657.049	103.88
657.253	118.88
657.457	105.88
657.661	118.88
657.865	117.88
658.068	102.88
658.272	110.88
658.476	100.88
658.68	102.88
658.883	97.88
659.087	82.88
659.291	97.88
659.494	124.88
659.698	81.88
659.901	89.88
660.105	98.88
660.309	87.88
660.512	86.88
660.716	96.88
660.919	81.88
661.123	94.88
661.326	89.88
661.53	92.88
661.733	90.88
661.936	84.88
662.14	95.88
662.343	92.88
662.546	101.88
662.75	88.88
662.953	80.88
663.156	89.88
663.36	85.88
663.563	83.88
663.766	81.88
663.969	93.88
664.173	92.88
664.376	88.88
664.579	93.88
664.782	81.88
664.985	75.88
665.188	82.88
665.391	87.88
665.594	68.88
665.797	85.88
666	79.88
666.203	83.88
666.406	70.88
666.609	61.88
666.812	89.88
667.015	83.88
667.218	83.88
667.421	88.88
667.624	92.88
667.827	88.88
668.03	86.88
668.232	105.88
668.435	82.88
668.638	76.88
668.841	81.88
669.043	92.88
669.246	82.88
669.449	83.88
669.651	87.88
669.854	80.88
670.057	77.88
670.259	86.88
670.462	86.88
670.665	88.88
670.867	86.88
671.07	77.88
671.272	97.88
671.475	87.88
671.677	96.88
671.88	86.88
672.082	92.88
672.284	86.88
672.487	78.88
672.689	72.88
672.892	82.88
