Data from 1966.PennyLincolnUp.Lamp.En5.5.200Scan.071719.P1.Scan2.head_HRD10591_14-19-37-282.txt Node
Date: Thu Jul 18 14:19:37 EDT 2019
User: cochatt
Spectrometer: HR+D1059
Trigger mode: 1
Integration Time (sec): 1.000000E-1
Scans to average: 1
Electric dark correction enabled: true
Nonlinearity correction enabled: false
Boxcar width: 0
XAxis mode: Wavelengths
Number of Pixels in Spectrum: 2048
>>>>>Begin Spectral Data<<<<<
223.165	3.69
223.4	3.69
223.635	3.69
223.869	-13.31
224.104	-15.31
224.338	-8.31
224.573	-36.31
224.808	-13.31
225.042	-5.31
225.277	3.69
225.511	1.69
225.746	14.69
225.98	1.69
226.215	10.69
226.449	6.69
226.683	10.69
226.918	25.69
227.152	12.69
227.387	32.69
227.621	32.69
227.856	39.69
228.09	39.69
228.324	55.69
228.559	63.69
228.793	60.69
229.027	100.69
229.262	104.69
229.496	123.69
229.73	129.69
229.964	156.69
230.199	145.69
230.433	125.69
230.667	104.69
230.901	118.69
231.136	112.69
231.37	110.69
231.604	123.69
231.838	106.69
232.072	125.69
232.306	115.69
232.541	99.69
232.775	113.69
233.009	116.69
233.243	120.69
233.477	120.69
233.711	94.69
233.945	128.69
234.179	130.69
234.413	107.69
234.647	120.69
234.881	111.69
235.115	122.69
235.349	136.69
235.583	125.69
235.817	125.69
236.051	132.69
236.285	128.69
236.519	130.69
236.753	143.69
236.987	150.69
237.221	191.69
237.455	235.69
237.689	201.69
237.922	160.69
238.156	134.69
238.39	150.69
238.624	147.69
238.858	122.69
239.091	126.69
239.325	120.69
239.559	133.69
239.793	131.69
240.027	137.69
240.26	142.69
240.494	156.69
240.728	148.69
240.961	156.69
241.195	140.69
241.429	137.69
241.662	149.69
241.896	138.69
242.13	126.69
242.363	140.69
242.597	140.69
242.83	153.69
243.064	141.69
243.298	127.69
243.531	131.69
243.765	159.69
243.998	150.69
244.232	134.69
244.465	143.69
244.699	153.69
244.932	154.69
245.166	143.69
245.399	156.69
245.633	160.69
245.866	163.69
246.099	155.69
246.333	158.69
246.566	146.69
246.8	154.69
247.033	167.69
247.266	171.69
247.5	154.69
247.733	175.69
247.966	180.69
248.2	174.69
248.433	162.69
248.666	181.69
248.899	193.69
249.133	217.69
249.366	212.69
249.599	212.69
249.832	208.69
250.066	189.69
250.299	188.69
250.532	210.69
250.765	208.69
250.998	222.69
251.231	226.69
251.465	207.69
251.698	205.69
251.931	205.69
252.164	217.69
252.397	195.69
252.63	192.69
252.863	206.69
253.096	230.69
253.329	225.69
253.562	230.69
253.795	248.69
254.028	215.69
254.261	202.69
254.494	214.69
254.727	271.69
254.96	275.69
255.193	279.69
255.426	255.69
255.659	234.69
255.892	248.69
256.124	240.69
256.357	253.69
256.59	231.69
256.823	218.69
257.056	224.69
257.289	221.69
257.521	211.69
257.754	237.69
257.987	208.69
258.22	222.69
258.452	204.69
258.685	198.69
258.918	220.69
259.151	212.69
259.383	222.69
259.616	231.69
259.849	232.69
260.081	246.69
260.314	246.69
260.547	276.69
260.779	248.69
261.012	243.69
261.244	228.69
261.477	211.69
261.71	244.69
261.942	264.69
262.175	242.69
262.407	255.69
262.64	222.69
262.872	206.69
263.105	203.69
263.337	220.69
263.57	219.69
263.802	221.69
264.035	237.69
264.267	221.69
264.499	215.69
264.732	220.69
264.964	221.69
265.197	211.69
265.429	206.69
265.661	221.69
265.894	234.69
266.126	213.69
266.358	232.69
266.591	228.69
266.823	229.69
267.055	242.69
267.287	234.69
267.52	244.69
267.752	255.69
267.984	218.69
268.216	224.69
268.448	255.69
268.681	233.69
268.913	248.69
269.145	271.69
269.377	273.69
269.609	301.69
269.841	267.69
270.073	272.69
270.306	297.69
270.538	325.69
270.77	293.69
271.002	307.69
271.234	303.69
271.466	301.69
271.698	311.69
271.93	339.69
272.162	325.69
272.394	327.69
272.626	312.69
272.858	303.69
273.09	279.69
273.322	254.69
273.553	274.69
273.785	279.69
274.017	277.69
274.249	278.69
274.481	277.69
274.713	263.69
274.945	276.69
275.176	266.69
275.408	278.69
275.64	275.69
275.872	278.69
276.104	276.69
276.335	268.69
276.567	293.69
276.799	310.69
277.031	319.69
277.262	329.69
277.494	328.69
277.726	323.69
277.957	283.69
278.189	292.69
278.421	297.69
278.652	275.69
278.884	273.69
279.115	279.69
279.347	277.69
279.579	274.69
279.81	280.69
280.042	258.69
280.273	269.69
280.505	286.69
280.736	286.69
280.968	278.69
281.199	264.69
281.431	259.69
281.662	273.69
281.894	282.69
282.125	298.69
282.356	291.69
282.588	329.69
282.819	316.69
283.051	293.69
283.282	292.69
283.513	304.69
283.745	296.69
283.976	279.69
284.207	279.69
284.439	292.69
284.67	307.69
284.901	285.69
285.132	290.69
285.364	282.69
285.595	293.69
285.826	272.69
286.057	292.69
286.288	308.69
286.52	301.69
286.751	290.69
286.982	301.69
287.213	291.69
287.444	290.69
287.675	288.69
287.906	313.69
288.138	304.69
288.369	307.69
288.6	308.69
288.831	310.69
289.062	311.69
289.293	295.69
289.524	308.69
289.755	323.69
289.986	310.69
290.217	292.69
290.448	294.69
290.679	308.69
290.91	306.69
291.141	302.69
291.371	284.69
291.602	299.69
291.833	316.69
292.064	304.69
292.295	288.69
292.526	302.69
292.757	323.69
292.987	303.69
293.218	312.69
293.449	294.69
293.68	303.69
293.91	311.69
294.141	301.69
294.372	296.69
294.603	310.69
294.833	319.69
295.064	322.69
295.295	312.69
295.525	310.69
295.756	297.69
295.987	302.69
296.217	329.69
296.448	343.69
296.679	331.69
296.909	324.69
297.14	322.69
297.37	304.69
297.601	315.69
297.831	317.69
298.062	323.69
298.292	339.69
298.523	331.69
298.753	310.69
298.984	324.69
299.214	317.69
299.445	334.69
299.675	321.69
299.905	330.69
300.136	333.69
300.366	331.69
300.597	335.69
300.827	349.69
301.057	335.69
301.288	350.69
301.518	335.69
301.748	316.69
301.979	331.69
302.209	335.69
302.439	324.69
302.669	337.69
302.9	332.69
303.13	328.69
303.36	346.69
303.59	356.69
303.82	348.69
304.051	349.69
304.281	341.69
304.511	323.69
304.741	340.69
304.971	341.69
305.201	343.69
305.431	331.69
305.661	333.69
305.891	325.69
306.121	355.69
306.352	354.69
306.582	354.69
306.812	355.69
307.042	348.69
307.272	351.69
307.502	349.69
307.731	348.69
307.961	347.69
308.191	334.69
308.421	362.69
308.651	350.69
308.881	348.69
309.111	336.69
309.341	347.69
309.571	371.69
309.8	386.69
310.03	358.69
310.26	404.69
310.49	382.69
310.72	398.69
310.949	399.69
311.179	420.69
311.409	388.69
311.639	392.69
311.868	384.69
312.098	414.69
312.328	399.69
312.557	424.69
312.787	445.69
313.017	426.69
313.246	399.69
313.476	405.69
313.706	388.69
313.935	407.69
314.165	432.69
314.394	427.69
314.624	414.69
314.853	419.69
315.083	385.69
315.312	395.69
315.542	393.69
315.771	382.69
316.001	399.69
316.23	390.69
316.46	381.69
316.689	405.69
316.919	398.69
317.148	400.69
317.377	422.69
317.607	424.69
317.836	425.69
318.065	380.69
318.295	392.69
318.524	390.69
318.753	390.69
318.983	397.69
319.212	387.69
319.441	401.69
319.67	407.69
319.9	420.69
320.129	408.69
320.358	411.69
320.587	411.69
320.816	397.69
321.046	404.69
321.275	412.69
321.504	417.69
321.733	394.69
321.962	413.69
322.191	430.69
322.42	437.69
322.649	466.69
322.878	481.69
323.108	474.69
323.337	485.69
323.566	486.69
323.795	527.69
324.024	599.69
324.253	707.69
324.482	989.69
324.71	1598.69
324.939	2356.69
325.168	2010.69
325.397	1008.69
325.626	659.69
325.855	566.69
326.084	522.69
326.313	511.69
326.542	519.69
326.77	565.69
326.999	670.69
327.228	912.69
327.457	1422.69
327.686	1741.69
327.914	1159.69
328.143	732.69
328.372	669.69
328.6	594.69
328.829	590.69
329.058	589.69
329.287	607.69
329.515	559.69
329.744	539.69
329.972	553.69
330.201	540.69
330.43	592.69
330.658	605.69
330.887	621.69
331.115	624.69
331.344	532.69
331.572	508.69
331.801	531.69
332.03	520.69
332.258	515.69
332.486	472.69
332.715	466.69
332.943	459.69
333.172	480.69
333.4	478.69
333.629	508.69
333.857	518.69
334.085	518.69
334.314	536.69
334.542	589.69
334.771	598.69
334.999	551.69
335.227	506.69
335.455	481.69
335.684	504.69
335.912	475.69
336.14	468.69
336.369	492.69
336.597	485.69
336.825	484.69
337.053	469.69
337.281	503.69
337.51	468.69
337.738	482.69
337.966	476.69
338.194	460.69
338.422	474.69
338.65	468.69
338.878	452.69
339.106	455.69
339.334	478.69
339.562	457.69
339.79	454.69
340.018	456.69
340.246	460.69
340.474	473.69
340.702	470.69
340.93	467.69
341.158	433.69
341.386	443.69
341.614	479.69
341.842	459.69
342.07	454.69
342.298	466.69
342.526	456.69
342.754	471.69
342.981	433.69
343.209	442.69
343.437	451.69
343.665	446.69
343.893	450.69
344.12	462.69
344.348	476.69
344.576	486.69
344.804	476.69
345.031	462.69
345.259	478.69
345.487	461.69
345.714	452.69
345.942	446.69
346.17	446.69
346.397	445.69
346.625	455.69
346.853	463.69
347.08	438.69
347.308	452.69
347.535	477.69
347.763	446.69
347.99	462.69
348.218	452.69
348.445	464.69
348.673	448.69
348.9	431.69
349.128	444.69
349.355	430.69
349.583	442.69
349.81	439.69
350.037	430.69
350.265	412.69
350.492	443.69
350.72	436.69
350.947	462.69
351.174	453.69
351.402	478.69
351.629	448.69
351.856	443.69
352.083	447.69
352.311	468.69
352.538	456.69
352.765	455.69
352.992	436.69
353.22	450.69
353.447	455.69
353.674	452.69
353.901	451.69
354.128	429.69
354.355	399.69
354.583	420.69
354.81	414.69
355.037	434.69
355.264	428.69
355.491	434.69
355.718	408.69
355.945	397.69
356.172	404.69
356.399	390.69
356.626	421.69
356.853	414.69
357.08	400.69
357.307	411.69
357.534	419.69
357.761	431.69
357.988	425.69
358.215	437.69
358.441	428.69
358.668	430.69
358.895	420.69
359.122	437.69
359.349	456.69
359.576	449.69
359.802	462.69
360.029	483.69
360.256	484.69
360.483	470.69
360.709	460.69
360.936	449.69
361.163	447.69
361.39	452.69
361.616	448.69
361.843	461.69
362.07	459.69
362.296	466.69
362.523	447.69
362.749	466.69
362.976	432.69
363.203	439.69
363.429	455.69
363.656	442.69
363.882	443.69
364.109	435.69
364.335	452.69
364.562	414.69
364.788	436.69
365.015	424.69
365.241	452.69
365.468	446.69
365.694	442.69
365.92	481.69
366.147	425.69
366.373	435.69
366.599	450.69
366.826	426.69
367.052	427.69
367.278	438.69
367.505	438.69
367.731	439.69
367.957	438.69
368.184	439.69
368.41	438.69
368.636	437.69
368.862	445.69
369.089	440.69
369.315	435.69
369.541	443.69
369.767	451.69
369.993	429.69
370.219	438.69
370.445	428.69
370.672	431.69
370.898	432.69
371.124	440.69
371.35	434.69
371.576	441.69
371.802	448.69
372.028	419.69
372.254	444.69
372.48	426.69
372.706	440.69
372.932	451.69
373.158	442.69
373.384	439.69
373.61	449.69
373.835	460.69
374.061	439.69
374.287	449.69
374.513	455.69
374.739	458.69
374.965	434.69
375.191	470.69
375.416	458.69
375.642	461.69
375.868	458.69
376.094	460.69
376.319	451.69
376.545	448.69
376.771	456.69
376.997	451.69
377.222	428.69
377.448	431.69
377.674	447.69
377.899	425.69
378.125	440.69
378.35	444.69
378.576	450.69
378.802	438.69
379.027	440.69
379.253	430.69
379.478	410.69
379.704	425.69
379.929	426.69
380.155	465.69
380.38	447.69
380.606	470.69
380.831	446.69
381.057	439.69
381.282	464.69
381.507	440.69
381.733	445.69
381.958	447.69
382.184	463.69
382.409	480.69
382.634	477.69
382.86	466.69
383.085	456.69
383.31	458.69
383.535	454.69
383.761	458.69
383.986	478.69
384.211	469.69
384.436	469.69
384.662	477.69
384.887	486.69
385.112	482.69
385.337	489.69
385.562	465.69
385.787	485.69
386.013	499.69
386.238	528.69
386.463	490.69
386.688	482.69
386.913	503.69
387.138	475.69
387.363	487.69
387.588	480.69
387.813	518.69
388.038	506.69
388.263	488.69
388.488	490.69
388.713	484.69
388.938	475.69
389.163	462.69
389.387	468.69
389.612	489.69
389.837	505.69
390.062	480.69
390.287	492.69
390.512	480.69
390.736	501.69
390.961	495.69
391.186	493.69
391.411	510.69
391.636	502.69
391.86	491.69
392.085	511.69
392.31	522.69
392.534	509.69
392.759	523.69
392.984	507.69
393.208	502.69
393.433	518.69
393.658	489.69
393.882	494.69
394.107	529.69
394.331	503.69
394.556	491.69
394.78	503.69
395.005	503.69
395.229	492.69
395.454	508.69
395.678	518.69
395.903	517.69
396.127	570.69
396.352	576.69
396.576	520.69
396.801	517.69
397.025	533.69
397.249	516.69
397.474	523.69
397.698	535.69
397.922	538.69
398.147	574.69
398.371	556.69
398.595	568.69
398.82	557.69
399.044	576.69
399.268	586.69
399.492	637.69
399.717	644.69
399.941	692.69
400.165	710.69
400.389	740.69
400.613	637.69
400.837	600.69
401.062	581.69
401.286	602.69
401.51	594.69
401.734	595.69
401.958	589.69
402.182	578.69
402.406	590.69
402.63	600.69
402.854	581.69
403.078	564.69
403.302	609.69
403.526	617.69
403.75	585.69
403.974	579.69
404.198	599.69
404.422	572.69
404.645	604.69
404.869	607.69
405.093	651.69
405.317	700.69
405.541	728.69
405.765	649.69
405.988	638.69
406.212	632.69
406.436	676.69
406.66	660.69
406.883	642.69
407.107	671.69
407.331	702.69
407.555	811.69
407.778	781.69
408.002	692.69
408.226	690.69
408.449	672.69
408.673	650.69
408.896	694.69
409.12	725.69
409.344	686.69
409.567	638.69
409.791	624.69
410.014	590.69
410.238	611.69
410.461	613.69
410.685	646.69
410.908	622.69
411.132	646.69
411.355	713.69
411.578	671.69
411.802	605.69
412.025	605.69
412.249	609.69
412.472	636.69
412.695	668.69
412.919	667.69
413.142	633.69
413.365	582.69
413.589	589.69
413.812	586.69
414.035	578.69
414.258	582.69
414.482	577.69
414.705	564.69
414.928	549.69
415.151	573.69
415.374	570.69
415.597	570.69
415.821	569.69
416.044	566.69
416.267	584.69
416.49	560.69
416.713	578.69
416.936	583.69
417.159	539.69
417.382	552.69
417.605	557.69
417.828	596.69
418.051	581.69
418.274	579.69
418.497	555.69
418.72	559.69
418.943	569.69
419.166	610.69
419.389	631.69
419.611	620.69
419.834	591.69
420.057	606.69
420.28	589.69
420.503	596.69
420.726	588.69
420.948	616.69
421.171	654.69
421.394	688.69
421.617	631.69
421.839	609.69
422.062	614.69
422.285	602.69
422.507	668.69
422.73	770.69
422.953	725.69
423.175	658.69
423.398	607.69
423.621	601.69
423.843	622.69
424.066	647.69
424.288	647.69
424.511	652.69
424.733	732.69
424.956	807.69
425.178	794.69
425.401	759.69
425.623	815.69
425.846	694.69
426.068	636.69
426.291	623.69
426.513	626.69
426.735	644.69
426.958	683.69
427.18	797.69
427.402	916.69
427.625	1014.69
427.847	895.69
428.069	776.69
428.292	689.69
428.514	629.69
428.736	617.69
428.958	617.69
429.181	587.69
429.403	599.69
429.625	604.69
429.847	622.69
430.069	689.69
430.292	678.69
430.514	631.69
430.736	576.69
430.958	584.69
431.18	585.69
431.402	564.69
431.624	552.69
431.846	546.69
432.068	557.69
432.29	563.69
432.512	545.69
432.734	582.69
432.956	558.69
433.178	566.69
433.4	581.69
433.622	566.69
433.844	568.69
434.066	546.69
434.287	568.69
434.509	581.69
434.731	590.69
434.953	584.69
435.175	590.69
435.397	637.69
435.618	667.69
435.84	679.69
436.062	790.69
436.284	855.69
436.505	714.69
436.727	662.69
436.949	627.69
437.17	597.69
437.392	579.69
437.614	598.69
437.835	641.69
438.057	746.69
438.278	863.69
438.5	864.69
438.721	982.69
438.943	887.69
439.165	736.69
439.386	658.69
439.608	636.69
439.829	670.69
440.05	676.69
440.272	742.69
440.493	659.69
440.715	638.69
440.936	623.69
441.158	603.69
441.379	583.69
441.6	599.69
441.822	637.69
442.043	672.69
442.264	784.69
442.486	823.69
442.707	701.69
442.928	654.69
443.149	667.69
443.371	694.69
443.592	723.69
443.813	846.69
444.034	896.69
444.255	737.69
444.476	678.69
444.698	658.69
444.919	648.69
445.14	728.69
445.361	706.69
445.582	710.69
445.803	757.69
446.024	889.69
446.245	900.69
446.466	816.69
446.687	692.69
446.908	651.69
447.129	615.69
447.35	593.69
447.571	614.69
447.792	573.69
448.013	584.69
448.234	589.69
448.455	663.69
448.675	780.69
448.896	942.69
449.117	778.69
449.338	735.69
449.559	856.69
449.779	973.69
450	763.69
450.221	642.69
450.442	606.69
450.662	570.69
450.883	587.69
451.104	596.69
451.324	580.69
451.545	554.69
451.766	551.69
451.986	558.69
452.207	562.69
452.428	516.69
452.648	517.69
452.869	529.69
453.089	530.69
453.31	558.69
453.53	523.69
453.751	524.69
453.971	523.69
454.192	547.69
454.412	544.69
454.633	508.69
454.853	528.69
455.073	533.69
455.294	570.69
455.514	620.69
455.734	610.69
455.955	526.69
456.175	488.69
456.395	510.69
456.616	462.69
456.836	486.69
457.056	504.69
457.276	500.69
457.497	498.69
457.717	501.69
457.937	498.69
458.157	525.69
458.377	496.69
458.598	539.69
458.818	598.69
459.038	685.69
459.258	721.69
459.478	621.69
459.698	562.69
459.918	574.69
460.138	580.69
460.358	559.69
460.578	567.69
460.798	578.69
461.018	575.69
461.238	580.69
461.458	578.69
461.678	571.69
461.898	584.69
462.118	562.69
462.338	591.69
462.558	587.69
462.777	603.69
462.997	611.69
463.217	630.69
463.437	638.69
463.657	598.69
463.876	632.69
464.096	603.69
464.316	624.69
464.536	624.69
464.755	626.69
464.975	626.69
465.195	660.69
465.414	715.69
465.634	657.69
465.854	618.69
466.073	566.69
466.293	552.69
466.512	554.69
466.732	550.69
466.951	525.69
467.171	554.69
467.391	558.69
467.61	535.69
467.829	574.69
468.049	562.69
468.268	550.69
468.488	532.69
468.707	518.69
468.927	508.69
469.146	517.69
469.365	533.69
469.585	544.69
469.804	535.69
470.023	543.69
470.243	558.69
470.462	554.69
470.681	576.69
470.901	563.69
471.12	557.69
471.339	563.69
471.558	560.69
471.777	546.69
471.997	535.69
472.216	554.69
472.435	592.69
472.654	581.69
472.873	574.69
473.092	541.69
473.311	543.69
473.53	554.69
473.749	552.69
473.968	611.69
474.187	713.69
474.406	724.69
474.625	622.69
474.844	557.69
475.063	569.69
475.282	554.69
475.501	554.69
475.72	563.69
475.939	567.69
476.158	594.69
476.377	583.69
476.596	569.69
476.814	567.69
477.033	595.69
477.252	599.69
477.471	603.69
477.69	591.69
477.908	608.69
478.127	606.69
478.346	602.69
478.564	606.69
478.783	592.69
479.002	631.69
479.22	628.69
479.439	645.69
479.658	653.69
479.876	670.69
480.095	677.69
480.313	700.69
480.532	689.69
480.751	674.69
480.969	697.69
481.188	792.69
481.406	807.69
481.624	728.69
481.843	675.69
482.061	678.69
482.28	654.69
482.498	677.69
482.717	653.69
482.935	621.69
483.153	651.69
483.372	645.69
483.59	639.69
483.808	620.69
484.027	632.69
484.245	638.69
484.463	656.69
484.681	675.69
484.9	671.69
485.118	672.69
485.336	656.69
485.554	682.69
485.772	688.69
485.99	649.69
486.209	671.69
486.427	678.69
486.645	689.69
486.863	706.69
487.081	693.69
487.299	693.69
487.517	739.69
487.735	701.69
487.953	679.69
488.171	696.69
488.389	668.69
488.607	714.69
488.825	698.69
489.043	691.69
489.261	700.69
489.479	685.69
489.696	689.69
489.914	703.69
490.132	727.69
490.35	714.69
490.568	722.69
490.786	766.69
491.003	736.69
491.221	771.69
491.439	783.69
491.657	765.69
491.874	778.69
492.092	820.69
492.31	805.69
492.527	793.69
492.745	786.69
492.963	824.69
493.18	816.69
493.398	831.69
493.615	846.69
493.833	824.69
494.05	846.69
494.268	822.69
494.485	811.69
494.703	808.69
494.92	822.69
495.138	848.69
495.355	831.69
495.573	834.69
495.79	804.69
496.008	820.69
496.225	813.69
496.442	828.69
496.66	852.69
496.877	848.69
497.094	844.69
497.312	869.69
497.529	842.69
497.746	870.69
497.963	875.69
498.181	890.69
498.398	894.69
498.615	883.69
498.832	949.69
499.049	981.69
499.267	973.69
499.484	1018.69
499.701	1047.69
499.918	1085.69
500.135	1130.69
500.352	1178.69
500.569	1222.69
500.786	1223.69
501.003	1192.69
501.22	1158.69
501.437	1133.69
501.654	1108.69
501.871	1071.69
502.088	1030.69
502.305	979.69
502.522	966.69
502.739	922.69
502.956	908.69
503.172	918.69
503.389	884.69
503.606	863.69
503.823	869.69
504.04	871.69
504.256	840.69
504.473	845.69
504.69	861.69
504.907	839.69
505.123	813.69
505.34	823.69
505.557	803.69
505.773	774.69
505.99	808.69
506.207	814.69
506.423	815.69
506.64	762.69
506.856	788.69
507.073	759.69
507.289	776.69
507.506	768.69
507.722	783.69
507.939	783.69
508.155	746.69
508.372	748.69
508.588	728.69
508.805	745.69
509.021	743.69
509.238	751.69
509.454	771.69
509.67	737.69
509.887	775.69
510.103	750.69
510.319	754.69
510.536	832.69
510.752	1325.69
510.968	1063.69
511.184	749.69
511.401	722.69
511.617	731.69
511.833	711.69
512.049	700.69
512.265	722.69
512.481	713.69
512.698	716.69
512.914	681.69
513.13	711.69
513.346	687.69
513.562	698.69
513.778	714.69
513.994	718.69
514.21	706.69
514.426	703.69
514.642	781.69
514.858	812.69
515.074	831.69
515.29	987.69
515.506	1388.69
515.721	1138.69
515.937	822.69
516.153	763.69
516.369	730.69
516.585	736.69
516.801	754.69
517.016	728.69
517.232	711.69
517.448	723.69
517.664	732.69
517.879	729.69
518.095	732.69
518.311	733.69
518.527	755.69
518.742	726.69
518.958	728.69
519.173	730.69
519.389	714.69
519.605	719.69
519.82	714.69
520.036	734.69
520.251	738.69
520.467	770.69
520.682	764.69
520.898	744.69
521.113	782.69
521.329	833.69
521.544	894.69
521.76	1082.69
521.975	1761.69
522.19	1742.69
522.406	1026.69
522.621	790.69
522.836	706.69
523.052	722.69
523.267	674.69
523.482	641.69
523.698	641.69
523.913	634.69
524.128	661.69
524.343	634.69
524.559	605.69
524.774	604.69
524.989	647.69
525.204	622.69
525.419	610.69
525.634	600.69
525.849	584.69
526.064	596.69
526.28	596.69
526.495	606.69
526.71	569.69
526.925	591.69
527.14	580.69
527.355	595.69
527.57	578.69
527.785	568.69
527.999	591.69
528.214	573.69
528.429	575.69
528.644	552.69
528.859	585.69
529.074	582.69
529.289	606.69
529.503	650.69
529.718	655.69
529.933	624.69
530.148	591.69
530.363	587.69
530.577	575.69
530.792	565.69
531.007	556.69
531.221	578.69
531.436	562.69
531.651	577.69
531.865	563.69
532.08	538.69
532.295	548.69
532.509	568.69
532.724	538.69
532.938	568.69
533.153	558.69
533.367	544.69
533.582	554.69
533.796	547.69
534.011	565.69
534.225	582.69
534.44	547.69
534.654	548.69
534.868	530.69
535.083	536.69
535.297	531.69
535.511	564.69
535.726	577.69
535.94	555.69
536.154	556.69
536.369	538.69
536.583	532.69
536.797	515.69
537.011	516.69
537.225	527.69
537.44	548.69
537.654	522.69
537.868	528.69
538.082	527.69
538.296	535.69
538.51	514.69
538.724	540.69
538.938	534.69
539.153	542.69
539.367	546.69
539.581	550.69
539.795	553.69
540.009	531.69
540.222	535.69
540.436	550.69
540.65	536.69
540.864	534.69
541.078	559.69
541.292	550.69
541.506	539.69
541.72	544.69
541.934	506.69
542.147	531.69
542.361	524.69
542.575	526.69
542.789	546.69
543.002	512.69
543.216	519.69
543.43	533.69
543.644	522.69
543.857	511.69
544.071	527.69
544.285	522.69
544.498	491.69
544.712	526.69
544.925	505.69
545.139	536.69
545.352	512.69
545.566	528.69
545.779	507.69
545.993	518.69
546.206	541.69
546.42	510.69
546.633	512.69
546.847	519.69
547.06	489.69
547.274	504.69
547.487	508.69
547.7	537.69
547.914	516.69
548.127	487.69
548.34	514.69
548.554	516.69
548.767	503.69
548.98	493.69
549.193	493.69
549.407	493.69
549.62	519.69
549.833	517.69
550.046	502.69
550.259	500.69
550.473	503.69
550.686	508.69
550.899	503.69
551.112	485.69
551.325	494.69
551.538	482.69
551.751	502.69
551.964	487.69
552.177	506.69
552.39	488.69
552.603	491.69
552.816	486.69
553.029	503.69
553.242	502.69
553.455	487.69
553.667	518.69
553.88	529.69
554.093	520.69
554.306	509.69
554.519	492.69
554.732	498.69
554.944	531.69
555.157	479.69
555.37	466.69
555.583	487.69
555.795	474.69
556.008	472.69
556.221	469.69
556.433	468.69
556.646	456.69
556.859	474.69
557.071	455.69
557.284	449.69
557.496	451.69
557.709	451.69
557.921	438.69
558.134	462.69
558.346	444.69
558.559	467.69
558.771	444.69
558.984	453.69
559.196	444.69
559.409	455.69
559.621	446.69
559.833	455.69
560.046	436.69
560.258	479.69
560.47	447.69
560.683	438.69
560.895	443.69
561.107	468.69
561.32	452.69
561.532	444.69
561.744	454.69
561.956	442.69
562.168	440.69
562.381	463.69
562.593	438.69
562.805	455.69
563.017	470.69
563.229	449.69
563.441	447.69
563.653	456.69
563.865	464.69
564.077	462.69
564.289	459.69
564.501	471.69
564.713	479.69
564.925	477.69
565.137	496.69
565.349	479.69
565.561	483.69
565.773	513.69
565.985	519.69
566.197	505.69
566.408	522.69
566.62	558.69
566.832	547.69
567.044	567.69
567.255	577.69
567.467	572.69
567.679	585.69
567.891	601.69
568.102	589.69
568.314	599.69
568.526	549.69
568.737	533.69
568.949	522.69
569.161	512.69
569.372	472.69
569.584	466.69
569.795	476.69
570.007	467.69
570.218	518.69
570.43	500.69
570.641	448.69
570.853	444.69
571.064	435.69
571.276	438.69
571.487	440.69
571.698	426.69
571.91	417.69
572.121	444.69
572.333	421.69
572.544	416.69
572.755	398.69
572.966	422.69
573.178	394.69
573.389	398.69
573.6	415.69
573.811	383.69
574.023	406.69
574.234	411.69
574.445	392.69
574.656	373.69
574.867	381.69
575.078	387.69
575.289	393.69
575.501	395.69
575.712	384.69
575.923	379.69
576.134	367.69
576.345	384.69
576.556	370.69
576.767	378.69
576.978	399.69
577.188	401.69
577.399	371.69
577.61	381.69
577.821	374.69
578.032	410.69
578.243	379.69
578.454	641.69
578.665	482.69
578.875	389.69
579.086	371.69
579.297	360.69
579.508	342.69
579.718	343.69
579.929	376.69
580.14	386.69
580.35	351.69
580.561	365.69
580.772	369.69
580.982	366.69
581.193	360.69
581.403	348.69
581.614	363.69
581.825	347.69
582.035	336.69
582.246	355.69
582.456	331.69
582.667	336.69
582.877	338.69
583.087	338.69
583.298	354.69
583.508	346.69
583.719	359.69
583.929	350.69
584.139	357.69
584.35	341.69
584.56	331.69
584.77	354.69
584.981	340.69
585.191	356.69
585.401	335.69
585.611	342.69
585.821	334.69
586.032	356.69
586.242	365.69
586.452	341.69
586.662	348.69
586.872	322.69
587.082	342.69
587.292	335.69
587.502	350.69
587.713	333.69
587.923	335.69
588.133	335.69
588.343	327.69
588.553	323.69
588.762	323.69
588.972	326.69
589.182	335.69
589.392	325.69
589.602	351.69
589.812	347.69
590.022	329.69
590.232	350.69
590.441	349.69
590.651	331.69
590.861	346.69
591.071	347.69
591.281	344.69
591.49	343.69
591.7	340.69
591.91	378.69
592.119	330.69
592.329	336.69
592.539	354.69
592.748	371.69
592.958	359.69
593.167	353.69
593.377	364.69
593.587	371.69
593.796	361.69
594.006	374.69
594.215	356.69
594.424	358.69
594.634	339.69
594.843	342.69
595.053	355.69
595.262	359.69
595.472	332.69
595.681	329.69
595.89	335.69
596.1	325.69
596.309	314.69
596.518	325.69
596.727	309.69
596.937	343.69
597.146	310.69
597.355	308.69
597.564	303.69
597.774	310.69
597.983	306.69
598.192	302.69
598.401	294.69
598.61	299.69
598.819	303.69
599.028	309.69
599.237	312.69
599.446	290.69
599.655	312.69
599.864	302.69
600.073	300.69
600.282	306.69
600.491	298.69
600.7	288.69
600.909	312.69
601.118	314.69
601.327	287.69
601.536	287.69
601.745	283.69
601.953	299.69
602.162	295.69
602.371	288.69
602.58	288.69
602.789	290.69
602.997	278.69
603.206	284.69
603.415	290.69
603.623	279.69
603.832	296.69
604.041	279.69
604.249	275.69
604.458	266.69
604.666	274.69
604.875	282.69
605.084	285.69
605.292	288.69
605.501	280.69
605.709	266.69
605.918	282.69
606.126	306.69
606.334	295.69
606.543	284.69
606.751	282.69
606.96	281.69
607.168	280.69
607.376	275.69
607.585	280.69
607.793	266.69
608.001	290.69
608.21	281.69
608.418	284.69
608.626	258.69
608.834	265.69
609.043	268.69
609.251	276.69
609.459	268.69
609.667	270.69
609.875	276.69
610.083	265.69
610.291	278.69
610.499	280.69
610.707	278.69
610.916	259.69
611.124	262.69
611.332	269.69
611.54	282.69
611.748	271.69
611.955	272.69
612.163	278.69
612.371	288.69
612.579	264.69
612.787	271.69
612.995	278.69
613.203	267.69
613.411	266.69
613.618	281.69
613.826	254.69
614.034	257.69
614.242	258.69
614.449	269.69
614.657	278.69
614.865	271.69
615.072	279.69
615.28	272.69
615.488	266.69
615.695	270.69
615.903	267.69
616.111	272.69
616.318	259.69
616.526	280.69
616.733	276.69
616.941	268.69
617.148	267.69
617.356	264.69
617.563	258.69
617.771	273.69
617.978	247.69
618.185	266.69
618.393	260.69
618.6	265.69
618.807	263.69
619.015	258.69
619.222	261.69
619.429	260.69
619.637	260.69
619.844	245.69
620.051	250.69
620.258	253.69
620.466	266.69
620.673	256.69
620.88	251.69
621.087	252.69
621.294	252.69
621.501	244.69
621.708	258.69
621.915	270.69
622.122	250.69
622.329	234.69
622.536	255.69
622.743	260.69
622.95	247.69
623.157	234.69
623.364	229.69
623.571	243.69
623.778	256.69
623.985	249.69
624.192	260.69
624.399	232.69
624.606	239.69
624.812	256.69
625.019	258.69
625.226	227.69
625.433	229.69
625.639	241.69
625.846	231.69
626.053	215.69
626.259	234.69
626.466	233.69
626.673	242.69
626.879	214.69
627.086	238.69
627.293	252.69
627.499	225.69
627.706	230.69
627.912	230.69
628.119	213.69
628.325	206.69
628.532	240.69
628.738	227.69
628.945	231.69
629.151	196.69
629.357	225.69
629.564	216.69
629.77	223.69
629.976	211.69
630.183	212.69
630.389	209.69
630.595	212.69
630.802	218.69
631.008	221.69
631.214	201.69
631.42	225.69
631.627	207.69
631.833	213.69
632.039	222.69
632.245	213.69
632.451	215.69
632.657	204.69
632.863	205.69
633.069	208.69
633.275	216.69
633.481	220.69
633.688	197.69
633.893	206.69
634.099	207.69
634.305	214.69
634.511	207.69
634.717	211.69
634.923	210.69
635.129	203.69
635.335	194.69
635.541	207.69
635.747	220.69
635.952	190.69
636.158	203.69
636.364	216.69
636.57	217.69
636.775	206.69
636.981	206.69
637.187	203.69
637.392	200.69
637.598	200.69
637.804	200.69
638.009	205.69
638.215	199.69
638.421	194.69
638.626	184.69
638.832	189.69
639.037	192.69
639.243	209.69
639.448	183.69
639.654	197.69
639.859	189.69
640.065	198.69
640.27	207.69
640.475	198.69
640.681	193.69
640.886	187.69
641.091	207.69
641.297	183.69
641.502	198.69
641.707	192.69
641.913	191.69
642.118	188.69
642.323	190.69
642.528	180.69
642.733	194.69
642.939	174.69
643.144	190.69
643.349	194.69
643.554	198.69
643.759	174.69
643.964	185.69
644.169	189.69
644.374	188.69
644.579	187.69
644.784	179.69
644.989	170.69
645.194	198.69
645.399	188.69
645.604	186.69
645.809	194.69
646.014	171.69
646.219	195.69
646.423	173.69
646.628	187.69
646.833	175.69
647.038	192.69
647.243	168.69
647.447	171.69
647.652	189.69
647.857	188.69
648.062	175.69
648.266	166.69
648.471	184.69
648.676	178.69
648.88	170.69
649.085	196.69
649.289	195.69
649.494	172.69
649.698	206.69
649.903	206.69
650.107	181.69
650.312	169.69
650.516	175.69
650.721	167.69
650.925	168.69
651.13	175.69
651.334	178.69
651.539	162.69
651.743	174.69
651.947	172.69
652.152	168.69
652.356	144.69
652.56	156.69
652.764	156.69
652.969	152.69
653.173	168.69
653.377	154.69
653.581	166.69
653.785	140.69
653.99	154.69
654.194	145.69
654.398	154.69
654.602	139.69
654.806	154.69
655.01	151.69
655.214	163.69
655.418	165.69
655.622	138.69
655.826	151.69
656.03	144.69
656.234	143.69
656.438	123.69
656.642	152.69
656.846	142.69
657.049	138.69
657.253	134.69
657.457	119.69
657.661	120.69
657.865	126.69
658.068	122.69
658.272	115.69
658.476	130.69
658.68	117.69
658.883	109.69
659.087	106.69
659.291	107.69
659.494	113.69
659.698	109.69
659.901	102.69
660.105	96.69
660.309	104.69
660.512	100.69
660.716	97.69
660.919	92.69
661.123	99.69
661.326	80.69
661.53	85.69
661.733	107.69
661.936	96.69
662.14	86.69
662.343	89.69
662.546	91.69
662.75	57.69
662.953	81.69
663.156	74.69
663.36	98.69
663.563	89.69
663.766	88.69
663.969	95.69
664.173	81.69
664.376	92.69
664.579	91.69
664.782	83.69
664.985	79.69
665.188	77.69
665.391	84.69
665.594	72.69
665.797	83.69
666	86.69
666.203	78.69
666.406	79.69
666.609	84.69
666.812	80.69
667.015	87.69
667.218	81.69
667.421	76.69
667.624	94.69
667.827	94.69
668.03	98.69
668.232	78.69
668.435	86.69
668.638	84.69
668.841	76.69
669.043	85.69
669.246	86.69
669.449	94.69
669.651	77.69
669.854	86.69
670.057	89.69
670.259	79.69
670.462	69.69
670.665	75.69
670.867	92.69
671.07	84.69
671.272	83.69
671.475	95.69
671.677	77.69
671.88	96.69
672.082	77.69
672.284	77.69
672.487	79.69
672.689	88.69
672.892	69.69
