Data from 1966.PennyLincolnUp.Lamp.En5.5.200Scan.071719.P1._HRD10591_14-14-02-914.txt Node
Date: Thu Jul 18 14:14:02 EDT 2019
User: cochatt
Spectrometer: HR+D1059
Trigger mode: 1
Integration Time (sec): 1.000000E-1
Scans to average: 1
Electric dark correction enabled: true
Nonlinearity correction enabled: false
Boxcar width: 0
XAxis mode: Wavelengths
Number of Pixels in Spectrum: 2048
>>>>>Begin Spectral Data<<<<<
223.165	-1.94
223.4	-1.94
223.635	-1.94
223.869	-19.94
224.104	-12.94
224.338	-8.94
224.573	-4.94
224.808	-11.94
225.042	-5.94
225.277	-2.94
225.511	-18.94
225.746	24.06
225.98	7.06
226.215	11.06
226.449	5.06
226.683	6.06
226.918	7.06
227.152	28.06
227.387	28.06
227.621	35.06
227.856	38.06
228.09	40.06
228.324	46.06
228.559	53.06
228.793	68.06
229.027	79.06
229.262	78.06
229.496	91.06
229.73	91.06
229.964	106.06
230.199	95.06
230.433	84.06
230.667	78.06
230.901	78.06
231.136	93.06
231.37	98.06
231.604	84.06
231.838	96.06
232.072	89.06
232.306	90.06
232.541	98.06
232.775	95.06
233.009	86.06
233.243	100.06
233.477	87.06
233.711	95.06
233.945	88.06
234.179	91.06
234.413	87.06
234.647	106.06
234.881	105.06
235.115	90.06
235.349	95.06
235.583	88.06
235.817	94.06
236.051	76.06
236.285	87.06
236.519	108.06
236.753	98.06
236.987	118.06
237.221	126.06
237.455	147.06
237.689	131.06
237.922	101.06
238.156	105.06
238.39	87.06
238.624	97.06
238.858	100.06
239.091	90.06
239.325	104.06
239.559	91.06
239.793	94.06
240.027	93.06
240.26	111.06
240.494	110.06
240.728	102.06
240.961	124.06
241.195	99.06
241.429	106.06
241.662	107.06
241.896	92.06
242.13	114.06
242.363	102.06
242.597	107.06
242.83	100.06
243.064	99.06
243.298	100.06
243.531	104.06
243.765	110.06
243.998	101.06
244.232	92.06
244.465	94.06
244.699	126.06
244.932	93.06
245.166	100.06
245.399	97.06
245.633	94.06
245.866	109.06
246.099	111.06
246.333	108.06
246.566	111.06
246.8	111.06
247.033	94.06
247.266	94.06
247.5	114.06
247.733	108.06
247.966	114.06
248.2	122.06
248.433	133.06
248.666	143.06
248.899	127.06
249.133	138.06
249.366	146.06
249.599	133.06
249.832	118.06
250.066	124.06
250.299	107.06
250.532	132.06
250.765	146.06
250.998	145.06
251.231	139.06
251.465	155.06
251.698	141.06
251.931	132.06
252.164	122.06
252.397	137.06
252.63	131.06
252.863	139.06
253.096	150.06
253.329	141.06
253.562	144.06
253.795	131.06
254.028	134.06
254.261	146.06
254.494	140.06
254.727	163.06
254.96	158.06
255.193	144.06
255.426	145.06
255.659	150.06
255.892	146.06
256.124	132.06
256.357	154.06
256.59	152.06
256.823	128.06
257.056	132.06
257.289	129.06
257.521	137.06
257.754	136.06
257.987	138.06
258.22	135.06
258.452	114.06
258.685	128.06
258.918	130.06
259.151	135.06
259.383	137.06
259.616	130.06
259.849	157.06
260.081	144.06
260.314	150.06
260.547	156.06
260.779	148.06
261.012	149.06
261.244	142.06
261.477	140.06
261.71	136.06
261.942	139.06
262.175	154.06
262.407	152.06
262.64	141.06
262.872	142.06
263.105	143.06
263.337	142.06
263.57	124.06
263.802	126.06
264.035	134.06
264.267	144.06
264.499	133.06
264.732	136.06
264.964	135.06
265.197	129.06
265.429	127.06
265.661	130.06
265.894	126.06
266.126	149.06
266.358	130.06
266.591	144.06
266.823	140.06
267.055	137.06
267.287	142.06
267.52	139.06
267.752	150.06
267.984	150.06
268.216	158.06
268.448	150.06
268.681	140.06
268.913	152.06
269.145	179.06
269.377	166.06
269.609	180.06
269.841	174.06
270.073	171.06
270.306	180.06
270.538	198.06
270.77	179.06
271.002	188.06
271.234	169.06
271.466	183.06
271.698	199.06
271.93	166.06
272.162	187.06
272.394	190.06
272.626	179.06
272.858	173.06
273.09	164.06
273.322	148.06
273.553	172.06
273.785	171.06
274.017	162.06
274.249	163.06
274.481	160.06
274.713	156.06
274.945	173.06
275.176	171.06
275.408	163.06
275.64	165.06
275.872	163.06
276.104	162.06
276.335	153.06
276.567	152.06
276.799	174.06
277.031	184.06
277.262	199.06
277.494	169.06
277.726	178.06
277.957	167.06
278.189	154.06
278.421	144.06
278.652	159.06
278.884	159.06
279.115	169.06
279.347	164.06
279.579	175.06
279.81	152.06
280.042	167.06
280.273	160.06
280.505	167.06
280.736	149.06
280.968	162.06
281.199	164.06
281.431	157.06
281.662	167.06
281.894	152.06
282.125	156.06
282.356	175.06
282.588	179.06
282.819	190.06
283.051	174.06
283.282	166.06
283.513	185.06
283.745	167.06
283.976	168.06
284.207	171.06
284.439	140.06
284.67	155.06
284.901	167.06
285.132	175.06
285.364	162.06
285.595	165.06
285.826	169.06
286.057	172.06
286.288	183.06
286.52	180.06
286.751	168.06
286.982	159.06
287.213	157.06
287.444	178.06
287.675	180.06
287.906	190.06
288.138	183.06
288.369	180.06
288.6	181.06
288.831	175.06
289.062	174.06
289.293	163.06
289.524	158.06
289.755	168.06
289.986	182.06
290.217	158.06
290.448	186.06
290.679	168.06
290.91	153.06
291.141	173.06
291.371	170.06
291.602	156.06
291.833	159.06
292.064	169.06
292.295	179.06
292.526	182.06
292.757	169.06
292.987	172.06
293.218	176.06
293.449	178.06
293.68	180.06
293.91	173.06
294.141	164.06
294.372	167.06
294.603	180.06
294.833	168.06
295.064	163.06
295.295	181.06
295.525	174.06
295.756	183.06
295.987	194.06
296.217	194.06
296.448	187.06
296.679	186.06
296.909	168.06
297.14	176.06
297.37	179.06
297.601	178.06
297.831	163.06
298.062	163.06
298.292	169.06
298.523	168.06
298.753	182.06
298.984	188.06
299.214	174.06
299.445	188.06
299.675	178.06
299.905	182.06
300.136	175.06
300.366	174.06
300.597	175.06
300.827	192.06
301.057	189.06
301.288	198.06
301.518	191.06
301.748	178.06
301.979	187.06
302.209	179.06
302.439	194.06
302.669	195.06
302.9	183.06
303.13	178.06
303.36	178.06
303.59	203.06
303.82	208.06
304.051	194.06
304.281	188.06
304.511	193.06
304.741	178.06
304.971	190.06
305.201	194.06
305.431	198.06
305.661	186.06
305.891	195.06
306.121	184.06
306.352	194.06
306.582	188.06
306.812	198.06
307.042	212.06
307.272	191.06
307.502	196.06
307.731	207.06
307.961	203.06
308.191	188.06
308.421	183.06
308.651	169.06
308.881	185.06
309.111	202.06
309.341	190.06
309.571	196.06
309.8	200.06
310.03	219.06
310.26	203.06
310.49	213.06
310.72	223.06
310.949	233.06
311.179	238.06
311.409	199.06
311.639	208.06
311.868	216.06
312.098	215.06
312.328	216.06
312.557	236.06
312.787	225.06
313.017	229.06
313.246	237.06
313.476	220.06
313.706	199.06
313.935	213.06
314.165	235.06
314.394	234.06
314.624	215.06
314.853	219.06
315.083	211.06
315.312	208.06
315.542	197.06
315.771	208.06
316.001	223.06
316.23	211.06
316.46	203.06
316.689	202.06
316.919	235.06
317.148	221.06
317.377	233.06
317.607	220.06
317.836	219.06
318.065	219.06
318.295	209.06
318.524	214.06
318.753	202.06
318.983	193.06
319.212	200.06
319.441	200.06
319.67	214.06
319.9	211.06
320.129	208.06
320.358	203.06
320.587	208.06
320.816	207.06
321.046	206.06
321.275	214.06
321.504	224.06
321.733	228.06
321.962	223.06
322.191	240.06
322.42	223.06
322.649	240.06
322.878	239.06
323.108	268.06
323.337	282.06
323.566	286.06
323.795	296.06
324.024	308.06
324.253	363.06
324.482	518.06
324.71	764.06
324.939	1048.06
325.168	854.06
325.397	422.06
325.626	315.06
325.855	267.06
326.084	258.06
326.313	282.06
326.542	257.06
326.77	292.06
326.999	367.06
327.228	482.06
327.457	704.06
327.686	796.06
327.914	524.06
328.143	335.06
328.372	346.06
328.6	303.06
328.829	293.06
329.058	312.06
329.287	300.06
329.515	293.06
329.744	287.06
329.972	295.06
330.201	266.06
330.43	304.06
330.658	332.06
330.887	337.06
331.115	330.06
331.344	277.06
331.572	271.06
331.801	260.06
332.03	242.06
332.258	253.06
332.486	250.06
332.715	230.06
332.943	232.06
333.172	232.06
333.4	238.06
333.629	272.06
333.857	250.06
334.085	270.06
334.314	296.06
334.542	288.06
334.771	326.06
334.999	287.06
335.227	258.06
335.455	262.06
335.684	249.06
335.912	242.06
336.14	242.06
336.369	230.06
336.597	234.06
336.825	242.06
337.053	233.06
337.281	229.06
337.51	243.06
337.738	249.06
337.966	225.06
338.194	244.06
338.422	228.06
338.65	235.06
338.878	228.06
339.106	234.06
339.334	243.06
339.562	229.06
339.79	239.06
340.018	232.06
340.246	242.06
340.474	231.06
340.702	232.06
340.93	228.06
341.158	229.06
341.386	242.06
341.614	234.06
341.842	223.06
342.07	218.06
342.298	225.06
342.526	215.06
342.754	230.06
342.981	218.06
343.209	209.06
343.437	230.06
343.665	223.06
343.893	239.06
344.12	243.06
344.348	235.06
344.576	250.06
344.804	244.06
345.031	246.06
345.259	244.06
345.487	237.06
345.714	238.06
345.942	218.06
346.17	216.06
346.397	222.06
346.625	217.06
346.853	196.06
347.08	219.06
347.308	229.06
347.535	233.06
347.763	222.06
347.99	226.06
348.218	217.06
348.445	232.06
348.673	221.06
348.9	230.06
349.128	214.06
349.355	206.06
349.583	204.06
349.81	226.06
350.037	221.06
350.265	229.06
350.492	218.06
350.72	223.06
350.947	216.06
351.174	223.06
351.402	217.06
351.629	218.06
351.856	228.06
352.083	217.06
352.311	228.06
352.538	218.06
352.765	248.06
352.992	246.06
353.22	232.06
353.447	224.06
353.674	228.06
353.901	202.06
354.128	210.06
354.355	203.06
354.583	246.06
354.81	194.06
355.037	211.06
355.264	213.06
355.491	219.06
355.718	211.06
355.945	217.06
356.172	208.06
356.399	204.06
356.626	198.06
356.853	192.06
357.08	210.06
357.307	204.06
357.534	205.06
357.761	200.06
357.988	229.06
358.215	205.06
358.441	220.06
358.668	193.06
358.895	215.06
359.122	213.06
359.349	207.06
359.576	214.06
359.802	230.06
360.029	255.06
360.256	272.06
360.483	256.06
360.709	220.06
360.936	218.06
361.163	211.06
361.39	223.06
361.616	222.06
361.843	236.06
362.07	226.06
362.296	224.06
362.523	210.06
362.749	214.06
362.976	224.06
363.203	232.06
363.429	216.06
363.656	234.06
363.882	219.06
364.109	213.06
364.335	214.06
364.562	213.06
364.788	204.06
365.015	202.06
365.241	220.06
365.468	227.06
365.694	216.06
365.92	212.06
366.147	199.06
366.373	211.06
366.599	210.06
366.826	208.06
367.052	194.06
367.278	211.06
367.505	213.06
367.731	199.06
367.957	203.06
368.184	205.06
368.41	206.06
368.636	221.06
368.862	221.06
369.089	211.06
369.315	199.06
369.541	210.06
369.767	209.06
369.993	208.06
370.219	214.06
370.445	195.06
370.672	211.06
370.898	233.06
371.124	215.06
371.35	190.06
371.576	202.06
371.802	195.06
372.028	202.06
372.254	212.06
372.48	212.06
372.706	197.06
372.932	207.06
373.158	230.06
373.384	208.06
373.61	214.06
373.835	200.06
374.061	209.06
374.287	201.06
374.513	226.06
374.739	219.06
374.965	220.06
375.191	227.06
375.416	205.06
375.642	207.06
375.868	216.06
376.094	212.06
376.319	198.06
376.545	215.06
376.771	219.06
376.997	211.06
377.222	210.06
377.448	216.06
377.674	207.06
377.899	191.06
378.125	211.06
378.35	208.06
378.576	214.06
378.802	196.06
379.027	203.06
379.253	187.06
379.478	220.06
379.704	199.06
379.929	202.06
380.155	204.06
380.38	201.06
380.606	214.06
380.831	210.06
381.057	230.06
381.282	199.06
381.507	214.06
381.733	214.06
381.958	194.06
382.184	222.06
382.409	224.06
382.634	220.06
382.86	207.06
383.085	213.06
383.31	219.06
383.535	210.06
383.761	227.06
383.986	206.06
384.211	205.06
384.436	205.06
384.662	215.06
384.887	227.06
385.112	216.06
385.337	220.06
385.562	223.06
385.787	235.06
386.013	229.06
386.238	234.06
386.463	222.06
386.688	236.06
386.913	218.06
387.138	239.06
387.363	233.06
387.588	229.06
387.813	222.06
388.038	225.06
388.263	233.06
388.488	223.06
388.713	227.06
388.938	236.06
389.163	223.06
389.387	231.06
389.612	219.06
389.837	220.06
390.062	209.06
390.287	220.06
390.512	207.06
390.736	214.06
390.961	237.06
391.186	223.06
391.411	231.06
391.636	235.06
391.86	247.06
392.085	221.06
392.31	237.06
392.534	236.06
392.759	237.06
392.984	239.06
393.208	227.06
393.433	233.06
393.658	236.06
393.882	224.06
394.107	248.06
394.331	238.06
394.556	231.06
394.78	224.06
395.005	229.06
395.229	227.06
395.454	224.06
395.678	242.06
395.903	246.06
396.127	242.06
396.352	255.06
396.576	233.06
396.801	226.06
397.025	238.06
397.249	226.06
397.474	234.06
397.698	225.06
397.922	225.06
398.147	240.06
398.371	264.06
398.595	254.06
398.82	239.06
399.044	254.06
399.268	259.06
399.492	272.06
399.717	284.06
399.941	299.06
400.165	301.06
400.389	299.06
400.613	286.06
400.837	267.06
401.062	251.06
401.286	242.06
401.51	261.06
401.734	258.06
401.958	248.06
402.182	268.06
402.406	258.06
402.63	271.06
402.854	273.06
403.078	254.06
403.302	267.06
403.526	276.06
403.75	265.06
403.974	240.06
404.198	267.06
404.422	266.06
404.645	284.06
404.869	268.06
405.093	275.06
405.317	302.06
405.541	319.06
405.765	288.06
405.988	260.06
406.212	281.06
406.436	290.06
406.66	304.06
406.883	293.06
407.107	296.06
407.331	296.06
407.555	338.06
407.778	327.06
408.002	304.06
408.226	293.06
408.449	271.06
408.673	287.06
408.896	297.06
409.12	329.06
409.344	304.06
409.567	271.06
409.791	278.06
410.014	264.06
410.238	260.06
410.461	267.06
410.685	267.06
410.908	271.06
411.132	294.06
411.355	296.06
411.578	295.06
411.802	272.06
412.025	257.06
412.249	272.06
412.472	277.06
412.695	291.06
412.919	296.06
413.142	281.06
413.365	268.06
413.589	262.06
413.812	276.06
414.035	250.06
414.258	258.06
414.482	240.06
414.705	260.06
414.928	256.06
415.151	242.06
415.374	247.06
415.597	250.06
415.821	261.06
416.044	244.06
416.267	258.06
416.49	227.06
416.713	264.06
416.936	251.06
417.159	247.06
417.382	260.06
417.605	271.06
417.828	274.06
418.051	294.06
418.274	263.06
418.497	248.06
418.72	264.06
418.943	254.06
419.166	259.06
419.389	270.06
419.611	267.06
419.834	273.06
420.057	262.06
420.28	280.06
420.503	278.06
420.726	277.06
420.948	266.06
421.171	297.06
421.394	315.06
421.617	268.06
421.839	252.06
422.062	256.06
422.285	275.06
422.507	301.06
422.73	335.06
422.953	301.06
423.175	296.06
423.398	263.06
423.621	281.06
423.843	279.06
424.066	279.06
424.288	272.06
424.511	269.06
424.733	325.06
424.956	322.06
425.178	325.06
425.401	320.06
425.623	356.06
425.846	304.06
426.068	283.06
426.291	256.06
426.513	278.06
426.735	284.06
426.958	302.06
427.18	337.06
427.402	380.06
427.625	430.06
427.847	373.06
428.069	324.06
428.292	288.06
428.514	272.06
428.736	271.06
428.958	267.06
429.181	259.06
429.403	258.06
429.625	260.06
429.847	281.06
430.069	315.06
430.292	308.06
430.514	263.06
430.736	262.06
430.958	246.06
431.18	242.06
431.402	259.06
431.624	239.06
431.846	243.06
432.068	245.06
432.29	240.06
432.512	254.06
432.734	254.06
432.956	258.06
433.178	271.06
433.4	271.06
433.622	252.06
433.844	246.06
434.066	250.06
434.287	252.06
434.509	252.06
434.731	242.06
434.953	260.06
435.175	259.06
435.397	309.06
435.618	264.06
435.84	300.06
436.062	346.06
436.284	365.06
436.505	310.06
436.727	252.06
436.949	251.06
437.17	285.06
437.392	267.06
437.614	273.06
437.835	294.06
438.057	325.06
438.278	347.06
438.5	354.06
438.721	400.06
438.943	379.06
439.165	291.06
439.386	293.06
439.608	276.06
439.829	282.06
440.05	309.06
440.272	301.06
440.493	281.06
440.715	286.06
440.936	267.06
441.158	283.06
441.379	260.06
441.6	267.06
441.822	291.06
442.043	304.06
442.264	350.06
442.486	358.06
442.707	295.06
442.928	303.06
443.149	282.06
443.371	300.06
443.592	322.06
443.813	372.06
444.034	391.06
444.255	318.06
444.476	292.06
444.698	278.06
444.919	286.06
445.14	378.06
445.361	341.06
445.582	286.06
445.803	335.06
446.024	362.06
446.245	366.06
446.466	339.06
446.687	284.06
446.908	270.06
447.129	288.06
447.35	253.06
447.571	253.06
447.792	252.06
448.013	251.06
448.234	264.06
448.455	287.06
448.675	357.06
448.896	356.06
449.117	315.06
449.338	310.06
449.559	352.06
449.779	399.06
450	311.06
450.221	280.06
450.442	262.06
450.662	250.06
450.883	264.06
451.104	271.06
451.324	255.06
451.545	240.06
451.766	226.06
451.986	224.06
452.207	237.06
452.428	229.06
452.648	247.06
452.869	258.06
453.089	263.06
453.31	255.06
453.53	246.06
453.751	244.06
453.971	255.06
454.192	260.06
454.412	251.06
454.633	219.06
454.853	232.06
455.073	234.06
455.294	263.06
455.514	271.06
455.734	270.06
455.955	233.06
456.175	239.06
456.395	219.06
456.616	225.06
456.836	229.06
457.056	209.06
457.276	218.06
457.497	223.06
457.717	220.06
457.937	226.06
458.157	236.06
458.377	231.06
458.598	254.06
458.818	279.06
459.038	315.06
459.258	324.06
459.478	267.06
459.698	246.06
459.918	240.06
460.138	244.06
460.358	243.06
460.578	260.06
460.798	251.06
461.018	246.06
461.238	251.06
461.458	262.06
461.678	256.06
461.898	240.06
462.118	243.06
462.338	274.06
462.558	270.06
462.777	265.06
462.997	278.06
463.217	268.06
463.437	286.06
463.657	261.06
463.876	262.06
464.096	259.06
464.316	254.06
464.536	276.06
464.755	285.06
464.975	290.06
465.195	294.06
465.414	376.06
465.634	290.06
465.854	270.06
466.073	261.06
466.293	260.06
466.512	244.06
466.732	244.06
466.951	267.06
467.171	227.06
467.391	258.06
467.61	256.06
467.829	236.06
468.049	247.06
468.268	258.06
468.488	235.06
468.707	232.06
468.927	242.06
469.146	248.06
469.365	223.06
469.585	250.06
469.804	242.06
470.023	255.06
470.243	253.06
470.462	243.06
470.681	277.06
470.901	256.06
471.12	248.06
471.339	238.06
471.558	252.06
471.777	234.06
471.997	218.06
472.216	260.06
472.435	283.06
472.654	275.06
472.873	261.06
473.092	242.06
473.311	259.06
473.53	218.06
473.749	246.06
473.968	264.06
474.187	328.06
474.406	322.06
474.625	256.06
474.844	253.06
475.063	250.06
475.282	228.06
475.501	270.06
475.72	272.06
475.939	245.06
476.158	260.06
476.377	258.06
476.596	254.06
476.814	258.06
477.033	253.06
477.252	249.06
477.471	263.06
477.69	261.06
477.908	250.06
478.127	262.06
478.346	267.06
478.564	274.06
478.783	262.06
479.002	279.06
479.22	262.06
479.439	287.06
479.658	278.06
479.876	315.06
480.095	287.06
480.313	314.06
480.532	304.06
480.751	278.06
480.969	300.06
481.188	346.06
481.406	392.06
481.624	318.06
481.843	310.06
482.061	290.06
482.28	280.06
482.498	276.06
482.717	279.06
482.935	264.06
483.153	283.06
483.372	272.06
483.59	276.06
483.808	276.06
484.027	290.06
484.245	283.06
484.463	274.06
484.681	290.06
484.9	279.06
485.118	288.06
485.336	296.06
485.554	291.06
485.772	292.06
485.99	290.06
486.209	281.06
486.427	290.06
486.645	281.06
486.863	333.06
487.081	324.06
487.299	290.06
487.517	291.06
487.735	309.06
487.953	276.06
488.171	291.06
488.389	316.06
488.607	310.06
488.825	308.06
489.043	301.06
489.261	319.06
489.479	335.06
489.696	322.06
489.914	312.06
490.132	315.06
490.35	325.06
490.568	310.06
490.786	341.06
491.003	328.06
491.221	334.06
491.439	345.06
491.657	328.06
491.874	368.06
492.092	349.06
492.31	343.06
492.527	339.06
492.745	349.06
492.963	360.06
493.18	364.06
493.398	365.06
493.615	362.06
493.833	354.06
494.05	360.06
494.268	360.06
494.485	365.06
494.703	365.06
494.92	340.06
495.138	347.06
495.355	351.06
495.573	363.06
495.79	363.06
496.008	361.06
496.225	360.06
496.442	346.06
496.66	359.06
496.877	352.06
497.094	367.06
497.312	335.06
497.529	378.06
497.746	344.06
497.963	354.06
498.181	374.06
498.398	362.06
498.615	374.06
498.832	390.06
499.049	403.06
499.267	388.06
499.484	396.06
499.701	409.06
499.918	440.06
500.135	457.06
500.352	495.06
500.569	478.06
500.786	471.06
501.003	455.06
501.22	453.06
501.437	435.06
501.654	407.06
501.871	440.06
502.088	420.06
502.305	387.06
502.522	377.06
502.739	391.06
502.956	367.06
503.172	390.06
503.389	346.06
503.606	380.06
503.823	371.06
504.04	365.06
504.256	364.06
504.473	347.06
504.69	352.06
504.907	343.06
505.123	319.06
505.34	348.06
505.557	357.06
505.773	335.06
505.99	336.06
506.207	331.06
506.423	340.06
506.64	340.06
506.856	341.06
507.073	342.06
507.289	325.06
507.506	318.06
507.722	335.06
507.939	336.06
508.155	336.06
508.372	310.06
508.588	335.06
508.805	321.06
509.021	308.06
509.238	303.06
509.454	340.06
509.67	322.06
509.887	311.06
510.103	309.06
510.319	333.06
510.536	411.06
510.752	774.06
510.968	566.06
511.184	345.06
511.401	319.06
511.617	298.06
511.833	303.06
512.049	295.06
512.265	297.06
512.481	326.06
512.698	306.06
512.914	298.06
513.13	295.06
513.346	301.06
513.562	271.06
513.778	303.06
513.994	302.06
514.21	310.06
514.426	324.06
514.642	340.06
514.858	368.06
515.074	375.06
515.29	500.06
515.506	864.06
515.721	657.06
515.937	382.06
516.153	332.06
516.369	344.06
516.585	328.06
516.801	308.06
517.016	316.06
517.232	312.06
517.448	308.06
517.664	313.06
517.879	322.06
518.095	314.06
518.311	292.06
518.527	308.06
518.742	309.06
518.958	294.06
519.173	307.06
519.389	301.06
519.605	292.06
519.82	299.06
520.036	318.06
520.251	341.06
520.467	364.06
520.682	334.06
520.898	347.06
521.113	359.06
521.329	380.06
521.544	426.06
521.76	612.06
521.975	1131.06
522.19	1093.06
522.406	534.06
522.621	376.06
522.836	320.06
523.052	320.06
523.267	298.06
523.482	298.06
523.698	264.06
523.913	268.06
524.128	273.06
524.343	282.06
524.559	263.06
524.774	278.06
524.989	275.06
525.204	258.06
525.419	285.06
525.634	267.06
525.849	252.06
526.064	261.06
526.28	266.06
526.495	245.06
526.71	258.06
526.925	267.06
527.14	256.06
527.355	248.06
527.57	242.06
527.785	239.06
527.999	244.06
528.214	231.06
528.429	243.06
528.644	251.06
528.859	273.06
529.074	255.06
529.289	273.06
529.503	322.06
529.718	310.06
529.933	268.06
530.148	252.06
530.363	266.06
530.577	276.06
530.792	253.06
531.007	242.06
531.221	238.06
531.436	226.06
531.651	244.06
531.865	219.06
532.08	216.06
532.295	233.06
532.509	244.06
532.724	237.06
532.938	246.06
533.153	242.06
533.367	231.06
533.582	243.06
533.796	236.06
534.011	229.06
534.225	229.06
534.44	232.06
534.654	227.06
534.868	228.06
535.083	248.06
535.297	235.06
535.511	224.06
535.726	253.06
535.94	249.06
536.154	238.06
536.369	246.06
536.583	220.06
536.797	224.06
537.011	229.06
537.225	248.06
537.44	233.06
537.654	242.06
537.868	236.06
538.082	226.06
538.296	226.06
538.51	227.06
538.724	234.06
538.938	233.06
539.153	228.06
539.367	244.06
539.581	254.06
539.795	244.06
540.009	229.06
540.222	232.06
540.436	230.06
540.65	237.06
540.864	243.06
541.078	227.06
541.292	248.06
541.506	241.06
541.72	234.06
541.934	242.06
542.147	242.06
542.361	230.06
542.575	224.06
542.789	235.06
543.002	228.06
543.216	221.06
543.43	226.06
543.644	250.06
543.857	250.06
544.071	244.06
544.285	234.06
544.498	229.06
544.712	227.06
544.925	227.06
545.139	233.06
545.352	230.06
545.566	230.06
545.779	223.06
545.993	226.06
546.206	242.06
546.42	231.06
546.633	243.06
546.847	237.06
547.06	229.06
547.274	224.06
547.487	229.06
547.7	218.06
547.914	217.06
548.127	215.06
548.34	242.06
548.554	214.06
548.767	229.06
548.98	220.06
549.193	235.06
549.407	219.06
549.62	214.06
549.833	222.06
550.046	227.06
550.259	212.06
550.473	220.06
550.686	211.06
550.899	224.06
551.112	216.06
551.325	215.06
551.538	235.06
551.751	217.06
551.964	225.06
552.177	226.06
552.39	202.06
552.603	219.06
552.816	214.06
553.029	235.06
553.242	208.06
553.455	231.06
553.667	250.06
553.88	250.06
554.093	232.06
554.306	226.06
554.519	215.06
554.732	204.06
554.944	220.06
555.157	218.06
555.37	212.06
555.583	227.06
555.795	215.06
556.008	195.06
556.221	207.06
556.433	210.06
556.646	226.06
556.859	198.06
557.071	221.06
557.284	228.06
557.496	215.06
557.709	215.06
557.921	186.06
558.134	189.06
558.346	207.06
558.559	199.06
558.771	206.06
558.984	198.06
559.196	202.06
559.409	208.06
559.621	197.06
559.833	196.06
560.046	189.06
560.258	196.06
560.47	215.06
560.683	210.06
560.895	189.06
561.107	196.06
561.32	201.06
561.532	216.06
561.744	193.06
561.956	203.06
562.168	214.06
562.381	204.06
562.593	206.06
562.805	218.06
563.017	203.06
563.229	210.06
563.441	193.06
563.653	214.06
563.865	207.06
564.077	200.06
564.289	195.06
564.501	223.06
564.713	203.06
564.925	197.06
565.137	211.06
565.349	207.06
565.561	226.06
565.773	214.06
565.985	224.06
566.197	208.06
566.408	229.06
566.62	236.06
566.832	223.06
567.044	232.06
567.255	232.06
567.467	230.06
567.679	242.06
567.891	244.06
568.102	239.06
568.314	236.06
568.526	242.06
568.737	220.06
568.949	224.06
569.161	216.06
569.372	215.06
569.584	224.06
569.795	211.06
570.007	200.06
570.218	234.06
570.43	237.06
570.641	207.06
570.853	192.06
571.064	196.06
571.276	192.06
571.487	187.06
571.698	203.06
571.91	183.06
572.121	190.06
572.333	183.06
572.544	202.06
572.755	186.06
572.966	177.06
573.178	173.06
573.389	174.06
573.6	172.06
573.811	162.06
574.023	186.06
574.234	188.06
574.445	174.06
574.656	165.06
574.867	174.06
575.078	167.06
575.289	187.06
575.501	175.06
575.712	172.06
575.923	166.06
576.134	166.06
576.345	162.06
576.556	178.06
576.767	164.06
576.978	173.06
577.188	168.06
577.399	156.06
577.61	171.06
577.821	166.06
578.032	182.06
578.243	207.06
578.454	386.06
578.665	232.06
578.875	176.06
579.086	174.06
579.297	163.06
579.508	151.06
579.718	172.06
579.929	165.06
580.14	173.06
580.35	175.06
580.561	170.06
580.772	162.06
580.982	166.06
581.193	166.06
581.403	171.06
581.614	180.06
581.825	172.06
582.035	155.06
582.246	158.06
582.456	170.06
582.667	173.06
582.877	166.06
583.087	176.06
583.298	159.06
583.508	163.06
583.719	159.06
583.929	170.06
584.139	165.06
584.35	159.06
584.56	165.06
584.77	169.06
584.981	168.06
585.191	159.06
585.401	163.06
585.611	147.06
585.821	163.06
586.032	172.06
586.242	164.06
586.452	187.06
586.662	171.06
586.872	169.06
587.082	170.06
587.292	147.06
587.502	167.06
587.713	164.06
587.923	149.06
588.133	158.06
588.343	163.06
588.553	184.06
588.762	154.06
588.972	178.06
589.182	175.06
589.392	164.06
589.602	166.06
589.812	164.06
590.022	161.06
590.232	163.06
590.441	162.06
590.651	155.06
590.861	142.06
591.071	148.06
591.281	153.06
591.49	169.06
591.7	162.06
591.91	163.06
592.119	152.06
592.329	163.06
592.539	162.06
592.748	170.06
592.958	161.06
593.167	176.06
593.377	169.06
593.587	170.06
593.796	186.06
594.006	181.06
594.215	171.06
594.424	152.06
594.634	166.06
594.843	154.06
595.053	161.06
595.262	160.06
595.472	157.06
595.681	152.06
595.89	152.06
596.1	162.06
596.309	140.06
596.518	154.06
596.727	142.06
596.937	147.06
597.146	171.06
597.355	162.06
597.564	149.06
597.774	159.06
597.983	144.06
598.192	141.06
598.401	144.06
598.61	139.06
598.819	155.06
599.028	144.06
599.237	141.06
599.446	138.06
599.655	135.06
599.864	157.06
600.073	137.06
600.282	153.06
600.491	154.06
600.7	152.06
600.909	163.06
601.118	135.06
601.327	150.06
601.536	159.06
601.745	143.06
601.953	161.06
602.162	156.06
602.371	142.06
602.58	141.06
602.789	151.06
602.997	150.06
603.206	152.06
603.415	138.06
603.623	147.06
603.832	133.06
604.041	137.06
604.249	154.06
604.458	152.06
604.666	142.06
604.875	157.06
605.084	144.06
605.292	138.06
605.501	154.06
605.709	143.06
605.918	154.06
606.126	128.06
606.334	143.06
606.543	142.06
606.751	155.06
606.96	161.06
607.168	139.06
607.376	155.06
607.585	159.06
607.793	150.06
608.001	146.06
608.21	145.06
608.418	138.06
608.626	159.06
608.834	146.06
609.043	148.06
609.251	132.06
609.459	147.06
609.667	144.06
609.875	156.06
610.083	157.06
610.291	142.06
610.499	140.06
610.707	152.06
610.916	148.06
611.124	147.06
611.332	153.06
611.54	163.06
611.748	147.06
611.955	135.06
612.163	136.06
612.371	130.06
612.579	126.06
612.787	144.06
612.995	144.06
613.203	139.06
613.411	129.06
613.618	144.06
613.826	141.06
614.034	151.06
614.242	157.06
614.449	136.06
614.657	134.06
614.865	138.06
615.072	145.06
615.28	141.06
615.488	139.06
615.695	158.06
615.903	144.06
616.111	143.06
616.318	147.06
616.526	163.06
616.733	157.06
616.941	145.06
617.148	128.06
617.356	154.06
617.563	135.06
617.771	147.06
617.978	118.06
618.185	132.06
618.393	139.06
618.6	140.06
618.807	149.06
619.015	154.06
619.222	139.06
619.429	146.06
619.637	133.06
619.844	142.06
620.051	146.06
620.258	137.06
620.466	138.06
620.673	126.06
620.88	141.06
621.087	142.06
621.294	123.06
621.501	138.06
621.708	146.06
621.915	137.06
622.122	141.06
622.329	135.06
622.536	138.06
622.743	145.06
622.95	148.06
623.157	128.06
623.364	135.06
623.571	134.06
623.778	134.06
623.985	134.06
624.192	137.06
624.399	134.06
624.606	138.06
624.812	126.06
625.019	132.06
625.226	143.06
625.433	143.06
625.639	142.06
625.846	125.06
626.053	135.06
626.259	132.06
626.466	130.06
626.673	130.06
626.879	136.06
627.086	137.06
627.293	135.06
627.499	118.06
627.706	132.06
627.912	110.06
628.119	128.06
628.325	148.06
628.532	129.06
628.738	122.06
628.945	123.06
629.151	118.06
629.357	132.06
629.564	141.06
629.77	122.06
629.976	123.06
630.183	132.06
630.389	124.06
630.595	141.06
630.802	124.06
631.008	146.06
631.214	138.06
631.42	139.06
631.627	144.06
631.833	124.06
632.039	128.06
632.245	120.06
632.451	133.06
632.657	120.06
632.863	114.06
633.069	127.06
633.275	117.06
633.481	120.06
633.688	133.06
633.893	127.06
634.099	126.06
634.305	131.06
634.511	121.06
634.717	120.06
634.923	123.06
635.129	125.06
635.335	136.06
635.541	126.06
635.747	116.06
635.952	127.06
636.158	133.06
636.364	114.06
636.57	124.06
636.775	118.06
636.981	110.06
637.187	120.06
637.392	127.06
637.598	110.06
637.804	114.06
638.009	126.06
638.215	117.06
638.421	121.06
638.626	125.06
638.832	133.06
639.037	119.06
639.243	117.06
639.448	127.06
639.654	125.06
639.859	99.06
640.065	122.06
640.27	132.06
640.475	118.06
640.681	135.06
640.886	134.06
641.091	121.06
641.297	119.06
641.502	118.06
641.707	109.06
641.913	126.06
642.118	126.06
642.323	125.06
642.528	118.06
642.733	112.06
642.939	122.06
643.144	121.06
643.349	119.06
643.554	131.06
643.759	110.06
643.964	111.06
644.169	107.06
644.374	107.06
644.579	108.06
644.784	100.06
644.989	135.06
645.194	127.06
645.399	111.06
645.604	108.06
645.809	122.06
646.014	109.06
646.219	132.06
646.423	112.06
646.628	113.06
646.833	117.06
647.038	101.06
647.243	119.06
647.447	112.06
647.652	126.06
647.857	135.06
648.062	110.06
648.266	125.06
648.471	109.06
648.676	123.06
648.88	110.06
649.085	118.06
649.289	108.06
649.494	111.06
649.698	133.06
649.903	118.06
650.107	109.06
650.312	115.06
650.516	98.06
650.721	122.06
650.925	107.06
651.13	130.06
651.334	105.06
651.539	117.06
651.743	107.06
651.947	108.06
652.152	104.06
652.356	98.06
652.56	108.06
652.764	115.06
652.969	124.06
653.173	108.06
653.377	110.06
653.581	100.06
653.785	96.06
653.99	109.06
654.194	109.06
654.398	117.06
654.602	110.06
654.806	93.06
655.01	106.06
655.214	95.06
655.418	108.06
655.622	120.06
655.826	116.06
656.03	99.06
656.234	108.06
656.438	112.06
656.642	119.06
656.846	114.06
657.049	98.06
657.253	111.06
657.457	102.06
657.661	114.06
657.865	91.06
658.068	84.06
658.272	86.06
658.476	87.06
658.68	104.06
658.883	105.06
659.087	95.06
659.291	84.06
659.494	69.06
659.698	92.06
659.901	96.06
660.105	92.06
660.309	88.06
660.512	93.06
660.716	96.06
660.919	98.06
661.123	92.06
661.326	97.06
661.53	89.06
661.733	81.06
661.936	96.06
662.14	87.06
662.343	91.06
662.546	88.06
662.75	82.06
662.953	87.06
663.156	79.06
663.36	96.06
663.563	95.06
663.766	78.06
663.969	81.06
664.173	79.06
664.376	68.06
664.579	76.06
664.782	87.06
664.985	81.06
665.188	76.06
665.391	84.06
665.594	88.06
665.797	79.06
666	92.06
666.203	84.06
666.406	78.06
666.609	85.06
666.812	80.06
667.015	83.06
667.218	99.06
667.421	77.06
667.624	75.06
667.827	82.06
668.03	76.06
668.232	90.06
668.435	94.06
668.638	89.06
668.841	88.06
669.043	82.06
669.246	87.06
669.449	96.06
669.651	79.06
669.854	80.06
670.057	73.06
670.259	74.06
670.462	86.06
670.665	95.06
670.867	82.06
671.07	74.06
671.272	91.06
671.475	93.06
671.677	80.06
671.88	82.06
672.082	78.06
672.284	74.06
672.487	79.06
672.689	86.06
672.892	91.06
