Data from 1966.PennyLincolnUp.Lamp.En5.5.200Scan.071719.P1.Scan2.head_HRD10591_14-19-45-292.txt Node
Date: Thu Jul 18 14:19:45 EDT 2019
User: cochatt
Spectrometer: HR+D1059
Trigger mode: 1
Integration Time (sec): 1.000000E-1
Scans to average: 1
Electric dark correction enabled: true
Nonlinearity correction enabled: false
Boxcar width: 0
XAxis mode: Wavelengths
Number of Pixels in Spectrum: 2048
>>>>>Begin Spectral Data<<<<<
223.165	-4.19
223.4	-4.19
223.635	-4.19
223.869	-26.19
224.104	-21.19
224.338	-9.19
224.573	-30.19
224.808	-25.19
225.042	-20.19
225.277	-2.19
225.511	-6.19
225.746	2.81
225.98	14.81
226.215	18.81
226.449	20.81
226.683	22.81
226.918	24.81
227.152	39.81
227.387	41.81
227.621	28.81
227.856	36.81
228.09	38.81
228.324	56.81
228.559	59.81
228.793	64.81
229.027	92.81
229.262	106.81
229.496	126.81
229.73	130.81
229.964	156.81
230.199	123.81
230.433	107.81
230.667	123.81
230.901	106.81
231.136	103.81
231.37	118.81
231.604	114.81
231.838	118.81
232.072	110.81
232.306	104.81
232.541	112.81
232.775	112.81
233.009	125.81
233.243	120.81
233.477	103.81
233.711	115.81
233.945	109.81
234.179	112.81
234.413	109.81
234.647	112.81
234.881	118.81
235.115	104.81
235.349	124.81
235.583	124.81
235.817	120.81
236.051	126.81
236.285	140.81
236.519	122.81
236.753	133.81
236.987	156.81
237.221	196.81
237.455	246.81
237.689	181.81
237.922	154.81
238.156	160.81
238.39	132.81
238.624	141.81
238.858	124.81
239.091	127.81
239.325	122.81
239.559	120.81
239.793	123.81
240.027	146.81
240.26	156.81
240.494	165.81
240.728	161.81
240.961	151.81
241.195	139.81
241.429	142.81
241.662	147.81
241.896	122.81
242.13	127.81
242.363	125.81
242.597	138.81
242.83	139.81
243.064	134.81
243.298	139.81
243.531	144.81
243.765	139.81
243.998	147.81
244.232	143.81
244.465	148.81
244.699	153.81
244.932	152.81
245.166	144.81
245.399	166.81
245.633	157.81
245.866	146.81
246.099	155.81
246.333	168.81
246.566	164.81
246.8	164.81
247.033	154.81
247.266	168.81
247.5	171.81
247.733	174.81
247.966	183.81
248.2	194.81
248.433	170.81
248.666	170.81
248.899	190.81
249.133	190.81
249.366	216.81
249.599	208.81
249.832	186.81
250.066	192.81
250.299	188.81
250.532	200.81
250.765	208.81
250.998	230.81
251.231	233.81
251.465	211.81
251.698	212.81
251.931	196.81
252.164	213.81
252.397	213.81
252.63	215.81
252.863	208.81
253.096	212.81
253.329	224.81
253.562	212.81
253.795	225.81
254.028	216.81
254.261	216.81
254.494	245.81
254.727	282.81
254.96	314.81
255.193	280.81
255.426	253.81
255.659	234.81
255.892	242.81
256.124	237.81
256.357	242.81
256.59	245.81
256.823	211.81
257.056	238.81
257.289	230.81
257.521	221.81
257.754	228.81
257.987	225.81
258.22	234.81
258.452	212.81
258.685	224.81
258.918	220.81
259.151	223.81
259.383	229.81
259.616	226.81
259.849	253.81
260.081	240.81
260.314	267.81
260.547	296.81
260.779	251.81
261.012	262.81
261.244	230.81
261.477	225.81
261.71	232.81
261.942	230.81
262.175	251.81
262.407	236.81
262.64	237.81
262.872	219.81
263.105	219.81
263.337	228.81
263.57	222.81
263.802	216.81
264.035	212.81
264.267	199.81
264.499	225.81
264.732	225.81
264.964	226.81
265.197	215.81
265.429	218.81
265.661	218.81
265.894	230.81
266.126	240.81
266.358	229.81
266.591	215.81
266.823	250.81
267.055	246.81
267.287	227.81
267.52	245.81
267.752	224.81
267.984	246.81
268.216	232.81
268.448	248.81
268.681	229.81
268.913	235.81
269.145	267.81
269.377	296.81
269.609	279.81
269.841	274.81
270.073	269.81
270.306	311.81
270.538	322.81
270.77	328.81
271.002	330.81
271.234	297.81
271.466	291.81
271.698	324.81
271.93	312.81
272.162	337.81
272.394	331.81
272.626	322.81
272.858	308.81
273.09	310.81
273.322	293.81
273.553	292.81
273.785	284.81
274.017	284.81
274.249	275.81
274.481	272.81
274.713	277.81
274.945	290.81
275.176	297.81
275.408	288.81
275.64	284.81
275.872	266.81
276.104	289.81
276.335	278.81
276.567	296.81
276.799	302.81
277.031	311.81
277.262	340.81
277.494	330.81
277.726	319.81
277.957	286.81
278.189	297.81
278.421	302.81
278.652	290.81
278.884	305.81
279.115	280.81
279.347	286.81
279.579	294.81
279.81	284.81
280.042	282.81
280.273	287.81
280.505	285.81
280.736	290.81
280.968	299.81
281.199	278.81
281.431	296.81
281.662	292.81
281.894	310.81
282.125	283.81
282.356	308.81
282.588	309.81
282.819	339.81
283.051	314.81
283.282	290.81
283.513	296.81
283.745	282.81
283.976	311.81
284.207	290.81
284.439	299.81
284.67	299.81
284.901	279.81
285.132	292.81
285.364	277.81
285.595	297.81
285.826	284.81
286.057	301.81
286.288	310.81
286.52	310.81
286.751	307.81
286.982	311.81
287.213	296.81
287.444	307.81
287.675	310.81
287.906	304.81
288.138	327.81
288.369	314.81
288.6	322.81
288.831	315.81
289.062	305.81
289.293	315.81
289.524	326.81
289.755	327.81
289.986	298.81
290.217	332.81
290.448	300.81
290.679	306.81
290.91	330.81
291.141	320.81
291.371	314.81
291.602	313.81
291.833	298.81
292.064	312.81
292.295	308.81
292.526	288.81
292.757	312.81
292.987	318.81
293.218	301.81
293.449	309.81
293.68	326.81
293.91	308.81
294.141	307.81
294.372	321.81
294.603	300.81
294.833	310.81
295.064	299.81
295.295	322.81
295.525	305.81
295.756	320.81
295.987	295.81
296.217	338.81
296.448	354.81
296.679	301.81
296.909	300.81
297.14	296.81
297.37	298.81
297.601	331.81
297.831	307.81
298.062	291.81
298.292	320.81
298.523	338.81
298.753	319.81
298.984	331.81
299.214	292.81
299.445	336.81
299.675	311.81
299.905	340.81
300.136	316.81
300.366	331.81
300.597	316.81
300.827	321.81
301.057	371.81
301.288	344.81
301.518	349.81
301.748	349.81
301.979	352.81
302.209	350.81
302.439	348.81
302.669	349.81
302.9	342.81
303.13	331.81
303.36	345.81
303.59	353.81
303.82	361.81
304.051	350.81
304.281	317.81
304.511	358.81
304.741	344.81
304.971	344.81
305.201	338.81
305.431	350.81
305.661	364.81
305.891	348.81
306.121	372.81
306.352	373.81
306.582	380.81
306.812	350.81
307.042	355.81
307.272	352.81
307.502	342.81
307.731	380.81
307.961	353.81
308.191	364.81
308.421	349.81
308.651	356.81
308.881	366.81
309.111	364.81
309.341	374.81
309.571	378.81
309.8	372.81
310.03	405.81
310.26	396.81
310.49	401.81
310.72	404.81
310.949	416.81
311.179	409.81
311.409	404.81
311.639	379.81
311.868	395.81
312.098	390.81
312.328	418.81
312.557	412.81
312.787	432.81
313.017	418.81
313.246	402.81
313.476	402.81
313.706	390.81
313.935	404.81
314.165	430.81
314.394	414.81
314.624	428.81
314.853	419.81
315.083	411.81
315.312	417.81
315.542	404.81
315.771	394.81
316.001	398.81
316.23	403.81
316.46	388.81
316.689	395.81
316.919	402.81
317.148	410.81
317.377	406.81
317.607	382.81
317.836	405.81
318.065	407.81
318.295	407.81
318.524	405.81
318.753	389.81
318.983	395.81
319.212	398.81
319.441	408.81
319.67	420.81
319.9	400.81
320.129	396.81
320.358	414.81
320.587	407.81
320.816	416.81
321.046	435.81
321.275	420.81
321.504	442.81
321.733	428.81
321.962	442.81
322.191	432.81
322.42	462.81
322.649	469.81
322.878	472.81
323.108	495.81
323.337	496.81
323.566	518.81
323.795	562.81
324.024	581.81
324.253	729.81
324.482	998.81
324.71	1603.81
324.939	2398.81
325.168	2050.81
325.397	1003.81
325.626	671.81
325.855	566.81
326.084	539.81
326.313	524.81
326.542	516.81
326.77	571.81
326.999	667.81
327.228	928.81
327.457	1452.81
327.686	1828.81
327.914	1178.81
328.143	748.81
328.372	650.81
328.6	633.81
328.829	597.81
329.058	612.81
329.287	632.81
329.515	597.81
329.744	557.81
329.972	548.81
330.201	566.81
330.43	615.81
330.658	635.81
330.887	648.81
331.115	636.81
331.344	560.81
331.572	523.81
331.801	533.81
332.03	534.81
332.258	537.81
332.486	480.81
332.715	478.81
332.943	492.81
333.172	488.81
333.4	474.81
333.629	509.81
333.857	514.81
334.085	541.81
334.314	552.81
334.542	570.81
334.771	616.81
334.999	571.81
335.227	532.81
335.455	516.81
335.684	528.81
335.912	475.81
336.14	475.81
336.369	478.81
336.597	480.81
336.825	507.81
337.053	484.81
337.281	464.81
337.51	476.81
337.738	485.81
337.966	475.81
338.194	468.81
338.422	477.81
338.65	458.81
338.878	471.81
339.106	455.81
339.334	476.81
339.562	463.81
339.79	482.81
340.018	478.81
340.246	457.81
340.474	468.81
340.702	487.81
340.93	481.81
341.158	457.81
341.386	472.81
341.614	462.81
341.842	468.81
342.07	451.81
342.298	466.81
342.526	464.81
342.754	436.81
342.981	451.81
343.209	456.81
343.437	457.81
343.665	475.81
343.893	470.81
344.12	481.81
344.348	479.81
344.576	482.81
344.804	487.81
345.031	503.81
345.259	514.81
345.487	492.81
345.714	488.81
345.942	452.81
346.17	474.81
346.397	454.81
346.625	462.81
346.853	449.81
347.08	454.81
347.308	455.81
347.535	453.81
347.763	459.81
347.99	466.81
348.218	454.81
348.445	483.81
348.673	475.81
348.9	464.81
349.128	469.81
349.355	455.81
349.583	443.81
349.81	441.81
350.037	426.81
350.265	446.81
350.492	443.81
350.72	453.81
350.947	434.81
351.174	461.81
351.402	458.81
351.629	461.81
351.856	448.81
352.083	483.81
352.311	480.81
352.538	476.81
352.765	477.81
352.992	451.81
353.22	479.81
353.447	460.81
353.674	447.81
353.901	433.81
354.128	439.81
354.355	432.81
354.583	421.81
354.81	432.81
355.037	436.81
355.264	461.81
355.491	431.81
355.718	424.81
355.945	434.81
356.172	414.81
356.399	411.81
356.626	418.81
356.853	461.81
357.08	424.81
357.307	420.81
357.534	427.81
357.761	439.81
357.988	434.81
358.215	430.81
358.441	427.81
358.668	432.81
358.895	417.81
359.122	443.81
359.349	425.81
359.576	454.81
359.802	483.81
360.029	527.81
360.256	499.81
360.483	519.81
360.709	486.81
360.936	446.81
361.163	455.81
361.39	462.81
361.616	447.81
361.843	448.81
362.07	468.81
362.296	459.81
362.523	472.81
362.749	464.81
362.976	460.81
363.203	444.81
363.429	452.81
363.656	449.81
363.882	455.81
364.109	435.81
364.335	442.81
364.562	437.81
364.788	445.81
365.015	445.81
365.241	442.81
365.468	463.81
365.694	460.81
365.92	455.81
366.147	440.81
366.373	441.81
366.599	448.81
366.826	446.81
367.052	434.81
367.278	438.81
367.505	440.81
367.731	446.81
367.957	455.81
368.184	454.81
368.41	460.81
368.636	458.81
368.862	481.81
369.089	463.81
369.315	465.81
369.541	468.81
369.767	451.81
369.993	439.81
370.219	450.81
370.445	462.81
370.672	447.81
370.898	445.81
371.124	434.81
371.35	464.81
371.576	433.81
371.802	440.81
372.028	454.81
372.254	454.81
372.48	468.81
372.706	451.81
372.932	450.81
373.158	474.81
373.384	466.81
373.61	459.81
373.835	441.81
374.061	453.81
374.287	473.81
374.513	469.81
374.739	443.81
374.965	451.81
375.191	440.81
375.416	480.81
375.642	439.81
375.868	470.81
376.094	449.81
376.319	459.81
376.545	458.81
376.771	457.81
376.997	446.81
377.222	448.81
377.448	470.81
377.674	429.81
377.899	442.81
378.125	427.81
378.35	436.81
378.576	456.81
378.802	464.81
379.027	448.81
379.253	451.81
379.478	465.81
379.704	473.81
379.929	457.81
380.155	456.81
380.38	453.81
380.606	461.81
380.831	467.81
381.057	466.81
381.282	465.81
381.507	442.81
381.733	467.81
381.958	458.81
382.184	468.81
382.409	468.81
382.634	457.81
382.86	473.81
383.085	466.81
383.31	451.81
383.535	454.81
383.761	492.81
383.986	460.81
384.211	469.81
384.436	477.81
384.662	468.81
384.887	490.81
385.112	494.81
385.337	493.81
385.562	499.81
385.787	504.81
386.013	519.81
386.238	514.81
386.463	509.81
386.688	507.81
386.913	481.81
387.138	504.81
387.363	493.81
387.588	523.81
387.813	506.81
388.038	515.81
388.263	504.81
388.488	515.81
388.713	507.81
388.938	532.81
389.163	530.81
389.387	520.81
389.612	509.81
389.837	501.81
390.062	501.81
390.287	512.81
390.512	497.81
390.736	494.81
390.961	512.81
391.186	500.81
391.411	478.81
391.636	516.81
391.86	521.81
392.085	532.81
392.31	524.81
392.534	515.81
392.759	524.81
392.984	504.81
393.208	522.81
393.433	508.81
393.658	502.81
393.882	525.81
394.107	524.81
394.331	524.81
394.556	530.81
394.78	508.81
395.005	523.81
395.229	508.81
395.454	540.81
395.678	522.81
395.903	562.81
396.127	561.81
396.352	552.81
396.576	512.81
396.801	510.81
397.025	545.81
397.249	534.81
397.474	548.81
397.698	540.81
397.922	566.81
398.147	573.81
398.371	588.81
398.595	555.81
398.82	582.81
399.044	582.81
399.268	610.81
399.492	653.81
399.717	670.81
399.941	686.81
400.165	723.81
400.389	722.81
400.613	671.81
400.837	624.81
401.062	619.81
401.286	600.81
401.51	589.81
401.734	568.81
401.958	588.81
402.182	587.81
402.406	605.81
402.63	615.81
402.854	591.81
403.078	616.81
403.302	614.81
403.526	635.81
403.75	620.81
403.974	631.81
404.198	614.81
404.422	619.81
404.645	639.81
404.869	650.81
405.093	641.81
405.317	708.81
405.541	756.81
405.765	702.81
405.988	665.81
406.212	666.81
406.436	642.81
406.66	665.81
406.883	659.81
407.107	692.81
407.331	733.81
407.555	835.81
407.778	850.81
408.002	757.81
408.226	698.81
408.449	658.81
408.673	679.81
408.896	709.81
409.12	740.81
409.344	706.81
409.567	651.81
409.791	618.81
410.014	614.81
410.238	627.81
410.461	603.81
410.685	616.81
410.908	644.81
411.132	662.81
411.355	725.81
411.578	676.81
411.802	618.81
412.025	611.81
412.249	622.81
412.472	662.81
412.695	692.81
412.919	705.81
413.142	631.81
413.365	618.81
413.589	592.81
413.812	572.81
414.035	596.81
414.258	585.81
414.482	594.81
414.705	594.81
414.928	584.81
415.151	564.81
415.374	592.81
415.597	582.81
415.821	581.81
416.044	601.81
416.267	581.81
416.49	586.81
416.713	563.81
416.936	582.81
417.159	575.81
417.382	568.81
417.605	598.81
417.828	606.81
418.051	615.81
418.274	596.81
418.497	589.81
418.72	571.81
418.943	594.81
419.166	604.81
419.389	632.81
419.611	636.81
419.834	634.81
420.057	612.81
420.28	612.81
420.503	607.81
420.726	589.81
420.948	603.81
421.171	664.81
421.394	709.81
421.617	656.81
421.839	603.81
422.062	607.81
422.285	612.81
422.507	707.81
422.73	775.81
422.953	745.81
423.175	680.81
423.398	652.81
423.621	628.81
423.843	678.81
424.066	665.81
424.288	636.81
424.511	676.81
424.733	724.81
424.956	832.81
425.178	798.81
425.401	792.81
425.623	820.81
425.846	707.81
426.068	658.81
426.291	634.81
426.513	641.81
426.735	644.81
426.958	714.81
427.18	796.81
427.402	960.81
427.625	1062.81
427.847	887.81
428.069	781.81
428.292	687.81
428.514	642.81
428.736	619.81
428.958	599.81
429.181	579.81
429.403	578.81
429.625	617.81
429.847	628.81
430.069	729.81
430.292	736.81
430.514	620.81
430.736	626.81
430.958	582.81
431.18	591.81
431.402	605.81
431.624	573.81
431.846	580.81
432.068	566.81
432.29	556.81
432.512	565.81
432.734	569.81
432.956	585.81
433.178	557.81
433.4	566.81
433.622	561.81
433.844	594.81
434.066	556.81
434.287	586.81
434.509	595.81
434.731	600.81
434.953	611.81
435.175	633.81
435.397	608.81
435.618	651.81
435.84	716.81
436.062	798.81
436.284	889.81
436.505	764.81
436.727	658.81
436.949	629.81
437.17	614.81
437.392	594.81
437.614	621.81
437.835	676.81
438.057	794.81
438.278	889.81
438.5	890.81
438.721	976.81
438.943	925.81
439.165	712.81
439.386	664.81
439.608	653.81
439.829	649.81
440.05	692.81
440.272	736.81
440.493	690.81
440.715	654.81
440.936	624.81
441.158	609.81
441.379	608.81
441.6	636.81
441.822	654.81
442.043	692.81
442.264	796.81
442.486	829.81
442.707	739.81
442.928	678.81
443.149	692.81
443.371	681.81
443.592	738.81
443.813	855.81
444.034	944.81
444.255	772.81
444.476	690.81
444.698	689.81
444.919	663.81
445.14	785.81
445.361	735.81
445.582	700.81
445.803	774.81
446.024	900.81
446.245	930.81
446.466	822.81
446.687	710.81
446.908	665.81
447.129	622.81
447.35	604.81
447.571	607.81
447.792	577.81
448.013	597.81
448.234	625.81
448.455	696.81
448.675	843.81
448.896	938.81
449.117	788.81
449.338	739.81
449.559	873.81
449.779	1016.81
450	774.81
450.221	659.81
450.442	610.81
450.662	588.81
450.883	576.81
451.104	603.81
451.324	611.81
451.545	614.81
451.766	565.81
451.986	554.81
452.207	532.81
452.428	527.81
452.648	557.81
452.869	556.81
453.089	561.81
453.31	556.81
453.53	530.81
453.751	541.81
453.971	544.81
454.192	557.81
454.412	543.81
454.633	536.81
454.853	517.81
455.073	512.81
455.294	547.81
455.514	664.81
455.734	621.81
455.955	516.81
456.175	509.81
456.395	506.81
456.616	488.81
456.836	523.81
457.056	484.81
457.276	501.81
457.497	520.81
457.717	505.81
457.937	516.81
458.157	516.81
458.377	541.81
458.598	566.81
458.818	584.81
459.038	692.81
459.258	708.81
459.478	640.81
459.698	578.81
459.918	586.81
460.138	562.81
460.358	577.81
460.578	587.81
460.798	580.81
461.018	613.81
461.238	570.81
461.458	570.81
461.678	600.81
461.898	604.81
462.118	574.81
462.338	597.81
462.558	606.81
462.777	622.81
462.997	635.81
463.217	631.81
463.437	673.81
463.657	638.81
463.876	644.81
464.096	645.81
464.316	632.81
464.536	648.81
464.755	622.81
464.975	630.81
465.195	677.81
465.414	726.81
465.634	683.81
465.854	606.81
466.073	599.81
466.293	550.81
466.512	557.81
466.732	553.81
466.951	564.81
467.171	562.81
467.391	572.81
467.61	564.81
467.829	588.81
468.049	566.81
468.268	542.81
468.488	531.81
468.707	527.81
468.927	529.81
469.146	531.81
469.365	540.81
469.585	552.81
469.804	547.81
470.023	556.81
470.243	565.81
470.462	566.81
470.681	577.81
470.901	580.81
471.12	576.81
471.339	560.81
471.558	561.81
471.777	560.81
471.997	567.81
472.216	585.81
472.435	598.81
472.654	600.81
472.873	569.81
473.092	545.81
473.311	550.81
473.53	556.81
473.749	585.81
473.968	605.81
474.187	724.81
474.406	762.81
474.625	640.81
474.844	580.81
475.063	560.81
475.282	547.81
475.501	564.81
475.72	586.81
475.939	573.81
476.158	598.81
476.377	581.81
476.596	564.81
476.814	586.81
477.033	606.81
477.252	582.81
477.471	614.81
477.69	615.81
477.908	625.81
478.127	628.81
478.346	621.81
478.564	618.81
478.783	641.81
479.002	634.81
479.22	653.81
479.439	644.81
479.658	658.81
479.876	692.81
480.095	669.81
480.313	703.81
480.532	688.81
480.751	716.81
480.969	721.81
481.188	752.81
481.406	834.81
481.624	712.81
481.843	699.81
482.061	669.81
482.28	695.81
482.498	664.81
482.717	670.81
482.935	680.81
483.153	661.81
483.372	678.81
483.59	651.81
483.808	663.81
484.027	674.81
484.245	673.81
484.463	670.81
484.681	658.81
484.9	691.81
485.118	674.81
485.336	665.81
485.554	668.81
485.772	679.81
485.99	677.81
486.209	700.81
486.427	685.81
486.645	681.81
486.863	720.81
487.081	709.81
487.299	696.81
487.517	709.81
487.735	692.81
487.953	698.81
488.171	736.81
488.389	720.81
488.607	714.81
488.825	694.81
489.043	728.81
489.261	727.81
489.479	722.81
489.696	727.81
489.914	728.81
490.132	711.81
490.35	725.81
490.568	724.81
490.786	748.81
491.003	755.81
491.221	782.81
491.439	782.81
491.657	809.81
491.874	840.81
492.092	826.81
492.31	824.81
492.527	834.81
492.745	841.81
492.963	828.81
493.18	836.81
493.398	830.81
493.615	837.81
493.833	868.81
494.05	856.81
494.268	840.81
494.485	820.81
494.703	838.81
494.92	857.81
495.138	844.81
495.355	857.81
495.573	849.81
495.79	862.81
496.008	878.81
496.225	859.81
496.442	857.81
496.66	853.81
496.877	844.81
497.094	842.81
497.312	845.81
497.529	881.81
497.746	896.81
497.963	896.81
498.181	936.81
498.398	958.81
498.615	960.81
498.832	979.81
499.049	985.81
499.267	1019.81
499.484	1061.81
499.701	1075.81
499.918	1142.81
500.135	1182.81
500.352	1225.81
500.569	1217.81
500.786	1241.81
501.003	1236.81
501.22	1187.81
501.437	1148.81
501.654	1140.81
501.871	1103.81
502.088	1066.81
502.305	1026.81
502.522	1001.81
502.739	964.81
502.956	944.81
503.172	904.81
503.389	904.81
503.606	898.81
503.823	874.81
504.04	880.81
504.256	870.81
504.473	882.81
504.69	852.81
504.907	878.81
505.123	826.81
505.34	832.81
505.557	841.81
505.773	832.81
505.99	808.81
506.207	802.81
506.423	786.81
506.64	779.81
506.856	798.81
507.073	814.81
507.289	772.81
507.506	797.81
507.722	804.81
507.939	809.81
508.155	798.81
508.372	757.81
508.588	763.81
508.805	742.81
509.021	782.81
509.238	801.81
509.454	781.81
509.67	756.81
509.887	749.81
510.103	737.81
510.319	752.81
510.536	842.81
510.752	1318.81
510.968	1106.81
511.184	781.81
511.401	724.81
511.617	731.81
511.833	718.81
512.049	718.81
512.265	734.81
512.481	726.81
512.698	715.81
512.914	713.81
513.13	715.81
513.346	715.81
513.562	712.81
513.778	717.81
513.994	725.81
514.21	740.81
514.426	768.81
514.642	796.81
514.858	808.81
515.074	853.81
515.29	980.81
515.506	1396.81
515.721	1163.81
515.937	880.81
516.153	802.81
516.369	775.81
516.585	758.81
516.801	767.81
517.016	777.81
517.232	769.81
517.448	771.81
517.664	738.81
517.879	748.81
518.095	726.81
518.311	736.81
518.527	735.81
518.742	747.81
518.958	722.81
519.173	730.81
519.389	732.81
519.605	722.81
519.82	755.81
520.036	722.81
520.251	753.81
520.467	756.81
520.682	785.81
520.898	758.81
521.113	786.81
521.329	837.81
521.544	930.81
521.76	1112.81
521.975	1762.81
522.19	1700.81
522.406	1013.81
522.621	786.81
522.836	725.81
523.052	732.81
523.267	673.81
523.482	667.81
523.698	666.81
523.913	654.81
524.128	653.81
524.343	677.81
524.559	630.81
524.774	630.81
524.989	639.81
525.204	631.81
525.419	628.81
525.634	608.81
525.849	603.81
526.064	624.81
526.28	609.81
526.495	612.81
526.71	617.81
526.925	588.81
527.14	603.81
527.355	596.81
527.57	583.81
527.785	598.81
527.999	605.81
528.214	587.81
528.429	588.81
528.644	599.81
528.859	601.81
529.074	604.81
529.289	599.81
529.503	697.81
529.718	683.81
529.933	619.81
530.148	609.81
530.363	608.81
530.577	586.81
530.792	581.81
531.007	587.81
531.221	588.81
531.436	581.81
531.651	567.81
531.865	574.81
532.08	575.81
532.295	581.81
532.509	563.81
532.724	580.81
532.938	567.81
533.153	593.81
533.367	565.81
533.582	588.81
533.796	588.81
534.011	555.81
534.225	593.81
534.44	552.81
534.654	546.81
534.868	567.81
535.083	548.81
535.297	545.81
535.511	545.81
535.726	572.81
535.94	546.81
536.154	564.81
536.369	548.81
536.583	546.81
536.797	554.81
537.011	540.81
537.225	538.81
537.44	525.81
537.654	547.81
537.868	547.81
538.082	554.81
538.296	547.81
538.51	538.81
538.724	543.81
538.938	553.81
539.153	550.81
539.367	562.81
539.581	568.81
539.795	548.81
540.009	542.81
540.222	548.81
540.436	530.81
540.65	547.81
540.864	542.81
541.078	525.81
541.292	555.81
541.506	527.81
541.72	507.81
541.934	535.81
542.147	552.81
542.361	533.81
542.575	544.81
542.789	527.81
543.002	534.81
543.216	552.81
543.43	546.81
543.644	541.81
543.857	548.81
544.071	534.81
544.285	552.81
544.498	547.81
544.712	550.81
544.925	541.81
545.139	522.81
545.352	529.81
545.566	504.81
545.779	524.81
545.993	533.81
546.206	554.81
546.42	534.81
546.633	521.81
546.847	524.81
547.06	498.81
547.274	530.81
547.487	527.81
547.7	504.81
547.914	505.81
548.127	515.81
548.34	513.81
548.554	525.81
548.767	527.81
548.98	506.81
549.193	521.81
549.407	485.81
549.62	517.81
549.833	502.81
550.046	514.81
550.259	487.81
550.473	502.81
550.686	515.81
550.899	489.81
551.112	516.81
551.325	516.81
551.538	520.81
551.751	500.81
551.964	512.81
552.177	506.81
552.39	496.81
552.603	530.81
552.816	513.81
553.029	539.81
553.242	523.81
553.455	517.81
553.667	530.81
553.88	536.81
554.093	500.81
554.306	536.81
554.519	520.81
554.732	524.81
554.944	497.81
555.157	500.81
555.37	500.81
555.583	490.81
555.795	487.81
556.008	496.81
556.221	488.81
556.433	464.81
556.646	473.81
556.859	463.81
557.071	482.81
557.284	482.81
557.496	483.81
557.709	461.81
557.921	450.81
558.134	489.81
558.346	445.81
558.559	446.81
558.771	458.81
558.984	462.81
559.196	467.81
559.409	474.81
559.621	462.81
559.833	470.81
560.046	450.81
560.258	457.81
560.47	443.81
560.683	449.81
560.895	452.81
561.107	462.81
561.32	464.81
561.532	440.81
561.744	461.81
561.956	464.81
562.168	439.81
562.381	455.81
562.593	454.81
562.805	459.81
563.017	452.81
563.229	445.81
563.441	450.81
563.653	439.81
563.865	452.81
564.077	457.81
564.289	476.81
564.501	460.81
564.713	489.81
564.925	500.81
565.137	500.81
565.349	493.81
565.561	508.81
565.773	509.81
565.985	517.81
566.197	508.81
566.408	541.81
566.62	554.81
566.832	569.81
567.044	575.81
567.255	573.81
567.467	579.81
567.679	588.81
567.891	600.81
568.102	591.81
568.314	562.81
568.526	559.81
568.737	575.81
568.949	541.81
569.161	516.81
569.372	488.81
569.584	485.81
569.795	479.81
570.007	486.81
570.218	523.81
570.43	500.81
570.641	455.81
570.853	466.81
571.064	449.81
571.276	461.81
571.487	446.81
571.698	434.81
571.91	440.81
572.121	415.81
572.333	432.81
572.544	426.81
572.755	425.81
572.966	419.81
573.178	423.81
573.389	417.81
573.6	396.81
573.811	403.81
574.023	390.81
574.234	392.81
574.445	406.81
574.656	384.81
574.867	385.81
575.078	390.81
575.289	400.81
575.501	385.81
575.712	384.81
575.923	377.81
576.134	395.81
576.345	398.81
576.556	389.81
576.767	390.81
576.978	394.81
577.188	403.81
577.399	373.81
577.61	389.81
577.821	399.81
578.032	386.81
578.243	423.81
578.454	611.81
578.665	488.81
578.875	407.81
579.086	376.81
579.297	401.81
579.508	357.81
579.718	376.81
579.929	368.81
580.14	357.81
580.35	366.81
580.561	374.81
580.772	351.81
580.982	354.81
581.193	375.81
581.403	364.81
581.614	347.81
581.825	368.81
582.035	374.81
582.246	379.81
582.456	361.81
582.667	372.81
582.877	355.81
583.087	351.81
583.298	366.81
583.508	361.81
583.719	353.81
583.929	373.81
584.139	351.81
584.35	341.81
584.56	333.81
584.77	353.81
584.981	332.81
585.191	354.81
585.401	352.81
585.611	340.81
585.821	339.81
586.032	334.81
586.242	332.81
586.452	347.81
586.662	344.81
586.872	347.81
587.082	341.81
587.292	360.81
587.502	353.81
587.713	361.81
587.923	341.81
588.133	332.81
588.343	344.81
588.553	353.81
588.762	341.81
588.972	346.81
589.182	345.81
589.392	341.81
589.602	345.81
589.812	351.81
590.022	356.81
590.232	347.81
590.441	327.81
590.651	353.81
590.861	346.81
591.071	341.81
591.281	359.81
591.49	337.81
591.7	340.81
591.91	331.81
592.119	326.81
592.329	350.81
592.539	371.81
592.748	363.81
592.958	356.81
593.167	379.81
593.377	353.81
593.587	373.81
593.796	359.81
594.006	370.81
594.215	380.81
594.424	366.81
594.634	365.81
594.843	344.81
595.053	372.81
595.262	370.81
595.472	345.81
595.681	356.81
595.89	334.81
596.1	347.81
596.309	339.81
596.518	348.81
596.727	317.81
596.937	320.81
597.146	324.81
597.355	331.81
597.564	310.81
597.774	312.81
597.983	319.81
598.192	324.81
598.401	318.81
598.61	294.81
598.819	310.81
599.028	317.81
599.237	284.81
599.446	299.81
599.655	312.81
599.864	312.81
600.073	305.81
600.282	316.81
600.491	295.81
600.7	297.81
600.909	302.81
601.118	298.81
601.327	291.81
601.536	297.81
601.745	296.81
601.953	309.81
602.162	298.81
602.371	320.81
602.58	302.81
602.789	309.81
602.997	300.81
603.206	297.81
603.415	293.81
603.623	295.81
603.832	294.81
604.041	294.81
604.249	295.81
604.458	294.81
604.666	286.81
604.875	284.81
605.084	274.81
605.292	291.81
605.501	273.81
605.709	285.81
605.918	291.81
606.126	276.81
606.334	269.81
606.543	285.81
606.751	291.81
606.96	279.81
607.168	276.81
607.376	293.81
607.585	281.81
607.793	285.81
608.001	287.81
608.21	276.81
608.418	288.81
608.626	267.81
608.834	301.81
609.043	274.81
609.251	276.81
609.459	274.81
609.667	275.81
609.875	283.81
610.083	267.81
610.291	264.81
610.499	289.81
610.707	284.81
610.916	289.81
611.124	286.81
611.332	274.81
611.54	292.81
611.748	286.81
611.955	276.81
612.163	261.81
612.371	269.81
612.579	282.81
612.787	276.81
612.995	267.81
613.203	265.81
613.411	263.81
613.618	267.81
613.826	280.81
614.034	265.81
614.242	266.81
614.449	271.81
614.657	261.81
614.865	275.81
615.072	270.81
615.28	260.81
615.488	281.81
615.695	270.81
615.903	264.81
616.111	281.81
616.318	277.81
616.526	265.81
616.733	264.81
616.941	251.81
617.148	282.81
617.356	267.81
617.563	269.81
617.771	275.81
617.978	273.81
618.185	265.81
618.393	281.81
618.6	243.81
618.807	265.81
619.015	244.81
619.222	265.81
619.429	265.81
619.637	273.81
619.844	269.81
620.051	256.81
620.258	256.81
620.466	230.81
620.673	256.81
620.88	246.81
621.087	235.81
621.294	251.81
621.501	254.81
621.708	246.81
621.915	252.81
622.122	239.81
622.329	258.81
622.536	267.81
622.743	231.81
622.95	252.81
623.157	250.81
623.364	233.81
623.571	258.81
623.778	256.81
623.985	256.81
624.192	251.81
624.399	253.81
624.606	254.81
624.812	225.81
625.019	246.81
625.226	246.81
625.433	236.81
625.639	246.81
625.846	241.81
626.053	226.81
626.259	227.81
626.466	256.81
626.673	241.81
626.879	224.81
627.086	246.81
627.293	244.81
627.499	233.81
627.706	217.81
627.912	245.81
628.119	252.81
628.325	227.81
628.532	228.81
628.738	227.81
628.945	229.81
629.151	222.81
629.357	235.81
629.564	230.81
629.77	210.81
629.976	224.81
630.183	222.81
630.389	220.81
630.595	234.81
630.802	217.81
631.008	208.81
631.214	234.81
631.42	221.81
631.627	211.81
631.833	230.81
632.039	220.81
632.245	217.81
632.451	212.81
632.657	197.81
632.863	217.81
633.069	222.81
633.275	204.81
633.481	196.81
633.688	201.81
633.893	213.81
634.099	209.81
634.305	205.81
634.511	213.81
634.717	201.81
634.923	185.81
635.129	196.81
635.335	212.81
635.541	200.81
635.747	200.81
635.952	206.81
636.158	208.81
636.364	212.81
636.57	212.81
636.775	208.81
636.981	212.81
637.187	205.81
637.392	208.81
637.598	193.81
637.804	190.81
638.009	208.81
638.215	192.81
638.421	187.81
638.626	200.81
638.832	192.81
639.037	193.81
639.243	198.81
639.448	190.81
639.654	205.81
639.859	195.81
640.065	205.81
640.27	191.81
640.475	197.81
640.681	188.81
640.886	199.81
641.091	199.81
641.297	186.81
641.502	187.81
641.707	192.81
641.913	196.81
642.118	193.81
642.323	171.81
642.528	194.81
642.733	190.81
642.939	183.81
643.144	184.81
643.349	175.81
643.554	190.81
643.759	185.81
643.964	183.81
644.169	194.81
644.374	203.81
644.579	182.81
644.784	177.81
644.989	173.81
645.194	185.81
645.399	174.81
645.604	179.81
645.809	198.81
646.014	193.81
646.219	183.81
646.423	183.81
646.628	165.81
646.833	191.81
647.038	168.81
647.243	188.81
647.447	184.81
647.652	183.81
647.857	192.81
648.062	185.81
648.266	188.81
648.471	189.81
648.676	193.81
648.88	190.81
649.085	189.81
649.289	194.81
649.494	202.81
649.698	203.81
649.903	208.81
650.107	184.81
650.312	186.81
650.516	199.81
650.721	178.81
650.925	158.81
651.13	149.81
651.334	155.81
651.539	173.81
651.743	174.81
651.947	168.81
652.152	152.81
652.356	163.81
652.56	161.81
652.764	158.81
652.969	146.81
653.173	155.81
653.377	147.81
653.581	151.81
653.785	136.81
653.99	152.81
654.194	149.81
654.398	150.81
654.602	154.81
654.806	138.81
655.01	158.81
655.214	148.81
655.418	134.81
655.622	129.81
655.826	159.81
656.03	144.81
656.234	141.81
656.438	150.81
656.642	125.81
656.846	134.81
657.049	152.81
657.253	141.81
657.457	126.81
657.661	109.81
657.865	124.81
658.068	111.81
658.272	119.81
658.476	119.81
658.68	126.81
658.883	93.81
659.087	107.81
659.291	84.81
659.494	107.81
659.698	86.81
659.901	113.81
660.105	97.81
660.309	88.81
660.512	98.81
660.716	92.81
660.919	83.81
661.123	93.81
661.326	84.81
661.53	94.81
661.733	80.81
661.936	89.81
662.14	91.81
662.343	101.81
662.546	75.81
662.75	85.81
662.953	90.81
663.156	70.81
663.36	67.81
663.563	74.81
663.766	71.81
663.969	81.81
664.173	85.81
664.376	90.81
664.579	77.81
664.782	89.81
664.985	87.81
665.188	85.81
665.391	76.81
665.594	77.81
665.797	93.81
666	82.81
666.203	83.81
666.406	82.81
666.609	78.81
666.812	97.81
667.015	72.81
667.218	93.81
667.421	67.81
667.624	86.81
667.827	77.81
668.03	84.81
668.232	94.81
668.435	65.81
668.638	71.81
668.841	92.81
669.043	75.81
669.246	81.81
669.449	76.81
669.651	89.81
669.854	79.81
670.057	78.81
670.259	83.81
670.462	72.81
670.665	85.81
670.867	77.81
671.07	92.81
671.272	77.81
671.475	68.81
671.677	77.81
671.88	84.81
672.082	85.81
672.284	89.81
672.487	77.81
672.689	80.81
672.892	91.81
