Data from 1966.PennyLincolnUp.Lamp.En5.5.200Scan.071719.P1._HRD10591_14-14-27-914.txt Node
Date: Thu Jul 18 14:14:27 EDT 2019
User: cochatt
Spectrometer: HR+D1059
Trigger mode: 1
Integration Time (sec): 1.000000E-1
Scans to average: 1
Electric dark correction enabled: true
Nonlinearity correction enabled: false
Boxcar width: 0
XAxis mode: Wavelengths
Number of Pixels in Spectrum: 2048
>>>>>Begin Spectral Data<<<<<
223.165	-11.94
223.4	-11.94
223.635	-11.94
223.869	-16.94
224.104	-21.94
224.338	-11.94
224.573	-12.94
224.808	-10.94
225.042	1.06
225.277	-10.94
225.511	-1.94
225.746	3.06
225.98	-2.94
226.215	9.06
226.449	19.06
226.683	11.06
226.918	24.06
227.152	35.06
227.387	32.06
227.621	39.06
227.856	41.06
228.09	51.06
228.324	57.06
228.559	56.06
228.793	71.06
229.027	78.06
229.262	81.06
229.496	84.06
229.73	93.06
229.964	119.06
230.199	100.06
230.433	80.06
230.667	86.06
230.901	95.06
231.136	85.06
231.37	83.06
231.604	77.06
231.838	101.06
232.072	87.06
232.306	96.06
232.541	105.06
232.775	102.06
233.009	104.06
233.243	112.06
233.477	93.06
233.711	108.06
233.945	99.06
234.179	89.06
234.413	112.06
234.647	102.06
234.881	100.06
235.115	94.06
235.349	103.06
235.583	111.06
235.817	96.06
236.051	92.06
236.285	84.06
236.519	103.06
236.753	90.06
236.987	106.06
237.221	121.06
237.455	143.06
237.689	126.06
237.922	109.06
238.156	112.06
238.39	80.06
238.624	101.06
238.858	101.06
239.091	95.06
239.325	96.06
239.559	104.06
239.793	103.06
240.027	99.06
240.26	103.06
240.494	114.06
240.728	108.06
240.961	105.06
241.195	113.06
241.429	108.06
241.662	121.06
241.896	103.06
242.13	102.06
242.363	109.06
242.597	122.06
242.83	104.06
243.064	93.06
243.298	98.06
243.531	102.06
243.765	101.06
243.998	97.06
244.232	94.06
244.465	109.06
244.699	111.06
244.932	104.06
245.166	113.06
245.399	115.06
245.633	89.06
245.866	112.06
246.099	99.06
246.333	111.06
246.566	105.06
246.8	107.06
247.033	96.06
247.266	105.06
247.5	131.06
247.733	110.06
247.966	127.06
248.2	127.06
248.433	115.06
248.666	117.06
248.899	122.06
249.133	128.06
249.366	167.06
249.599	149.06
249.832	129.06
250.066	125.06
250.299	109.06
250.532	131.06
250.765	140.06
250.998	151.06
251.231	144.06
251.465	132.06
251.698	132.06
251.931	124.06
252.164	132.06
252.397	125.06
252.63	128.06
252.863	115.06
253.096	135.06
253.329	146.06
253.562	133.06
253.795	143.06
254.028	135.06
254.261	128.06
254.494	149.06
254.727	163.06
254.96	165.06
255.193	156.06
255.426	146.06
255.659	158.06
255.892	134.06
256.124	144.06
256.357	144.06
256.59	134.06
256.823	130.06
257.056	128.06
257.289	133.06
257.521	142.06
257.754	144.06
257.987	121.06
258.22	139.06
258.452	135.06
258.685	142.06
258.918	135.06
259.151	133.06
259.383	126.06
259.616	136.06
259.849	137.06
260.081	150.06
260.314	151.06
260.547	163.06
260.779	149.06
261.012	139.06
261.244	152.06
261.477	149.06
261.71	141.06
261.942	144.06
262.175	136.06
262.407	141.06
262.64	153.06
262.872	149.06
263.105	147.06
263.337	139.06
263.57	131.06
263.802	118.06
264.035	134.06
264.267	145.06
264.499	123.06
264.732	138.06
264.964	131.06
265.197	134.06
265.429	135.06
265.661	141.06
265.894	145.06
266.126	158.06
266.358	135.06
266.591	148.06
266.823	143.06
267.055	143.06
267.287	152.06
267.52	145.06
267.752	131.06
267.984	153.06
268.216	151.06
268.448	168.06
268.681	144.06
268.913	134.06
269.145	164.06
269.377	171.06
269.609	158.06
269.841	159.06
270.073	176.06
270.306	175.06
270.538	187.06
270.77	199.06
271.002	176.06
271.234	173.06
271.466	192.06
271.698	176.06
271.93	174.06
272.162	195.06
272.394	188.06
272.626	181.06
272.858	172.06
273.09	168.06
273.322	168.06
273.553	171.06
273.785	184.06
274.017	155.06
274.249	167.06
274.481	167.06
274.713	164.06
274.945	153.06
275.176	157.06
275.408	151.06
275.64	158.06
275.872	153.06
276.104	162.06
276.335	161.06
276.567	162.06
276.799	171.06
277.031	169.06
277.262	188.06
277.494	189.06
277.726	196.06
277.957	170.06
278.189	155.06
278.421	151.06
278.652	160.06
278.884	157.06
279.115	166.06
279.347	159.06
279.579	151.06
279.81	158.06
280.042	152.06
280.273	165.06
280.505	161.06
280.736	159.06
280.968	165.06
281.199	168.06
281.431	172.06
281.662	156.06
281.894	169.06
282.125	166.06
282.356	175.06
282.588	182.06
282.819	178.06
283.051	174.06
283.282	159.06
283.513	164.06
283.745	181.06
283.976	160.06
284.207	176.06
284.439	164.06
284.67	168.06
284.901	157.06
285.132	160.06
285.364	176.06
285.595	165.06
285.826	188.06
286.057	168.06
286.288	175.06
286.52	172.06
286.751	156.06
286.982	156.06
287.213	162.06
287.444	177.06
287.675	172.06
287.906	173.06
288.138	193.06
288.369	179.06
288.6	189.06
288.831	181.06
289.062	182.06
289.293	177.06
289.524	166.06
289.755	175.06
289.986	158.06
290.217	152.06
290.448	177.06
290.679	171.06
290.91	173.06
291.141	175.06
291.371	164.06
291.602	169.06
291.833	181.06
292.064	177.06
292.295	175.06
292.526	165.06
292.757	179.06
292.987	169.06
293.218	169.06
293.449	174.06
293.68	168.06
293.91	183.06
294.141	158.06
294.372	173.06
294.603	175.06
294.833	169.06
295.064	157.06
295.295	182.06
295.525	169.06
295.756	173.06
295.987	191.06
296.217	199.06
296.448	185.06
296.679	191.06
296.909	172.06
297.14	194.06
297.37	203.06
297.601	175.06
297.831	172.06
298.062	177.06
298.292	185.06
298.523	175.06
298.753	167.06
298.984	185.06
299.214	203.06
299.445	180.06
299.675	195.06
299.905	193.06
300.136	188.06
300.366	182.06
300.597	191.06
300.827	178.06
301.057	191.06
301.288	186.06
301.518	196.06
301.748	199.06
301.979	194.06
302.209	179.06
302.439	181.06
302.669	201.06
302.9	191.06
303.13	192.06
303.36	189.06
303.59	197.06
303.82	196.06
304.051	186.06
304.281	190.06
304.511	183.06
304.741	191.06
304.971	182.06
305.201	189.06
305.431	172.06
305.661	185.06
305.891	184.06
306.121	205.06
306.352	214.06
306.582	188.06
306.812	195.06
307.042	208.06
307.272	178.06
307.502	195.06
307.731	184.06
307.961	191.06
308.191	185.06
308.421	192.06
308.651	196.06
308.881	182.06
309.111	188.06
309.341	202.06
309.571	207.06
309.8	190.06
310.03	200.06
310.26	223.06
310.49	213.06
310.72	224.06
310.949	230.06
311.179	211.06
311.409	214.06
311.639	205.06
311.868	222.06
312.098	220.06
312.328	218.06
312.557	220.06
312.787	234.06
313.017	222.06
313.246	228.06
313.476	218.06
313.706	208.06
313.935	212.06
314.165	219.06
314.394	224.06
314.624	233.06
314.853	229.06
315.083	216.06
315.312	215.06
315.542	206.06
315.771	214.06
316.001	214.06
316.23	209.06
316.46	212.06
316.689	213.06
316.919	218.06
317.148	205.06
317.377	221.06
317.607	202.06
317.836	210.06
318.065	215.06
318.295	203.06
318.524	226.06
318.753	211.06
318.983	219.06
319.212	204.06
319.441	217.06
319.67	219.06
319.9	224.06
320.129	213.06
320.358	221.06
320.587	219.06
320.816	211.06
321.046	216.06
321.275	225.06
321.504	228.06
321.733	218.06
321.962	229.06
322.191	239.06
322.42	247.06
322.649	230.06
322.878	256.06
323.108	265.06
323.337	263.06
323.566	295.06
323.795	292.06
324.024	304.06
324.253	395.06
324.482	522.06
324.71	820.06
324.939	1056.06
325.168	862.06
325.397	436.06
325.626	315.06
325.855	263.06
326.084	263.06
326.313	260.06
326.542	279.06
326.77	303.06
326.999	341.06
327.228	480.06
327.457	721.06
327.686	806.06
327.914	525.06
328.143	363.06
328.372	336.06
328.6	316.06
328.829	299.06
329.058	329.06
329.287	321.06
329.515	297.06
329.744	268.06
329.972	283.06
330.201	310.06
330.43	327.06
330.658	346.06
330.887	363.06
331.115	324.06
331.344	289.06
331.572	267.06
331.801	261.06
332.03	285.06
332.258	245.06
332.486	234.06
332.715	247.06
332.943	259.06
333.172	256.06
333.4	235.06
333.629	251.06
333.857	253.06
334.085	270.06
334.314	287.06
334.542	309.06
334.771	331.06
334.999	294.06
335.227	272.06
335.455	268.06
335.684	238.06
335.912	250.06
336.14	232.06
336.369	252.06
336.597	253.06
336.825	253.06
337.053	253.06
337.281	240.06
337.51	237.06
337.738	238.06
337.966	231.06
338.194	240.06
338.422	240.06
338.65	257.06
338.878	243.06
339.106	229.06
339.334	248.06
339.562	235.06
339.79	217.06
340.018	229.06
340.246	244.06
340.474	231.06
340.702	226.06
340.93	231.06
341.158	217.06
341.386	250.06
341.614	237.06
341.842	214.06
342.07	208.06
342.298	220.06
342.526	241.06
342.754	232.06
342.981	216.06
343.209	232.06
343.437	234.06
343.665	215.06
343.893	244.06
344.12	251.06
344.348	226.06
344.576	229.06
344.804	230.06
345.031	249.06
345.259	269.06
345.487	237.06
345.714	240.06
345.942	234.06
346.17	219.06
346.397	230.06
346.625	233.06
346.853	231.06
347.08	212.06
347.308	228.06
347.535	233.06
347.763	235.06
347.99	234.06
348.218	247.06
348.445	224.06
348.673	238.06
348.9	225.06
349.128	240.06
349.355	225.06
349.583	220.06
349.81	219.06
350.037	204.06
350.265	223.06
350.492	216.06
350.72	228.06
350.947	231.06
351.174	224.06
351.402	243.06
351.629	221.06
351.856	228.06
352.083	234.06
352.311	249.06
352.538	232.06
352.765	230.06
352.992	232.06
353.22	223.06
353.447	233.06
353.674	224.06
353.901	212.06
354.128	208.06
354.355	220.06
354.583	209.06
354.81	211.06
355.037	208.06
355.264	218.06
355.491	206.06
355.718	212.06
355.945	217.06
356.172	200.06
356.399	230.06
356.626	205.06
356.853	182.06
357.08	209.06
357.307	195.06
357.534	230.06
357.761	206.06
357.988	213.06
358.215	220.06
358.441	202.06
358.668	205.06
358.895	209.06
359.122	201.06
359.349	226.06
359.576	218.06
359.802	231.06
360.029	268.06
360.256	265.06
360.483	234.06
360.709	230.06
360.936	240.06
361.163	219.06
361.39	229.06
361.616	235.06
361.843	225.06
362.07	222.06
362.296	230.06
362.523	227.06
362.749	243.06
362.976	218.06
363.203	216.06
363.429	207.06
363.656	199.06
363.882	216.06
364.109	217.06
364.335	216.06
364.562	212.06
364.788	219.06
365.015	226.06
365.241	195.06
365.468	227.06
365.694	219.06
365.92	205.06
366.147	224.06
366.373	219.06
366.599	222.06
366.826	211.06
367.052	208.06
367.278	222.06
367.505	193.06
367.731	203.06
367.957	214.06
368.184	219.06
368.41	223.06
368.636	224.06
368.862	223.06
369.089	213.06
369.315	205.06
369.541	222.06
369.767	229.06
369.993	210.06
370.219	203.06
370.445	201.06
370.672	202.06
370.898	215.06
371.124	221.06
371.35	223.06
371.576	206.06
371.802	212.06
372.028	201.06
372.254	220.06
372.48	201.06
372.706	210.06
372.932	199.06
373.158	201.06
373.384	198.06
373.61	198.06
373.835	220.06
374.061	208.06
374.287	213.06
374.513	216.06
374.739	215.06
374.965	216.06
375.191	214.06
375.416	222.06
375.642	212.06
375.868	205.06
376.094	214.06
376.319	218.06
376.545	211.06
376.771	218.06
376.997	208.06
377.222	209.06
377.448	204.06
377.674	221.06
377.899	232.06
378.125	220.06
378.35	212.06
378.576	206.06
378.802	197.06
379.027	201.06
379.253	218.06
379.478	198.06
379.704	215.06
379.929	211.06
380.155	206.06
380.38	208.06
380.606	217.06
380.831	210.06
381.057	220.06
381.282	227.06
381.507	199.06
381.733	215.06
381.958	213.06
382.184	219.06
382.409	204.06
382.634	236.06
382.86	214.06
383.085	226.06
383.31	220.06
383.535	217.06
383.761	236.06
383.986	218.06
384.211	234.06
384.436	215.06
384.662	206.06
384.887	228.06
385.112	221.06
385.337	226.06
385.562	238.06
385.787	247.06
386.013	244.06
386.238	240.06
386.463	229.06
386.688	229.06
386.913	229.06
387.138	223.06
387.363	212.06
387.588	237.06
387.813	233.06
388.038	228.06
388.263	243.06
388.488	241.06
388.713	231.06
388.938	246.06
389.163	229.06
389.387	228.06
389.612	227.06
389.837	233.06
390.062	228.06
390.287	232.06
390.512	223.06
390.736	209.06
390.961	234.06
391.186	216.06
391.411	222.06
391.636	220.06
391.86	225.06
392.085	224.06
392.31	230.06
392.534	230.06
392.759	224.06
392.984	239.06
393.208	229.06
393.433	240.06
393.658	222.06
393.882	234.06
394.107	224.06
394.331	227.06
394.556	216.06
394.78	230.06
395.005	232.06
395.229	222.06
395.454	225.06
395.678	228.06
395.903	257.06
396.127	259.06
396.352	247.06
396.576	245.06
396.801	243.06
397.025	221.06
397.249	227.06
397.474	225.06
397.698	245.06
397.922	246.06
398.147	257.06
398.371	263.06
398.595	260.06
398.82	261.06
399.044	252.06
399.268	257.06
399.492	277.06
399.717	284.06
399.941	295.06
400.165	279.06
400.389	303.06
400.613	256.06
400.837	276.06
401.062	247.06
401.286	258.06
401.51	239.06
401.734	263.06
401.958	241.06
402.182	267.06
402.406	269.06
402.63	264.06
402.854	260.06
403.078	252.06
403.302	282.06
403.526	266.06
403.75	252.06
403.974	271.06
404.198	282.06
404.422	265.06
404.645	275.06
404.869	281.06
405.093	289.06
405.317	294.06
405.541	309.06
405.765	301.06
405.988	289.06
406.212	288.06
406.436	280.06
406.66	316.06
406.883	313.06
407.107	307.06
407.331	327.06
407.555	327.06
407.778	345.06
408.002	302.06
408.226	283.06
408.449	292.06
408.673	295.06
408.896	282.06
409.12	312.06
409.344	308.06
409.567	295.06
409.791	275.06
410.014	278.06
410.238	270.06
410.461	254.06
410.685	255.06
410.908	297.06
411.132	281.06
411.355	312.06
411.578	285.06
411.802	260.06
412.025	272.06
412.249	282.06
412.472	292.06
412.695	288.06
412.919	283.06
413.142	272.06
413.365	256.06
413.589	276.06
413.812	256.06
414.035	272.06
414.258	249.06
414.482	251.06
414.705	246.06
414.928	238.06
415.151	253.06
415.374	265.06
415.597	259.06
415.821	276.06
416.044	274.06
416.267	261.06
416.49	268.06
416.713	255.06
416.936	248.06
417.159	256.06
417.382	253.06
417.605	262.06
417.828	283.06
418.051	266.06
418.274	281.06
418.497	279.06
418.72	253.06
418.943	247.06
419.166	259.06
419.389	273.06
419.611	269.06
419.834	272.06
420.057	271.06
420.28	264.06
420.503	274.06
420.726	259.06
420.948	291.06
421.171	292.06
421.394	304.06
421.617	286.06
421.839	257.06
422.062	266.06
422.285	275.06
422.507	299.06
422.73	327.06
422.953	324.06
423.175	288.06
423.398	271.06
423.621	283.06
423.843	286.06
424.066	288.06
424.288	265.06
424.511	288.06
424.733	334.06
424.956	356.06
425.178	335.06
425.401	323.06
425.623	332.06
425.846	300.06
426.068	273.06
426.291	277.06
426.513	279.06
426.735	286.06
426.958	306.06
427.18	358.06
427.402	401.06
427.625	441.06
427.847	389.06
428.069	331.06
428.292	282.06
428.514	294.06
428.736	256.06
428.958	277.06
429.181	252.06
429.403	239.06
429.625	280.06
429.847	283.06
430.069	317.06
430.292	291.06
430.514	273.06
430.736	250.06
430.958	236.06
431.18	246.06
431.402	270.06
431.624	244.06
431.846	235.06
432.068	240.06
432.29	256.06
432.512	238.06
432.734	254.06
432.956	271.06
433.178	263.06
433.4	262.06
433.622	265.06
433.844	256.06
434.066	245.06
434.287	246.06
434.509	266.06
434.731	257.06
434.953	257.06
435.175	272.06
435.397	299.06
435.618	282.06
435.84	305.06
436.062	323.06
436.284	357.06
436.505	308.06
436.727	296.06
436.949	263.06
437.17	255.06
437.392	262.06
437.614	264.06
437.835	269.06
438.057	324.06
438.278	368.06
438.5	359.06
438.721	384.06
438.943	383.06
439.165	285.06
439.386	281.06
439.608	283.06
439.829	284.06
440.05	309.06
440.272	334.06
440.493	320.06
440.715	283.06
440.936	262.06
441.158	268.06
441.379	273.06
441.6	265.06
441.822	272.06
442.043	320.06
442.264	330.06
442.486	374.06
442.707	304.06
442.928	278.06
443.149	296.06
443.371	308.06
443.592	325.06
443.813	386.06
444.034	414.06
444.255	319.06
444.476	305.06
444.698	268.06
444.919	281.06
445.14	365.06
445.361	324.06
445.582	314.06
445.803	341.06
446.024	377.06
446.245	373.06
446.466	325.06
446.687	293.06
446.908	280.06
447.129	267.06
447.35	268.06
447.571	270.06
447.792	267.06
448.013	245.06
448.234	272.06
448.455	297.06
448.675	337.06
448.896	385.06
449.117	318.06
449.338	323.06
449.559	373.06
449.779	398.06
450	318.06
450.221	273.06
450.442	260.06
450.662	254.06
450.883	277.06
451.104	287.06
451.324	278.06
451.545	261.06
451.766	253.06
451.986	236.06
452.207	246.06
452.428	255.06
452.648	260.06
452.869	252.06
453.089	254.06
453.31	265.06
453.53	255.06
453.751	237.06
453.971	231.06
454.192	274.06
454.412	245.06
454.633	221.06
454.853	248.06
455.073	231.06
455.294	251.06
455.514	277.06
455.734	283.06
455.955	247.06
456.175	216.06
456.395	223.06
456.616	231.06
456.836	237.06
457.056	218.06
457.276	224.06
457.497	215.06
457.717	228.06
457.937	227.06
458.157	235.06
458.377	221.06
458.598	242.06
458.818	287.06
459.038	331.06
459.258	311.06
459.478	273.06
459.698	267.06
459.918	252.06
460.138	259.06
460.358	264.06
460.578	269.06
460.798	255.06
461.018	282.06
461.238	251.06
461.458	258.06
461.678	246.06
461.898	263.06
462.118	273.06
462.338	255.06
462.558	259.06
462.777	252.06
462.997	261.06
463.217	268.06
463.437	263.06
463.657	275.06
463.876	262.06
464.096	269.06
464.316	252.06
464.536	288.06
464.755	287.06
464.975	270.06
465.195	296.06
465.414	355.06
465.634	311.06
465.854	257.06
466.073	248.06
466.293	236.06
466.512	247.06
466.732	260.06
466.951	245.06
467.171	238.06
467.391	254.06
467.61	250.06
467.829	251.06
468.049	251.06
468.268	247.06
468.488	261.06
468.707	234.06
468.927	224.06
469.146	238.06
469.365	248.06
469.585	235.06
469.804	257.06
470.023	245.06
470.243	262.06
470.462	244.06
470.681	271.06
470.901	257.06
471.12	245.06
471.339	240.06
471.558	253.06
471.777	247.06
471.997	257.06
472.216	269.06
472.435	307.06
472.654	272.06
472.873	259.06
473.092	250.06
473.311	237.06
473.53	257.06
473.749	255.06
473.968	282.06
474.187	327.06
474.406	325.06
474.625	266.06
474.844	244.06
475.063	264.06
475.282	260.06
475.501	247.06
475.72	246.06
475.939	245.06
476.158	249.06
476.377	240.06
476.596	251.06
476.814	245.06
477.033	268.06
477.252	259.06
477.471	248.06
477.69	273.06
477.908	262.06
478.127	262.06
478.346	279.06
478.564	273.06
478.783	262.06
479.002	270.06
479.22	285.06
479.439	285.06
479.658	301.06
479.876	318.06
480.095	293.06
480.313	319.06
480.532	307.06
480.751	299.06
480.969	310.06
481.188	372.06
481.406	409.06
481.624	335.06
481.843	298.06
482.061	286.06
482.28	282.06
482.498	290.06
482.717	283.06
482.935	297.06
483.153	280.06
483.372	278.06
483.59	271.06
483.808	288.06
484.027	282.06
484.245	281.06
484.463	289.06
484.681	311.06
484.9	283.06
485.118	291.06
485.336	287.06
485.554	275.06
485.772	288.06
485.99	303.06
486.209	278.06
486.427	311.06
486.645	305.06
486.863	312.06
487.081	320.06
487.299	299.06
487.517	310.06
487.735	321.06
487.953	316.06
488.171	301.06
488.389	277.06
488.607	315.06
488.825	298.06
489.043	294.06
489.261	297.06
489.479	316.06
489.696	313.06
489.914	317.06
490.132	300.06
490.35	316.06
490.568	320.06
490.786	324.06
491.003	341.06
491.221	333.06
491.439	341.06
491.657	350.06
491.874	344.06
492.092	366.06
492.31	373.06
492.527	373.06
492.745	343.06
492.963	359.06
493.18	352.06
493.398	376.06
493.615	359.06
493.833	376.06
494.05	353.06
494.268	361.06
494.485	373.06
494.703	363.06
494.92	378.06
495.138	360.06
495.355	373.06
495.573	367.06
495.79	341.06
496.008	359.06
496.225	355.06
496.442	358.06
496.66	353.06
496.877	352.06
497.094	360.06
497.312	356.06
497.529	364.06
497.746	362.06
497.963	356.06
498.181	373.06
498.398	375.06
498.615	379.06
498.832	389.06
499.049	379.06
499.267	415.06
499.484	402.06
499.701	412.06
499.918	433.06
500.135	437.06
500.352	468.06
500.569	479.06
500.786	475.06
501.003	457.06
501.22	463.06
501.437	457.06
501.654	459.06
501.871	435.06
502.088	405.06
502.305	396.06
502.522	397.06
502.739	359.06
502.956	348.06
503.172	360.06
503.389	355.06
503.606	361.06
503.823	367.06
504.04	354.06
504.256	337.06
504.473	331.06
504.69	352.06
504.907	368.06
505.123	349.06
505.34	350.06
505.557	352.06
505.773	347.06
505.99	336.06
506.207	337.06
506.423	345.06
506.64	342.06
506.856	338.06
507.073	331.06
507.289	315.06
507.506	318.06
507.722	330.06
507.939	361.06
508.155	331.06
508.372	314.06
508.588	324.06
508.805	314.06
509.021	319.06
509.238	338.06
509.454	323.06
509.67	317.06
509.887	318.06
510.103	327.06
510.319	330.06
510.536	409.06
510.752	795.06
510.968	577.06
511.184	327.06
511.401	316.06
511.617	317.06
511.833	302.06
512.049	310.06
512.265	292.06
512.481	292.06
512.698	299.06
512.914	278.06
513.13	316.06
513.346	304.06
513.562	301.06
513.778	313.06
513.994	304.06
514.21	320.06
514.426	334.06
514.642	360.06
514.858	388.06
515.074	388.06
515.29	504.06
515.506	863.06
515.721	667.06
515.937	401.06
516.153	347.06
516.369	325.06
516.585	336.06
516.801	304.06
517.016	310.06
517.232	323.06
517.448	307.06
517.664	301.06
517.879	309.06
518.095	307.06
518.311	310.06
518.527	304.06
518.742	294.06
518.958	307.06
519.173	309.06
519.389	301.06
519.605	304.06
519.82	300.06
520.036	311.06
520.251	319.06
520.467	361.06
520.682	336.06
520.898	352.06
521.113	353.06
521.329	381.06
521.544	457.06
521.76	634.06
521.975	1173.06
522.19	1166.06
522.406	535.06
522.621	381.06
522.836	334.06
523.052	325.06
523.267	292.06
523.482	291.06
523.698	285.06
523.913	291.06
524.128	280.06
524.343	262.06
524.559	272.06
524.774	269.06
524.989	245.06
525.204	276.06
525.419	283.06
525.634	267.06
525.849	268.06
526.064	261.06
526.28	239.06
526.495	256.06
526.71	255.06
526.925	252.06
527.14	248.06
527.355	270.06
527.57	255.06
527.785	257.06
527.999	261.06
528.214	256.06
528.429	244.06
528.644	261.06
528.859	262.06
529.074	245.06
529.289	268.06
529.503	326.06
529.718	320.06
529.933	279.06
530.148	254.06
530.363	265.06
530.577	264.06
530.792	239.06
531.007	234.06
531.221	246.06
531.436	240.06
531.651	255.06
531.865	259.06
532.08	248.06
532.295	249.06
532.509	248.06
532.724	230.06
532.938	231.06
533.153	257.06
533.367	216.06
533.582	233.06
533.796	223.06
534.011	238.06
534.225	237.06
534.44	247.06
534.654	258.06
534.868	255.06
535.083	248.06
535.297	244.06
535.511	239.06
535.726	244.06
535.94	248.06
536.154	252.06
536.369	247.06
536.583	249.06
536.797	240.06
537.011	232.06
537.225	227.06
537.44	231.06
537.654	214.06
537.868	228.06
538.082	236.06
538.296	229.06
538.51	229.06
538.724	238.06
538.938	225.06
539.153	226.06
539.367	228.06
539.581	252.06
539.795	240.06
540.009	232.06
540.222	235.06
540.436	232.06
540.65	255.06
540.864	256.06
541.078	268.06
541.292	241.06
541.506	231.06
541.72	241.06
541.934	211.06
542.147	249.06
542.361	232.06
542.575	227.06
542.789	221.06
543.002	218.06
543.216	252.06
543.43	247.06
543.644	237.06
543.857	233.06
544.071	249.06
544.285	249.06
544.498	234.06
544.712	235.06
544.925	232.06
545.139	236.06
545.352	232.06
545.566	227.06
545.779	240.06
545.993	215.06
546.206	223.06
546.42	229.06
546.633	216.06
546.847	223.06
547.06	228.06
547.274	230.06
547.487	216.06
547.7	228.06
547.914	221.06
548.127	231.06
548.34	223.06
548.554	226.06
548.767	229.06
548.98	225.06
549.193	227.06
549.407	217.06
549.62	227.06
549.833	228.06
550.046	220.06
550.259	227.06
550.473	227.06
550.686	233.06
550.899	222.06
551.112	214.06
551.325	232.06
551.538	231.06
551.751	213.06
551.964	219.06
552.177	216.06
552.39	216.06
552.603	214.06
552.816	248.06
553.029	225.06
553.242	219.06
553.455	228.06
553.667	237.06
553.88	236.06
554.093	243.06
554.306	240.06
554.519	222.06
554.732	231.06
554.944	215.06
555.157	221.06
555.37	208.06
555.583	223.06
555.795	221.06
556.008	212.06
556.221	207.06
556.433	218.06
556.646	211.06
556.859	216.06
557.071	231.06
557.284	208.06
557.496	203.06
557.709	195.06
557.921	215.06
558.134	219.06
558.346	216.06
558.559	201.06
558.771	215.06
558.984	199.06
559.196	210.06
559.409	211.06
559.621	212.06
559.833	203.06
560.046	201.06
560.258	207.06
560.47	194.06
560.683	201.06
560.895	180.06
561.107	208.06
561.32	218.06
561.532	208.06
561.744	205.06
561.956	196.06
562.168	211.06
562.381	210.06
562.593	204.06
562.805	213.06
563.017	201.06
563.229	220.06
563.441	216.06
563.653	205.06
563.865	195.06
564.077	195.06
564.289	186.06
564.501	192.06
564.713	207.06
564.925	205.06
565.137	233.06
565.349	220.06
565.561	227.06
565.773	218.06
565.985	208.06
566.197	230.06
566.408	217.06
566.62	228.06
566.832	225.06
567.044	249.06
567.255	238.06
567.467	237.06
567.679	225.06
567.891	246.06
568.102	250.06
568.314	233.06
568.526	242.06
568.737	221.06
568.949	220.06
569.161	204.06
569.372	206.06
569.584	209.06
569.795	218.06
570.007	209.06
570.218	241.06
570.43	224.06
570.641	196.06
570.853	192.06
571.064	216.06
571.276	189.06
571.487	197.06
571.698	199.06
571.91	195.06
572.121	191.06
572.333	191.06
572.544	202.06
572.755	193.06
572.966	197.06
573.178	183.06
573.389	193.06
573.6	172.06
573.811	168.06
574.023	197.06
574.234	187.06
574.445	167.06
574.656	171.06
574.867	182.06
575.078	192.06
575.289	168.06
575.501	175.06
575.712	151.06
575.923	171.06
576.134	184.06
576.345	175.06
576.556	183.06
576.767	181.06
576.978	163.06
577.188	176.06
577.399	173.06
577.61	161.06
577.821	177.06
578.032	188.06
578.243	222.06
578.454	401.06
578.665	263.06
578.875	174.06
579.086	151.06
579.297	160.06
579.508	166.06
579.718	172.06
579.929	154.06
580.14	168.06
580.35	157.06
580.561	174.06
580.772	176.06
580.982	180.06
581.193	162.06
581.403	174.06
581.614	157.06
581.825	169.06
582.035	150.06
582.246	155.06
582.456	174.06
582.667	157.06
582.877	177.06
583.087	164.06
583.298	172.06
583.508	156.06
583.719	157.06
583.929	165.06
584.139	171.06
584.35	158.06
584.56	159.06
584.77	163.06
584.981	172.06
585.191	167.06
585.401	171.06
585.611	166.06
585.821	168.06
586.032	157.06
586.242	167.06
586.452	163.06
586.662	168.06
586.872	163.06
587.082	154.06
587.292	155.06
587.502	183.06
587.713	165.06
587.923	168.06
588.133	165.06
588.343	151.06
588.553	151.06
588.762	153.06
588.972	159.06
589.182	168.06
589.392	155.06
589.602	153.06
589.812	184.06
590.022	190.06
590.232	184.06
590.441	167.06
590.651	181.06
590.861	165.06
591.071	147.06
591.281	173.06
591.49	173.06
591.7	182.06
591.91	168.06
592.119	169.06
592.329	167.06
592.539	161.06
592.748	163.06
592.958	168.06
593.167	182.06
593.377	169.06
593.587	179.06
593.796	173.06
594.006	190.06
594.215	164.06
594.424	174.06
594.634	170.06
594.843	157.06
595.053	159.06
595.262	165.06
595.472	148.06
595.681	165.06
595.89	157.06
596.1	158.06
596.309	161.06
596.518	162.06
596.727	146.06
596.937	169.06
597.146	161.06
597.355	140.06
597.564	167.06
597.774	143.06
597.983	155.06
598.192	160.06
598.401	149.06
598.61	159.06
598.819	164.06
599.028	153.06
599.237	155.06
599.446	145.06
599.655	154.06
599.864	143.06
600.073	155.06
600.282	157.06
600.491	145.06
600.7	150.06
600.909	157.06
601.118	145.06
601.327	156.06
601.536	151.06
601.745	168.06
601.953	151.06
602.162	136.06
602.371	161.06
602.58	141.06
602.789	149.06
602.997	141.06
603.206	155.06
603.415	158.06
603.623	144.06
603.832	139.06
604.041	130.06
604.249	151.06
604.458	145.06
604.666	144.06
604.875	139.06
605.084	141.06
605.292	145.06
605.501	146.06
605.709	141.06
605.918	141.06
606.126	140.06
606.334	140.06
606.543	142.06
606.751	151.06
606.96	151.06
607.168	155.06
607.376	145.06
607.585	139.06
607.793	150.06
608.001	158.06
608.21	146.06
608.418	144.06
608.626	142.06
608.834	136.06
609.043	148.06
609.251	143.06
609.459	134.06
609.667	163.06
609.875	135.06
610.083	154.06
610.291	145.06
610.499	162.06
610.707	145.06
610.916	159.06
611.124	147.06
611.332	132.06
611.54	157.06
611.748	159.06
611.955	145.06
612.163	151.06
612.371	152.06
612.579	146.06
612.787	161.06
612.995	146.06
613.203	131.06
613.411	142.06
613.618	143.06
613.826	141.06
614.034	148.06
614.242	165.06
614.449	143.06
614.657	165.06
614.865	142.06
615.072	153.06
615.28	138.06
615.488	145.06
615.695	151.06
615.903	150.06
616.111	137.06
616.318	159.06
616.526	143.06
616.733	158.06
616.941	150.06
617.148	146.06
617.356	142.06
617.563	146.06
617.771	139.06
617.978	149.06
618.185	147.06
618.393	165.06
618.6	159.06
618.807	131.06
619.015	133.06
619.222	141.06
619.429	138.06
619.637	155.06
619.844	136.06
620.051	130.06
620.258	134.06
620.466	129.06
620.673	142.06
620.88	139.06
621.087	129.06
621.294	129.06
621.501	139.06
621.708	145.06
621.915	139.06
622.122	130.06
622.329	121.06
622.536	124.06
622.743	136.06
622.95	142.06
623.157	131.06
623.364	144.06
623.571	139.06
623.778	143.06
623.985	165.06
624.192	149.06
624.399	135.06
624.606	151.06
624.812	136.06
625.019	137.06
625.226	127.06
625.433	129.06
625.639	124.06
625.846	134.06
626.053	125.06
626.259	147.06
626.466	142.06
626.673	124.06
626.879	129.06
627.086	132.06
627.293	129.06
627.499	126.06
627.706	133.06
627.912	123.06
628.119	119.06
628.325	120.06
628.532	138.06
628.738	139.06
628.945	121.06
629.151	136.06
629.357	131.06
629.564	129.06
629.77	130.06
629.976	129.06
630.183	125.06
630.389	120.06
630.595	134.06
630.802	142.06
631.008	122.06
631.214	143.06
631.42	131.06
631.627	129.06
631.833	131.06
632.039	125.06
632.245	135.06
632.451	130.06
632.657	118.06
632.863	127.06
633.069	138.06
633.275	119.06
633.481	132.06
633.688	123.06
633.893	119.06
634.099	129.06
634.305	118.06
634.511	126.06
634.717	127.06
634.923	124.06
635.129	112.06
635.335	122.06
635.541	134.06
635.747	124.06
635.952	117.06
636.158	122.06
636.364	124.06
636.57	128.06
636.775	124.06
636.981	124.06
637.187	126.06
637.392	106.06
637.598	121.06
637.804	115.06
638.009	129.06
638.215	126.06
638.421	125.06
638.626	124.06
638.832	129.06
639.037	122.06
639.243	139.06
639.448	129.06
639.654	124.06
639.859	132.06
640.065	132.06
640.27	113.06
640.475	120.06
640.681	127.06
640.886	124.06
641.091	125.06
641.297	121.06
641.502	125.06
641.707	130.06
641.913	126.06
642.118	108.06
642.323	111.06
642.528	103.06
642.733	120.06
642.939	121.06
643.144	105.06
643.349	121.06
643.554	107.06
643.759	91.06
643.964	123.06
644.169	117.06
644.374	120.06
644.579	115.06
644.784	116.06
644.989	113.06
645.194	121.06
645.399	115.06
645.604	116.06
645.809	123.06
646.014	119.06
646.219	122.06
646.423	108.06
646.628	117.06
646.833	119.06
647.038	100.06
647.243	115.06
647.447	105.06
647.652	126.06
647.857	117.06
648.062	129.06
648.266	118.06
648.471	121.06
648.676	108.06
648.88	106.06
649.085	125.06
649.289	133.06
649.494	131.06
649.698	135.06
649.903	132.06
650.107	120.06
650.312	114.06
650.516	122.06
650.721	120.06
650.925	126.06
651.13	118.06
651.334	119.06
651.539	97.06
651.743	92.06
651.947	108.06
652.152	109.06
652.356	119.06
652.56	115.06
652.764	111.06
652.969	115.06
653.173	117.06
653.377	127.06
653.581	106.06
653.785	98.06
653.99	117.06
654.194	115.06
654.398	95.06
654.602	124.06
654.806	104.06
655.01	108.06
655.214	109.06
655.418	122.06
655.622	112.06
655.826	107.06
656.03	115.06
656.234	97.06
656.438	113.06
656.642	105.06
656.846	111.06
657.049	119.06
657.253	111.06
657.457	98.06
657.661	110.06
657.865	101.06
658.068	99.06
658.272	97.06
658.476	92.06
658.68	91.06
658.883	101.06
659.087	99.06
659.291	90.06
659.494	78.06
659.698	96.06
659.901	87.06
660.105	92.06
660.309	92.06
660.512	89.06
660.716	96.06
660.919	87.06
661.123	87.06
661.326	98.06
661.53	102.06
661.733	92.06
661.936	87.06
662.14	78.06
662.343	93.06
662.546	75.06
662.75	91.06
662.953	88.06
663.156	86.06
663.36	91.06
663.563	87.06
663.766	96.06
663.969	78.06
664.173	91.06
664.376	88.06
664.579	70.06
664.782	80.06
664.985	84.06
665.188	89.06
665.391	74.06
665.594	77.06
665.797	91.06
666	86.06
666.203	70.06
666.406	99.06
666.609	101.06
666.812	83.06
667.015	80.06
667.218	87.06
667.421	99.06
667.624	88.06
667.827	72.06
668.03	90.06
668.232	80.06
668.435	90.06
668.638	84.06
668.841	88.06
669.043	76.06
669.246	93.06
669.449	80.06
669.651	86.06
669.854	78.06
670.057	78.06
670.259	89.06
670.462	86.06
670.665	76.06
670.867	85.06
671.07	84.06
671.272	85.06
671.475	98.06
671.677	80.06
671.88	87.06
672.082	87.06
672.284	71.06
672.487	76.06
672.689	78.06
672.892	73.06
