Data from 1966.PennyLincolnUp.Lamp.En5.5.200Scan.071719.P1.Scan2.head_HRD10591_14-18-38-203.txt Node
Date: Thu Jul 18 14:18:38 EDT 2019
User: cochatt
Spectrometer: HR+D1059
Trigger mode: 1
Integration Time (sec): 1.000000E-1
Scans to average: 1
Electric dark correction enabled: true
Nonlinearity correction enabled: false
Boxcar width: 0
XAxis mode: Wavelengths
Number of Pixels in Spectrum: 2048
>>>>>Begin Spectral Data<<<<<
223.165	-17.62
223.4	-17.62
223.635	-17.62
223.869	-25.62
224.104	-34.62
224.338	-4.62
224.573	-20.62
224.808	-3.62
225.042	-1.62
225.277	1.38
225.511	-4.62
225.746	0.38
225.98	3.38
226.215	10.38
226.449	12.38
226.683	29.38
226.918	39.38
227.152	16.38
227.387	37.38
227.621	46.38
227.856	52.38
228.09	46.38
228.324	59.38
228.559	57.38
228.793	63.38
229.027	96.38
229.262	109.38
229.496	121.38
229.73	132.38
229.964	152.38
230.199	127.38
230.433	119.38
230.667	109.38
230.901	106.38
231.136	113.38
231.37	112.38
231.604	119.38
231.838	116.38
232.072	111.38
232.306	107.38
232.541	109.38
232.775	126.38
233.009	104.38
233.243	131.38
233.477	113.38
233.711	117.38
233.945	125.38
234.179	126.38
234.413	123.38
234.647	117.38
234.881	137.38
235.115	124.38
235.349	128.38
235.583	135.38
235.817	130.38
236.051	134.38
236.285	129.38
236.519	136.38
236.753	133.38
236.987	169.38
237.221	188.38
237.455	242.38
237.689	207.38
237.922	150.38
238.156	131.38
238.39	134.38
238.624	131.38
238.858	129.38
239.091	128.38
239.325	120.38
239.559	128.38
239.793	128.38
240.027	135.38
240.26	141.38
240.494	165.38
240.728	156.38
240.961	168.38
241.195	151.38
241.429	139.38
241.662	145.38
241.896	129.38
242.13	131.38
242.363	130.38
242.597	142.38
242.83	148.38
243.064	131.38
243.298	149.38
243.531	144.38
243.765	141.38
243.998	144.38
244.232	136.38
244.465	151.38
244.699	150.38
244.932	139.38
245.166	150.38
245.399	143.38
245.633	148.38
245.866	162.38
246.099	145.38
246.333	148.38
246.566	155.38
246.8	150.38
247.033	159.38
247.266	159.38
247.5	153.38
247.733	173.38
247.966	166.38
248.2	174.38
248.433	175.38
248.666	163.38
248.899	211.38
249.133	216.38
249.366	213.38
249.599	189.38
249.832	182.38
250.066	188.38
250.299	188.38
250.532	191.38
250.765	199.38
250.998	224.38
251.231	246.38
251.465	222.38
251.698	206.38
251.931	197.38
252.164	197.38
252.397	195.38
252.63	206.38
252.863	209.38
253.096	212.38
253.329	234.38
253.562	233.38
253.795	223.38
254.028	227.38
254.261	215.38
254.494	231.38
254.727	263.38
254.96	295.38
255.193	265.38
255.426	230.38
255.659	243.38
255.892	223.38
256.124	236.38
256.357	233.38
256.59	225.38
256.823	228.38
257.056	219.38
257.289	223.38
257.521	213.38
257.754	226.38
257.987	196.38
258.22	217.38
258.452	230.38
258.685	197.38
258.918	205.38
259.151	208.38
259.383	221.38
259.616	219.38
259.849	240.38
260.081	223.38
260.314	252.38
260.547	260.38
260.779	247.38
261.012	219.38
261.244	222.38
261.477	229.38
261.71	233.38
261.942	232.38
262.175	237.38
262.407	259.38
262.64	213.38
262.872	213.38
263.105	230.38
263.337	214.38
263.57	221.38
263.802	223.38
264.035	197.38
264.267	229.38
264.499	212.38
264.732	221.38
264.964	207.38
265.197	211.38
265.429	209.38
265.661	208.38
265.894	209.38
266.126	215.38
266.358	228.38
266.591	235.38
266.823	227.38
267.055	229.38
267.287	224.38
267.52	233.38
267.752	222.38
267.984	227.38
268.216	229.38
268.448	237.38
268.681	227.38
268.913	255.38
269.145	263.38
269.377	291.38
269.609	272.38
269.841	262.38
270.073	261.38
270.306	289.38
270.538	311.38
270.77	298.38
271.002	306.38
271.234	297.38
271.466	301.38
271.698	315.38
271.93	323.38
272.162	331.38
272.394	320.38
272.626	267.38
272.858	279.38
273.09	264.38
273.322	286.38
273.553	259.38
273.785	260.38
274.017	263.38
274.249	254.38
274.481	245.38
274.713	272.38
274.945	274.38
275.176	272.38
275.408	265.38
275.64	256.38
275.872	265.38
276.104	276.38
276.335	277.38
276.567	294.38
276.799	275.38
277.031	315.38
277.262	318.38
277.494	317.38
277.726	304.38
277.957	292.38
278.189	278.38
278.421	298.38
278.652	267.38
278.884	279.38
279.115	263.38
279.347	261.38
279.579	259.38
279.81	270.38
280.042	260.38
280.273	281.38
280.505	276.38
280.736	279.38
280.968	271.38
281.199	270.38
281.431	280.38
281.662	284.38
281.894	271.38
282.125	295.38
282.356	286.38
282.588	304.38
282.819	301.38
283.051	282.38
283.282	264.38
283.513	278.38
283.745	277.38
283.976	299.38
284.207	306.38
284.439	277.38
284.67	293.38
284.901	295.38
285.132	278.38
285.364	269.38
285.595	288.38
285.826	283.38
286.057	288.38
286.288	283.38
286.52	270.38
286.751	289.38
286.982	269.38
287.213	297.38
287.444	301.38
287.675	293.38
287.906	309.38
288.138	302.38
288.369	293.38
288.6	316.38
288.831	294.38
289.062	319.38
289.293	307.38
289.524	296.38
289.755	296.38
289.986	293.38
290.217	300.38
290.448	307.38
290.679	304.38
290.91	292.38
291.141	304.38
291.371	304.38
291.602	288.38
291.833	298.38
292.064	292.38
292.295	292.38
292.526	292.38
292.757	300.38
292.987	305.38
293.218	289.38
293.449	297.38
293.68	289.38
293.91	301.38
294.141	280.38
294.372	320.38
294.603	292.38
294.833	305.38
295.064	303.38
295.295	291.38
295.525	308.38
295.756	313.38
295.987	314.38
296.217	333.38
296.448	348.38
296.679	321.38
296.909	295.38
297.14	311.38
297.37	289.38
297.601	319.38
297.831	313.38
298.062	296.38
298.292	318.38
298.523	311.38
298.753	303.38
298.984	309.38
299.214	318.38
299.445	315.38
299.675	318.38
299.905	326.38
300.136	320.38
300.366	314.38
300.597	333.38
300.827	323.38
301.057	334.38
301.288	344.38
301.518	323.38
301.748	297.38
301.979	299.38
302.209	348.38
302.439	341.38
302.669	323.38
302.9	330.38
303.13	313.38
303.36	331.38
303.59	333.38
303.82	347.38
304.051	348.38
304.281	340.38
304.511	328.38
304.741	327.38
304.971	326.38
305.201	334.38
305.431	336.38
305.661	322.38
305.891	331.38
306.121	324.38
306.352	334.38
306.582	344.38
306.812	344.38
307.042	326.38
307.272	317.38
307.502	341.38
307.731	347.38
307.961	354.38
308.191	326.38
308.421	343.38
308.651	335.38
308.881	353.38
309.111	362.38
309.341	353.38
309.571	376.38
309.8	367.38
310.03	373.38
310.26	383.38
310.49	382.38
310.72	415.38
310.949	380.38
311.179	410.38
311.409	365.38
311.639	363.38
311.868	390.38
312.098	392.38
312.328	381.38
312.557	389.38
312.787	420.38
313.017	393.38
313.246	401.38
313.476	387.38
313.706	375.38
313.935	405.38
314.165	397.38
314.394	393.38
314.624	390.38
314.853	388.38
315.083	388.38
315.312	390.38
315.542	390.38
315.771	392.38
316.001	391.38
316.23	381.38
316.46	364.38
316.689	359.38
316.919	397.38
317.148	410.38
317.377	387.38
317.607	397.38
317.836	379.38
318.065	411.38
318.295	370.38
318.524	383.38
318.753	382.38
318.983	399.38
319.212	381.38
319.441	399.38
319.67	394.38
319.9	383.38
320.129	368.38
320.358	389.38
320.587	406.38
320.816	398.38
321.046	414.38
321.275	407.38
321.504	396.38
321.733	419.38
321.962	405.38
322.191	420.38
322.42	422.38
322.649	437.38
322.878	450.38
323.108	456.38
323.337	448.38
323.566	513.38
323.795	547.38
324.024	575.38
324.253	670.38
324.482	974.38
324.71	1507.38
324.939	2280.38
325.168	1981.38
325.397	955.38
325.626	664.38
325.855	558.38
326.084	493.38
326.313	503.38
326.542	484.38
326.77	546.38
326.999	638.38
327.228	884.38
327.457	1351.38
327.686	1717.38
327.914	1104.38
328.143	704.38
328.372	613.38
328.6	599.38
328.829	573.38
329.058	577.38
329.287	588.38
329.515	567.38
329.744	518.38
329.972	518.38
330.201	547.38
330.43	583.38
330.658	620.38
330.887	594.38
331.115	596.38
331.344	551.38
331.572	511.38
331.801	519.38
332.03	496.38
332.258	475.38
332.486	459.38
332.715	474.38
332.943	478.38
333.172	475.38
333.4	473.38
333.629	479.38
333.857	511.38
334.085	520.38
334.314	543.38
334.542	567.38
334.771	576.38
334.999	532.38
335.227	487.38
335.455	478.38
335.684	481.38
335.912	470.38
336.14	475.38
336.369	440.38
336.597	470.38
336.825	468.38
337.053	455.38
337.281	463.38
337.51	440.38
337.738	439.38
337.966	460.38
338.194	459.38
338.422	449.38
338.65	461.38
338.878	456.38
339.106	429.38
339.334	435.38
339.562	439.38
339.79	426.38
340.018	456.38
340.246	460.38
340.474	477.38
340.702	460.38
340.93	445.38
341.158	429.38
341.386	437.38
341.614	449.38
341.842	454.38
342.07	461.38
342.298	429.38
342.526	437.38
342.754	449.38
342.981	442.38
343.209	427.38
343.437	455.38
343.665	469.38
343.893	449.38
344.12	447.38
344.348	477.38
344.576	475.38
344.804	477.38
345.031	456.38
345.259	489.38
345.487	464.38
345.714	448.38
345.942	431.38
346.17	449.38
346.397	444.38
346.625	417.38
346.853	427.38
347.08	425.38
347.308	448.38
347.535	450.38
347.763	429.38
347.99	447.38
348.218	457.38
348.445	442.38
348.673	448.38
348.9	443.38
349.128	442.38
349.355	433.38
349.583	405.38
349.81	445.38
350.037	424.38
350.265	408.38
350.492	416.38
350.72	421.38
350.947	402.38
351.174	423.38
351.402	439.38
351.629	429.38
351.856	426.38
352.083	437.38
352.311	455.38
352.538	467.38
352.765	456.38
352.992	440.38
353.22	444.38
353.447	441.38
353.674	448.38
353.901	428.38
354.128	422.38
354.355	400.38
354.583	419.38
354.81	430.38
355.037	412.38
355.264	403.38
355.491	411.38
355.718	415.38
355.945	410.38
356.172	409.38
356.399	403.38
356.626	409.38
356.853	422.38
357.08	393.38
357.307	407.38
357.534	420.38
357.761	405.38
357.988	432.38
358.215	418.38
358.441	415.38
358.668	412.38
358.895	400.38
359.122	414.38
359.349	432.38
359.576	439.38
359.802	480.38
360.029	478.38
360.256	512.38
360.483	489.38
360.709	449.38
360.936	437.38
361.163	437.38
361.39	448.38
361.616	435.38
361.843	450.38
362.07	444.38
362.296	447.38
362.523	422.38
362.749	447.38
362.976	431.38
363.203	437.38
363.429	431.38
363.656	399.38
363.882	440.38
364.109	423.38
364.335	409.38
364.562	424.38
364.788	413.38
365.015	424.38
365.241	426.38
365.468	420.38
365.694	444.38
365.92	446.38
366.147	419.38
366.373	413.38
366.599	442.38
366.826	412.38
367.052	411.38
367.278	436.38
367.505	435.38
367.731	450.38
367.957	416.38
368.184	428.38
368.41	440.38
368.636	422.38
368.862	439.38
369.089	437.38
369.315	421.38
369.541	419.38
369.767	416.38
369.993	430.38
370.219	421.38
370.445	449.38
370.672	423.38
370.898	441.38
371.124	436.38
371.35	406.38
371.576	435.38
371.802	420.38
372.028	420.38
372.254	435.38
372.48	425.38
372.706	429.38
372.932	437.38
373.158	432.38
373.384	440.38
373.61	436.38
373.835	428.38
374.061	429.38
374.287	443.38
374.513	453.38
374.739	446.38
374.965	433.38
375.191	434.38
375.416	443.38
375.642	433.38
375.868	460.38
376.094	450.38
376.319	428.38
376.545	426.38
376.771	438.38
376.997	431.38
377.222	435.38
377.448	445.38
377.674	456.38
377.899	422.38
378.125	447.38
378.35	432.38
378.576	417.38
378.802	426.38
379.027	421.38
379.253	411.38
379.478	414.38
379.704	414.38
379.929	420.38
380.155	449.38
380.38	447.38
380.606	459.38
380.831	440.38
381.057	442.38
381.282	436.38
381.507	425.38
381.733	437.38
381.958	425.38
382.184	417.38
382.409	440.38
382.634	451.38
382.86	444.38
383.085	448.38
383.31	454.38
383.535	453.38
383.761	439.38
383.986	464.38
384.211	435.38
384.436	460.38
384.662	455.38
384.887	475.38
385.112	468.38
385.337	476.38
385.562	469.38
385.787	475.38
386.013	480.38
386.238	484.38
386.463	489.38
386.688	488.38
386.913	488.38
387.138	478.38
387.363	478.38
387.588	473.38
387.813	501.38
388.038	478.38
388.263	462.38
388.488	466.38
388.713	464.38
388.938	481.38
389.163	483.38
389.387	482.38
389.612	471.38
389.837	472.38
390.062	474.38
390.287	468.38
390.512	464.38
390.736	477.38
390.961	468.38
391.186	456.38
391.411	487.38
391.636	486.38
391.86	487.38
392.085	504.38
392.31	488.38
392.534	491.38
392.759	488.38
392.984	495.38
393.208	478.38
393.433	483.38
393.658	511.38
393.882	493.38
394.107	492.38
394.331	523.38
394.556	491.38
394.78	488.38
395.005	504.38
395.229	495.38
395.454	506.38
395.678	492.38
395.903	499.38
396.127	553.38
396.352	535.38
396.576	526.38
396.801	505.38
397.025	511.38
397.249	515.38
397.474	525.38
397.698	538.38
397.922	515.38
398.147	557.38
398.371	553.38
398.595	536.38
398.82	553.38
399.044	550.38
399.268	593.38
399.492	604.38
399.717	647.38
399.941	677.38
400.165	706.38
400.389	678.38
400.613	646.38
400.837	601.38
401.062	586.38
401.286	580.38
401.51	555.38
401.734	543.38
401.958	563.38
402.182	544.38
402.406	563.38
402.63	577.38
402.854	567.38
403.078	559.38
403.302	580.38
403.526	579.38
403.75	573.38
403.974	572.38
404.198	579.38
404.422	578.38
404.645	602.38
404.869	590.38
405.093	628.38
405.317	669.38
405.541	719.38
405.765	644.38
405.988	610.38
406.212	627.38
406.436	624.38
406.66	659.38
406.883	647.38
407.107	647.38
407.331	694.38
407.555	781.38
407.778	766.38
408.002	693.38
408.226	654.38
408.449	622.38
408.673	634.38
408.896	683.38
409.12	706.38
409.344	675.38
409.567	627.38
409.791	604.38
410.014	601.38
410.238	607.38
410.461	593.38
410.685	603.38
410.908	624.38
411.132	654.38
411.355	698.38
411.578	654.38
411.802	606.38
412.025	592.38
412.249	615.38
412.472	609.38
412.695	662.38
412.919	642.38
413.142	599.38
413.365	573.38
413.589	601.38
413.812	580.38
414.035	570.38
414.258	543.38
414.482	539.38
414.705	558.38
414.928	541.38
415.151	538.38
415.374	552.38
415.597	540.38
415.821	548.38
416.044	568.38
416.267	566.38
416.49	548.38
416.713	536.38
416.936	548.38
417.159	549.38
417.382	559.38
417.605	547.38
417.828	557.38
418.051	582.38
418.274	581.38
418.497	539.38
418.72	540.38
418.943	564.38
419.166	593.38
419.389	606.38
419.611	600.38
419.834	599.38
420.057	596.38
420.28	532.38
420.503	572.38
420.726	567.38
420.948	586.38
421.171	649.38
421.394	666.38
421.617	608.38
421.839	567.38
422.062	565.38
422.285	592.38
422.507	656.38
422.73	720.38
422.953	681.38
423.175	635.38
423.398	589.38
423.621	589.38
423.843	616.38
424.066	631.38
424.288	639.38
424.511	628.38
424.733	681.38
424.956	795.38
425.178	798.38
425.401	743.38
425.623	776.38
425.846	676.38
426.068	605.38
426.291	599.38
426.513	607.38
426.735	635.38
426.958	660.38
427.18	755.38
427.402	902.38
427.625	995.38
427.847	856.38
428.069	757.38
428.292	687.38
428.514	601.38
428.736	594.38
428.958	572.38
429.181	551.38
429.403	574.38
429.625	606.38
429.847	643.38
430.069	665.38
430.292	667.38
430.514	584.38
430.736	575.38
430.958	563.38
431.18	550.38
431.402	567.38
431.624	528.38
431.846	533.38
432.068	548.38
432.29	548.38
432.512	565.38
432.734	548.38
432.956	556.38
433.178	563.38
433.4	556.38
433.622	529.38
433.844	549.38
434.066	527.38
434.287	532.38
434.509	554.38
434.731	556.38
434.953	585.38
435.175	562.38
435.397	613.38
435.618	619.38
435.84	659.38
436.062	793.38
436.284	839.38
436.505	706.38
436.727	637.38
436.949	605.38
437.17	586.38
437.392	586.38
437.614	576.38
437.835	626.38
438.057	722.38
438.278	836.38
438.5	831.38
438.721	955.38
438.943	887.38
439.165	703.38
439.386	637.38
439.608	637.38
439.829	610.38
440.05	665.38
440.272	708.38
440.493	672.38
440.715	611.38
440.936	597.38
441.158	619.38
441.379	558.38
441.6	596.38
441.822	597.38
442.043	668.38
442.264	796.38
442.486	802.38
442.707	683.38
442.928	655.38
443.149	644.38
443.371	664.38
443.592	725.38
443.813	839.38
444.034	869.38
444.255	749.38
444.476	653.38
444.698	636.38
444.919	620.38
445.14	763.38
445.361	689.38
445.582	645.38
445.803	723.38
446.024	868.38
446.245	831.38
446.466	774.38
446.687	657.38
446.908	613.38
447.129	608.38
447.35	551.38
447.571	566.38
447.792	570.38
448.013	573.38
448.234	581.38
448.455	642.38
448.675	775.38
448.896	894.38
449.117	765.38
449.338	695.38
449.559	830.38
449.779	959.38
450	767.38
450.221	645.38
450.442	592.38
450.662	576.38
450.883	571.38
451.104	558.38
451.324	555.38
451.545	549.38
451.766	520.38
451.986	504.38
452.207	511.38
452.428	507.38
452.648	501.38
452.869	520.38
453.089	552.38
453.31	526.38
453.53	527.38
453.751	509.38
453.971	489.38
454.192	557.38
454.412	541.38
454.633	526.38
454.853	504.38
455.073	502.38
455.294	525.38
455.514	612.38
455.734	601.38
455.955	534.38
456.175	512.38
456.395	491.38
456.616	487.38
456.836	477.38
457.056	469.38
457.276	485.38
457.497	496.38
457.717	481.38
457.937	503.38
458.157	493.38
458.377	517.38
458.598	524.38
458.818	577.38
459.038	681.38
459.258	697.38
459.478	591.38
459.698	558.38
459.918	549.38
460.138	531.38
460.358	553.38
460.578	587.38
460.798	568.38
461.018	547.38
461.238	557.38
461.458	559.38
461.678	574.38
461.898	571.38
462.118	544.38
462.338	584.38
462.558	569.38
462.777	618.38
462.997	620.38
463.217	602.38
463.437	624.38
463.657	594.38
463.876	594.38
464.096	591.38
464.316	588.38
464.536	619.38
464.755	607.38
464.975	596.38
465.195	635.38
465.414	691.38
465.634	634.38
465.854	587.38
466.073	560.38
466.293	541.38
466.512	550.38
466.732	537.38
466.951	543.38
467.171	535.38
467.391	542.38
467.61	516.38
467.829	545.38
468.049	544.38
468.268	548.38
468.488	515.38
468.707	519.38
468.927	493.38
469.146	501.38
469.365	527.38
469.585	514.38
469.804	524.38
470.023	544.38
470.243	532.38
470.462	530.38
470.681	538.38
470.901	545.38
471.12	557.38
471.339	533.38
471.558	550.38
471.777	554.38
471.997	548.38
472.216	549.38
472.435	567.38
472.654	543.38
472.873	539.38
473.092	532.38
473.311	525.38
473.53	545.38
473.749	554.38
473.968	588.38
474.187	692.38
474.406	730.38
474.625	607.38
474.844	556.38
475.063	535.38
475.282	545.38
475.501	538.38
475.72	556.38
475.939	542.38
476.158	554.38
476.377	556.38
476.596	540.38
476.814	564.38
477.033	567.38
477.252	553.38
477.471	555.38
477.69	561.38
477.908	571.38
478.127	585.38
478.346	591.38
478.564	595.38
478.783	608.38
479.002	596.38
479.22	608.38
479.439	636.38
479.658	626.38
479.876	668.38
480.095	661.38
480.313	698.38
480.532	662.38
480.751	677.38
480.969	687.38
481.188	721.38
481.406	775.38
481.624	690.38
481.843	655.38
482.061	677.38
482.28	628.38
482.498	643.38
482.717	660.38
482.935	622.38
483.153	623.38
483.372	620.38
483.59	617.38
483.808	623.38
484.027	630.38
484.245	645.38
484.463	635.38
484.681	639.38
484.9	648.38
485.118	648.38
485.336	630.38
485.554	654.38
485.772	662.38
485.99	660.38
486.209	638.38
486.427	646.38
486.645	684.38
486.863	688.38
487.081	692.38
487.299	669.38
487.517	656.38
487.735	656.38
487.953	668.38
488.171	673.38
488.389	700.38
488.607	689.38
488.825	650.38
489.043	695.38
489.261	676.38
489.479	691.38
489.696	668.38
489.914	686.38
490.132	680.38
490.35	679.38
490.568	705.38
490.786	708.38
491.003	743.38
491.221	758.38
491.439	793.38
491.657	755.38
491.874	769.38
492.092	772.38
492.31	790.38
492.527	775.38
492.745	780.38
492.963	765.38
493.18	793.38
493.398	807.38
493.615	813.38
493.833	799.38
494.05	811.38
494.268	803.38
494.485	808.38
494.703	780.38
494.92	804.38
495.138	803.38
495.355	806.38
495.573	808.38
495.79	801.38
496.008	784.38
496.225	827.38
496.442	811.38
496.66	810.38
496.877	817.38
497.094	846.38
497.312	823.38
497.529	811.38
497.746	831.38
497.963	859.38
498.181	882.38
498.398	867.38
498.615	909.38
498.832	900.38
499.049	919.38
499.267	955.38
499.484	1005.38
499.701	1027.38
499.918	1055.38
500.135	1106.38
500.352	1145.38
500.569	1150.38
500.786	1184.38
501.003	1160.38
501.22	1150.38
501.437	1059.38
501.654	1036.38
501.871	1038.38
502.088	977.38
502.305	939.38
502.522	944.38
502.739	912.38
502.956	877.38
503.172	875.38
503.389	838.38
503.606	826.38
503.823	854.38
504.04	839.38
504.256	822.38
504.473	838.38
504.69	798.38
504.907	799.38
505.123	817.38
505.34	808.38
505.557	778.38
505.773	809.38
505.99	799.38
506.207	795.38
506.423	751.38
506.64	768.38
506.856	748.38
507.073	758.38
507.289	727.38
507.506	734.38
507.722	748.38
507.939	788.38
508.155	771.38
508.372	744.38
508.588	719.38
508.805	731.38
509.021	702.38
509.238	738.38
509.454	753.38
509.67	739.38
509.887	728.38
510.103	721.38
510.319	736.38
510.536	837.38
510.752	1309.38
510.968	1047.38
511.184	749.38
511.401	736.38
511.617	697.38
511.833	693.38
512.049	670.38
512.265	693.38
512.481	687.38
512.698	683.38
512.914	658.38
513.13	686.38
513.346	670.38
513.562	668.38
513.778	689.38
513.994	682.38
514.21	677.38
514.426	709.38
514.642	760.38
514.858	783.38
515.074	823.38
515.29	949.38
515.506	1347.38
515.721	1129.38
515.937	806.38
516.153	757.38
516.369	752.38
516.585	721.38
516.801	730.38
517.016	703.38
517.232	720.38
517.448	715.38
517.664	707.38
517.879	712.38
518.095	728.38
518.311	705.38
518.527	721.38
518.742	701.38
518.958	696.38
519.173	695.38
519.389	671.38
519.605	691.38
519.82	687.38
520.036	709.38
520.251	701.38
520.467	755.38
520.682	757.38
520.898	769.38
521.113	784.38
521.329	809.38
521.544	865.38
521.76	1069.38
521.975	1731.38
522.19	1675.38
522.406	975.38
522.621	757.38
522.836	694.38
523.052	664.38
523.267	661.38
523.482	646.38
523.698	640.38
523.913	645.38
524.128	624.38
524.343	643.38
524.559	604.38
524.774	596.38
524.989	619.38
525.204	603.38
525.419	601.38
525.634	591.38
525.849	608.38
526.064	591.38
526.28	567.38
526.495	586.38
526.71	559.38
526.925	579.38
527.14	567.38
527.355	567.38
527.57	584.38
527.785	582.38
527.999	573.38
528.214	555.38
528.429	564.38
528.644	572.38
528.859	556.38
529.074	575.38
529.289	614.38
529.503	652.38
529.718	650.38
529.933	582.38
530.148	553.38
530.363	581.38
530.577	568.38
530.792	568.38
531.007	579.38
531.221	556.38
531.436	544.38
531.651	537.38
531.865	547.38
532.08	547.38
532.295	540.38
532.509	528.38
532.724	540.38
532.938	536.38
533.153	558.38
533.367	548.38
533.582	528.38
533.796	542.38
534.011	545.38
534.225	521.38
534.44	517.38
534.654	527.38
534.868	553.38
535.083	511.38
535.297	519.38
535.511	530.38
535.726	548.38
535.94	556.38
536.154	537.38
536.369	540.38
536.583	523.38
536.797	513.38
537.011	520.38
537.225	524.38
537.44	506.38
537.654	501.38
537.868	533.38
538.082	516.38
538.296	500.38
538.51	527.38
538.724	521.38
538.938	505.38
539.153	527.38
539.367	519.38
539.581	520.38
539.795	496.38
540.009	511.38
540.222	537.38
540.436	523.38
540.65	537.38
540.864	511.38
541.078	506.38
541.292	533.38
541.506	542.38
541.72	517.38
541.934	502.38
542.147	511.38
542.361	527.38
542.575	505.38
542.789	495.38
543.002	509.38
543.216	509.38
543.43	515.38
543.644	521.38
543.857	502.38
544.071	501.38
544.285	517.38
544.498	503.38
544.712	524.38
544.925	505.38
545.139	502.38
545.352	491.38
545.566	506.38
545.779	501.38
545.993	501.38
546.206	503.38
546.42	502.38
546.633	519.38
546.847	509.38
547.06	493.38
547.274	513.38
547.487	510.38
547.7	502.38
547.914	511.38
548.127	486.38
548.34	493.38
548.554	485.38
548.767	490.38
548.98	517.38
549.193	505.38
549.407	496.38
549.62	499.38
549.833	495.38
550.046	505.38
550.259	494.38
550.473	496.38
550.686	485.38
550.899	497.38
551.112	492.38
551.325	476.38
551.538	494.38
551.751	468.38
551.964	480.38
552.177	509.38
552.39	481.38
552.603	479.38
552.816	479.38
553.029	508.38
553.242	495.38
553.455	505.38
553.667	505.38
553.88	502.38
554.093	510.38
554.306	483.38
554.519	478.38
554.732	518.38
554.944	492.38
555.157	455.38
555.37	463.38
555.583	465.38
555.795	481.38
556.008	465.38
556.221	455.38
556.433	444.38
556.646	449.38
556.859	453.38
557.071	451.38
557.284	456.38
557.496	437.38
557.709	437.38
557.921	409.38
558.134	423.38
558.346	445.38
558.559	450.38
558.771	446.38
558.984	443.38
559.196	430.38
559.409	453.38
559.621	445.38
559.833	453.38
560.046	423.38
560.258	419.38
560.47	413.38
560.683	445.38
560.895	422.38
561.107	437.38
561.32	421.38
561.532	426.38
561.744	424.38
561.956	427.38
562.168	432.38
562.381	427.38
562.593	435.38
562.805	437.38
563.017	445.38
563.229	453.38
563.441	448.38
563.653	441.38
563.865	443.38
564.077	438.38
564.289	440.38
564.501	471.38
564.713	487.38
564.925	448.38
565.137	474.38
565.349	472.38
565.561	480.38
565.773	493.38
565.985	494.38
566.197	476.38
566.408	522.38
566.62	529.38
566.832	533.38
567.044	561.38
567.255	547.38
567.467	552.38
567.679	562.38
567.891	577.38
568.102	561.38
568.314	537.38
568.526	539.38
568.737	519.38
568.949	498.38
569.161	483.38
569.372	484.38
569.584	474.38
569.795	463.38
570.007	458.38
570.218	526.38
570.43	496.38
570.641	443.38
570.853	432.38
571.064	448.38
571.276	451.38
571.487	421.38
571.698	432.38
571.91	416.38
572.121	422.38
572.333	403.38
572.544	415.38
572.755	382.38
572.966	399.38
573.178	398.38
573.389	401.38
573.6	390.38
573.811	373.38
574.023	399.38
574.234	389.38
574.445	381.38
574.656	374.38
574.867	387.38
575.078	373.38
575.289	393.38
575.501	358.38
575.712	377.38
575.923	379.38
576.134	358.38
576.345	375.38
576.556	383.38
576.767	372.38
576.978	387.38
577.188	358.38
577.399	363.38
577.61	375.38
577.821	371.38
578.032	371.38
578.243	390.38
578.454	619.38
578.665	456.38
578.875	372.38
579.086	371.38
579.297	358.38
579.508	367.38
579.718	366.38
579.929	361.38
580.14	339.38
580.35	341.38
580.561	349.38
580.772	363.38
580.982	347.38
581.193	342.38
581.403	332.38
581.614	337.38
581.825	349.38
582.035	330.38
582.246	327.38
582.456	328.38
582.667	341.38
582.877	341.38
583.087	350.38
583.298	342.38
583.508	328.38
583.719	331.38
583.929	348.38
584.139	348.38
584.35	344.38
584.56	334.38
584.77	326.38
584.981	327.38
585.191	349.38
585.401	352.38
585.611	344.38
585.821	338.38
586.032	345.38
586.242	326.38
586.452	324.38
586.662	336.38
586.872	332.38
587.082	323.38
587.292	340.38
587.502	343.38
587.713	319.38
587.923	351.38
588.133	352.38
588.343	338.38
588.553	317.38
588.762	329.38
588.972	340.38
589.182	339.38
589.392	343.38
589.602	333.38
589.812	328.38
590.022	339.38
590.232	332.38
590.441	351.38
590.651	337.38
590.861	335.38
591.071	332.38
591.281	332.38
591.49	322.38
591.7	328.38
591.91	348.38
592.119	337.38
592.329	336.38
592.539	349.38
592.748	330.38
592.958	343.38
593.167	332.38
593.377	365.38
593.587	360.38
593.796	335.38
594.006	360.38
594.215	354.38
594.424	344.38
594.634	350.38
594.843	326.38
595.053	343.38
595.262	349.38
595.472	318.38
595.681	331.38
595.89	352.38
596.1	338.38
596.309	323.38
596.518	322.38
596.727	325.38
596.937	323.38
597.146	326.38
597.355	316.38
597.564	298.38
597.774	302.38
597.983	307.38
598.192	277.38
598.401	286.38
598.61	299.38
598.819	307.38
599.028	300.38
599.237	290.38
599.446	304.38
599.655	281.38
599.864	289.38
600.073	273.38
600.282	295.38
600.491	286.38
600.7	300.38
600.909	292.38
601.118	285.38
601.327	285.38
601.536	304.38
601.745	280.38
601.953	287.38
602.162	296.38
602.371	299.38
602.58	296.38
602.789	289.38
602.997	278.38
603.206	280.38
603.415	301.38
603.623	293.38
603.832	283.38
604.041	277.38
604.249	268.38
604.458	284.38
604.666	290.38
604.875	278.38
605.084	292.38
605.292	271.38
605.501	278.38
605.709	264.38
605.918	264.38
606.126	268.38
606.334	277.38
606.543	283.38
606.751	275.38
606.96	266.38
607.168	280.38
607.376	271.38
607.585	266.38
607.793	267.38
608.001	280.38
608.21	270.38
608.418	268.38
608.626	265.38
608.834	281.38
609.043	277.38
609.251	285.38
609.459	272.38
609.667	269.38
609.875	246.38
610.083	259.38
610.291	266.38
610.499	261.38
610.707	271.38
610.916	265.38
611.124	273.38
611.332	259.38
611.54	277.38
611.748	276.38
611.955	268.38
612.163	253.38
612.371	264.38
612.579	259.38
612.787	267.38
612.995	277.38
613.203	278.38
613.411	272.38
613.618	275.38
613.826	251.38
614.034	256.38
614.242	261.38
614.449	250.38
614.657	263.38
614.865	245.38
615.072	276.38
615.28	274.38
615.488	268.38
615.695	248.38
615.903	250.38
616.111	267.38
616.318	262.38
616.526	262.38
616.733	278.38
616.941	249.38
617.148	261.38
617.356	271.38
617.563	266.38
617.771	259.38
617.978	249.38
618.185	265.38
618.393	270.38
618.6	245.38
618.807	258.38
619.015	253.38
619.222	252.38
619.429	260.38
619.637	262.38
619.844	248.38
620.051	250.38
620.258	249.38
620.466	249.38
620.673	244.38
620.88	238.38
621.087	259.38
621.294	239.38
621.501	228.38
621.708	246.38
621.915	248.38
622.122	245.38
622.329	251.38
622.536	245.38
622.743	241.38
622.95	237.38
623.157	265.38
623.364	235.38
623.571	219.38
623.778	246.38
623.985	219.38
624.192	230.38
624.399	223.38
624.606	243.38
624.812	240.38
625.019	223.38
625.226	224.38
625.433	238.38
625.639	245.38
625.846	235.38
626.053	235.38
626.259	245.38
626.466	237.38
626.673	221.38
626.879	229.38
627.086	218.38
627.293	237.38
627.499	233.38
627.706	233.38
627.912	210.38
628.119	212.38
628.325	212.38
628.532	228.38
628.738	201.38
628.945	212.38
629.151	219.38
629.357	226.38
629.564	208.38
629.77	227.38
629.976	231.38
630.183	216.38
630.389	214.38
630.595	217.38
630.802	200.38
631.008	208.38
631.214	223.38
631.42	212.38
631.627	217.38
631.833	209.38
632.039	203.38
632.245	221.38
632.451	227.38
632.657	216.38
632.863	218.38
633.069	223.38
633.275	205.38
633.481	210.38
633.688	204.38
633.893	200.38
634.099	210.38
634.305	204.38
634.511	200.38
634.717	208.38
634.923	196.38
635.129	183.38
635.335	190.38
635.541	202.38
635.747	202.38
635.952	202.38
636.158	191.38
636.364	207.38
636.57	209.38
636.775	228.38
636.981	210.38
637.187	194.38
637.392	203.38
637.598	197.38
637.804	206.38
638.009	211.38
638.215	204.38
638.421	198.38
638.626	185.38
638.832	203.38
639.037	196.38
639.243	196.38
639.448	201.38
639.654	201.38
639.859	191.38
640.065	181.38
640.27	199.38
640.475	200.38
640.681	198.38
640.886	199.38
641.091	192.38
641.297	199.38
641.502	168.38
641.707	179.38
641.913	179.38
642.118	193.38
642.323	179.38
642.528	191.38
642.733	182.38
642.939	176.38
643.144	181.38
643.349	173.38
643.554	183.38
643.759	171.38
643.964	182.38
644.169	183.38
644.374	174.38
644.579	192.38
644.784	171.38
644.989	184.38
645.194	172.38
645.399	173.38
645.604	190.38
645.809	203.38
646.014	188.38
646.219	183.38
646.423	187.38
646.628	187.38
646.833	185.38
647.038	176.38
647.243	159.38
647.447	182.38
647.652	169.38
647.857	185.38
648.062	192.38
648.266	194.38
648.471	182.38
648.676	197.38
648.88	188.38
649.085	174.38
649.289	167.38
649.494	192.38
649.698	203.38
649.903	217.38
650.107	193.38
650.312	169.38
650.516	174.38
650.721	154.38
650.925	158.38
651.13	170.38
651.334	159.38
651.539	155.38
651.743	163.38
651.947	151.38
652.152	151.38
652.356	154.38
652.56	152.38
652.764	156.38
652.969	149.38
653.173	152.38
653.377	140.38
653.581	149.38
653.785	163.38
653.99	144.38
654.194	142.38
654.398	163.38
654.602	148.38
654.806	148.38
655.01	165.38
655.214	150.38
655.418	140.38
655.622	146.38
655.826	133.38
656.03	160.38
656.234	153.38
656.438	145.38
656.642	148.38
656.846	151.38
657.049	119.38
657.253	153.38
657.457	141.38
657.661	130.38
657.865	128.38
658.068	106.38
658.272	116.38
658.476	121.38
658.68	112.38
658.883	116.38
659.087	115.38
659.291	108.38
659.494	103.38
659.698	107.38
659.901	108.38
660.105	100.38
660.309	91.38
660.512	107.38
660.716	100.38
660.919	91.38
661.123	104.38
661.326	92.38
661.53	93.38
661.733	95.38
661.936	90.38
662.14	87.38
662.343	95.38
662.546	103.38
662.75	81.38
662.953	82.38
663.156	87.38
663.36	82.38
663.563	100.38
663.766	87.38
663.969	93.38
664.173	98.38
664.376	89.38
664.579	87.38
664.782	82.38
664.985	91.38
665.188	84.38
665.391	87.38
665.594	76.38
665.797	81.38
666	73.38
666.203	82.38
666.406	91.38
666.609	86.38
666.812	98.38
667.015	76.38
667.218	81.38
667.421	79.38
667.624	80.38
667.827	87.38
668.03	73.38
668.232	90.38
668.435	94.38
668.638	90.38
668.841	75.38
669.043	89.38
669.246	87.38
669.449	73.38
669.651	87.38
669.854	81.38
670.057	83.38
670.259	76.38
670.462	86.38
670.665	87.38
670.867	82.38
671.07	89.38
671.272	98.38
671.475	79.38
671.677	67.38
671.88	68.38
672.082	74.38
672.284	76.38
672.487	94.38
672.689	83.38
672.892	72.38
