Data from 1966.PennyLincolnUp.Lamp.En5.5.200Scan.071719.P1.Scan2.head_HRD10591_14-18-05-160.txt Node
Date: Thu Jul 18 14:18:05 EDT 2019
User: cochatt
Spectrometer: HR+D1059
Trigger mode: 1
Integration Time (sec): 1.000000E-1
Scans to average: 1
Electric dark correction enabled: true
Nonlinearity correction enabled: false
Boxcar width: 0
XAxis mode: Wavelengths
Number of Pixels in Spectrum: 2048
>>>>>Begin Spectral Data<<<<<
223.165	-18.25
223.4	-18.25
223.635	-18.25
223.869	2.75
224.104	-15.25
224.338	-12.25
224.573	-21.25
224.808	-5.25
225.042	3.75
225.277	-13.25
225.511	4.75
225.746	-7.25
225.98	2.75
226.215	11.75
226.449	-1.25
226.683	31.75
226.918	14.75
227.152	21.75
227.387	23.75
227.621	44.75
227.856	41.75
228.09	45.75
228.324	44.75
228.559	61.75
228.793	62.75
229.027	103.75
229.262	114.75
229.496	115.75
229.73	126.75
229.964	156.75
230.199	131.75
230.433	116.75
230.667	110.75
230.901	101.75
231.136	122.75
231.37	104.75
231.604	119.75
231.838	119.75
232.072	116.75
232.306	108.75
232.541	124.75
232.775	114.75
233.009	108.75
233.243	127.75
233.477	120.75
233.711	106.75
233.945	119.75
234.179	132.75
234.413	123.75
234.647	118.75
234.881	117.75
235.115	109.75
235.349	125.75
235.583	121.75
235.817	125.75
236.051	134.75
236.285	128.75
236.519	112.75
236.753	119.75
236.987	157.75
237.221	192.75
237.455	228.75
237.689	200.75
237.922	148.75
238.156	150.75
238.39	145.75
238.624	129.75
238.858	121.75
239.091	134.75
239.325	122.75
239.559	120.75
239.793	124.75
240.027	138.75
240.26	128.75
240.494	154.75
240.728	159.75
240.961	155.75
241.195	162.75
241.429	141.75
241.662	142.75
241.896	134.75
242.13	145.75
242.363	127.75
242.597	144.75
242.83	144.75
243.064	137.75
243.298	154.75
243.531	135.75
243.765	136.75
243.998	145.75
244.232	148.75
244.465	140.75
244.699	146.75
244.932	164.75
245.166	150.75
245.399	148.75
245.633	149.75
245.866	148.75
246.099	143.75
246.333	163.75
246.566	142.75
246.8	152.75
247.033	166.75
247.266	184.75
247.5	170.75
247.733	174.75
247.966	157.75
248.2	160.75
248.433	162.75
248.666	191.75
248.899	169.75
249.133	202.75
249.366	202.75
249.599	195.75
249.832	182.75
250.066	188.75
250.299	202.75
250.532	205.75
250.765	221.75
250.998	232.75
251.231	223.75
251.465	213.75
251.698	195.75
251.931	205.75
252.164	223.75
252.397	205.75
252.63	201.75
252.863	197.75
253.096	213.75
253.329	238.75
253.562	235.75
253.795	226.75
254.028	213.75
254.261	213.75
254.494	230.75
254.727	246.75
254.96	271.75
255.193	276.75
255.426	246.75
255.659	237.75
255.892	229.75
256.124	232.75
256.357	232.75
256.59	221.75
256.823	202.75
257.056	213.75
257.289	204.75
257.521	212.75
257.754	222.75
257.987	200.75
258.22	195.75
258.452	212.75
258.685	209.75
258.918	213.75
259.151	205.75
259.383	228.75
259.616	213.75
259.849	221.75
260.081	227.75
260.314	249.75
260.547	258.75
260.779	235.75
261.012	235.75
261.244	239.75
261.477	224.75
261.71	224.75
261.942	229.75
262.175	223.75
262.407	233.75
262.64	218.75
262.872	227.75
263.105	212.75
263.337	215.75
263.57	231.75
263.802	221.75
264.035	215.75
264.267	210.75
264.499	219.75
264.732	207.75
264.964	209.75
265.197	211.75
265.429	220.75
265.661	224.75
265.894	218.75
266.126	222.75
266.358	210.75
266.591	232.75
266.823	232.75
267.055	240.75
267.287	244.75
267.52	233.75
267.752	217.75
267.984	234.75
268.216	210.75
268.448	235.75
268.681	243.75
268.913	261.75
269.145	277.75
269.377	264.75
269.609	271.75
269.841	267.75
270.073	245.75
270.306	302.75
270.538	325.75
270.77	314.75
271.002	284.75
271.234	296.75
271.466	290.75
271.698	319.75
271.93	300.75
272.162	330.75
272.394	302.75
272.626	312.75
272.858	306.75
273.09	287.75
273.322	269.75
273.553	267.75
273.785	256.75
274.017	251.75
274.249	277.75
274.481	267.75
274.713	266.75
274.945	266.75
275.176	268.75
275.408	282.75
275.64	273.75
275.872	261.75
276.104	286.75
276.335	263.75
276.567	280.75
276.799	275.75
277.031	316.75
277.262	323.75
277.494	308.75
277.726	309.75
277.957	274.75
278.189	277.75
278.421	299.75
278.652	292.75
278.884	269.75
279.115	263.75
279.347	267.75
279.579	275.75
279.81	283.75
280.042	268.75
280.273	274.75
280.505	282.75
280.736	272.75
280.968	271.75
281.199	258.75
281.431	252.75
281.662	260.75
281.894	280.75
282.125	281.75
282.356	300.75
282.588	304.75
282.819	322.75
283.051	286.75
283.282	277.75
283.513	296.75
283.745	280.75
283.976	278.75
284.207	301.75
284.439	289.75
284.67	292.75
284.901	286.75
285.132	292.75
285.364	285.75
285.595	282.75
285.826	294.75
286.057	299.75
286.288	275.75
286.52	291.75
286.751	289.75
286.982	298.75
287.213	261.75
287.444	295.75
287.675	293.75
287.906	291.75
288.138	297.75
288.369	286.75
288.6	315.75
288.831	306.75
289.062	314.75
289.293	293.75
289.524	287.75
289.755	276.75
289.986	312.75
290.217	290.75
290.448	286.75
290.679	300.75
290.91	291.75
291.141	286.75
291.371	285.75
291.602	304.75
291.833	302.75
292.064	302.75
292.295	276.75
292.526	293.75
292.757	306.75
292.987	279.75
293.218	309.75
293.449	316.75
293.68	275.75
293.91	314.75
294.141	303.75
294.372	291.75
294.603	323.75
294.833	291.75
295.064	310.75
295.295	296.75
295.525	307.75
295.756	312.75
295.987	326.75
296.217	317.75
296.448	317.75
296.679	307.75
296.909	310.75
297.14	297.75
297.37	319.75
297.601	324.75
297.831	310.75
298.062	303.75
298.292	311.75
298.523	315.75
298.753	283.75
298.984	292.75
299.214	312.75
299.445	308.75
299.675	326.75
299.905	328.75
300.136	327.75
300.366	304.75
300.597	306.75
300.827	314.75
301.057	329.75
301.288	332.75
301.518	318.75
301.748	327.75
301.979	327.75
302.209	336.75
302.439	354.75
302.669	337.75
302.9	336.75
303.13	325.75
303.36	343.75
303.59	325.75
303.82	336.75
304.051	338.75
304.281	323.75
304.511	340.75
304.741	337.75
304.971	331.75
305.201	313.75
305.431	331.75
305.661	331.75
305.891	318.75
306.121	338.75
306.352	352.75
306.582	344.75
306.812	354.75
307.042	344.75
307.272	330.75
307.502	343.75
307.731	359.75
307.961	347.75
308.191	341.75
308.421	349.75
308.651	350.75
308.881	350.75
309.111	342.75
309.341	347.75
309.571	353.75
309.8	356.75
310.03	366.75
310.26	371.75
310.49	378.75
310.72	403.75
310.949	367.75
311.179	408.75
311.409	376.75
311.639	405.75
311.868	378.75
312.098	374.75
312.328	378.75
312.557	402.75
312.787	404.75
313.017	416.75
313.246	381.75
313.476	375.75
313.706	369.75
313.935	390.75
314.165	403.75
314.394	402.75
314.624	389.75
314.853	403.75
315.083	383.75
315.312	374.75
315.542	385.75
315.771	389.75
316.001	373.75
316.23	386.75
316.46	380.75
316.689	401.75
316.919	401.75
317.148	384.75
317.377	386.75
317.607	412.75
317.836	388.75
318.065	381.75
318.295	405.75
318.524	389.75
318.753	398.75
318.983	391.75
319.212	388.75
319.441	392.75
319.67	410.75
319.9	393.75
320.129	384.75
320.358	394.75
320.587	394.75
320.816	394.75
321.046	419.75
321.275	400.75
321.504	405.75
321.733	386.75
321.962	404.75
322.191	429.75
322.42	448.75
322.649	432.75
322.878	462.75
323.108	456.75
323.337	463.75
323.566	494.75
323.795	479.75
324.024	559.75
324.253	671.75
324.482	910.75
324.71	1477.75
324.939	2154.75
325.168	1846.75
325.397	945.75
325.626	642.75
325.855	541.75
326.084	498.75
326.313	482.75
326.542	488.75
326.77	538.75
326.999	606.75
327.228	839.75
327.457	1316.75
327.686	1636.75
327.914	1081.75
328.143	701.75
328.372	619.75
328.6	572.75
328.829	555.75
329.058	571.75
329.287	570.75
329.515	545.75
329.744	529.75
329.972	516.75
330.201	549.75
330.43	562.75
330.658	610.75
330.887	611.75
331.115	595.75
331.344	530.75
331.572	493.75
331.801	483.75
332.03	488.75
332.258	469.75
332.486	463.75
332.715	458.75
332.943	460.75
333.172	481.75
333.4	462.75
333.629	456.75
333.857	495.75
334.085	524.75
334.314	540.75
334.542	568.75
334.771	555.75
334.999	508.75
335.227	492.75
335.455	475.75
335.684	466.75
335.912	477.75
336.14	455.75
336.369	455.75
336.597	493.75
336.825	478.75
337.053	463.75
337.281	452.75
337.51	461.75
337.738	447.75
337.966	455.75
338.194	468.75
338.422	457.75
338.65	449.75
338.878	462.75
339.106	455.75
339.334	443.75
339.562	426.75
339.79	462.75
340.018	461.75
340.246	436.75
340.474	458.75
340.702	443.75
340.93	445.75
341.158	429.75
341.386	460.75
341.614	447.75
341.842	447.75
342.07	453.75
342.298	423.75
342.526	437.75
342.754	436.75
342.981	446.75
343.209	454.75
343.437	444.75
343.665	445.75
343.893	445.75
344.12	473.75
344.348	490.75
344.576	463.75
344.804	451.75
345.031	444.75
345.259	468.75
345.487	473.75
345.714	479.75
345.942	426.75
346.17	446.75
346.397	450.75
346.625	430.75
346.853	440.75
347.08	420.75
347.308	438.75
347.535	441.75
347.763	456.75
347.99	447.75
348.218	457.75
348.445	447.75
348.673	458.75
348.9	427.75
349.128	444.75
349.355	429.75
349.583	401.75
349.81	428.75
350.037	421.75
350.265	435.75
350.492	436.75
350.72	411.75
350.947	441.75
351.174	455.75
351.402	418.75
351.629	439.75
351.856	442.75
352.083	456.75
352.311	470.75
352.538	455.75
352.765	453.75
352.992	428.75
353.22	430.75
353.447	458.75
353.674	426.75
353.901	423.75
354.128	436.75
354.355	434.75
354.583	409.75
354.81	413.75
355.037	408.75
355.264	398.75
355.491	422.75
355.718	416.75
355.945	399.75
356.172	412.75
356.399	399.75
356.626	413.75
356.853	440.75
357.08	414.75
357.307	389.75
357.534	413.75
357.761	419.75
357.988	401.75
358.215	400.75
358.441	402.75
358.668	424.75
358.895	424.75
359.122	441.75
359.349	420.75
359.576	429.75
359.802	464.75
360.029	467.75
360.256	498.75
360.483	471.75
360.709	455.75
360.936	453.75
361.163	436.75
361.39	445.75
361.616	465.75
361.843	430.75
362.07	436.75
362.296	429.75
362.523	415.75
362.749	471.75
362.976	452.75
363.203	423.75
363.429	441.75
363.656	429.75
363.882	425.75
364.109	450.75
364.335	413.75
364.562	428.75
364.788	415.75
365.015	422.75
365.241	450.75
365.468	426.75
365.694	443.75
365.92	450.75
366.147	444.75
366.373	421.75
366.599	416.75
366.826	442.75
367.052	428.75
367.278	437.75
367.505	420.75
367.731	411.75
367.957	431.75
368.184	442.75
368.41	454.75
368.636	435.75
368.862	454.75
369.089	449.75
369.315	430.75
369.541	432.75
369.767	426.75
369.993	431.75
370.219	440.75
370.445	429.75
370.672	429.75
370.898	431.75
371.124	435.75
371.35	415.75
371.576	428.75
371.802	431.75
372.028	428.75
372.254	437.75
372.48	433.75
372.706	448.75
372.932	434.75
373.158	446.75
373.384	434.75
373.61	420.75
373.835	436.75
374.061	438.75
374.287	457.75
374.513	445.75
374.739	441.75
374.965	439.75
375.191	467.75
375.416	447.75
375.642	421.75
375.868	453.75
376.094	424.75
376.319	453.75
376.545	453.75
376.771	443.75
376.997	430.75
377.222	452.75
377.448	428.75
377.674	443.75
377.899	400.75
378.125	410.75
378.35	434.75
378.576	444.75
378.802	447.75
379.027	452.75
379.253	418.75
379.478	452.75
379.704	435.75
379.929	429.75
380.155	432.75
380.38	444.75
380.606	425.75
380.831	443.75
381.057	449.75
381.282	450.75
381.507	436.75
381.733	457.75
381.958	448.75
382.184	460.75
382.409	458.75
382.634	453.75
382.86	464.75
383.085	438.75
383.31	449.75
383.535	461.75
383.761	448.75
383.986	466.75
384.211	452.75
384.436	469.75
384.662	468.75
384.887	470.75
385.112	476.75
385.337	471.75
385.562	484.75
385.787	487.75
386.013	484.75
386.238	490.75
386.463	480.75
386.688	486.75
386.913	486.75
387.138	466.75
387.363	462.75
387.588	464.75
387.813	484.75
388.038	484.75
388.263	487.75
388.488	477.75
388.713	507.75
388.938	500.75
389.163	507.75
389.387	502.75
389.612	486.75
389.837	479.75
390.062	471.75
390.287	472.75
390.512	496.75
390.736	464.75
390.961	485.75
391.186	495.75
391.411	480.75
391.636	490.75
391.86	514.75
392.085	504.75
392.31	510.75
392.534	491.75
392.759	499.75
392.984	486.75
393.208	485.75
393.433	497.75
393.658	498.75
393.882	491.75
394.107	491.75
394.331	504.75
394.556	498.75
394.78	505.75
395.005	524.75
395.229	513.75
395.454	504.75
395.678	512.75
395.903	526.75
396.127	544.75
396.352	545.75
396.576	523.75
396.801	526.75
397.025	508.75
397.249	519.75
397.474	519.75
397.698	523.75
397.922	552.75
398.147	556.75
398.371	549.75
398.595	549.75
398.82	550.75
399.044	562.75
399.268	597.75
399.492	642.75
399.717	638.75
399.941	679.75
400.165	694.75
400.389	693.75
400.613	672.75
400.837	598.75
401.062	592.75
401.286	605.75
401.51	583.75
401.734	566.75
401.958	582.75
402.182	558.75
402.406	598.75
402.63	606.75
402.854	571.75
403.078	562.75
403.302	593.75
403.526	575.75
403.75	605.75
403.974	592.75
404.198	575.75
404.422	605.75
404.645	599.75
404.869	603.75
405.093	613.75
405.317	674.75
405.541	701.75
405.765	648.75
405.988	605.75
406.212	622.75
406.436	654.75
406.66	665.75
406.883	628.75
407.107	636.75
407.331	700.75
407.555	781.75
407.778	770.75
408.002	714.75
408.226	670.75
408.449	649.75
408.673	646.75
408.896	667.75
409.12	723.75
409.344	694.75
409.567	601.75
409.791	590.75
410.014	597.75
410.238	607.75
410.461	587.75
410.685	614.75
410.908	619.75
411.132	652.75
411.355	659.75
411.578	641.75
411.802	590.75
412.025	604.75
412.249	613.75
412.472	629.75
412.695	678.75
412.919	664.75
413.142	591.75
413.365	605.75
413.589	595.75
413.812	571.75
414.035	580.75
414.258	572.75
414.482	551.75
414.705	582.75
414.928	560.75
415.151	567.75
415.374	574.75
415.597	586.75
415.821	551.75
416.044	538.75
416.267	556.75
416.49	550.75
416.713	563.75
416.936	578.75
417.159	549.75
417.382	554.75
417.605	561.75
417.828	579.75
418.051	567.75
418.274	570.75
418.497	561.75
418.72	546.75
418.943	581.75
419.166	580.75
419.389	607.75
419.611	615.75
419.834	591.75
420.057	604.75
420.28	584.75
420.503	578.75
420.726	567.75
420.948	586.75
421.171	642.75
421.394	677.75
421.617	616.75
421.839	587.75
422.062	588.75
422.285	607.75
422.507	642.75
422.73	738.75
422.953	698.75
423.175	648.75
423.398	613.75
423.621	590.75
423.843	611.75
424.066	623.75
424.288	637.75
424.511	651.75
424.733	696.75
424.956	782.75
425.178	728.75
425.401	754.75
425.623	788.75
425.846	683.75
426.068	613.75
426.291	621.75
426.513	590.75
426.735	623.75
426.958	660.75
427.18	748.75
427.402	886.75
427.625	990.75
427.847	845.75
428.069	757.75
428.292	677.75
428.514	606.75
428.736	608.75
428.958	611.75
429.181	592.75
429.403	584.75
429.625	572.75
429.847	611.75
430.069	677.75
430.292	676.75
430.514	598.75
430.736	597.75
430.958	575.75
431.18	556.75
431.402	550.75
431.624	534.75
431.846	543.75
432.068	546.75
432.29	554.75
432.512	541.75
432.734	560.75
432.956	560.75
433.178	559.75
433.4	564.75
433.622	568.75
433.844	556.75
434.066	566.75
434.287	570.75
434.509	564.75
434.731	566.75
434.953	563.75
435.175	577.75
435.397	618.75
435.618	627.75
435.84	658.75
436.062	756.75
436.284	834.75
436.505	697.75
436.727	656.75
436.949	606.75
437.17	597.75
437.392	577.75
437.614	598.75
437.835	604.75
438.057	746.75
438.278	823.75
438.5	842.75
438.721	904.75
438.943	895.75
439.165	667.75
439.386	652.75
439.608	626.75
439.829	602.75
440.05	664.75
440.272	698.75
440.493	649.75
440.715	605.75
440.936	581.75
441.158	578.75
441.379	592.75
441.6	607.75
441.822	624.75
442.043	653.75
442.264	760.75
442.486	796.75
442.707	667.75
442.928	638.75
443.149	636.75
443.371	657.75
443.592	725.75
443.813	834.75
444.034	902.75
444.255	716.75
444.476	660.75
444.698	640.75
444.919	630.75
445.14	763.75
445.361	698.75
445.582	661.75
445.803	758.75
446.024	867.75
446.245	846.75
446.466	786.75
446.687	666.75
446.908	627.75
447.129	594.75
447.35	556.75
447.571	581.75
447.792	564.75
448.013	572.75
448.234	594.75
448.455	635.75
448.675	761.75
448.896	882.75
449.117	747.75
449.338	716.75
449.559	841.75
449.779	940.75
450	748.75
450.221	624.75
450.442	582.75
450.662	565.75
450.883	565.75
451.104	582.75
451.324	562.75
451.545	543.75
451.766	549.75
451.986	507.75
452.207	534.75
452.428	501.75
452.648	524.75
452.869	514.75
453.089	527.75
453.31	524.75
453.53	517.75
453.751	502.75
453.971	502.75
454.192	553.75
454.412	537.75
454.633	517.75
454.853	516.75
455.073	509.75
455.294	543.75
455.514	618.75
455.734	592.75
455.955	529.75
456.175	497.75
456.395	495.75
456.616	506.75
456.836	491.75
457.056	484.75
457.276	495.75
457.497	502.75
457.717	499.75
457.937	503.75
458.157	503.75
458.377	520.75
458.598	543.75
458.818	588.75
459.038	687.75
459.258	676.75
459.478	620.75
459.698	562.75
459.918	534.75
460.138	548.75
460.358	537.75
460.578	563.75
460.798	569.75
461.018	571.75
461.238	546.75
461.458	557.75
461.678	568.75
461.898	564.75
462.118	568.75
462.338	600.75
462.558	596.75
462.777	598.75
462.997	604.75
463.217	644.75
463.437	632.75
463.657	619.75
463.876	604.75
464.096	607.75
464.316	583.75
464.536	616.75
464.755	599.75
464.975	622.75
465.195	631.75
465.414	696.75
465.634	638.75
465.854	592.75
466.073	575.75
466.293	568.75
466.512	544.75
466.732	534.75
466.951	542.75
467.171	510.75
467.391	534.75
467.61	531.75
467.829	572.75
468.049	538.75
468.268	548.75
468.488	572.75
468.707	546.75
468.927	515.75
469.146	518.75
469.365	527.75
469.585	517.75
469.804	538.75
470.023	564.75
470.243	556.75
470.462	542.75
470.681	568.75
470.901	565.75
471.12	558.75
471.339	552.75
471.558	535.75
471.777	545.75
471.997	528.75
472.216	562.75
472.435	581.75
472.654	572.75
472.873	543.75
473.092	531.75
473.311	520.75
473.53	539.75
473.749	563.75
473.968	595.75
474.187	701.75
474.406	728.75
474.625	602.75
474.844	542.75
475.063	552.75
475.282	532.75
475.501	540.75
475.72	575.75
475.939	563.75
476.158	562.75
476.377	555.75
476.596	556.75
476.814	576.75
477.033	582.75
477.252	579.75
477.471	572.75
477.69	578.75
477.908	602.75
478.127	590.75
478.346	584.75
478.564	605.75
478.783	592.75
479.002	618.75
479.22	605.75
479.439	628.75
479.658	658.75
479.876	651.75
480.095	680.75
480.313	686.75
480.532	690.75
480.751	662.75
480.969	668.75
481.188	709.75
481.406	780.75
481.624	712.75
481.843	670.75
482.061	645.75
482.28	655.75
482.498	621.75
482.717	636.75
482.935	630.75
483.153	640.75
483.372	644.75
483.59	635.75
483.808	636.75
484.027	650.75
484.245	642.75
484.463	631.75
484.681	683.75
484.9	628.75
485.118	680.75
485.336	656.75
485.554	661.75
485.772	663.75
485.99	660.75
486.209	657.75
486.427	660.75
486.645	671.75
486.863	700.75
487.081	679.75
487.299	690.75
487.517	698.75
487.735	676.75
487.953	651.75
488.171	683.75
488.389	693.75
488.607	686.75
488.825	688.75
489.043	666.75
489.261	697.75
489.479	685.75
489.696	683.75
489.914	692.75
490.132	712.75
490.35	715.75
490.568	708.75
490.786	723.75
491.003	736.75
491.221	767.75
491.439	776.75
491.657	783.75
491.874	802.75
492.092	786.75
492.31	797.75
492.527	776.75
492.745	799.75
492.963	810.75
493.18	781.75
493.398	798.75
493.615	786.75
493.833	814.75
494.05	824.75
494.268	806.75
494.485	785.75
494.703	797.75
494.92	811.75
495.138	797.75
495.355	812.75
495.573	810.75
495.79	814.75
496.008	830.75
496.225	816.75
496.442	839.75
496.66	827.75
496.877	812.75
497.094	835.75
497.312	839.75
497.529	835.75
497.746	867.75
497.963	855.75
498.181	887.75
498.398	902.75
498.615	901.75
498.832	930.75
499.049	943.75
499.267	973.75
499.484	1001.75
499.701	1031.75
499.918	1077.75
500.135	1144.75
500.352	1188.75
500.569	1205.75
500.786	1226.75
501.003	1158.75
501.22	1150.75
501.437	1123.75
501.654	1070.75
501.871	1048.75
502.088	993.75
502.305	966.75
502.522	937.75
502.739	918.75
502.956	886.75
503.172	867.75
503.389	842.75
503.606	855.75
503.823	838.75
504.04	854.75
504.256	847.75
504.473	826.75
504.69	822.75
504.907	823.75
505.123	810.75
505.34	785.75
505.557	789.75
505.773	806.75
505.99	777.75
506.207	804.75
506.423	791.75
506.64	759.75
506.856	776.75
507.073	745.75
507.289	738.75
507.506	749.75
507.722	738.75
507.939	784.75
508.155	747.75
508.372	747.75
508.588	718.75
508.805	733.75
509.021	724.75
509.238	732.75
509.454	767.75
509.67	737.75
509.887	756.75
510.103	723.75
510.319	739.75
510.536	821.75
510.752	1267.75
510.968	1058.75
511.184	731.75
511.401	704.75
511.617	731.75
511.833	702.75
512.049	670.75
512.265	691.75
512.481	710.75
512.698	670.75
512.914	694.75
513.13	684.75
513.346	676.75
513.562	688.75
513.778	691.75
513.994	694.75
514.21	694.75
514.426	739.75
514.642	764.75
514.858	782.75
515.074	838.75
515.29	943.75
515.506	1296.75
515.721	1093.75
515.937	834.75
516.153	756.75
516.369	739.75
516.585	743.75
516.801	718.75
517.016	718.75
517.232	725.75
517.448	718.75
517.664	701.75
517.879	710.75
518.095	727.75
518.311	732.75
518.527	712.75
518.742	710.75
518.958	703.75
519.173	709.75
519.389	707.75
519.605	682.75
519.82	698.75
520.036	698.75
520.251	717.75
520.467	723.75
520.682	727.75
520.898	744.75
521.113	755.75
521.329	760.75
521.544	863.75
521.76	1031.75
521.975	1641.75
522.19	1659.75
522.406	945.75
522.621	754.75
522.836	690.75
523.052	661.75
523.267	660.75
523.482	636.75
523.698	633.75
523.913	611.75
524.128	616.75
524.343	631.75
524.559	634.75
524.774	600.75
524.989	574.75
525.204	593.75
525.419	598.75
525.634	598.75
525.849	616.75
526.064	598.75
526.28	581.75
526.495	571.75
526.71	587.75
526.925	604.75
527.14	588.75
527.355	588.75
527.57	568.75
527.785	572.75
527.999	570.75
528.214	576.75
528.429	583.75
528.644	576.75
528.859	576.75
529.074	569.75
529.289	595.75
529.503	643.75
529.718	670.75
529.933	594.75
530.148	590.75
530.363	572.75
530.577	558.75
530.792	576.75
531.007	558.75
531.221	567.75
531.436	546.75
531.651	556.75
531.865	534.75
532.08	547.75
532.295	552.75
532.509	543.75
532.724	534.75
532.938	526.75
533.153	539.75
533.367	547.75
533.582	544.75
533.796	546.75
534.011	559.75
534.225	553.75
534.44	514.75
534.654	535.75
534.868	556.75
535.083	536.75
535.297	514.75
535.511	537.75
535.726	535.75
535.94	540.75
536.154	548.75
536.369	534.75
536.583	531.75
536.797	544.75
537.011	539.75
537.225	533.75
537.44	562.75
537.654	526.75
537.868	493.75
538.082	525.75
538.296	527.75
538.51	524.75
538.724	523.75
538.938	523.75
539.153	520.75
539.367	564.75
539.581	524.75
539.795	536.75
540.009	541.75
540.222	520.75
540.436	526.75
540.65	525.75
540.864	512.75
541.078	543.75
541.292	543.75
541.506	522.75
541.72	503.75
541.934	523.75
542.147	528.75
542.361	524.75
542.575	516.75
542.789	508.75
543.002	536.75
543.216	526.75
543.43	502.75
543.644	508.75
543.857	530.75
544.071	511.75
544.285	512.75
544.498	500.75
544.712	522.75
544.925	515.75
545.139	516.75
545.352	518.75
545.566	514.75
545.779	503.75
545.993	500.75
546.206	490.75
546.42	503.75
546.633	498.75
546.847	504.75
547.06	509.75
547.274	516.75
547.487	507.75
547.7	504.75
547.914	495.75
548.127	506.75
548.34	492.75
548.554	487.75
548.767	494.75
548.98	496.75
549.193	509.75
549.407	499.75
549.62	485.75
549.833	488.75
550.046	497.75
550.259	472.75
550.473	496.75
550.686	500.75
550.899	518.75
551.112	489.75
551.325	492.75
551.538	502.75
551.751	488.75
551.964	491.75
552.177	491.75
552.39	499.75
552.603	506.75
552.816	502.75
553.029	516.75
553.242	495.75
553.455	502.75
553.667	531.75
553.88	517.75
554.093	511.75
554.306	503.75
554.519	499.75
554.732	477.75
554.944	493.75
555.157	469.75
555.37	470.75
555.583	502.75
555.795	483.75
556.008	458.75
556.221	454.75
556.433	473.75
556.646	480.75
556.859	444.75
557.071	451.75
557.284	438.75
557.496	446.75
557.709	460.75
557.921	442.75
558.134	453.75
558.346	440.75
558.559	444.75
558.771	440.75
558.984	436.75
559.196	440.75
559.409	437.75
559.621	431.75
559.833	423.75
560.046	442.75
560.258	442.75
560.47	427.75
560.683	431.75
560.895	436.75
561.107	444.75
561.32	457.75
561.532	446.75
561.744	452.75
561.956	443.75
562.168	437.75
562.381	449.75
562.593	439.75
562.805	455.75
563.017	454.75
563.229	440.75
563.441	450.75
563.653	440.75
563.865	464.75
564.077	465.75
564.289	462.75
564.501	440.75
564.713	459.75
564.925	454.75
565.137	479.75
565.349	490.75
565.561	511.75
565.773	487.75
565.985	517.75
566.197	525.75
566.408	534.75
566.62	554.75
566.832	559.75
567.044	572.75
567.255	540.75
567.467	585.75
567.679	573.75
567.891	587.75
568.102	591.75
568.314	579.75
568.526	573.75
568.737	540.75
568.949	522.75
569.161	503.75
569.372	504.75
569.584	462.75
569.795	472.75
570.007	453.75
570.218	501.75
570.43	481.75
570.641	450.75
570.853	464.75
571.064	434.75
571.276	406.75
571.487	429.75
571.698	434.75
571.91	414.75
572.121	423.75
572.333	406.75
572.544	414.75
572.755	406.75
572.966	399.75
573.178	380.75
573.389	384.75
573.6	406.75
573.811	402.75
574.023	398.75
574.234	396.75
574.445	374.75
574.656	374.75
574.867	385.75
575.078	395.75
575.289	396.75
575.501	395.75
575.712	376.75
575.923	389.75
576.134	383.75
576.345	385.75
576.556	398.75
576.767	370.75
576.978	384.75
577.188	371.75
577.399	380.75
577.61	366.75
577.821	362.75
578.032	359.75
578.243	395.75
578.454	603.75
578.665	459.75
578.875	387.75
579.086	379.75
579.297	350.75
579.508	342.75
579.718	360.75
579.929	383.75
580.14	347.75
580.35	349.75
580.561	363.75
580.772	354.75
580.982	372.75
581.193	355.75
581.403	357.75
581.614	342.75
581.825	345.75
582.035	344.75
582.246	363.75
582.456	342.75
582.667	358.75
582.877	333.75
583.087	348.75
583.298	350.75
583.508	351.75
583.719	343.75
583.929	345.75
584.139	340.75
584.35	308.75
584.56	342.75
584.77	350.75
584.981	323.75
585.191	339.75
585.401	333.75
585.611	339.75
585.821	349.75
586.032	334.75
586.242	347.75
586.452	313.75
586.662	340.75
586.872	345.75
587.082	334.75
587.292	349.75
587.502	330.75
587.713	333.75
587.923	327.75
588.133	337.75
588.343	332.75
588.553	326.75
588.762	330.75
588.972	351.75
589.182	344.75
589.392	334.75
589.602	324.75
589.812	354.75
590.022	338.75
590.232	322.75
590.441	332.75
590.651	334.75
590.861	336.75
591.071	346.75
591.281	326.75
591.49	349.75
591.7	344.75
591.91	353.75
592.119	348.75
592.329	342.75
592.539	348.75
592.748	340.75
592.958	332.75
593.167	387.75
593.377	368.75
593.587	380.75
593.796	361.75
594.006	355.75
594.215	346.75
594.424	363.75
594.634	365.75
594.843	358.75
595.053	359.75
595.262	328.75
595.472	338.75
595.681	346.75
595.89	351.75
596.1	328.75
596.309	308.75
596.518	336.75
596.727	311.75
596.937	313.75
597.146	319.75
597.355	314.75
597.564	336.75
597.774	309.75
597.983	323.75
598.192	300.75
598.401	294.75
598.61	293.75
598.819	304.75
599.028	310.75
599.237	307.75
599.446	302.75
599.655	300.75
599.864	311.75
600.073	301.75
600.282	308.75
600.491	294.75
600.7	291.75
600.909	280.75
601.118	307.75
601.327	276.75
601.536	275.75
601.745	294.75
601.953	295.75
602.162	272.75
602.371	298.75
602.58	281.75
602.789	286.75
602.997	277.75
603.206	285.75
603.415	267.75
603.623	285.75
603.832	284.75
604.041	272.75
604.249	271.75
604.458	274.75
604.666	294.75
604.875	273.75
605.084	278.75
605.292	300.75
605.501	283.75
605.709	284.75
605.918	289.75
606.126	277.75
606.334	265.75
606.543	269.75
606.751	285.75
606.96	275.75
607.168	279.75
607.376	270.75
607.585	275.75
607.793	296.75
608.001	265.75
608.21	276.75
608.418	276.75
608.626	268.75
608.834	269.75
609.043	266.75
609.251	266.75
609.459	284.75
609.667	269.75
609.875	272.75
610.083	277.75
610.291	260.75
610.499	266.75
610.707	263.75
610.916	266.75
611.124	275.75
611.332	265.75
611.54	269.75
611.748	260.75
611.955	268.75
612.163	266.75
612.371	277.75
612.579	268.75
612.787	247.75
612.995	269.75
613.203	245.75
613.411	261.75
613.618	279.75
613.826	264.75
614.034	253.75
614.242	265.75
614.449	253.75
614.657	260.75
614.865	264.75
615.072	253.75
615.28	269.75
615.488	271.75
615.695	268.75
615.903	262.75
616.111	262.75
616.318	251.75
616.526	270.75
616.733	272.75
616.941	260.75
617.148	250.75
617.356	258.75
617.563	257.75
617.771	251.75
617.978	262.75
618.185	267.75
618.393	260.75
618.6	257.75
618.807	256.75
619.015	261.75
619.222	239.75
619.429	247.75
619.637	268.75
619.844	259.75
620.051	259.75
620.258	254.75
620.466	261.75
620.673	243.75
620.88	230.75
621.087	217.75
621.294	252.75
621.501	238.75
621.708	240.75
621.915	250.75
622.122	241.75
622.329	252.75
622.536	242.75
622.743	232.75
622.95	250.75
623.157	246.75
623.364	261.75
623.571	246.75
623.778	236.75
623.985	234.75
624.192	235.75
624.399	248.75
624.606	226.75
624.812	248.75
625.019	226.75
625.226	233.75
625.433	254.75
625.639	248.75
625.846	232.75
626.053	223.75
626.259	223.75
626.466	240.75
626.673	224.75
626.879	228.75
627.086	229.75
627.293	239.75
627.499	227.75
627.706	226.75
627.912	221.75
628.119	219.75
628.325	221.75
628.532	212.75
628.738	218.75
628.945	217.75
629.151	204.75
629.357	203.75
629.564	226.75
629.77	205.75
629.976	216.75
630.183	217.75
630.389	206.75
630.595	230.75
630.802	216.75
631.008	208.75
631.214	218.75
631.42	204.75
631.627	217.75
631.833	212.75
632.039	216.75
632.245	223.75
632.451	214.75
632.657	222.75
632.863	218.75
633.069	216.75
633.275	214.75
633.481	201.75
633.688	215.75
633.893	208.75
634.099	213.75
634.305	200.75
634.511	202.75
634.717	207.75
634.923	202.75
635.129	203.75
635.335	199.75
635.541	208.75
635.747	211.75
635.952	215.75
636.158	195.75
636.364	206.75
636.57	196.75
636.775	220.75
636.981	205.75
637.187	195.75
637.392	207.75
637.598	199.75
637.804	193.75
638.009	199.75
638.215	211.75
638.421	199.75
638.626	190.75
638.832	200.75
639.037	211.75
639.243	203.75
639.448	188.75
639.654	184.75
639.859	199.75
640.065	196.75
640.27	180.75
640.475	198.75
640.681	190.75
640.886	199.75
641.091	195.75
641.297	204.75
641.502	188.75
641.707	197.75
641.913	190.75
642.118	192.75
642.323	176.75
642.528	186.75
642.733	182.75
642.939	175.75
643.144	200.75
643.349	182.75
643.554	195.75
643.759	186.75
643.964	185.75
644.169	189.75
644.374	175.75
644.579	176.75
644.784	179.75
644.989	178.75
645.194	162.75
645.399	184.75
645.604	175.75
645.809	175.75
646.014	183.75
646.219	205.75
646.423	175.75
646.628	178.75
646.833	173.75
647.038	188.75
647.243	194.75
647.447	175.75
647.652	186.75
647.857	180.75
648.062	199.75
648.266	194.75
648.471	186.75
648.676	191.75
648.88	181.75
649.085	188.75
649.289	188.75
649.494	171.75
649.698	207.75
649.903	188.75
650.107	196.75
650.312	170.75
650.516	179.75
650.721	172.75
650.925	163.75
651.13	164.75
651.334	163.75
651.539	164.75
651.743	143.75
651.947	159.75
652.152	159.75
652.356	154.75
652.56	155.75
652.764	155.75
652.969	160.75
653.173	166.75
653.377	168.75
653.581	158.75
653.785	142.75
653.99	139.75
654.194	139.75
654.398	142.75
654.602	150.75
654.806	154.75
655.01	151.75
655.214	159.75
655.418	136.75
655.622	144.75
655.826	129.75
656.03	154.75
656.234	152.75
656.438	148.75
656.642	142.75
656.846	141.75
657.049	147.75
657.253	124.75
657.457	119.75
657.661	140.75
657.865	126.75
658.068	119.75
658.272	122.75
658.476	126.75
658.68	102.75
658.883	109.75
659.087	101.75
659.291	109.75
659.494	112.75
659.698	109.75
659.901	98.75
660.105	98.75
660.309	96.75
660.512	93.75
660.716	101.75
660.919	99.75
661.123	94.75
661.326	95.75
661.53	92.75
661.733	95.75
661.936	88.75
662.14	87.75
662.343	94.75
662.546	88.75
662.75	106.75
662.953	100.75
663.156	72.75
663.36	87.75
663.563	92.75
663.766	70.75
663.969	88.75
664.173	80.75
664.376	96.75
664.579	91.75
664.782	81.75
664.985	89.75
665.188	83.75
665.391	80.75
665.594	75.75
665.797	85.75
666	91.75
666.203	93.75
666.406	77.75
666.609	95.75
666.812	88.75
667.015	87.75
667.218	77.75
667.421	91.75
667.624	93.75
667.827	89.75
668.03	75.75
668.232	76.75
668.435	94.75
668.638	81.75
668.841	90.75
669.043	90.75
669.246	78.75
669.449	70.75
669.651	87.75
669.854	81.75
670.057	90.75
670.259	86.75
670.462	75.75
670.665	78.75
670.867	86.75
671.07	78.75
671.272	84.75
671.475	88.75
671.677	71.75
671.88	77.75
672.082	78.75
672.284	71.75
672.487	72.75
672.689	75.75
672.892	68.75
