Data from 1966.PennyLincolnUp.Lamp.En5.5.200Scan.071719.P1.Scan2.head_HRD10591_14-18-47-215.txt Node
Date: Thu Jul 18 14:18:47 EDT 2019
User: cochatt
Spectrometer: HR+D1059
Trigger mode: 1
Integration Time (sec): 1.000000E-1
Scans to average: 1
Electric dark correction enabled: true
Nonlinearity correction enabled: false
Boxcar width: 0
XAxis mode: Wavelengths
Number of Pixels in Spectrum: 2048
>>>>>Begin Spectral Data<<<<<
223.165	-14.94
223.4	-14.94
223.635	-14.94
223.869	-22.94
224.104	-8.94
224.338	-16.94
224.573	-15.94
224.808	-8.94
225.042	-11.94
225.277	-3.94
225.511	-10.94
225.746	-6.94
225.98	13.06
226.215	8.06
226.449	18.06
226.683	22.06
226.918	25.06
227.152	36.06
227.387	46.06
227.621	31.06
227.856	32.06
228.09	47.06
228.324	51.06
228.559	57.06
228.793	86.06
229.027	110.06
229.262	119.06
229.496	104.06
229.73	139.06
229.964	165.06
230.199	145.06
230.433	117.06
230.667	108.06
230.901	123.06
231.136	110.06
231.37	118.06
231.604	115.06
231.838	113.06
232.072	120.06
232.306	116.06
232.541	95.06
232.775	117.06
233.009	121.06
233.243	117.06
233.477	127.06
233.711	122.06
233.945	128.06
234.179	116.06
234.413	116.06
234.647	114.06
234.881	112.06
235.115	136.06
235.349	113.06
235.583	132.06
235.817	129.06
236.051	140.06
236.285	129.06
236.519	128.06
236.753	138.06
236.987	150.06
237.221	197.06
237.455	246.06
237.689	208.06
237.922	144.06
238.156	134.06
238.39	143.06
238.624	136.06
238.858	137.06
239.091	135.06
239.325	125.06
239.559	132.06
239.793	130.06
240.027	136.06
240.26	153.06
240.494	165.06
240.728	149.06
240.961	154.06
241.195	148.06
241.429	158.06
241.662	142.06
241.896	146.06
242.13	138.06
242.363	154.06
242.597	146.06
242.83	151.06
243.064	171.06
243.298	156.06
243.531	152.06
243.765	143.06
243.998	142.06
244.232	144.06
244.465	152.06
244.699	163.06
244.932	159.06
245.166	165.06
245.399	159.06
245.633	165.06
245.866	150.06
246.099	147.06
246.333	164.06
246.566	164.06
246.8	155.06
247.033	168.06
247.266	162.06
247.5	169.06
247.733	200.06
247.966	189.06
248.2	178.06
248.433	174.06
248.666	173.06
248.899	183.06
249.133	202.06
249.366	212.06
249.599	218.06
249.832	187.06
250.066	208.06
250.299	188.06
250.532	194.06
250.765	205.06
250.998	239.06
251.231	250.06
251.465	220.06
251.698	212.06
251.931	234.06
252.164	216.06
252.397	212.06
252.63	200.06
252.863	206.06
253.096	230.06
253.329	225.06
253.562	241.06
253.795	236.06
254.028	228.06
254.261	235.06
254.494	248.06
254.727	258.06
254.96	281.06
255.193	293.06
255.426	248.06
255.659	238.06
255.892	246.06
256.124	234.06
256.357	244.06
256.59	239.06
256.823	225.06
257.056	219.06
257.289	220.06
257.521	214.06
257.754	220.06
257.987	216.06
258.22	206.06
258.452	202.06
258.685	223.06
258.918	214.06
259.151	225.06
259.383	233.06
259.616	225.06
259.849	233.06
260.081	243.06
260.314	264.06
260.547	264.06
260.779	260.06
261.012	259.06
261.244	241.06
261.477	249.06
261.71	243.06
261.942	234.06
262.175	240.06
262.407	238.06
262.64	211.06
262.872	228.06
263.105	230.06
263.337	237.06
263.57	213.06
263.802	231.06
264.035	219.06
264.267	209.06
264.499	214.06
264.732	224.06
264.964	216.06
265.197	231.06
265.429	223.06
265.661	222.06
265.894	222.06
266.126	230.06
266.358	234.06
266.591	235.06
266.823	240.06
267.055	227.06
267.287	253.06
267.52	238.06
267.752	232.06
267.984	253.06
268.216	250.06
268.448	248.06
268.681	251.06
268.913	259.06
269.145	268.06
269.377	297.06
269.609	300.06
269.841	268.06
270.073	289.06
270.306	305.06
270.538	332.06
270.77	337.06
271.002	320.06
271.234	319.06
271.466	308.06
271.698	335.06
271.93	320.06
272.162	318.06
272.394	329.06
272.626	312.06
272.858	315.06
273.09	289.06
273.322	276.06
273.553	265.06
273.785	270.06
274.017	271.06
274.249	288.06
274.481	254.06
274.713	274.06
274.945	276.06
275.176	273.06
275.408	288.06
275.64	264.06
275.872	277.06
276.104	272.06
276.335	250.06
276.567	289.06
276.799	304.06
277.031	313.06
277.262	342.06
277.494	346.06
277.726	325.06
277.957	308.06
278.189	304.06
278.421	312.06
278.652	291.06
278.884	306.06
279.115	277.06
279.347	280.06
279.579	285.06
279.81	290.06
280.042	276.06
280.273	293.06
280.505	273.06
280.736	282.06
280.968	293.06
281.199	296.06
281.431	281.06
281.662	274.06
281.894	270.06
282.125	280.06
282.356	299.06
282.588	306.06
282.819	318.06
283.051	301.06
283.282	284.06
283.513	285.06
283.745	291.06
283.976	278.06
284.207	291.06
284.439	296.06
284.67	302.06
284.901	297.06
285.132	300.06
285.364	287.06
285.595	299.06
285.826	301.06
286.057	286.06
286.288	292.06
286.52	295.06
286.751	292.06
286.982	306.06
287.213	303.06
287.444	314.06
287.675	307.06
287.906	313.06
288.138	323.06
288.369	327.06
288.6	326.06
288.831	313.06
289.062	306.06
289.293	330.06
289.524	308.06
289.755	317.06
289.986	311.06
290.217	302.06
290.448	318.06
290.679	298.06
290.91	323.06
291.141	301.06
291.371	328.06
291.602	320.06
291.833	303.06
292.064	312.06
292.295	326.06
292.526	308.06
292.757	315.06
292.987	301.06
293.218	333.06
293.449	309.06
293.68	331.06
293.91	314.06
294.141	304.06
294.372	301.06
294.603	304.06
294.833	302.06
295.064	306.06
295.295	325.06
295.525	325.06
295.756	308.06
295.987	305.06
296.217	330.06
296.448	343.06
296.679	330.06
296.909	313.06
297.14	297.06
297.37	315.06
297.601	327.06
297.831	324.06
298.062	330.06
298.292	320.06
298.523	326.06
298.753	319.06
298.984	325.06
299.214	321.06
299.445	306.06
299.675	333.06
299.905	328.06
300.136	321.06
300.366	329.06
300.597	342.06
300.827	342.06
301.057	347.06
301.288	342.06
301.518	336.06
301.748	338.06
301.979	337.06
302.209	352.06
302.439	345.06
302.669	347.06
302.9	360.06
303.13	336.06
303.36	348.06
303.59	362.06
303.82	352.06
304.051	368.06
304.281	357.06
304.511	358.06
304.741	359.06
304.971	333.06
305.201	358.06
305.431	336.06
305.661	369.06
305.891	350.06
306.121	352.06
306.352	357.06
306.582	345.06
306.812	353.06
307.042	365.06
307.272	360.06
307.502	356.06
307.731	350.06
307.961	349.06
308.191	352.06
308.421	359.06
308.651	338.06
308.881	357.06
309.111	358.06
309.341	359.06
309.571	357.06
309.8	369.06
310.03	403.06
310.26	388.06
310.49	388.06
310.72	393.06
310.949	398.06
311.179	408.06
311.409	397.06
311.639	381.06
311.868	400.06
312.098	394.06
312.328	391.06
312.557	408.06
312.787	427.06
313.017	432.06
313.246	423.06
313.476	399.06
313.706	397.06
313.935	417.06
314.165	424.06
314.394	427.06
314.624	408.06
314.853	398.06
315.083	400.06
315.312	400.06
315.542	404.06
315.771	392.06
316.001	403.06
316.23	393.06
316.46	397.06
316.689	392.06
316.919	398.06
317.148	424.06
317.377	430.06
317.607	400.06
317.836	412.06
318.065	404.06
318.295	378.06
318.524	392.06
318.753	389.06
318.983	408.06
319.212	398.06
319.441	416.06
319.67	393.06
319.9	399.06
320.129	398.06
320.358	409.06
320.587	398.06
320.816	407.06
321.046	416.06
321.275	416.06
321.504	434.06
321.733	424.06
321.962	458.06
322.191	446.06
322.42	452.06
322.649	483.06
322.878	462.06
323.108	472.06
323.337	497.06
323.566	536.06
323.795	538.06
324.024	582.06
324.253	721.06
324.482	1016.06
324.71	1579.06
324.939	2350.06
325.168	2032.06
325.397	1018.06
325.626	699.06
325.855	572.06
326.084	544.06
326.313	515.06
326.542	524.06
326.77	557.06
326.999	660.06
327.228	934.06
327.457	1435.06
327.686	1771.06
327.914	1147.06
328.143	750.06
328.372	655.06
328.6	610.06
328.829	582.06
329.058	601.06
329.287	616.06
329.515	577.06
329.744	525.06
329.972	550.06
330.201	559.06
330.43	614.06
330.658	626.06
330.887	649.06
331.115	635.06
331.344	551.06
331.572	538.06
331.801	532.06
332.03	524.06
332.258	469.06
332.486	498.06
332.715	492.06
332.943	483.06
333.172	493.06
333.4	506.06
333.629	494.06
333.857	527.06
334.085	530.06
334.314	536.06
334.542	595.06
334.771	599.06
334.999	542.06
335.227	522.06
335.455	469.06
335.684	505.06
335.912	480.06
336.14	480.06
336.369	484.06
336.597	504.06
336.825	500.06
337.053	493.06
337.281	478.06
337.51	465.06
337.738	490.06
337.966	479.06
338.194	491.06
338.422	486.06
338.65	480.06
338.878	466.06
339.106	459.06
339.334	467.06
339.562	476.06
339.79	470.06
340.018	479.06
340.246	465.06
340.474	471.06
340.702	458.06
340.93	463.06
341.158	480.06
341.386	470.06
341.614	461.06
341.842	470.06
342.07	454.06
342.298	449.06
342.526	452.06
342.754	436.06
342.981	435.06
343.209	430.06
343.437	468.06
343.665	485.06
343.893	475.06
344.12	485.06
344.348	482.06
344.576	453.06
344.804	480.06
345.031	491.06
345.259	480.06
345.487	489.06
345.714	499.06
345.942	438.06
346.17	452.06
346.397	454.06
346.625	445.06
346.853	444.06
347.08	457.06
347.308	452.06
347.535	459.06
347.763	477.06
347.99	457.06
348.218	475.06
348.445	482.06
348.673	464.06
348.9	461.06
349.128	458.06
349.355	440.06
349.583	469.06
349.81	455.06
350.037	417.06
350.265	440.06
350.492	449.06
350.72	439.06
350.947	479.06
351.174	462.06
351.402	450.06
351.629	476.06
351.856	459.06
352.083	482.06
352.311	474.06
352.538	470.06
352.765	457.06
352.992	459.06
353.22	466.06
353.447	448.06
353.674	456.06
353.901	438.06
354.128	427.06
354.355	399.06
354.583	457.06
354.81	442.06
355.037	415.06
355.264	428.06
355.491	423.06
355.718	437.06
355.945	433.06
356.172	423.06
356.399	416.06
356.626	433.06
356.853	420.06
357.08	421.06
357.307	439.06
357.534	407.06
357.761	427.06
357.988	429.06
358.215	421.06
358.441	429.06
358.668	443.06
358.895	456.06
359.122	429.06
359.349	440.06
359.576	474.06
359.802	477.06
360.029	494.06
360.256	513.06
360.483	498.06
360.709	457.06
360.936	476.06
361.163	464.06
361.39	472.06
361.616	475.06
361.843	472.06
362.07	437.06
362.296	450.06
362.523	472.06
362.749	440.06
362.976	458.06
363.203	448.06
363.429	436.06
363.656	444.06
363.882	442.06
364.109	425.06
364.335	412.06
364.562	422.06
364.788	449.06
365.015	450.06
365.241	455.06
365.468	438.06
365.694	455.06
365.92	452.06
366.147	452.06
366.373	453.06
366.599	446.06
366.826	433.06
367.052	440.06
367.278	438.06
367.505	437.06
367.731	432.06
367.957	431.06
368.184	458.06
368.41	444.06
368.636	460.06
368.862	445.06
369.089	446.06
369.315	464.06
369.541	455.06
369.767	453.06
369.993	445.06
370.219	454.06
370.445	450.06
370.672	439.06
370.898	448.06
371.124	443.06
371.35	464.06
371.576	443.06
371.802	428.06
372.028	444.06
372.254	454.06
372.48	462.06
372.706	473.06
372.932	461.06
373.158	447.06
373.384	445.06
373.61	472.06
373.835	454.06
374.061	460.06
374.287	455.06
374.513	466.06
374.739	476.06
374.965	446.06
375.191	465.06
375.416	484.06
375.642	462.06
375.868	484.06
376.094	445.06
376.319	452.06
376.545	450.06
376.771	454.06
376.997	452.06
377.222	447.06
377.448	444.06
377.674	426.06
377.899	456.06
378.125	436.06
378.35	444.06
378.576	439.06
378.802	436.06
379.027	451.06
379.253	459.06
379.478	440.06
379.704	432.06
379.929	448.06
380.155	462.06
380.38	445.06
380.606	452.06
380.831	462.06
381.057	455.06
381.282	459.06
381.507	465.06
381.733	476.06
381.958	447.06
382.184	452.06
382.409	446.06
382.634	467.06
382.86	458.06
383.085	468.06
383.31	470.06
383.535	437.06
383.761	465.06
383.986	476.06
384.211	481.06
384.436	486.06
384.662	495.06
384.887	468.06
385.112	503.06
385.337	479.06
385.562	470.06
385.787	510.06
386.013	512.06
386.238	524.06
386.463	529.06
386.688	486.06
386.913	494.06
387.138	514.06
387.363	495.06
387.588	506.06
387.813	509.06
388.038	489.06
388.263	497.06
388.488	499.06
388.713	491.06
388.938	507.06
389.163	513.06
389.387	497.06
389.612	485.06
389.837	507.06
390.062	507.06
390.287	513.06
390.512	483.06
390.736	514.06
390.961	492.06
391.186	508.06
391.411	483.06
391.636	510.06
391.86	527.06
392.085	514.06
392.31	508.06
392.534	514.06
392.759	509.06
392.984	514.06
393.208	525.06
393.433	531.06
393.658	531.06
393.882	489.06
394.107	514.06
394.331	531.06
394.556	518.06
394.78	520.06
395.005	508.06
395.229	506.06
395.454	524.06
395.678	534.06
395.903	534.06
396.127	558.06
396.352	575.06
396.576	522.06
396.801	550.06
397.025	540.06
397.249	525.06
397.474	555.06
397.698	551.06
397.922	562.06
398.147	574.06
398.371	589.06
398.595	586.06
398.82	582.06
399.044	594.06
399.268	607.06
399.492	640.06
399.717	672.06
399.941	690.06
400.165	710.06
400.389	733.06
400.613	675.06
400.837	646.06
401.062	603.06
401.286	595.06
401.51	574.06
401.734	574.06
401.958	582.06
402.182	588.06
402.406	601.06
402.63	602.06
402.854	598.06
403.078	615.06
403.302	617.06
403.526	597.06
403.75	594.06
403.974	628.06
404.198	598.06
404.422	604.06
404.645	616.06
404.869	621.06
405.093	642.06
405.317	696.06
405.541	723.06
405.765	660.06
405.988	630.06
406.212	666.06
406.436	678.06
406.66	703.06
406.883	659.06
407.107	670.06
407.331	726.06
407.555	814.06
407.778	815.06
408.002	758.06
408.226	694.06
408.449	671.06
408.673	679.06
408.896	714.06
409.12	736.06
409.344	693.06
409.567	621.06
409.791	623.06
410.014	618.06
410.238	632.06
410.461	630.06
410.685	641.06
410.908	642.06
411.132	694.06
411.355	716.06
411.578	686.06
411.802	606.06
412.025	598.06
412.249	613.06
412.472	653.06
412.695	721.06
412.919	700.06
413.142	635.06
413.365	608.06
413.589	617.06
413.812	588.06
414.035	561.06
414.258	587.06
414.482	583.06
414.705	608.06
414.928	581.06
415.151	588.06
415.374	553.06
415.597	583.06
415.821	574.06
416.044	603.06
416.267	564.06
416.49	562.06
416.713	560.06
416.936	587.06
417.159	578.06
417.382	577.06
417.605	599.06
417.828	601.06
418.051	621.06
418.274	598.06
418.497	580.06
418.72	580.06
418.943	560.06
419.166	589.06
419.389	632.06
419.611	633.06
419.834	626.06
420.057	618.06
420.28	616.06
420.503	608.06
420.726	605.06
420.948	617.06
421.171	696.06
421.394	706.06
421.617	640.06
421.839	581.06
422.062	570.06
422.285	630.06
422.507	680.06
422.73	787.06
422.953	756.06
423.175	650.06
423.398	618.06
423.621	635.06
423.843	660.06
424.066	637.06
424.288	655.06
424.511	654.06
424.733	732.06
424.956	800.06
425.178	782.06
425.401	776.06
425.623	810.06
425.846	715.06
426.068	636.06
426.291	633.06
426.513	659.06
426.735	644.06
426.958	711.06
427.18	790.06
427.402	961.06
427.625	1047.06
427.847	873.06
428.069	806.06
428.292	716.06
428.514	642.06
428.736	614.06
428.958	616.06
429.181	573.06
429.403	586.06
429.625	612.06
429.847	664.06
430.069	741.06
430.292	702.06
430.514	634.06
430.736	597.06
430.958	580.06
431.18	568.06
431.402	561.06
431.624	583.06
431.846	578.06
432.068	563.06
432.29	552.06
432.512	577.06
432.734	603.06
432.956	564.06
433.178	593.06
433.4	583.06
433.622	566.06
433.844	561.06
434.066	564.06
434.287	559.06
434.509	572.06
434.731	589.06
434.953	590.06
435.175	629.06
435.397	642.06
435.618	639.06
435.84	679.06
436.062	804.06
436.284	878.06
436.505	721.06
436.727	668.06
436.949	602.06
437.17	580.06
437.392	593.06
437.614	598.06
437.835	661.06
438.057	769.06
438.278	884.06
438.5	871.06
438.721	972.06
438.943	924.06
439.165	716.06
439.386	692.06
439.608	651.06
439.829	650.06
440.05	688.06
440.272	750.06
440.493	698.06
440.715	602.06
440.936	609.06
441.158	605.06
441.379	579.06
441.6	612.06
441.822	628.06
442.043	674.06
442.264	788.06
442.486	831.06
442.707	735.06
442.928	673.06
443.149	663.06
443.371	719.06
443.592	747.06
443.813	844.06
444.034	917.06
444.255	762.06
444.476	690.06
444.698	668.06
444.919	658.06
445.14	769.06
445.361	727.06
445.582	720.06
445.803	826.06
446.024	899.06
446.245	894.06
446.466	840.06
446.687	703.06
446.908	669.06
447.129	612.06
447.35	617.06
447.571	580.06
447.792	580.06
448.013	598.06
448.234	604.06
448.455	675.06
448.675	810.06
448.896	924.06
449.117	796.06
449.338	751.06
449.559	888.06
449.779	994.06
450	779.06
450.221	646.06
450.442	612.06
450.662	600.06
450.883	603.06
451.104	606.06
451.324	583.06
451.545	568.06
451.766	555.06
451.986	548.06
452.207	524.06
452.428	528.06
452.648	522.06
452.869	541.06
453.089	549.06
453.31	543.06
453.53	534.06
453.751	551.06
453.971	533.06
454.192	550.06
454.412	562.06
454.633	533.06
454.853	549.06
455.073	544.06
455.294	571.06
455.514	635.06
455.734	603.06
455.955	553.06
456.175	516.06
456.395	506.06
456.616	503.06
456.836	512.06
457.056	492.06
457.276	510.06
457.497	520.06
457.717	503.06
457.937	495.06
458.157	509.06
458.377	527.06
458.598	562.06
458.818	634.06
459.038	704.06
459.258	708.06
459.478	632.06
459.698	574.06
459.918	570.06
460.138	559.06
460.358	598.06
460.578	574.06
460.798	593.06
461.018	597.06
461.238	579.06
461.458	600.06
461.678	597.06
461.898	586.06
462.118	582.06
462.338	617.06
462.558	585.06
462.777	628.06
462.997	627.06
463.217	652.06
463.437	653.06
463.657	645.06
463.876	628.06
464.096	638.06
464.316	595.06
464.536	637.06
464.755	616.06
464.975	612.06
465.195	672.06
465.414	725.06
465.634	647.06
465.854	630.06
466.073	598.06
466.293	553.06
466.512	545.06
466.732	530.06
466.951	523.06
467.171	539.06
467.391	545.06
467.61	564.06
467.829	581.06
468.049	585.06
468.268	545.06
468.488	550.06
468.707	540.06
468.927	529.06
469.146	546.06
469.365	535.06
469.585	540.06
469.804	549.06
470.023	584.06
470.243	548.06
470.462	585.06
470.681	584.06
470.901	571.06
471.12	560.06
471.339	548.06
471.558	557.06
471.777	570.06
471.997	545.06
472.216	569.06
472.435	596.06
472.654	602.06
472.873	564.06
473.092	544.06
473.311	564.06
473.53	561.06
473.749	588.06
473.968	614.06
474.187	743.06
474.406	738.06
474.625	619.06
474.844	583.06
475.063	556.06
475.282	558.06
475.501	554.06
475.72	600.06
475.939	592.06
476.158	582.06
476.377	590.06
476.596	563.06
476.814	564.06
477.033	615.06
477.252	606.06
477.471	576.06
477.69	592.06
477.908	616.06
478.127	625.06
478.346	614.06
478.564	618.06
478.783	646.06
479.002	648.06
479.22	659.06
479.439	649.06
479.658	667.06
479.876	679.06
480.095	687.06
480.313	720.06
480.532	704.06
480.751	695.06
480.969	713.06
481.188	781.06
481.406	814.06
481.624	727.06
481.843	700.06
482.061	672.06
482.28	686.06
482.498	680.06
482.717	650.06
482.935	660.06
483.153	659.06
483.372	669.06
483.59	657.06
483.808	661.06
484.027	665.06
484.245	665.06
484.463	658.06
484.681	695.06
484.9	662.06
485.118	681.06
485.336	684.06
485.554	670.06
485.772	683.06
485.99	692.06
486.209	689.06
486.427	685.06
486.645	681.06
486.863	705.06
487.081	705.06
487.299	734.06
487.517	690.06
487.735	696.06
487.953	712.06
488.171	706.06
488.389	672.06
488.607	701.06
488.825	724.06
489.043	702.06
489.261	702.06
489.479	740.06
489.696	746.06
489.914	760.06
490.132	727.06
490.35	717.06
490.568	775.06
490.786	749.06
491.003	767.06
491.221	763.06
491.439	806.06
491.657	803.06
491.874	824.06
492.092	833.06
492.31	832.06
492.527	813.06
492.745	822.06
492.963	849.06
493.18	841.06
493.398	828.06
493.615	855.06
493.833	845.06
494.05	841.06
494.268	818.06
494.485	835.06
494.703	873.06
494.92	845.06
495.138	861.06
495.355	842.06
495.573	848.06
495.79	841.06
496.008	856.06
496.225	819.06
496.442	860.06
496.66	856.06
496.877	864.06
497.094	872.06
497.312	886.06
497.529	871.06
497.746	906.06
497.963	920.06
498.181	936.06
498.398	928.06
498.615	946.06
498.832	983.06
499.049	1010.06
499.267	1002.06
499.484	1045.06
499.701	1109.06
499.918	1098.06
500.135	1167.06
500.352	1215.06
500.569	1227.06
500.786	1217.06
501.003	1210.06
501.22	1191.06
501.437	1142.06
501.654	1115.06
501.871	1099.06
502.088	1032.06
502.305	1016.06
502.522	975.06
502.739	957.06
502.956	929.06
503.172	938.06
503.389	916.06
503.606	875.06
503.823	879.06
504.04	897.06
504.256	852.06
504.473	878.06
504.69	885.06
504.907	868.06
505.123	822.06
505.34	836.06
505.557	856.06
505.773	815.06
505.99	805.06
506.207	805.06
506.423	804.06
506.64	795.06
506.856	780.06
507.073	798.06
507.289	804.06
507.506	777.06
507.722	784.06
507.939	802.06
508.155	785.06
508.372	788.06
508.588	761.06
508.805	751.06
509.021	752.06
509.238	783.06
509.454	790.06
509.67	760.06
509.887	783.06
510.103	747.06
510.319	756.06
510.536	851.06
510.752	1352.06
510.968	1104.06
511.184	782.06
511.401	732.06
511.617	714.06
511.833	717.06
512.049	712.06
512.265	707.06
512.481	719.06
512.698	714.06
512.914	709.06
513.13	696.06
513.346	726.06
513.562	727.06
513.778	707.06
513.994	743.06
514.21	743.06
514.426	761.06
514.642	753.06
514.858	806.06
515.074	846.06
515.29	984.06
515.506	1400.06
515.721	1183.06
515.937	829.06
516.153	780.06
516.369	769.06
516.585	733.06
516.801	770.06
517.016	748.06
517.232	752.06
517.448	738.06
517.664	742.06
517.879	747.06
518.095	747.06
518.311	749.06
518.527	771.06
518.742	737.06
518.958	736.06
519.173	705.06
519.389	728.06
519.605	728.06
519.82	722.06
520.036	722.06
520.251	756.06
520.467	792.06
520.682	765.06
520.898	807.06
521.113	784.06
521.329	835.06
521.544	910.06
521.76	1129.06
521.975	1809.06
522.19	1758.06
522.406	1033.06
522.621	804.06
522.836	719.06
523.052	726.06
523.267	687.06
523.482	662.06
523.698	658.06
523.913	641.06
524.128	637.06
524.343	633.06
524.559	622.06
524.774	639.06
524.989	600.06
525.204	618.06
525.419	633.06
525.634	619.06
525.849	617.06
526.064	635.06
526.28	598.06
526.495	598.06
526.71	581.06
526.925	593.06
527.14	606.06
527.355	601.06
527.57	589.06
527.785	597.06
527.999	569.06
528.214	588.06
528.429	604.06
528.644	586.06
528.859	577.06
529.074	591.06
529.289	607.06
529.503	699.06
529.718	697.06
529.933	653.06
530.148	600.06
530.363	624.06
530.577	598.06
530.792	591.06
531.007	580.06
531.221	589.06
531.436	584.06
531.651	570.06
531.865	576.06
532.08	602.06
532.295	552.06
532.509	545.06
532.724	576.06
532.938	564.06
533.153	554.06
533.367	590.06
533.582	572.06
533.796	543.06
534.011	572.06
534.225	541.06
534.44	561.06
534.654	563.06
534.868	536.06
535.083	529.06
535.297	556.06
535.511	565.06
535.726	586.06
535.94	548.06
536.154	568.06
536.369	552.06
536.583	551.06
536.797	558.06
537.011	543.06
537.225	529.06
537.44	539.06
537.654	544.06
537.868	538.06
538.082	554.06
538.296	543.06
538.51	537.06
538.724	548.06
538.938	546.06
539.153	539.06
539.367	564.06
539.581	555.06
539.795	552.06
540.009	546.06
540.222	544.06
540.436	562.06
540.65	546.06
540.864	534.06
541.078	558.06
541.292	573.06
541.506	560.06
541.72	521.06
541.934	519.06
542.147	544.06
542.361	530.06
542.575	514.06
542.789	512.06
543.002	544.06
543.216	542.06
543.43	523.06
543.644	536.06
543.857	534.06
544.071	537.06
544.285	537.06
544.498	530.06
544.712	520.06
544.925	506.06
545.139	536.06
545.352	520.06
545.566	535.06
545.779	529.06
545.993	504.06
546.206	515.06
546.42	536.06
546.633	539.06
546.847	545.06
547.06	508.06
547.274	500.06
547.487	488.06
547.7	489.06
547.914	516.06
548.127	514.06
548.34	525.06
548.554	522.06
548.767	516.06
548.98	512.06
549.193	511.06
549.407	529.06
549.62	514.06
549.833	529.06
550.046	532.06
550.259	502.06
550.473	494.06
550.686	487.06
550.899	502.06
551.112	492.06
551.325	509.06
551.538	516.06
551.751	502.06
551.964	507.06
552.177	499.06
552.39	495.06
552.603	512.06
552.816	515.06
553.029	502.06
553.242	526.06
553.455	533.06
553.667	552.06
553.88	549.06
554.093	543.06
554.306	510.06
554.519	528.06
554.732	542.06
554.944	524.06
555.157	527.06
555.37	490.06
555.583	500.06
555.795	487.06
556.008	484.06
556.221	471.06
556.433	482.06
556.646	472.06
556.859	476.06
557.071	485.06
557.284	461.06
557.496	456.06
557.709	458.06
557.921	451.06
558.134	462.06
558.346	450.06
558.559	449.06
558.771	482.06
558.984	451.06
559.196	462.06
559.409	442.06
559.621	452.06
559.833	440.06
560.046	453.06
560.258	449.06
560.47	462.06
560.683	454.06
560.895	453.06
561.107	448.06
561.32	438.06
561.532	465.06
561.744	466.06
561.956	444.06
562.168	457.06
562.381	462.06
562.593	442.06
562.805	440.06
563.017	464.06
563.229	427.06
563.441	475.06
563.653	480.06
563.865	493.06
564.077	466.06
564.289	452.06
564.501	471.06
564.713	478.06
564.925	470.06
565.137	475.06
565.349	513.06
565.561	514.06
565.773	505.06
565.985	522.06
566.197	509.06
566.408	535.06
566.62	548.06
566.832	554.06
567.044	586.06
567.255	572.06
567.467	591.06
567.679	590.06
567.891	600.06
568.102	575.06
568.314	584.06
568.526	576.06
568.737	563.06
568.949	538.06
569.161	516.06
569.372	509.06
569.584	496.06
569.795	475.06
570.007	480.06
570.218	504.06
570.43	487.06
570.641	474.06
570.853	462.06
571.064	464.06
571.276	438.06
571.487	442.06
571.698	458.06
571.91	433.06
572.121	411.06
572.333	453.06
572.544	427.06
572.755	418.06
572.966	426.06
573.178	431.06
573.389	398.06
573.6	404.06
573.811	395.06
574.023	362.06
574.234	380.06
574.445	408.06
574.656	389.06
574.867	389.06
575.078	399.06
575.289	386.06
575.501	397.06
575.712	400.06
575.923	395.06
576.134	388.06
576.345	396.06
576.556	391.06
576.767	385.06
576.978	388.06
577.188	381.06
577.399	389.06
577.61	358.06
577.821	367.06
578.032	384.06
578.243	406.06
578.454	625.06
578.665	501.06
578.875	384.06
579.086	374.06
579.297	379.06
579.508	359.06
579.718	377.06
579.929	369.06
580.14	349.06
580.35	356.06
580.561	381.06
580.772	380.06
580.982	361.06
581.193	356.06
581.403	352.06
581.614	352.06
581.825	353.06
582.035	345.06
582.246	342.06
582.456	343.06
582.667	357.06
582.877	369.06
583.087	341.06
583.298	326.06
583.508	358.06
583.719	352.06
583.929	364.06
584.139	358.06
584.35	360.06
584.56	353.06
584.77	359.06
584.981	320.06
585.191	356.06
585.401	356.06
585.611	349.06
585.821	352.06
586.032	352.06
586.242	352.06
586.452	344.06
586.662	354.06
586.872	348.06
587.082	337.06
587.292	360.06
587.502	349.06
587.713	338.06
587.923	345.06
588.133	346.06
588.343	344.06
588.553	349.06
588.762	359.06
588.972	360.06
589.182	347.06
589.392	341.06
589.602	342.06
589.812	354.06
590.022	359.06
590.232	332.06
590.441	352.06
590.651	352.06
590.861	365.06
591.071	353.06
591.281	350.06
591.49	342.06
591.7	360.06
591.91	349.06
592.119	355.06
592.329	366.06
592.539	379.06
592.748	373.06
592.958	361.06
593.167	370.06
593.377	367.06
593.587	384.06
593.796	388.06
594.006	361.06
594.215	377.06
594.424	373.06
594.634	370.06
594.843	371.06
595.053	380.06
595.262	352.06
595.472	340.06
595.681	340.06
595.89	338.06
596.1	332.06
596.309	349.06
596.518	336.06
596.727	337.06
596.937	308.06
597.146	316.06
597.355	313.06
597.564	326.06
597.774	325.06
597.983	316.06
598.192	302.06
598.401	313.06
598.61	321.06
598.819	289.06
599.028	304.06
599.237	316.06
599.446	308.06
599.655	306.06
599.864	311.06
600.073	297.06
600.282	302.06
600.491	313.06
600.7	300.06
600.909	293.06
601.118	301.06
601.327	302.06
601.536	310.06
601.745	302.06
601.953	312.06
602.162	292.06
602.371	295.06
602.58	282.06
602.789	280.06
602.997	298.06
603.206	306.06
603.415	312.06
603.623	293.06
603.832	288.06
604.041	285.06
604.249	276.06
604.458	291.06
604.666	252.06
604.875	273.06
605.084	264.06
605.292	286.06
605.501	296.06
605.709	292.06
605.918	287.06
606.126	296.06
606.334	285.06
606.543	265.06
606.751	274.06
606.96	292.06
607.168	298.06
607.376	287.06
607.585	283.06
607.793	281.06
608.001	301.06
608.21	288.06
608.418	271.06
608.626	273.06
608.834	281.06
609.043	280.06
609.251	277.06
609.459	282.06
609.667	271.06
609.875	278.06
610.083	276.06
610.291	281.06
610.499	280.06
610.707	305.06
610.916	279.06
611.124	292.06
611.332	284.06
611.54	297.06
611.748	290.06
611.955	289.06
612.163	281.06
612.371	268.06
612.579	266.06
612.787	269.06
612.995	276.06
613.203	276.06
613.411	284.06
613.618	280.06
613.826	277.06
614.034	278.06
614.242	261.06
614.449	288.06
614.657	273.06
614.865	260.06
615.072	274.06
615.28	270.06
615.488	270.06
615.695	281.06
615.903	260.06
616.111	268.06
616.318	287.06
616.526	262.06
616.733	276.06
616.941	270.06
617.148	268.06
617.356	259.06
617.563	265.06
617.771	274.06
617.978	261.06
618.185	288.06
618.393	268.06
618.6	261.06
618.807	259.06
619.015	260.06
619.222	263.06
619.429	260.06
619.637	263.06
619.844	251.06
620.051	262.06
620.258	255.06
620.466	264.06
620.673	261.06
620.88	265.06
621.087	256.06
621.294	238.06
621.501	270.06
621.708	262.06
621.915	247.06
622.122	274.06
622.329	250.06
622.536	260.06
622.743	270.06
622.95	256.06
623.157	256.06
623.364	244.06
623.571	247.06
623.778	256.06
623.985	234.06
624.192	252.06
624.399	244.06
624.606	239.06
624.812	251.06
625.019	232.06
625.226	245.06
625.433	246.06
625.639	233.06
625.846	229.06
626.053	233.06
626.259	239.06
626.466	248.06
626.673	227.06
626.879	229.06
627.086	229.06
627.293	235.06
627.499	264.06
627.706	248.06
627.912	248.06
628.119	233.06
628.325	228.06
628.532	228.06
628.738	229.06
628.945	218.06
629.151	209.06
629.357	229.06
629.564	225.06
629.77	231.06
629.976	231.06
630.183	235.06
630.389	212.06
630.595	227.06
630.802	229.06
631.008	216.06
631.214	224.06
631.42	226.06
631.627	204.06
631.833	231.06
632.039	222.06
632.245	217.06
632.451	216.06
632.657	211.06
632.863	200.06
633.069	217.06
633.275	220.06
633.481	198.06
633.688	217.06
633.893	212.06
634.099	212.06
634.305	209.06
634.511	216.06
634.717	202.06
634.923	193.06
635.129	214.06
635.335	209.06
635.541	204.06
635.747	218.06
635.952	186.06
636.158	204.06
636.364	194.06
636.57	218.06
636.775	192.06
636.981	215.06
637.187	196.06
637.392	194.06
637.598	202.06
637.804	205.06
638.009	203.06
638.215	221.06
638.421	194.06
638.626	192.06
638.832	194.06
639.037	194.06
639.243	185.06
639.448	198.06
639.654	189.06
639.859	192.06
640.065	210.06
640.27	205.06
640.475	203.06
640.681	184.06
640.886	223.06
641.091	188.06
641.297	206.06
641.502	195.06
641.707	184.06
641.913	215.06
642.118	194.06
642.323	178.06
642.528	184.06
642.733	184.06
642.939	180.06
643.144	194.06
643.349	187.06
643.554	192.06
643.759	184.06
643.964	184.06
644.169	193.06
644.374	197.06
644.579	169.06
644.784	190.06
644.989	169.06
645.194	201.06
645.399	199.06
645.604	181.06
645.809	172.06
646.014	188.06
646.219	190.06
646.423	207.06
646.628	190.06
646.833	183.06
647.038	192.06
647.243	195.06
647.447	193.06
647.652	190.06
647.857	199.06
648.062	187.06
648.266	187.06
648.471	194.06
648.676	195.06
648.88	183.06
649.085	177.06
649.289	188.06
649.494	184.06
649.698	215.06
649.903	209.06
650.107	176.06
650.312	181.06
650.516	186.06
650.721	172.06
650.925	174.06
651.13	171.06
651.334	161.06
651.539	173.06
651.743	170.06
651.947	170.06
652.152	164.06
652.356	155.06
652.56	165.06
652.764	141.06
652.969	165.06
653.173	153.06
653.377	161.06
653.581	147.06
653.785	146.06
653.99	157.06
654.194	152.06
654.398	155.06
654.602	158.06
654.806	161.06
655.01	149.06
655.214	146.06
655.418	138.06
655.622	129.06
655.826	148.06
656.03	160.06
656.234	156.06
656.438	148.06
656.642	152.06
656.846	142.06
657.049	132.06
657.253	139.06
657.457	125.06
657.661	131.06
657.865	127.06
658.068	132.06
658.272	118.06
658.476	114.06
658.68	108.06
658.883	99.06
659.087	113.06
659.291	96.06
659.494	112.06
659.698	104.06
659.901	102.06
660.105	101.06
660.309	89.06
660.512	100.06
660.716	103.06
660.919	93.06
661.123	90.06
661.326	88.06
661.53	89.06
661.733	99.06
661.936	84.06
662.14	86.06
662.343	81.06
662.546	91.06
662.75	96.06
662.953	89.06
663.156	94.06
663.36	77.06
663.563	90.06
663.766	86.06
663.969	92.06
664.173	98.06
664.376	83.06
664.579	75.06
664.782	88.06
664.985	93.06
665.188	85.06
665.391	93.06
665.594	84.06
665.797	80.06
666	79.06
666.203	74.06
666.406	81.06
666.609	80.06
666.812	76.06
667.015	84.06
667.218	83.06
667.421	75.06
667.624	95.06
667.827	82.06
668.03	71.06
668.232	92.06
668.435	89.06
668.638	85.06
668.841	77.06
669.043	87.06
669.246	68.06
669.449	90.06
669.651	83.06
669.854	76.06
670.057	72.06
670.259	93.06
670.462	94.06
670.665	78.06
670.867	70.06
671.07	83.06
671.272	88.06
671.475	75.06
671.677	101.06
671.88	94.06
672.082	79.06
672.284	90.06
672.487	86.06
672.689	76.06
672.892	72.06
