Data from 1966.PennyLincolnUp.Lamp.En5.5.200Scan.071719.P1.Scan2.head_HRD10591_14-17-17-096.txt Node
Date: Thu Jul 18 14:17:17 EDT 2019
User: cochatt
Spectrometer: HR+D1059
Trigger mode: 1
Integration Time (sec): 1.000000E-1
Scans to average: 1
Electric dark correction enabled: true
Nonlinearity correction enabled: false
Boxcar width: 0
XAxis mode: Wavelengths
Number of Pixels in Spectrum: 2048
>>>>>Begin Spectral Data<<<<<
223.165	-17.25
223.4	-17.25
223.635	-17.25
223.869	-12.25
224.104	-21.25
224.338	-1.25
224.573	-19.25
224.808	-8.25
225.042	-13.25
225.277	-2.25
225.511	-5.25
225.746	3.75
225.98	15.75
226.215	12.75
226.449	19.75
226.683	9.75
226.918	17.75
227.152	20.75
227.387	23.75
227.621	41.75
227.856	37.75
228.09	56.75
228.324	55.75
228.559	52.75
228.793	71.75
229.027	100.75
229.262	108.75
229.496	118.75
229.73	125.75
229.964	144.75
230.199	139.75
230.433	117.75
230.667	107.75
230.901	119.75
231.136	120.75
231.37	107.75
231.604	113.75
231.838	112.75
232.072	116.75
232.306	123.75
232.541	119.75
232.775	117.75
233.009	124.75
233.243	125.75
233.477	123.75
233.711	116.75
233.945	109.75
234.179	112.75
234.413	124.75
234.647	115.75
234.881	117.75
235.115	119.75
235.349	121.75
235.583	128.75
235.817	127.75
236.051	144.75
236.285	117.75
236.519	118.75
236.753	119.75
236.987	142.75
237.221	166.75
237.455	220.75
237.689	184.75
237.922	140.75
238.156	120.75
238.39	143.75
238.624	135.75
238.858	146.75
239.091	132.75
239.325	130.75
239.559	125.75
239.793	125.75
240.027	149.75
240.26	139.75
240.494	139.75
240.728	155.75
240.961	155.75
241.195	135.75
241.429	148.75
241.662	140.75
241.896	128.75
242.13	143.75
242.363	135.75
242.597	135.75
242.83	142.75
243.064	139.75
243.298	159.75
243.531	129.75
243.765	165.75
243.998	159.75
244.232	159.75
244.465	148.75
244.699	150.75
244.932	153.75
245.166	161.75
245.399	160.75
245.633	148.75
245.866	158.75
246.099	143.75
246.333	144.75
246.566	149.75
246.8	150.75
247.033	152.75
247.266	157.75
247.5	157.75
247.733	175.75
247.966	167.75
248.2	172.75
248.433	174.75
248.666	182.75
248.899	161.75
249.133	203.75
249.366	217.75
249.599	191.75
249.832	191.75
250.066	199.75
250.299	198.75
250.532	196.75
250.765	209.75
250.998	218.75
251.231	214.75
251.465	223.75
251.698	202.75
251.931	187.75
252.164	201.75
252.397	208.75
252.63	209.75
252.863	194.75
253.096	207.75
253.329	228.75
253.562	229.75
253.795	218.75
254.028	229.75
254.261	200.75
254.494	232.75
254.727	244.75
254.96	296.75
255.193	255.75
255.426	241.75
255.659	227.75
255.892	216.75
256.124	230.75
256.357	234.75
256.59	221.75
256.823	216.75
257.056	205.75
257.289	209.75
257.521	219.75
257.754	212.75
257.987	208.75
258.22	208.75
258.452	198.75
258.685	198.75
258.918	212.75
259.151	209.75
259.383	225.75
259.616	221.75
259.849	226.75
260.081	232.75
260.314	233.75
260.547	238.75
260.779	262.75
261.012	235.75
261.244	203.75
261.477	212.75
261.71	215.75
261.942	220.75
262.175	223.75
262.407	218.75
262.64	216.75
262.872	206.75
263.105	196.75
263.337	211.75
263.57	202.75
263.802	208.75
264.035	189.75
264.267	207.75
264.499	220.75
264.732	218.75
264.964	209.75
265.197	204.75
265.429	207.75
265.661	213.75
265.894	193.75
266.126	211.75
266.358	220.75
266.591	232.75
266.823	227.75
267.055	247.75
267.287	222.75
267.52	209.75
267.752	232.75
267.984	209.75
268.216	216.75
268.448	248.75
268.681	243.75
268.913	239.75
269.145	261.75
269.377	281.75
269.609	268.75
269.841	259.75
270.073	254.75
270.306	282.75
270.538	312.75
270.77	296.75
271.002	292.75
271.234	289.75
271.466	281.75
271.698	318.75
271.93	298.75
272.162	315.75
272.394	301.75
272.626	283.75
272.858	278.75
273.09	263.75
273.322	268.75
273.553	257.75
273.785	258.75
274.017	251.75
274.249	261.75
274.481	275.75
274.713	260.75
274.945	254.75
275.176	277.75
275.408	256.75
275.64	257.75
275.872	260.75
276.104	279.75
276.335	259.75
276.567	289.75
276.799	268.75
277.031	297.75
277.262	330.75
277.494	299.75
277.726	285.75
277.957	291.75
278.189	277.75
278.421	274.75
278.652	279.75
278.884	266.75
279.115	259.75
279.347	269.75
279.579	259.75
279.81	267.75
280.042	266.75
280.273	254.75
280.505	268.75
280.736	250.75
280.968	272.75
281.199	254.75
281.431	285.75
281.662	269.75
281.894	284.75
282.125	292.75
282.356	305.75
282.588	303.75
282.819	300.75
283.051	283.75
283.282	277.75
283.513	270.75
283.745	280.75
283.976	265.75
284.207	283.75
284.439	276.75
284.67	279.75
284.901	293.75
285.132	291.75
285.364	292.75
285.595	294.75
285.826	284.75
286.057	274.75
286.288	298.75
286.52	277.75
286.751	278.75
286.982	284.75
287.213	277.75
287.444	290.75
287.675	291.75
287.906	286.75
288.138	303.75
288.369	299.75
288.6	304.75
288.831	311.75
289.062	283.75
289.293	292.75
289.524	296.75
289.755	281.75
289.986	307.75
290.217	279.75
290.448	281.75
290.679	301.75
290.91	294.75
291.141	292.75
291.371	300.75
291.602	278.75
291.833	310.75
292.064	270.75
292.295	283.75
292.526	298.75
292.757	292.75
292.987	291.75
293.218	295.75
293.449	298.75
293.68	300.75
293.91	287.75
294.141	297.75
294.372	286.75
294.603	302.75
294.833	302.75
295.064	281.75
295.295	289.75
295.525	287.75
295.756	307.75
295.987	313.75
296.217	317.75
296.448	336.75
296.679	315.75
296.909	304.75
297.14	302.75
297.37	314.75
297.601	299.75
297.831	311.75
298.062	309.75
298.292	302.75
298.523	299.75
298.753	310.75
298.984	303.75
299.214	314.75
299.445	324.75
299.675	307.75
299.905	320.75
300.136	317.75
300.366	301.75
300.597	326.75
300.827	314.75
301.057	341.75
301.288	327.75
301.518	329.75
301.748	332.75
301.979	325.75
302.209	324.75
302.439	332.75
302.669	330.75
302.9	320.75
303.13	320.75
303.36	351.75
303.59	336.75
303.82	336.75
304.051	331.75
304.281	334.75
304.511	335.75
304.741	330.75
304.971	336.75
305.201	329.75
305.431	347.75
305.661	330.75
305.891	335.75
306.121	324.75
306.352	317.75
306.582	324.75
306.812	321.75
307.042	348.75
307.272	327.75
307.502	329.75
307.731	330.75
307.961	338.75
308.191	343.75
308.421	342.75
308.651	349.75
308.881	341.75
309.111	343.75
309.341	333.75
309.571	353.75
309.8	364.75
310.03	368.75
310.26	359.75
310.49	364.75
310.72	391.75
310.949	374.75
311.179	391.75
311.409	365.75
311.639	357.75
311.868	380.75
312.098	364.75
312.328	364.75
312.557	388.75
312.787	386.75
313.017	403.75
313.246	384.75
313.476	383.75
313.706	384.75
313.935	366.75
314.165	382.75
314.394	407.75
314.624	399.75
314.853	364.75
315.083	382.75
315.312	387.75
315.542	387.75
315.771	364.75
316.001	376.75
316.23	389.75
316.46	372.75
316.689	377.75
316.919	379.75
317.148	400.75
317.377	388.75
317.607	389.75
317.836	377.75
318.065	390.75
318.295	355.75
318.524	372.75
318.753	374.75
318.983	385.75
319.212	394.75
319.441	399.75
319.67	391.75
319.9	390.75
320.129	386.75
320.358	387.75
320.587	374.75
320.816	406.75
321.046	375.75
321.275	394.75
321.504	388.75
321.733	402.75
321.962	408.75
322.191	407.75
322.42	410.75
322.649	415.75
322.878	440.75
323.108	430.75
323.337	453.75
323.566	471.75
323.795	531.75
324.024	529.75
324.253	609.75
324.482	878.75
324.71	1357.75
324.939	2012.75
325.168	1773.75
325.397	902.75
325.626	579.75
325.855	499.75
326.084	504.75
326.313	475.75
326.542	475.75
326.77	511.75
326.999	596.75
327.228	800.75
327.457	1239.75
327.686	1503.75
327.914	998.75
328.143	671.75
328.372	577.75
328.6	538.75
328.829	537.75
329.058	544.75
329.287	573.75
329.515	509.75
329.744	486.75
329.972	472.75
330.201	499.75
330.43	540.75
330.658	551.75
330.887	558.75
331.115	541.75
331.344	523.75
331.572	475.75
331.801	464.75
332.03	459.75
332.258	465.75
332.486	472.75
332.715	441.75
332.943	448.75
333.172	463.75
333.4	457.75
333.629	474.75
333.857	485.75
334.085	488.75
334.314	508.75
334.542	543.75
334.771	550.75
334.999	482.75
335.227	488.75
335.455	480.75
335.684	460.75
335.912	458.75
336.14	447.75
336.369	441.75
336.597	444.75
336.825	459.75
337.053	442.75
337.281	440.75
337.51	449.75
337.738	455.75
337.966	441.75
338.194	450.75
338.422	454.75
338.65	439.75
338.878	425.75
339.106	443.75
339.334	425.75
339.562	436.75
339.79	435.75
340.018	421.75
340.246	433.75
340.474	451.75
340.702	435.75
340.93	438.75
341.158	437.75
341.386	450.75
341.614	437.75
341.842	444.75
342.07	422.75
342.298	416.75
342.526	423.75
342.754	430.75
342.981	423.75
343.209	433.75
343.437	436.75
343.665	453.75
343.893	466.75
344.12	460.75
344.348	452.75
344.576	455.75
344.804	444.75
345.031	443.75
345.259	456.75
345.487	452.75
345.714	439.75
345.942	439.75
346.17	447.75
346.397	427.75
346.625	425.75
346.853	431.75
347.08	441.75
347.308	435.75
347.535	422.75
347.763	455.75
347.99	431.75
348.218	418.75
348.445	439.75
348.673	439.75
348.9	443.75
349.128	454.75
349.355	412.75
349.583	422.75
349.81	419.75
350.037	411.75
350.265	423.75
350.492	425.75
350.72	423.75
350.947	429.75
351.174	428.75
351.402	440.75
351.629	424.75
351.856	439.75
352.083	433.75
352.311	432.75
352.538	427.75
352.765	414.75
352.992	431.75
353.22	437.75
353.447	429.75
353.674	412.75
353.901	399.75
354.128	402.75
354.355	406.75
354.583	424.75
354.81	409.75
355.037	415.75
355.264	385.75
355.491	396.75
355.718	413.75
355.945	413.75
356.172	406.75
356.399	406.75
356.626	396.75
356.853	408.75
357.08	390.75
357.307	393.75
357.534	386.75
357.761	414.75
357.988	401.75
358.215	406.75
358.441	405.75
358.668	402.75
358.895	408.75
359.122	415.75
359.349	420.75
359.576	411.75
359.802	435.75
360.029	452.75
360.256	459.75
360.483	451.75
360.709	443.75
360.936	440.75
361.163	439.75
361.39	417.75
361.616	449.75
361.843	433.75
362.07	426.75
362.296	427.75
362.523	448.75
362.749	429.75
362.976	411.75
363.203	403.75
363.429	415.75
363.656	410.75
363.882	414.75
364.109	413.75
364.335	421.75
364.562	413.75
364.788	404.75
365.015	439.75
365.241	413.75
365.468	426.75
365.694	404.75
365.92	453.75
366.147	420.75
366.373	423.75
366.599	420.75
366.826	434.75
367.052	407.75
367.278	408.75
367.505	420.75
367.731	431.75
367.957	435.75
368.184	437.75
368.41	444.75
368.636	421.75
368.862	431.75
369.089	444.75
369.315	404.75
369.541	428.75
369.767	422.75
369.993	435.75
370.219	416.75
370.445	418.75
370.672	431.75
370.898	427.75
371.124	445.75
371.35	425.75
371.576	427.75
371.802	430.75
372.028	428.75
372.254	431.75
372.48	443.75
372.706	437.75
372.932	426.75
373.158	438.75
373.384	437.75
373.61	420.75
373.835	429.75
374.061	413.75
374.287	438.75
374.513	401.75
374.739	440.75
374.965	435.75
375.191	452.75
375.416	444.75
375.642	432.75
375.868	425.75
376.094	455.75
376.319	404.75
376.545	426.75
376.771	435.75
376.997	427.75
377.222	427.75
377.448	417.75
377.674	425.75
377.899	420.75
378.125	423.75
378.35	435.75
378.576	434.75
378.802	419.75
379.027	439.75
379.253	431.75
379.478	416.75
379.704	424.75
379.929	450.75
380.155	433.75
380.38	425.75
380.606	439.75
380.831	431.75
381.057	449.75
381.282	452.75
381.507	437.75
381.733	451.75
381.958	443.75
382.184	439.75
382.409	439.75
382.634	437.75
382.86	454.75
383.085	451.75
383.31	433.75
383.535	443.75
383.761	456.75
383.986	452.75
384.211	456.75
384.436	468.75
384.662	461.75
384.887	469.75
385.112	455.75
385.337	474.75
385.562	479.75
385.787	466.75
386.013	487.75
386.238	478.75
386.463	500.75
386.688	504.75
386.913	466.75
387.138	472.75
387.363	472.75
387.588	481.75
387.813	482.75
388.038	480.75
388.263	486.75
388.488	491.75
388.713	468.75
388.938	500.75
389.163	470.75
389.387	479.75
389.612	483.75
389.837	475.75
390.062	460.75
390.287	490.75
390.512	462.75
390.736	476.75
390.961	467.75
391.186	500.75
391.411	462.75
391.636	488.75
391.86	504.75
392.085	507.75
392.31	494.75
392.534	510.75
392.759	506.75
392.984	485.75
393.208	507.75
393.433	506.75
393.658	503.75
393.882	503.75
394.107	494.75
394.331	488.75
394.556	480.75
394.78	483.75
395.005	514.75
395.229	491.75
395.454	506.75
395.678	502.75
395.903	521.75
396.127	532.75
396.352	529.75
396.576	527.75
396.801	521.75
397.025	526.75
397.249	535.75
397.474	517.75
397.698	524.75
397.922	522.75
398.147	542.75
398.371	561.75
398.595	544.75
398.82	564.75
399.044	572.75
399.268	588.75
399.492	612.75
399.717	645.75
399.941	688.75
400.165	704.75
400.389	699.75
400.613	637.75
400.837	600.75
401.062	577.75
401.286	554.75
401.51	552.75
401.734	548.75
401.958	559.75
402.182	560.75
402.406	577.75
402.63	564.75
402.854	587.75
403.078	551.75
403.302	580.75
403.526	576.75
403.75	579.75
403.974	577.75
404.198	581.75
404.422	600.75
404.645	589.75
404.869	603.75
405.093	627.75
405.317	637.75
405.541	711.75
405.765	647.75
405.988	620.75
406.212	615.75
406.436	631.75
406.66	627.75
406.883	619.75
407.107	664.75
407.331	700.75
407.555	769.75
407.778	771.75
408.002	706.75
408.226	640.75
408.449	671.75
408.673	627.75
408.896	690.75
409.12	689.75
409.344	669.75
409.567	635.75
409.791	615.75
410.014	577.75
410.238	600.75
410.461	588.75
410.685	591.75
410.908	603.75
411.132	655.75
411.355	673.75
411.578	626.75
411.802	581.75
412.025	589.75
412.249	591.75
412.472	639.75
412.695	661.75
412.919	634.75
413.142	577.75
413.365	574.75
413.589	578.75
413.812	579.75
414.035	589.75
414.258	558.75
414.482	569.75
414.705	545.75
414.928	551.75
415.151	539.75
415.374	546.75
415.597	551.75
415.821	559.75
416.044	555.75
416.267	563.75
416.49	533.75
416.713	530.75
416.936	560.75
417.159	549.75
417.382	558.75
417.605	552.75
417.828	571.75
418.051	577.75
418.274	564.75
418.497	556.75
418.72	544.75
418.943	554.75
419.166	548.75
419.389	591.75
419.611	603.75
419.834	592.75
420.057	586.75
420.28	590.75
420.503	586.75
420.726	578.75
420.948	573.75
421.171	619.75
421.394	652.75
421.617	583.75
421.839	570.75
422.062	585.75
422.285	595.75
422.507	633.75
422.73	726.75
422.953	695.75
423.175	594.75
423.398	588.75
423.621	597.75
423.843	638.75
424.066	603.75
424.288	619.75
424.511	620.75
424.733	675.75
424.956	796.75
425.178	752.75
425.401	728.75
425.623	745.75
425.846	661.75
426.068	597.75
426.291	583.75
426.513	603.75
426.735	613.75
426.958	643.75
427.18	718.75
427.402	889.75
427.625	983.75
427.847	825.75
428.069	706.75
428.292	650.75
428.514	593.75
428.736	596.75
428.958	574.75
429.181	569.75
429.403	556.75
429.625	575.75
429.847	597.75
430.069	661.75
430.292	665.75
430.514	575.75
430.736	575.75
430.958	572.75
431.18	545.75
431.402	571.75
431.624	526.75
431.846	513.75
432.068	529.75
432.29	573.75
432.512	554.75
432.734	547.75
432.956	537.75
433.178	570.75
433.4	555.75
433.622	541.75
433.844	581.75
434.066	535.75
434.287	536.75
434.509	536.75
434.731	533.75
434.953	568.75
435.175	571.75
435.397	583.75
435.618	625.75
435.84	638.75
436.062	755.75
436.284	815.75
436.505	694.75
436.727	597.75
436.949	581.75
437.17	588.75
437.392	577.75
437.614	556.75
437.835	643.75
438.057	706.75
438.278	811.75
438.5	816.75
438.721	908.75
438.943	867.75
439.165	674.75
439.386	622.75
439.608	602.75
439.829	601.75
440.05	633.75
440.272	716.75
440.493	657.75
440.715	585.75
440.936	588.75
441.158	564.75
441.379	558.75
441.6	593.75
441.822	624.75
442.043	639.75
442.264	732.75
442.486	780.75
442.707	680.75
442.928	647.75
443.149	636.75
443.371	661.75
443.592	699.75
443.813	794.75
444.034	857.75
444.255	704.75
444.476	655.75
444.698	639.75
444.919	614.75
445.14	731.75
445.361	674.75
445.582	674.75
445.803	720.75
446.024	810.75
446.245	834.75
446.466	764.75
446.687	643.75
446.908	601.75
447.129	593.75
447.35	558.75
447.571	557.75
447.792	520.75
448.013	565.75
448.234	583.75
448.455	627.75
448.675	769.75
448.896	868.75
449.117	739.75
449.338	718.75
449.559	803.75
449.779	919.75
450	707.75
450.221	599.75
450.442	583.75
450.662	560.75
450.883	575.75
451.104	564.75
451.324	548.75
451.545	535.75
451.766	539.75
451.986	522.75
452.207	502.75
452.428	491.75
452.648	512.75
452.869	524.75
453.089	506.75
453.31	503.75
453.53	514.75
453.751	508.75
453.971	511.75
454.192	535.75
454.412	509.75
454.633	487.75
454.853	505.75
455.073	484.75
455.294	523.75
455.514	614.75
455.734	593.75
455.955	483.75
456.175	484.75
456.395	464.75
456.616	456.75
456.836	502.75
457.056	489.75
457.276	470.75
457.497	477.75
457.717	490.75
457.937	464.75
458.157	477.75
458.377	508.75
458.598	509.75
458.818	565.75
459.038	629.75
459.258	661.75
459.478	569.75
459.698	563.75
459.918	546.75
460.138	551.75
460.358	532.75
460.578	559.75
460.798	558.75
461.018	579.75
461.238	549.75
461.458	560.75
461.678	565.75
461.898	571.75
462.118	565.75
462.338	560.75
462.558	577.75
462.777	598.75
462.997	612.75
463.217	632.75
463.437	631.75
463.657	608.75
463.876	587.75
464.096	615.75
464.316	584.75
464.536	619.75
464.755	614.75
464.975	589.75
465.195	638.75
465.414	683.75
465.634	620.75
465.854	572.75
466.073	571.75
466.293	540.75
466.512	493.75
466.732	523.75
466.951	529.75
467.171	526.75
467.391	533.75
467.61	525.75
467.829	546.75
468.049	518.75
468.268	532.75
468.488	515.75
468.707	525.75
468.927	514.75
469.146	506.75
469.365	520.75
469.585	518.75
469.804	501.75
470.023	542.75
470.243	539.75
470.462	512.75
470.681	544.75
470.901	554.75
471.12	541.75
471.339	528.75
471.558	543.75
471.777	516.75
471.997	522.75
472.216	553.75
472.435	580.75
472.654	551.75
472.873	507.75
473.092	518.75
473.311	525.75
473.53	525.75
473.749	534.75
473.968	561.75
474.187	685.75
474.406	697.75
474.625	564.75
474.844	561.75
475.063	531.75
475.282	554.75
475.501	528.75
475.72	525.75
475.939	555.75
476.158	568.75
476.377	538.75
476.596	555.75
476.814	554.75
477.033	563.75
477.252	565.75
477.471	569.75
477.69	574.75
477.908	592.75
478.127	587.75
478.346	575.75
478.564	593.75
478.783	599.75
479.002	631.75
479.22	640.75
479.439	624.75
479.658	622.75
479.876	637.75
480.095	631.75
480.313	687.75
480.532	687.75
480.751	656.75
480.969	678.75
481.188	716.75
481.406	725.75
481.624	693.75
481.843	648.75
482.061	631.75
482.28	645.75
482.498	642.75
482.717	646.75
482.935	632.75
483.153	630.75
483.372	617.75
483.59	632.75
483.808	637.75
484.027	625.75
484.245	648.75
484.463	649.75
484.681	648.75
484.9	652.75
485.118	641.75
485.336	659.75
485.554	644.75
485.772	645.75
485.99	660.75
486.209	665.75
486.427	653.75
486.645	672.75
486.863	664.75
487.081	673.75
487.299	681.75
487.517	685.75
487.735	657.75
487.953	658.75
488.171	667.75
488.389	667.75
488.607	660.75
488.825	681.75
489.043	650.75
489.261	678.75
489.479	662.75
489.696	713.75
489.914	721.75
490.132	687.75
490.35	686.75
490.568	681.75
490.786	705.75
491.003	705.75
491.221	718.75
491.439	771.75
491.657	755.75
491.874	760.75
492.092	764.75
492.31	780.75
492.527	760.75
492.745	788.75
492.963	768.75
493.18	773.75
493.398	805.75
493.615	783.75
493.833	785.75
494.05	785.75
494.268	793.75
494.485	800.75
494.703	784.75
494.92	801.75
495.138	786.75
495.355	761.75
495.573	801.75
495.79	793.75
496.008	802.75
496.225	805.75
496.442	790.75
496.66	805.75
496.877	812.75
497.094	777.75
497.312	812.75
497.529	809.75
497.746	840.75
497.963	849.75
498.181	866.75
498.398	883.75
498.615	883.75
498.832	923.75
499.049	942.75
499.267	970.75
499.484	965.75
499.701	999.75
499.918	1063.75
500.135	1099.75
500.352	1164.75
500.569	1199.75
500.786	1183.75
501.003	1180.75
501.22	1147.75
501.437	1102.75
501.654	1075.75
501.871	1029.75
502.088	1005.75
502.305	965.75
502.522	922.75
502.739	904.75
502.956	874.75
503.172	861.75
503.389	847.75
503.606	858.75
503.823	839.75
504.04	822.75
504.256	829.75
504.473	817.75
504.69	814.75
504.907	825.75
505.123	782.75
505.34	771.75
505.557	767.75
505.773	795.75
505.99	758.75
506.207	773.75
506.423	743.75
506.64	784.75
506.856	735.75
507.073	740.75
507.289	742.75
507.506	719.75
507.722	741.75
507.939	765.75
508.155	723.75
508.372	719.75
508.588	718.75
508.805	713.75
509.021	729.75
509.238	740.75
509.454	733.75
509.67	722.75
509.887	729.75
510.103	683.75
510.319	719.75
510.536	781.75
510.752	1183.75
510.968	1007.75
511.184	741.75
511.401	712.75
511.617	717.75
511.833	680.75
512.049	682.75
512.265	654.75
512.481	688.75
512.698	660.75
512.914	669.75
513.13	656.75
513.346	662.75
513.562	656.75
513.778	669.75
513.994	667.75
514.21	702.75
514.426	683.75
514.642	752.75
514.858	755.75
515.074	758.75
515.29	891.75
515.506	1199.75
515.721	1041.75
515.937	774.75
516.153	717.75
516.369	698.75
516.585	719.75
516.801	714.75
517.016	700.75
517.232	707.75
517.448	704.75
517.664	713.75
517.879	695.75
518.095	718.75
518.311	679.75
518.527	693.75
518.742	683.75
518.958	683.75
519.173	703.75
519.389	682.75
519.605	661.75
519.82	653.75
520.036	662.75
520.251	682.75
520.467	710.75
520.682	697.75
520.898	692.75
521.113	723.75
521.329	778.75
521.544	841.75
521.76	987.75
521.975	1516.75
522.19	1516.75
522.406	922.75
522.621	735.75
522.836	663.75
523.052	656.75
523.267	630.75
523.482	627.75
523.698	603.75
523.913	614.75
524.128	604.75
524.343	581.75
524.559	591.75
524.774	600.75
524.989	583.75
525.204	585.75
525.419	608.75
525.634	577.75
525.849	559.75
526.064	593.75
526.28	583.75
526.495	569.75
526.71	552.75
526.925	589.75
527.14	553.75
527.355	561.75
527.57	564.75
527.785	545.75
527.999	542.75
528.214	567.75
528.429	560.75
528.644	581.75
528.859	593.75
529.074	589.75
529.289	607.75
529.503	640.75
529.718	634.75
529.933	587.75
530.148	559.75
530.363	554.75
530.577	569.75
530.792	549.75
531.007	533.75
531.221	561.75
531.436	544.75
531.651	556.75
531.865	530.75
532.08	531.75
532.295	559.75
532.509	544.75
532.724	547.75
532.938	566.75
533.153	542.75
533.367	533.75
533.582	526.75
533.796	527.75
534.011	545.75
534.225	545.75
534.44	527.75
534.654	541.75
534.868	543.75
535.083	554.75
535.297	525.75
535.511	537.75
535.726	530.75
535.94	547.75
536.154	511.75
536.369	540.75
536.583	524.75
536.797	527.75
537.011	510.75
537.225	524.75
537.44	523.75
537.654	530.75
537.868	508.75
538.082	509.75
538.296	496.75
538.51	507.75
538.724	525.75
538.938	519.75
539.153	530.75
539.367	539.75
539.581	516.75
539.795	511.75
540.009	505.75
540.222	532.75
540.436	522.75
540.65	509.75
540.864	533.75
541.078	502.75
541.292	524.75
541.506	531.75
541.72	507.75
541.934	503.75
542.147	526.75
542.361	519.75
542.575	509.75
542.789	522.75
543.002	491.75
543.216	527.75
543.43	543.75
543.644	514.75
543.857	527.75
544.071	513.75
544.285	521.75
544.498	488.75
544.712	504.75
544.925	496.75
545.139	504.75
545.352	511.75
545.566	508.75
545.779	489.75
545.993	504.75
546.206	511.75
546.42	510.75
546.633	497.75
546.847	517.75
547.06	487.75
547.274	509.75
547.487	494.75
547.7	472.75
547.914	496.75
548.127	492.75
548.34	483.75
548.554	511.75
548.767	504.75
548.98	522.75
549.193	499.75
549.407	502.75
549.62	517.75
549.833	520.75
550.046	509.75
550.259	482.75
550.473	496.75
550.686	492.75
550.899	507.75
551.112	478.75
551.325	481.75
551.538	513.75
551.751	490.75
551.964	487.75
552.177	501.75
552.39	492.75
552.603	500.75
552.816	513.75
553.029	523.75
553.242	505.75
553.455	504.75
553.667	519.75
553.88	521.75
554.093	514.75
554.306	514.75
554.519	505.75
554.732	500.75
554.944	481.75
555.157	481.75
555.37	476.75
555.583	473.75
555.795	474.75
556.008	457.75
556.221	453.75
556.433	454.75
556.646	447.75
556.859	431.75
557.071	449.75
557.284	435.75
557.496	459.75
557.709	444.75
557.921	449.75
558.134	437.75
558.346	418.75
558.559	437.75
558.771	445.75
558.984	463.75
559.196	426.75
559.409	447.75
559.621	427.75
559.833	451.75
560.046	444.75
560.258	448.75
560.47	421.75
560.683	443.75
560.895	452.75
561.107	446.75
561.32	432.75
561.532	447.75
561.744	443.75
561.956	439.75
562.168	457.75
562.381	437.75
562.593	437.75
562.805	439.75
563.017	441.75
563.229	449.75
563.441	450.75
563.653	447.75
563.865	471.75
564.077	430.75
564.289	451.75
564.501	475.75
564.713	456.75
564.925	469.75
565.137	489.75
565.349	450.75
565.561	480.75
565.773	503.75
565.985	506.75
566.197	540.75
566.408	514.75
566.62	545.75
566.832	576.75
567.044	548.75
567.255	545.75
567.467	564.75
567.679	595.75
567.891	607.75
568.102	601.75
568.314	576.75
568.526	561.75
568.737	533.75
568.949	523.75
569.161	489.75
569.372	471.75
569.584	476.75
569.795	455.75
570.007	464.75
570.218	492.75
570.43	482.75
570.641	454.75
570.853	445.75
571.064	445.75
571.276	436.75
571.487	425.75
571.698	421.75
571.91	426.75
572.121	413.75
572.333	418.75
572.544	409.75
572.755	414.75
572.966	401.75
573.178	422.75
573.389	391.75
573.6	412.75
573.811	414.75
574.023	393.75
574.234	373.75
574.445	384.75
574.656	391.75
574.867	397.75
575.078	387.75
575.289	387.75
575.501	349.75
575.712	379.75
575.923	383.75
576.134	390.75
576.345	374.75
576.556	363.75
576.767	334.75
576.978	351.75
577.188	369.75
577.399	372.75
577.61	362.75
577.821	371.75
578.032	365.75
578.243	379.75
578.454	577.75
578.665	438.75
578.875	374.75
579.086	359.75
579.297	339.75
579.508	349.75
579.718	368.75
579.929	355.75
580.14	353.75
580.35	365.75
580.561	336.75
580.772	348.75
580.982	347.75
581.193	347.75
581.403	342.75
581.614	340.75
581.825	348.75
582.035	354.75
582.246	349.75
582.456	342.75
582.667	357.75
582.877	339.75
583.087	353.75
583.298	363.75
583.508	328.75
583.719	333.75
583.929	367.75
584.139	349.75
584.35	339.75
584.56	340.75
584.77	362.75
584.981	348.75
585.191	340.75
585.401	336.75
585.611	331.75
585.821	328.75
586.032	343.75
586.242	335.75
586.452	317.75
586.662	316.75
586.872	324.75
587.082	342.75
587.292	333.75
587.502	342.75
587.713	338.75
587.923	331.75
588.133	347.75
588.343	335.75
588.553	340.75
588.762	341.75
588.972	330.75
589.182	355.75
589.392	361.75
589.602	342.75
589.812	335.75
590.022	359.75
590.232	334.75
590.441	361.75
590.651	340.75
590.861	340.75
591.071	335.75
591.281	337.75
591.49	341.75
591.7	324.75
591.91	340.75
592.119	345.75
592.329	333.75
592.539	366.75
592.748	360.75
592.958	350.75
593.167	345.75
593.377	354.75
593.587	380.75
593.796	362.75
594.006	352.75
594.215	345.75
594.424	364.75
594.634	361.75
594.843	357.75
595.053	373.75
595.262	354.75
595.472	345.75
595.681	328.75
595.89	344.75
596.1	331.75
596.309	336.75
596.518	320.75
596.727	325.75
596.937	325.75
597.146	335.75
597.355	324.75
597.564	314.75
597.774	304.75
597.983	296.75
598.192	292.75
598.401	304.75
598.61	309.75
598.819	326.75
599.028	274.75
599.237	301.75
599.446	310.75
599.655	297.75
599.864	311.75
600.073	300.75
600.282	311.75
600.491	308.75
600.7	276.75
600.909	302.75
601.118	303.75
601.327	303.75
601.536	285.75
601.745	291.75
601.953	308.75
602.162	304.75
602.371	279.75
602.58	269.75
602.789	273.75
602.997	274.75
603.206	283.75
603.415	295.75
603.623	295.75
603.832	294.75
604.041	287.75
604.249	287.75
604.458	269.75
604.666	292.75
604.875	281.75
605.084	280.75
605.292	287.75
605.501	283.75
605.709	304.75
605.918	275.75
606.126	288.75
606.334	283.75
606.543	276.75
606.751	293.75
606.96	290.75
607.168	269.75
607.376	293.75
607.585	286.75
607.793	271.75
608.001	269.75
608.21	280.75
608.418	265.75
608.626	285.75
608.834	290.75
609.043	286.75
609.251	267.75
609.459	260.75
609.667	279.75
609.875	290.75
610.083	281.75
610.291	277.75
610.499	278.75
610.707	285.75
610.916	269.75
611.124	269.75
611.332	292.75
611.54	268.75
611.748	271.75
611.955	279.75
612.163	254.75
612.371	259.75
612.579	265.75
612.787	272.75
612.995	276.75
613.203	262.75
613.411	263.75
613.618	259.75
613.826	271.75
614.034	251.75
614.242	265.75
614.449	257.75
614.657	261.75
614.865	251.75
615.072	263.75
615.28	277.75
615.488	238.75
615.695	264.75
615.903	241.75
616.111	269.75
616.318	276.75
616.526	254.75
616.733	269.75
616.941	256.75
617.148	258.75
617.356	262.75
617.563	268.75
617.771	275.75
617.978	259.75
618.185	250.75
618.393	252.75
618.6	255.75
618.807	259.75
619.015	263.75
619.222	268.75
619.429	252.75
619.637	254.75
619.844	245.75
620.051	239.75
620.258	267.75
620.466	263.75
620.673	240.75
620.88	247.75
621.087	230.75
621.294	248.75
621.501	243.75
621.708	257.75
621.915	261.75
622.122	231.75
622.329	259.75
622.536	235.75
622.743	253.75
622.95	261.75
623.157	228.75
623.364	259.75
623.571	236.75
623.778	268.75
623.985	256.75
624.192	249.75
624.399	220.75
624.606	237.75
624.812	239.75
625.019	227.75
625.226	214.75
625.433	236.75
625.639	232.75
625.846	245.75
626.053	223.75
626.259	216.75
626.466	240.75
626.673	220.75
626.879	229.75
627.086	243.75
627.293	225.75
627.499	231.75
627.706	235.75
627.912	236.75
628.119	239.75
628.325	241.75
628.532	218.75
628.738	208.75
628.945	217.75
629.151	216.75
629.357	241.75
629.564	227.75
629.77	218.75
629.976	221.75
630.183	224.75
630.389	218.75
630.595	220.75
630.802	220.75
631.008	204.75
631.214	220.75
631.42	209.75
631.627	223.75
631.833	216.75
632.039	216.75
632.245	204.75
632.451	207.75
632.657	216.75
632.863	229.75
633.069	209.75
633.275	202.75
633.481	215.75
633.688	217.75
633.893	215.75
634.099	193.75
634.305	197.75
634.511	198.75
634.717	209.75
634.923	206.75
635.129	195.75
635.335	215.75
635.541	208.75
635.747	189.75
635.952	203.75
636.158	188.75
636.364	198.75
636.57	224.75
636.775	215.75
636.981	200.75
637.187	194.75
637.392	191.75
637.598	196.75
637.804	192.75
638.009	207.75
638.215	214.75
638.421	191.75
638.626	191.75
638.832	197.75
639.037	202.75
639.243	187.75
639.448	185.75
639.654	188.75
639.859	199.75
640.065	203.75
640.27	198.75
640.475	190.75
640.681	202.75
640.886	205.75
641.091	189.75
641.297	200.75
641.502	181.75
641.707	185.75
641.913	184.75
642.118	188.75
642.323	192.75
642.528	179.75
642.733	189.75
642.939	196.75
643.144	179.75
643.349	181.75
643.554	176.75
643.759	197.75
643.964	175.75
644.169	190.75
644.374	172.75
644.579	179.75
644.784	179.75
644.989	169.75
645.194	178.75
645.399	152.75
645.604	188.75
645.809	174.75
646.014	198.75
646.219	189.75
646.423	193.75
646.628	164.75
646.833	167.75
647.038	183.75
647.243	180.75
647.447	175.75
647.652	182.75
647.857	197.75
648.062	175.75
648.266	176.75
648.471	191.75
648.676	190.75
648.88	189.75
649.085	184.75
649.289	178.75
649.494	181.75
649.698	201.75
649.903	211.75
650.107	159.75
650.312	191.75
650.516	180.75
650.721	185.75
650.925	176.75
651.13	165.75
651.334	166.75
651.539	160.75
651.743	168.75
651.947	149.75
652.152	157.75
652.356	165.75
652.56	156.75
652.764	153.75
652.969	169.75
653.173	168.75
653.377	153.75
653.581	153.75
653.785	150.75
653.99	144.75
654.194	140.75
654.398	151.75
654.602	128.75
654.806	132.75
655.01	133.75
655.214	166.75
655.418	148.75
655.622	154.75
655.826	143.75
656.03	138.75
656.234	135.75
656.438	156.75
656.642	143.75
656.846	146.75
657.049	151.75
657.253	139.75
657.457	124.75
657.661	128.75
657.865	131.75
658.068	112.75
658.272	108.75
658.476	111.75
658.68	121.75
658.883	125.75
659.087	104.75
659.291	107.75
659.494	109.75
659.698	109.75
659.901	107.75
660.105	95.75
660.309	106.75
660.512	99.75
660.716	108.75
660.919	88.75
661.123	95.75
661.326	85.75
661.53	88.75
661.733	89.75
661.936	88.75
662.14	96.75
662.343	80.75
662.546	79.75
662.75	94.75
662.953	80.75
663.156	98.75
663.36	79.75
663.563	70.75
663.766	77.75
663.969	96.75
664.173	93.75
664.376	98.75
664.579	88.75
664.782	84.75
664.985	77.75
665.188	95.75
665.391	82.75
665.594	89.75
665.797	82.75
666	78.75
666.203	88.75
666.406	83.75
666.609	70.75
666.812	89.75
667.015	78.75
667.218	89.75
667.421	88.75
667.624	74.75
667.827	87.75
668.03	88.75
668.232	89.75
668.435	80.75
668.638	97.75
668.841	93.75
669.043	69.75
669.246	63.75
669.449	84.75
669.651	80.75
669.854	77.75
670.057	81.75
670.259	88.75
670.462	85.75
670.665	91.75
670.867	85.75
671.07	83.75
671.272	89.75
671.475	87.75
671.677	91.75
671.88	78.75
672.082	82.75
672.284	90.75
672.487	84.75
672.689	84.75
672.892	84.75
