Data from 1966.PennyLincolnUp.Lamp.En5.5.200Scan.071719.P1.Scan2.head_HRD10591_14-19-27-269.txt Node
Date: Thu Jul 18 14:19:27 EDT 2019
User: cochatt
Spectrometer: HR+D1059
Trigger mode: 1
Integration Time (sec): 1.000000E-1
Scans to average: 1
Electric dark correction enabled: true
Nonlinearity correction enabled: false
Boxcar width: 0
XAxis mode: Wavelengths
Number of Pixels in Spectrum: 2048
>>>>>Begin Spectral Data<<<<<
223.165	-17.94
223.4	-17.94
223.635	-17.94
223.869	-17.94
224.104	-22.94
224.338	-20.94
224.573	-12.94
224.808	-18.94
225.042	0.06
225.277	-4.94
225.511	1.06
225.746	6.06
225.98	16.06
226.215	14.06
226.449	16.06
226.683	14.06
226.918	17.06
227.152	32.06
227.387	30.06
227.621	47.06
227.856	53.06
228.09	43.06
228.324	62.06
228.559	42.06
228.793	58.06
229.027	97.06
229.262	102.06
229.496	125.06
229.73	140.06
229.964	163.06
230.199	139.06
230.433	127.06
230.667	126.06
230.901	124.06
231.136	106.06
231.37	101.06
231.604	117.06
231.838	113.06
232.072	120.06
232.306	109.06
232.541	123.06
232.775	116.06
233.009	107.06
233.243	127.06
233.477	99.06
233.711	125.06
233.945	131.06
234.179	127.06
234.413	117.06
234.647	117.06
234.881	116.06
235.115	112.06
235.349	122.06
235.583	121.06
235.817	109.06
236.051	135.06
236.285	137.06
236.519	131.06
236.753	143.06
236.987	146.06
237.221	184.06
237.455	253.06
237.689	199.06
237.922	147.06
238.156	136.06
238.39	131.06
238.624	128.06
238.858	137.06
239.091	140.06
239.325	127.06
239.559	127.06
239.793	129.06
240.027	141.06
240.26	151.06
240.494	173.06
240.728	169.06
240.961	156.06
241.195	155.06
241.429	158.06
241.662	141.06
241.896	144.06
242.13	142.06
242.363	150.06
242.597	136.06
242.83	123.06
243.064	135.06
243.298	127.06
243.531	145.06
243.765	157.06
243.998	151.06
244.232	143.06
244.465	157.06
244.699	148.06
244.932	133.06
245.166	153.06
245.399	148.06
245.633	155.06
245.866	144.06
246.099	155.06
246.333	168.06
246.566	161.06
246.8	172.06
247.033	153.06
247.266	164.06
247.5	159.06
247.733	169.06
247.966	191.06
248.2	179.06
248.433	169.06
248.666	171.06
248.899	185.06
249.133	201.06
249.366	220.06
249.599	207.06
249.832	188.06
250.066	190.06
250.299	185.06
250.532	205.06
250.765	236.06
250.998	228.06
251.231	237.06
251.465	233.06
251.698	214.06
251.931	190.06
252.164	212.06
252.397	216.06
252.63	201.06
252.863	218.06
253.096	212.06
253.329	261.06
253.562	233.06
253.795	223.06
254.028	220.06
254.261	230.06
254.494	228.06
254.727	267.06
254.96	313.06
255.193	283.06
255.426	251.06
255.659	232.06
255.892	239.06
256.124	250.06
256.357	249.06
256.59	240.06
256.823	219.06
257.056	223.06
257.289	219.06
257.521	207.06
257.754	217.06
257.987	215.06
258.22	226.06
258.452	200.06
258.685	229.06
258.918	199.06
259.151	224.06
259.383	219.06
259.616	236.06
259.849	233.06
260.081	261.06
260.314	272.06
260.547	277.06
260.779	270.06
261.012	281.06
261.244	233.06
261.477	238.06
261.71	224.06
261.942	236.06
262.175	243.06
262.407	259.06
262.64	215.06
262.872	216.06
263.105	225.06
263.337	213.06
263.57	243.06
263.802	213.06
264.035	212.06
264.267	223.06
264.499	208.06
264.732	221.06
264.964	225.06
265.197	243.06
265.429	209.06
265.661	220.06
265.894	229.06
266.126	216.06
266.358	223.06
266.591	209.06
266.823	224.06
267.055	231.06
267.287	247.06
267.52	251.06
267.752	246.06
267.984	253.06
268.216	245.06
268.448	243.06
268.681	248.06
268.913	266.06
269.145	261.06
269.377	295.06
269.609	281.06
269.841	273.06
270.073	299.06
270.306	321.06
270.538	336.06
270.77	335.06
271.002	312.06
271.234	299.06
271.466	321.06
271.698	325.06
271.93	325.06
272.162	320.06
272.394	342.06
272.626	325.06
272.858	302.06
273.09	288.06
273.322	271.06
273.553	281.06
273.785	288.06
274.017	273.06
274.249	286.06
274.481	277.06
274.713	276.06
274.945	286.06
275.176	284.06
275.408	291.06
275.64	286.06
275.872	283.06
276.104	281.06
276.335	275.06
276.567	294.06
276.799	309.06
277.031	312.06
277.262	340.06
277.494	321.06
277.726	330.06
277.957	315.06
278.189	312.06
278.421	279.06
278.652	271.06
278.884	284.06
279.115	293.06
279.347	279.06
279.579	286.06
279.81	287.06
280.042	284.06
280.273	271.06
280.505	278.06
280.736	290.06
280.968	309.06
281.199	279.06
281.431	285.06
281.662	298.06
281.894	290.06
282.125	295.06
282.356	305.06
282.588	327.06
282.819	331.06
283.051	303.06
283.282	285.06
283.513	288.06
283.745	289.06
283.976	286.06
284.207	304.06
284.439	283.06
284.67	282.06
284.901	315.06
285.132	293.06
285.364	281.06
285.595	296.06
285.826	299.06
286.057	305.06
286.288	293.06
286.52	289.06
286.751	302.06
286.982	300.06
287.213	289.06
287.444	311.06
287.675	305.06
287.906	307.06
288.138	321.06
288.369	324.06
288.6	312.06
288.831	315.06
289.062	309.06
289.293	305.06
289.524	314.06
289.755	305.06
289.986	289.06
290.217	312.06
290.448	302.06
290.679	319.06
290.91	313.06
291.141	310.06
291.371	319.06
291.602	309.06
291.833	307.06
292.064	307.06
292.295	316.06
292.526	311.06
292.757	309.06
292.987	318.06
293.218	303.06
293.449	302.06
293.68	337.06
293.91	313.06
294.141	313.06
294.372	313.06
294.603	321.06
294.833	319.06
295.064	307.06
295.295	300.06
295.525	325.06
295.756	332.06
295.987	323.06
296.217	333.06
296.448	352.06
296.679	312.06
296.909	307.06
297.14	330.06
297.37	302.06
297.601	313.06
297.831	304.06
298.062	311.06
298.292	321.06
298.523	313.06
298.753	331.06
298.984	326.06
299.214	322.06
299.445	320.06
299.675	337.06
299.905	320.06
300.136	333.06
300.366	343.06
300.597	346.06
300.827	332.06
301.057	346.06
301.288	358.06
301.518	366.06
301.748	355.06
301.979	355.06
302.209	361.06
302.439	369.06
302.669	352.06
302.9	345.06
303.13	356.06
303.36	339.06
303.59	343.06
303.82	347.06
304.051	367.06
304.281	364.06
304.511	356.06
304.741	355.06
304.971	345.06
305.201	352.06
305.431	364.06
305.661	340.06
305.891	347.06
306.121	349.06
306.352	366.06
306.582	366.06
306.812	353.06
307.042	359.06
307.272	356.06
307.502	360.06
307.731	348.06
307.961	361.06
308.191	346.06
308.421	363.06
308.651	384.06
308.881	353.06
309.111	368.06
309.341	387.06
309.571	371.06
309.8	368.06
310.03	394.06
310.26	403.06
310.49	379.06
310.72	398.06
310.949	426.06
311.179	430.06
311.409	402.06
311.639	414.06
311.868	391.06
312.098	424.06
312.328	409.06
312.557	419.06
312.787	446.06
313.017	443.06
313.246	421.06
313.476	392.06
313.706	383.06
313.935	412.06
314.165	401.06
314.394	407.06
314.624	423.06
314.853	408.06
315.083	417.06
315.312	410.06
315.542	396.06
315.771	395.06
316.001	372.06
316.23	381.06
316.46	412.06
316.689	405.06
316.919	407.06
317.148	421.06
317.377	414.06
317.607	392.06
317.836	407.06
318.065	408.06
318.295	408.06
318.524	387.06
318.753	397.06
318.983	396.06
319.212	427.06
319.441	419.06
319.67	420.06
319.9	436.06
320.129	411.06
320.358	413.06
320.587	401.06
320.816	416.06
321.046	407.06
321.275	429.06
321.504	426.06
321.733	427.06
321.962	427.06
322.191	456.06
322.42	456.06
322.649	456.06
322.878	464.06
323.108	476.06
323.337	502.06
323.566	506.06
323.795	550.06
324.024	601.06
324.253	694.06
324.482	1005.06
324.71	1631.06
324.939	2388.06
325.168	2081.06
325.397	1031.06
325.626	683.06
325.855	565.06
326.084	540.06
326.313	533.06
326.542	551.06
326.77	559.06
326.999	684.06
327.228	934.06
327.457	1465.06
327.686	1813.06
327.914	1189.06
328.143	737.06
328.372	675.06
328.6	662.06
328.829	589.06
329.058	605.06
329.287	605.06
329.515	592.06
329.744	553.06
329.972	545.06
330.201	563.06
330.43	607.06
330.658	629.06
330.887	639.06
331.115	652.06
331.344	549.06
331.572	516.06
331.801	519.06
332.03	532.06
332.258	501.06
332.486	506.06
332.715	505.06
332.943	463.06
333.172	492.06
333.4	528.06
333.629	518.06
333.857	536.06
334.085	547.06
334.314	576.06
334.542	595.06
334.771	620.06
334.999	556.06
335.227	511.06
335.455	514.06
335.684	486.06
335.912	491.06
336.14	486.06
336.369	483.06
336.597	498.06
336.825	492.06
337.053	494.06
337.281	481.06
337.51	489.06
337.738	477.06
337.966	471.06
338.194	480.06
338.422	504.06
338.65	477.06
338.878	460.06
339.106	471.06
339.334	504.06
339.562	470.06
339.79	469.06
340.018	453.06
340.246	472.06
340.474	474.06
340.702	457.06
340.93	461.06
341.158	469.06
341.386	457.06
341.614	469.06
341.842	467.06
342.07	486.06
342.298	463.06
342.526	460.06
342.754	467.06
342.981	441.06
343.209	457.06
343.437	470.06
343.665	472.06
343.893	465.06
344.12	483.06
344.348	478.06
344.576	483.06
344.804	485.06
345.031	479.06
345.259	487.06
345.487	495.06
345.714	451.06
345.942	464.06
346.17	465.06
346.397	453.06
346.625	439.06
346.853	475.06
347.08	456.06
347.308	455.06
347.535	459.06
347.763	482.06
347.99	486.06
348.218	460.06
348.445	472.06
348.673	457.06
348.9	461.06
349.128	442.06
349.355	438.06
349.583	436.06
349.81	440.06
350.037	438.06
350.265	437.06
350.492	428.06
350.72	432.06
350.947	438.06
351.174	463.06
351.402	471.06
351.629	468.06
351.856	428.06
352.083	461.06
352.311	493.06
352.538	499.06
352.765	464.06
352.992	462.06
353.22	464.06
353.447	459.06
353.674	443.06
353.901	449.06
354.128	446.06
354.355	440.06
354.583	436.06
354.81	431.06
355.037	443.06
355.264	423.06
355.491	432.06
355.718	412.06
355.945	433.06
356.172	437.06
356.399	419.06
356.626	421.06
356.853	430.06
357.08	420.06
357.307	405.06
357.534	427.06
357.761	438.06
357.988	418.06
358.215	428.06
358.441	433.06
358.668	442.06
358.895	427.06
359.122	448.06
359.349	428.06
359.576	460.06
359.802	485.06
360.029	488.06
360.256	525.06
360.483	508.06
360.709	480.06
360.936	461.06
361.163	460.06
361.39	461.06
361.616	449.06
361.843	461.06
362.07	469.06
362.296	470.06
362.523	454.06
362.749	451.06
362.976	464.06
363.203	437.06
363.429	417.06
363.656	438.06
363.882	458.06
364.109	468.06
364.335	462.06
364.562	448.06
364.788	415.06
365.015	438.06
365.241	439.06
365.468	449.06
365.694	453.06
365.92	441.06
366.147	432.06
366.373	451.06
366.599	460.06
366.826	425.06
367.052	426.06
367.278	435.06
367.505	436.06
367.731	451.06
367.957	425.06
368.184	435.06
368.41	457.06
368.636	455.06
368.862	460.06
369.089	439.06
369.315	454.06
369.541	453.06
369.767	448.06
369.993	452.06
370.219	415.06
370.445	457.06
370.672	431.06
370.898	464.06
371.124	443.06
371.35	446.06
371.576	441.06
371.802	443.06
372.028	442.06
372.254	445.06
372.48	451.06
372.706	439.06
372.932	433.06
373.158	470.06
373.384	429.06
373.61	464.06
373.835	451.06
374.061	428.06
374.287	440.06
374.513	466.06
374.739	458.06
374.965	468.06
375.191	464.06
375.416	463.06
375.642	465.06
375.868	450.06
376.094	473.06
376.319	460.06
376.545	446.06
376.771	445.06
376.997	454.06
377.222	448.06
377.448	447.06
377.674	451.06
377.899	437.06
378.125	437.06
378.35	465.06
378.576	461.06
378.802	421.06
379.027	433.06
379.253	441.06
379.478	445.06
379.704	450.06
379.929	445.06
380.155	432.06
380.38	447.06
380.606	461.06
380.831	459.06
381.057	466.06
381.282	454.06
381.507	438.06
381.733	449.06
381.958	445.06
382.184	464.06
382.409	458.06
382.634	487.06
382.86	451.06
383.085	471.06
383.31	448.06
383.535	477.06
383.761	487.06
383.986	473.06
384.211	461.06
384.436	481.06
384.662	494.06
384.887	512.06
385.112	501.06
385.337	476.06
385.562	494.06
385.787	510.06
386.013	509.06
386.238	531.06
386.463	504.06
386.688	520.06
386.913	495.06
387.138	505.06
387.363	513.06
387.588	492.06
387.813	491.06
388.038	477.06
388.263	484.06
388.488	497.06
388.713	512.06
388.938	496.06
389.163	502.06
389.387	526.06
389.612	523.06
389.837	486.06
390.062	494.06
390.287	511.06
390.512	501.06
390.736	515.06
390.961	496.06
391.186	484.06
391.411	484.06
391.636	523.06
391.86	523.06
392.085	542.06
392.31	515.06
392.534	524.06
392.759	535.06
392.984	505.06
393.208	500.06
393.433	517.06
393.658	526.06
393.882	506.06
394.107	520.06
394.331	512.06
394.556	499.06
394.78	520.06
395.005	507.06
395.229	513.06
395.454	538.06
395.678	535.06
395.903	539.06
396.127	578.06
396.352	545.06
396.576	535.06
396.801	531.06
397.025	512.06
397.249	545.06
397.474	552.06
397.698	549.06
397.922	567.06
398.147	573.06
398.371	563.06
398.595	573.06
398.82	575.06
399.044	591.06
399.268	623.06
399.492	656.06
399.717	701.06
399.941	727.06
400.165	724.06
400.389	728.06
400.613	680.06
400.837	607.06
401.062	611.06
401.286	609.06
401.51	597.06
401.734	579.06
401.958	602.06
402.182	587.06
402.406	604.06
402.63	585.06
402.854	577.06
403.078	599.06
403.302	605.06
403.526	619.06
403.75	604.06
403.974	612.06
404.198	575.06
404.422	610.06
404.645	601.06
404.869	638.06
405.093	656.06
405.317	728.06
405.541	754.06
405.765	678.06
405.988	641.06
406.212	653.06
406.436	671.06
406.66	657.06
406.883	659.06
407.107	681.06
407.331	748.06
407.555	821.06
407.778	840.06
408.002	760.06
408.226	688.06
408.449	672.06
408.673	673.06
408.896	708.06
409.12	725.06
409.344	709.06
409.567	649.06
409.791	605.06
410.014	611.06
410.238	629.06
410.461	621.06
410.685	621.06
410.908	632.06
411.132	675.06
411.355	717.06
411.578	691.06
411.802	613.06
412.025	611.06
412.249	634.06
412.472	664.06
412.695	714.06
412.919	704.06
413.142	638.06
413.365	617.06
413.589	603.06
413.812	588.06
414.035	581.06
414.258	571.06
414.482	580.06
414.705	590.06
414.928	601.06
415.151	592.06
415.374	598.06
415.597	593.06
415.821	602.06
416.044	580.06
416.267	580.06
416.49	587.06
416.713	560.06
416.936	573.06
417.159	565.06
417.382	581.06
417.605	579.06
417.828	589.06
418.051	614.06
418.274	597.06
418.497	564.06
418.72	579.06
418.943	582.06
419.166	606.06
419.389	633.06
419.611	629.06
419.834	633.06
420.057	604.06
420.28	622.06
420.503	607.06
420.726	605.06
420.948	608.06
421.171	652.06
421.394	703.06
421.617	633.06
421.839	616.06
422.062	611.06
422.285	632.06
422.507	701.06
422.73	756.06
422.953	739.06
423.175	643.06
423.398	615.06
423.621	619.06
423.843	676.06
424.066	661.06
424.288	649.06
424.511	679.06
424.733	739.06
424.956	835.06
425.178	774.06
425.401	762.06
425.623	830.06
425.846	705.06
426.068	647.06
426.291	679.06
426.513	655.06
426.735	657.06
426.958	724.06
427.18	793.06
427.402	972.06
427.625	1031.06
427.847	896.06
428.069	805.06
428.292	709.06
428.514	650.06
428.736	633.06
428.958	615.06
429.181	616.06
429.403	599.06
429.625	622.06
429.847	639.06
430.069	736.06
430.292	718.06
430.514	639.06
430.736	621.06
430.958	592.06
431.18	574.06
431.402	599.06
431.624	557.06
431.846	570.06
432.068	560.06
432.29	577.06
432.512	555.06
432.734	583.06
432.956	593.06
433.178	599.06
433.4	619.06
433.622	604.06
433.844	587.06
434.066	574.06
434.287	564.06
434.509	579.06
434.731	565.06
434.953	590.06
435.175	632.06
435.397	637.06
435.618	638.06
435.84	703.06
436.062	814.06
436.284	889.06
436.505	704.06
436.727	651.06
436.949	612.06
437.17	598.06
437.392	577.06
437.614	620.06
437.835	657.06
438.057	775.06
438.278	889.06
438.5	885.06
438.721	967.06
438.943	938.06
439.165	735.06
439.386	686.06
439.608	679.06
439.829	640.06
440.05	686.06
440.272	721.06
440.493	699.06
440.715	644.06
440.936	632.06
441.158	594.06
441.379	608.06
441.6	630.06
441.822	672.06
442.043	717.06
442.264	801.06
442.486	863.06
442.707	730.06
442.928	663.06
443.149	674.06
443.371	716.06
443.592	756.06
443.813	860.06
444.034	939.06
444.255	799.06
444.476	682.06
444.698	670.06
444.919	659.06
445.14	783.06
445.361	725.06
445.582	711.06
445.803	804.06
446.024	889.06
446.245	913.06
446.466	832.06
446.687	707.06
446.908	641.06
447.129	631.06
447.35	609.06
447.571	592.06
447.792	593.06
448.013	623.06
448.234	622.06
448.455	674.06
448.675	815.06
448.896	936.06
449.117	821.06
449.338	752.06
449.559	869.06
449.779	989.06
450	819.06
450.221	667.06
450.442	612.06
450.662	599.06
450.883	586.06
451.104	591.06
451.324	595.06
451.545	575.06
451.766	538.06
451.986	530.06
452.207	521.06
452.428	509.06
452.648	523.06
452.869	525.06
453.089	577.06
453.31	560.06
453.53	534.06
453.751	534.06
453.971	516.06
454.192	535.06
454.412	532.06
454.633	547.06
454.853	530.06
455.073	552.06
455.294	587.06
455.514	649.06
455.734	637.06
455.955	536.06
456.175	533.06
456.395	512.06
456.616	509.06
456.836	539.06
457.056	487.06
457.276	476.06
457.497	504.06
457.717	494.06
457.937	528.06
458.157	523.06
458.377	546.06
458.598	558.06
458.818	600.06
459.038	712.06
459.258	748.06
459.478	607.06
459.698	565.06
459.918	565.06
460.138	591.06
460.358	584.06
460.578	592.06
460.798	577.06
461.018	580.06
461.238	572.06
461.458	593.06
461.678	598.06
461.898	597.06
462.118	575.06
462.338	611.06
462.558	624.06
462.777	601.06
462.997	615.06
463.217	657.06
463.437	681.06
463.657	621.06
463.876	631.06
464.096	616.06
464.316	631.06
464.536	629.06
464.755	635.06
464.975	633.06
465.195	664.06
465.414	742.06
465.634	658.06
465.854	616.06
466.073	624.06
466.293	576.06
466.512	565.06
466.732	559.06
466.951	585.06
467.171	563.06
467.391	550.06
467.61	559.06
467.829	560.06
468.049	578.06
468.268	559.06
468.488	559.06
468.707	535.06
468.927	552.06
469.146	554.06
469.365	551.06
469.585	567.06
469.804	558.06
470.023	549.06
470.243	557.06
470.462	575.06
470.681	596.06
470.901	583.06
471.12	563.06
471.339	564.06
471.558	571.06
471.777	565.06
471.997	559.06
472.216	553.06
472.435	599.06
472.654	591.06
472.873	558.06
473.092	564.06
473.311	558.06
473.53	547.06
473.749	585.06
473.968	622.06
474.187	719.06
474.406	746.06
474.625	616.06
474.844	567.06
475.063	576.06
475.282	553.06
475.501	573.06
475.72	584.06
475.939	576.06
476.158	581.06
476.377	599.06
476.596	604.06
476.814	591.06
477.033	601.06
477.252	586.06
477.471	606.06
477.69	592.06
477.908	591.06
478.127	631.06
478.346	607.06
478.564	633.06
478.783	603.06
479.002	643.06
479.22	661.06
479.439	645.06
479.658	645.06
479.876	647.06
480.095	665.06
480.313	711.06
480.532	699.06
480.751	728.06
480.969	711.06
481.188	773.06
481.406	819.06
481.624	776.06
481.843	705.06
482.061	698.06
482.28	705.06
482.498	685.06
482.717	656.06
482.935	664.06
483.153	663.06
483.372	648.06
483.59	647.06
483.808	675.06
484.027	672.06
484.245	681.06
484.463	661.06
484.681	676.06
484.9	671.06
485.118	703.06
485.336	670.06
485.554	689.06
485.772	700.06
485.99	675.06
486.209	703.06
486.427	680.06
486.645	691.06
486.863	714.06
487.081	750.06
487.299	703.06
487.517	695.06
487.735	698.06
487.953	695.06
488.171	690.06
488.389	705.06
488.607	719.06
488.825	716.06
489.043	731.06
489.261	752.06
489.479	726.06
489.696	714.06
489.914	747.06
490.132	721.06
490.35	745.06
490.568	748.06
490.786	779.06
491.003	783.06
491.221	776.06
491.439	808.06
491.657	809.06
491.874	795.06
492.092	805.06
492.31	823.06
492.527	836.06
492.745	835.06
492.963	832.06
493.18	852.06
493.398	835.06
493.615	841.06
493.833	845.06
494.05	878.06
494.268	857.06
494.485	845.06
494.703	859.06
494.92	852.06
495.138	852.06
495.355	845.06
495.573	847.06
495.79	861.06
496.008	838.06
496.225	836.06
496.442	840.06
496.66	863.06
496.877	841.06
497.094	859.06
497.312	899.06
497.529	867.06
497.746	885.06
497.963	931.06
498.181	921.06
498.398	935.06
498.615	951.06
498.832	985.06
499.049	965.06
499.267	1034.06
499.484	1056.06
499.701	1068.06
499.918	1133.06
500.135	1173.06
500.352	1200.06
500.569	1238.06
500.786	1240.06
501.003	1234.06
501.22	1159.06
501.437	1169.06
501.654	1100.06
501.871	1084.06
502.088	1060.06
502.305	998.06
502.522	1023.06
502.739	949.06
502.956	940.06
503.172	919.06
503.389	911.06
503.606	890.06
503.823	895.06
504.04	876.06
504.256	831.06
504.473	864.06
504.69	870.06
504.907	858.06
505.123	863.06
505.34	837.06
505.557	821.06
505.773	850.06
505.99	826.06
506.207	822.06
506.423	796.06
506.64	821.06
506.856	806.06
507.073	811.06
507.289	777.06
507.506	786.06
507.722	811.06
507.939	813.06
508.155	804.06
508.372	762.06
508.588	740.06
508.805	779.06
509.021	748.06
509.238	780.06
509.454	748.06
509.67	774.06
509.887	779.06
510.103	776.06
510.319	795.06
510.536	865.06
510.752	1367.06
510.968	1127.06
511.184	788.06
511.401	739.06
511.617	728.06
511.833	724.06
512.049	719.06
512.265	725.06
512.481	712.06
512.698	710.06
512.914	700.06
513.13	695.06
513.346	715.06
513.562	714.06
513.778	720.06
513.994	738.06
514.21	741.06
514.426	721.06
514.642	779.06
514.858	807.06
515.074	841.06
515.29	955.06
515.506	1371.06
515.721	1174.06
515.937	844.06
516.153	793.06
516.369	791.06
516.585	736.06
516.801	747.06
517.016	750.06
517.232	760.06
517.448	740.06
517.664	764.06
517.879	759.06
518.095	744.06
518.311	763.06
518.527	727.06
518.742	758.06
518.958	729.06
519.173	738.06
519.389	721.06
519.605	693.06
519.82	725.06
520.036	748.06
520.251	773.06
520.467	790.06
520.682	789.06
520.898	751.06
521.113	793.06
521.329	847.06
521.544	933.06
521.76	1143.06
521.975	1799.06
522.19	1738.06
522.406	1040.06
522.621	822.06
522.836	695.06
523.052	703.06
523.267	689.06
523.482	664.06
523.698	643.06
523.913	643.06
524.128	664.06
524.343	653.06
524.559	663.06
524.774	619.06
524.989	624.06
525.204	647.06
525.419	661.06
525.634	619.06
525.849	627.06
526.064	619.06
526.28	612.06
526.495	592.06
526.71	611.06
526.925	611.06
527.14	603.06
527.355	598.06
527.57	599.06
527.785	609.06
527.999	585.06
528.214	580.06
528.429	587.06
528.644	611.06
528.859	571.06
529.074	609.06
529.289	604.06
529.503	672.06
529.718	653.06
529.933	635.06
530.148	616.06
530.363	599.06
530.577	598.06
530.792	574.06
531.007	561.06
531.221	585.06
531.436	574.06
531.651	587.06
531.865	571.06
532.08	587.06
532.295	576.06
532.509	574.06
532.724	596.06
532.938	563.06
533.153	555.06
533.367	569.06
533.582	579.06
533.796	557.06
534.011	552.06
534.225	564.06
534.44	559.06
534.654	569.06
534.868	538.06
535.083	543.06
535.297	547.06
535.511	560.06
535.726	561.06
535.94	576.06
536.154	550.06
536.369	553.06
536.583	557.06
536.797	544.06
537.011	561.06
537.225	584.06
537.44	548.06
537.654	556.06
537.868	525.06
538.082	539.06
538.296	546.06
538.51	543.06
538.724	539.06
538.938	551.06
539.153	540.06
539.367	554.06
539.581	571.06
539.795	558.06
540.009	542.06
540.222	555.06
540.436	519.06
540.65	521.06
540.864	534.06
541.078	556.06
541.292	532.06
541.506	540.06
541.72	535.06
541.934	536.06
542.147	539.06
542.361	519.06
542.575	509.06
542.789	543.06
543.002	541.06
543.216	537.06
543.43	521.06
543.644	547.06
543.857	566.06
544.071	552.06
544.285	543.06
544.498	536.06
544.712	519.06
544.925	510.06
545.139	528.06
545.352	535.06
545.566	520.06
545.779	530.06
545.993	519.06
546.206	519.06
546.42	542.06
546.633	521.06
546.847	522.06
547.06	513.06
547.274	497.06
547.487	528.06
547.7	506.06
547.914	528.06
548.127	526.06
548.34	531.06
548.554	505.06
548.767	533.06
548.98	521.06
549.193	514.06
549.407	504.06
549.62	515.06
549.833	510.06
550.046	509.06
550.259	511.06
550.473	512.06
550.686	511.06
550.899	521.06
551.112	509.06
551.325	485.06
551.538	525.06
551.751	526.06
551.964	484.06
552.177	487.06
552.39	509.06
552.603	521.06
552.816	525.06
553.029	502.06
553.242	501.06
553.455	491.06
553.667	563.06
553.88	541.06
554.093	538.06
554.306	505.06
554.519	537.06
554.732	526.06
554.944	505.06
555.157	501.06
555.37	489.06
555.583	480.06
555.795	490.06
556.008	504.06
556.221	479.06
556.433	483.06
556.646	474.06
556.859	472.06
557.071	473.06
557.284	462.06
557.496	463.06
557.709	460.06
557.921	471.06
558.134	463.06
558.346	488.06
558.559	463.06
558.771	455.06
558.984	461.06
559.196	465.06
559.409	460.06
559.621	473.06
559.833	447.06
560.046	455.06
560.258	453.06
560.47	453.06
560.683	460.06
560.895	456.06
561.107	437.06
561.32	454.06
561.532	458.06
561.744	433.06
561.956	469.06
562.168	473.06
562.381	449.06
562.593	448.06
562.805	472.06
563.017	477.06
563.229	469.06
563.441	477.06
563.653	446.06
563.865	478.06
564.077	464.06
564.289	460.06
564.501	473.06
564.713	487.06
564.925	477.06
565.137	520.06
565.349	503.06
565.561	473.06
565.773	502.06
565.985	513.06
566.197	523.06
566.408	552.06
566.62	551.06
566.832	572.06
567.044	588.06
567.255	596.06
567.467	576.06
567.679	605.06
567.891	584.06
568.102	591.06
568.314	583.06
568.526	552.06
568.737	578.06
568.949	528.06
569.161	513.06
569.372	524.06
569.584	494.06
569.795	496.06
570.007	484.06
570.218	508.06
570.43	523.06
570.641	462.06
570.853	444.06
571.064	443.06
571.276	459.06
571.487	445.06
571.698	461.06
571.91	435.06
572.121	443.06
572.333	438.06
572.544	429.06
572.755	415.06
572.966	423.06
573.178	417.06
573.389	409.06
573.6	398.06
573.811	406.06
574.023	411.06
574.234	407.06
574.445	409.06
574.656	392.06
574.867	388.06
575.078	380.06
575.289	394.06
575.501	389.06
575.712	379.06
575.923	373.06
576.134	377.06
576.345	389.06
576.556	398.06
576.767	391.06
576.978	382.06
577.188	380.06
577.399	360.06
577.61	375.06
577.821	399.06
578.032	397.06
578.243	413.06
578.454	623.06
578.665	473.06
578.875	378.06
579.086	370.06
579.297	383.06
579.508	357.06
579.718	363.06
579.929	364.06
580.14	360.06
580.35	351.06
580.561	351.06
580.772	356.06
580.982	371.06
581.193	358.06
581.403	357.06
581.614	364.06
581.825	355.06
582.035	360.06
582.246	351.06
582.456	355.06
582.667	342.06
582.877	368.06
583.087	353.06
583.298	359.06
583.508	359.06
583.719	344.06
583.929	345.06
584.139	366.06
584.35	334.06
584.56	355.06
584.77	349.06
584.981	350.06
585.191	360.06
585.401	363.06
585.611	350.06
585.821	364.06
586.032	360.06
586.242	350.06
586.452	351.06
586.662	338.06
586.872	343.06
587.082	361.06
587.292	341.06
587.502	344.06
587.713	340.06
587.923	355.06
588.133	344.06
588.343	350.06
588.553	333.06
588.762	341.06
588.972	349.06
589.182	344.06
589.392	339.06
589.602	346.06
589.812	348.06
590.022	336.06
590.232	320.06
590.441	329.06
590.651	335.06
590.861	351.06
591.071	340.06
591.281	310.06
591.49	332.06
591.7	339.06
591.91	339.06
592.119	353.06
592.329	347.06
592.539	371.06
592.748	370.06
592.958	375.06
593.167	349.06
593.377	366.06
593.587	387.06
593.796	349.06
594.006	359.06
594.215	358.06
594.424	383.06
594.634	361.06
594.843	371.06
595.053	358.06
595.262	351.06
595.472	350.06
595.681	339.06
595.89	336.06
596.1	335.06
596.309	343.06
596.518	325.06
596.727	336.06
596.937	344.06
597.146	313.06
597.355	314.06
597.564	319.06
597.774	313.06
597.983	331.06
598.192	316.06
598.401	320.06
598.61	324.06
598.819	300.06
599.028	314.06
599.237	282.06
599.446	303.06
599.655	304.06
599.864	286.06
600.073	321.06
600.282	310.06
600.491	312.06
600.7	305.06
600.909	311.06
601.118	313.06
601.327	315.06
601.536	315.06
601.745	301.06
601.953	302.06
602.162	293.06
602.371	304.06
602.58	292.06
602.789	293.06
602.997	294.06
603.206	300.06
603.415	295.06
603.623	280.06
603.832	295.06
604.041	300.06
604.249	298.06
604.458	296.06
604.666	297.06
604.875	286.06
605.084	291.06
605.292	295.06
605.501	291.06
605.709	280.06
605.918	273.06
606.126	283.06
606.334	296.06
606.543	288.06
606.751	285.06
606.96	286.06
607.168	268.06
607.376	287.06
607.585	275.06
607.793	277.06
608.001	284.06
608.21	290.06
608.418	279.06
608.626	267.06
608.834	291.06
609.043	273.06
609.251	264.06
609.459	286.06
609.667	312.06
609.875	276.06
610.083	281.06
610.291	272.06
610.499	282.06
610.707	277.06
610.916	280.06
611.124	293.06
611.332	293.06
611.54	290.06
611.748	293.06
611.955	285.06
612.163	279.06
612.371	285.06
612.579	267.06
612.787	281.06
612.995	265.06
613.203	243.06
613.411	269.06
613.618	269.06
613.826	269.06
614.034	293.06
614.242	271.06
614.449	273.06
614.657	277.06
614.865	266.06
615.072	284.06
615.28	264.06
615.488	270.06
615.695	279.06
615.903	252.06
616.111	277.06
616.318	284.06
616.526	279.06
616.733	280.06
616.941	263.06
617.148	283.06
617.356	263.06
617.563	267.06
617.771	254.06
617.978	258.06
618.185	289.06
618.393	272.06
618.6	265.06
618.807	269.06
619.015	275.06
619.222	243.06
619.429	260.06
619.637	267.06
619.844	278.06
620.051	275.06
620.258	231.06
620.466	261.06
620.673	236.06
620.88	254.06
621.087	271.06
621.294	249.06
621.501	261.06
621.708	257.06
621.915	245.06
622.122	251.06
622.329	261.06
622.536	258.06
622.743	256.06
622.95	244.06
623.157	231.06
623.364	227.06
623.571	254.06
623.778	243.06
623.985	254.06
624.192	239.06
624.399	220.06
624.606	246.06
624.812	255.06
625.019	259.06
625.226	239.06
625.433	238.06
625.639	238.06
625.846	236.06
626.053	251.06
626.259	234.06
626.466	244.06
626.673	261.06
626.879	224.06
627.086	245.06
627.293	238.06
627.499	234.06
627.706	239.06
627.912	232.06
628.119	238.06
628.325	233.06
628.532	239.06
628.738	235.06
628.945	238.06
629.151	227.06
629.357	217.06
629.564	230.06
629.77	220.06
629.976	219.06
630.183	208.06
630.389	235.06
630.595	204.06
630.802	221.06
631.008	203.06
631.214	233.06
631.42	223.06
631.627	216.06
631.833	226.06
632.039	221.06
632.245	222.06
632.451	222.06
632.657	216.06
632.863	215.06
633.069	236.06
633.275	217.06
633.481	207.06
633.688	213.06
633.893	211.06
634.099	214.06
634.305	191.06
634.511	205.06
634.717	201.06
634.923	215.06
635.129	211.06
635.335	205.06
635.541	201.06
635.747	234.06
635.952	204.06
636.158	195.06
636.364	218.06
636.57	204.06
636.775	216.06
636.981	211.06
637.187	193.06
637.392	215.06
637.598	189.06
637.804	211.06
638.009	214.06
638.215	192.06
638.421	209.06
638.626	206.06
638.832	195.06
639.037	209.06
639.243	195.06
639.448	193.06
639.654	217.06
639.859	200.06
640.065	195.06
640.27	187.06
640.475	205.06
640.681	189.06
640.886	214.06
641.091	187.06
641.297	195.06
641.502	193.06
641.707	192.06
641.913	193.06
642.118	196.06
642.323	185.06
642.528	206.06
642.733	185.06
642.939	199.06
643.144	183.06
643.349	188.06
643.554	201.06
643.759	193.06
643.964	169.06
644.169	185.06
644.374	181.06
644.579	197.06
644.784	200.06
644.989	180.06
645.194	181.06
645.399	171.06
645.604	197.06
645.809	193.06
646.014	195.06
646.219	201.06
646.423	185.06
646.628	181.06
646.833	178.06
647.038	187.06
647.243	174.06
647.447	186.06
647.652	175.06
647.857	184.06
648.062	187.06
648.266	204.06
648.471	195.06
648.676	180.06
648.88	199.06
649.085	187.06
649.289	200.06
649.494	198.06
649.698	196.06
649.903	195.06
650.107	193.06
650.312	198.06
650.516	187.06
650.721	191.06
650.925	183.06
651.13	159.06
651.334	167.06
651.539	158.06
651.743	167.06
651.947	159.06
652.152	168.06
652.356	179.06
652.56	152.06
652.764	144.06
652.969	176.06
653.173	153.06
653.377	152.06
653.581	140.06
653.785	147.06
653.99	161.06
654.194	147.06
654.398	150.06
654.602	152.06
654.806	154.06
655.01	164.06
655.214	149.06
655.418	143.06
655.622	135.06
655.826	149.06
656.03	138.06
656.234	136.06
656.438	140.06
656.642	161.06
656.846	144.06
657.049	123.06
657.253	140.06
657.457	141.06
657.661	134.06
657.865	126.06
658.068	116.06
658.272	128.06
658.476	112.06
658.68	107.06
658.883	109.06
659.087	103.06
659.291	111.06
659.494	113.06
659.698	102.06
659.901	103.06
660.105	102.06
660.309	122.06
660.512	99.06
660.716	104.06
660.919	94.06
661.123	117.06
661.326	94.06
661.53	97.06
661.733	93.06
661.936	96.06
662.14	89.06
662.343	86.06
662.546	93.06
662.75	91.06
662.953	91.06
663.156	91.06
663.36	92.06
663.563	78.06
663.766	92.06
663.969	68.06
664.173	79.06
664.376	89.06
664.579	80.06
664.782	76.06
664.985	86.06
665.188	76.06
665.391	77.06
665.594	89.06
665.797	96.06
666	74.06
666.203	77.06
666.406	89.06
666.609	79.06
666.812	79.06
667.015	76.06
667.218	88.06
667.421	87.06
667.624	94.06
667.827	85.06
668.03	97.06
668.232	83.06
668.435	91.06
668.638	79.06
668.841	89.06
669.043	87.06
669.246	87.06
669.449	85.06
669.651	87.06
669.854	85.06
670.057	85.06
670.259	86.06
670.462	82.06
670.665	89.06
670.867	82.06
671.07	85.06
671.272	91.06
671.475	81.06
671.677	93.06
671.88	87.06
672.082	78.06
672.284	89.06
672.487	81.06
672.689	90.06
672.892	79.06
