Data from 1968.PennyLincolnUp.Lamp.En5.5.200Scan.071719.P1._HRD10591_14-49-50-970.txt Node
Date: Thu Jul 18 14:49:50 EDT 2019
User: cochatt
Spectrometer: HR+D1059
Trigger mode: 1
Integration Time (sec): 1.000000E-1
Scans to average: 1
Electric dark correction enabled: true
Nonlinearity correction enabled: false
Boxcar width: 0
XAxis mode: Wavelengths
Number of Pixels in Spectrum: 2048
>>>>>Begin Spectral Data<<<<<
223.165	-23.25
223.4	-23.25
223.635	-23.25
223.869	-28.25
224.104	-25.25
224.338	-30.25
224.573	-20.25
224.808	-7.25
225.042	-0.25
225.277	-8.25
225.511	1.75
225.746	1.75
225.98	12.75
226.215	18.75
226.449	19.75
226.683	28.75
226.918	30.75
227.152	28.75
227.387	33.75
227.621	40.75
227.856	50.75
228.09	41.75
228.324	43.75
228.559	38.75
228.793	45.75
229.027	46.75
229.262	54.75
229.496	66.75
229.73	72.75
229.964	73.75
230.199	93.75
230.433	72.75
230.667	85.75
230.901	75.75
231.136	97.75
231.37	79.75
231.604	80.75
231.838	76.75
232.072	82.75
232.306	93.75
232.541	76.75
232.775	93.75
233.009	81.75
233.243	87.75
233.477	79.75
233.711	84.75
233.945	93.75
234.179	72.75
234.413	73.75
234.647	83.75
234.881	72.75
235.115	85.75
235.349	91.75
235.583	84.75
235.817	73.75
236.051	91.75
236.285	69.75
236.519	80.75
236.753	68.75
236.987	89.75
237.221	83.75
237.455	82.75
237.689	73.75
237.922	80.75
238.156	72.75
238.39	73.75
238.624	82.75
238.858	91.75
239.091	72.75
239.325	93.75
239.559	70.75
239.793	81.75
240.027	80.75
240.26	73.75
240.494	78.75
240.728	83.75
240.961	80.75
241.195	66.75
241.429	58.75
241.662	81.75
241.896	72.75
242.13	74.75
242.363	81.75
242.597	86.75
242.83	88.75
243.064	90.75
243.298	75.75
243.531	77.75
243.765	78.75
243.998	73.75
244.232	85.75
244.465	104.75
244.699	78.75
244.932	85.75
245.166	78.75
245.399	81.75
245.633	90.75
245.866	97.75
246.099	84.75
246.333	92.75
246.566	92.75
246.8	88.75
247.033	81.75
247.266	89.75
247.5	77.75
247.733	87.75
247.966	82.75
248.2	65.75
248.433	88.75
248.666	77.75
248.899	86.75
249.133	84.75
249.366	84.75
249.599	89.75
249.832	101.75
250.066	91.75
250.299	80.75
250.532	76.75
250.765	92.75
250.998	81.75
251.231	85.75
251.465	71.75
251.698	98.75
251.931	83.75
252.164	91.75
252.397	86.75
252.63	82.75
252.863	86.75
253.096	82.75
253.329	79.75
253.562	71.75
253.795	81.75
254.028	89.75
254.261	94.75
254.494	88.75
254.727	106.75
254.96	100.75
255.193	102.75
255.426	94.75
255.659	74.75
255.892	85.75
256.124	73.75
256.357	104.75
256.59	97.75
256.823	94.75
257.056	84.75
257.289	94.75
257.521	94.75
257.754	94.75
257.987	82.75
258.22	90.75
258.452	89.75
258.685	80.75
258.918	88.75
259.151	89.75
259.383	91.75
259.616	95.75
259.849	90.75
260.081	102.75
260.314	88.75
260.547	87.75
260.779	94.75
261.012	92.75
261.244	98.75
261.477	78.75
261.71	105.75
261.942	95.75
262.175	86.75
262.407	85.75
262.64	91.75
262.872	86.75
263.105	94.75
263.337	88.75
263.57	109.75
263.802	99.75
264.035	86.75
264.267	83.75
264.499	84.75
264.732	88.75
264.964	87.75
265.197	97.75
265.429	108.75
265.661	97.75
265.894	82.75
266.126	89.75
266.358	82.75
266.591	95.75
266.823	93.75
267.055	108.75
267.287	88.75
267.52	93.75
267.752	90.75
267.984	96.75
268.216	85.75
268.448	92.75
268.681	92.75
268.913	93.75
269.145	104.75
269.377	91.75
269.609	91.75
269.841	96.75
270.073	87.75
270.306	102.75
270.538	93.75
270.77	87.75
271.002	98.75
271.234	90.75
271.466	93.75
271.698	98.75
271.93	77.75
272.162	90.75
272.394	101.75
272.626	93.75
272.858	93.75
273.09	87.75
273.322	94.75
273.553	78.75
273.785	93.75
274.017	98.75
274.249	95.75
274.481	99.75
274.713	78.75
274.945	109.75
275.176	82.75
275.408	102.75
275.64	103.75
275.872	107.75
276.104	91.75
276.335	91.75
276.567	104.75
276.799	96.75
277.031	93.75
277.262	95.75
277.494	92.75
277.726	98.75
277.957	86.75
278.189	93.75
278.421	95.75
278.652	100.75
278.884	87.75
279.115	89.75
279.347	112.75
279.579	94.75
279.81	114.75
280.042	85.75
280.273	86.75
280.505	90.75
280.736	102.75
280.968	102.75
281.199	109.75
281.431	88.75
281.662	93.75
281.894	86.75
282.125	98.75
282.356	104.75
282.588	97.75
282.819	93.75
283.051	109.75
283.282	80.75
283.513	100.75
283.745	95.75
283.976	90.75
284.207	116.75
284.439	93.75
284.67	96.75
284.901	90.75
285.132	89.75
285.364	95.75
285.595	106.75
285.826	94.75
286.057	102.75
286.288	98.75
286.52	105.75
286.751	101.75
286.982	98.75
287.213	90.75
287.444	106.75
287.675	104.75
287.906	100.75
288.138	95.75
288.369	104.75
288.6	97.75
288.831	106.75
289.062	112.75
289.293	113.75
289.524	103.75
289.755	105.75
289.986	98.75
290.217	91.75
290.448	105.75
290.679	113.75
290.91	105.75
291.141	95.75
291.371	98.75
291.602	92.75
291.833	100.75
292.064	101.75
292.295	102.75
292.526	100.75
292.757	102.75
292.987	94.75
293.218	109.75
293.449	105.75
293.68	99.75
293.91	100.75
294.141	99.75
294.372	97.75
294.603	106.75
294.833	95.75
295.064	105.75
295.295	97.75
295.525	97.75
295.756	108.75
295.987	101.75
296.217	111.75
296.448	115.75
296.679	100.75
296.909	98.75
297.14	102.75
297.37	88.75
297.601	88.75
297.831	101.75
298.062	109.75
298.292	106.75
298.523	119.75
298.753	107.75
298.984	104.75
299.214	98.75
299.445	114.75
299.675	109.75
299.905	93.75
300.136	99.75
300.366	108.75
300.597	101.75
300.827	98.75
301.057	103.75
301.288	103.75
301.518	114.75
301.748	87.75
301.979	100.75
302.209	101.75
302.439	105.75
302.669	94.75
302.9	89.75
303.13	106.75
303.36	100.75
303.59	105.75
303.82	100.75
304.051	97.75
304.281	101.75
304.511	121.75
304.741	112.75
304.971	97.75
305.201	102.75
305.431	95.75
305.661	98.75
305.891	99.75
306.121	110.75
306.352	112.75
306.582	105.75
306.812	107.75
307.042	101.75
307.272	86.75
307.502	103.75
307.731	112.75
307.961	107.75
308.191	95.75
308.421	105.75
308.651	110.75
308.881	121.75
309.111	98.75
309.341	100.75
309.571	108.75
309.8	109.75
310.03	107.75
310.26	106.75
310.49	101.75
310.72	104.75
310.949	91.75
311.179	119.75
311.409	98.75
311.639	103.75
311.868	100.75
312.098	109.75
312.328	115.75
312.557	118.75
312.787	108.75
313.017	100.75
313.246	105.75
313.476	119.75
313.706	102.75
313.935	105.75
314.165	95.75
314.394	95.75
314.624	106.75
314.853	94.75
315.083	110.75
315.312	115.75
315.542	115.75
315.771	100.75
316.001	100.75
316.23	112.75
316.46	104.75
316.689	121.75
316.919	116.75
317.148	112.75
317.377	100.75
317.607	107.75
317.836	105.75
318.065	107.75
318.295	102.75
318.524	104.75
318.753	108.75
318.983	110.75
319.212	106.75
319.441	121.75
319.67	117.75
319.9	104.75
320.129	96.75
320.358	118.75
320.587	104.75
320.816	92.75
321.046	94.75
321.275	106.75
321.504	109.75
321.733	116.75
321.962	100.75
322.191	105.75
322.42	94.75
322.649	109.75
322.878	109.75
323.108	107.75
323.337	114.75
323.566	110.75
323.795	118.75
324.024	119.75
324.253	108.75
324.482	122.75
324.71	153.75
324.939	145.75
325.168	155.75
325.397	125.75
325.626	115.75
325.855	122.75
326.084	97.75
326.313	110.75
326.542	116.75
326.77	107.75
326.999	106.75
327.228	131.75
327.457	137.75
327.686	138.75
327.914	140.75
328.143	125.75
328.372	116.75
328.6	105.75
328.829	118.75
329.058	125.75
329.287	105.75
329.515	108.75
329.744	129.75
329.972	107.75
330.201	98.75
330.43	114.75
330.658	132.75
330.887	120.75
331.115	103.75
331.344	120.75
331.572	103.75
331.801	126.75
332.03	104.75
332.258	114.75
332.486	122.75
332.715	123.75
332.943	133.75
333.172	126.75
333.4	100.75
333.629	112.75
333.857	122.75
334.085	116.75
334.314	108.75
334.542	116.75
334.771	127.75
334.999	112.75
335.227	114.75
335.455	99.75
335.684	105.75
335.912	126.75
336.14	105.75
336.369	111.75
336.597	122.75
336.825	101.75
337.053	114.75
337.281	105.75
337.51	116.75
337.738	114.75
337.966	99.75
338.194	96.75
338.422	116.75
338.65	116.75
338.878	130.75
339.106	116.75
339.334	112.75
339.562	103.75
339.79	112.75
340.018	121.75
340.246	109.75
340.474	106.75
340.702	110.75
340.93	108.75
341.158	117.75
341.386	120.75
341.614	116.75
341.842	110.75
342.07	107.75
342.298	108.75
342.526	125.75
342.754	113.75
342.981	119.75
343.209	108.75
343.437	127.75
343.665	119.75
343.893	110.75
344.12	119.75
344.348	129.75
344.576	121.75
344.804	121.75
345.031	117.75
345.259	113.75
345.487	100.75
345.714	114.75
345.942	102.75
346.17	103.75
346.397	120.75
346.625	107.75
346.853	128.75
347.08	88.75
347.308	110.75
347.535	84.75
347.763	106.75
347.99	109.75
348.218	118.75
348.445	114.75
348.673	105.75
348.9	110.75
349.128	101.75
349.355	112.75
349.583	102.75
349.81	94.75
350.037	106.75
350.265	125.75
350.492	114.75
350.72	122.75
350.947	113.75
351.174	122.75
351.402	104.75
351.629	127.75
351.856	105.75
352.083	108.75
352.311	100.75
352.538	105.75
352.765	99.75
352.992	105.75
353.22	116.75
353.447	104.75
353.674	107.75
353.901	119.75
354.128	118.75
354.355	108.75
354.583	101.75
354.81	106.75
355.037	98.75
355.264	101.75
355.491	120.75
355.718	113.75
355.945	100.75
356.172	117.75
356.399	118.75
356.626	115.75
356.853	99.75
357.08	100.75
357.307	92.75
357.534	109.75
357.761	106.75
357.988	112.75
358.215	125.75
358.441	99.75
358.668	99.75
358.895	109.75
359.122	106.75
359.349	110.75
359.576	116.75
359.802	108.75
360.029	104.75
360.256	97.75
360.483	115.75
360.709	102.75
360.936	120.75
361.163	100.75
361.39	107.75
361.616	108.75
361.843	121.75
362.07	106.75
362.296	130.75
362.523	112.75
362.749	111.75
362.976	104.75
363.203	115.75
363.429	101.75
363.656	108.75
363.882	110.75
364.109	110.75
364.335	99.75
364.562	115.75
364.788	120.75
365.015	103.75
365.241	105.75
365.468	104.75
365.694	95.75
365.92	126.75
366.147	102.75
366.373	99.75
366.599	100.75
366.826	101.75
367.052	103.75
367.278	112.75
367.505	102.75
367.731	130.75
367.957	112.75
368.184	123.75
368.41	109.75
368.636	107.75
368.862	114.75
369.089	104.75
369.315	106.75
369.541	116.75
369.767	116.75
369.993	103.75
370.219	106.75
370.445	107.75
370.672	98.75
370.898	117.75
371.124	108.75
371.35	121.75
371.576	116.75
371.802	99.75
372.028	106.75
372.254	121.75
372.48	119.75
372.706	114.75
372.932	115.75
373.158	128.75
373.384	121.75
373.61	110.75
373.835	114.75
374.061	120.75
374.287	122.75
374.513	95.75
374.739	109.75
374.965	100.75
375.191	102.75
375.416	109.75
375.642	122.75
375.868	115.75
376.094	116.75
376.319	112.75
376.545	118.75
376.771	107.75
376.997	112.75
377.222	98.75
377.448	109.75
377.674	131.75
377.899	106.75
378.125	106.75
378.35	97.75
378.576	107.75
378.802	115.75
379.027	136.75
379.253	123.75
379.478	105.75
379.704	96.75
379.929	104.75
380.155	106.75
380.38	121.75
380.606	124.75
380.831	114.75
381.057	112.75
381.282	115.75
381.507	111.75
381.733	125.75
381.958	110.75
382.184	103.75
382.409	109.75
382.634	118.75
382.86	105.75
383.085	105.75
383.31	109.75
383.535	113.75
383.761	106.75
383.986	126.75
384.211	124.75
384.436	120.75
384.662	107.75
384.887	118.75
385.112	106.75
385.337	118.75
385.562	118.75
385.787	114.75
386.013	116.75
386.238	129.75
386.463	131.75
386.688	122.75
386.913	100.75
387.138	128.75
387.363	115.75
387.588	119.75
387.813	118.75
388.038	134.75
388.263	126.75
388.488	134.75
388.713	122.75
388.938	115.75
389.163	103.75
389.387	118.75
389.612	136.75
389.837	114.75
390.062	112.75
390.287	120.75
390.512	120.75
390.736	121.75
390.961	123.75
391.186	118.75
391.411	115.75
391.636	119.75
391.86	117.75
392.085	120.75
392.31	125.75
392.534	121.75
392.759	119.75
392.984	126.75
393.208	122.75
393.433	126.75
393.658	126.75
393.882	117.75
394.107	121.75
394.331	112.75
394.556	104.75
394.78	127.75
395.005	121.75
395.229	115.75
395.454	127.75
395.678	124.75
395.903	121.75
396.127	129.75
396.352	127.75
396.576	114.75
396.801	133.75
397.025	113.75
397.249	125.75
397.474	124.75
397.698	99.75
397.922	106.75
398.147	113.75
398.371	114.75
398.595	112.75
398.82	118.75
399.044	109.75
399.268	134.75
399.492	128.75
399.717	156.75
399.941	137.75
400.165	131.75
400.389	139.75
400.613	122.75
400.837	131.75
401.062	129.75
401.286	139.75
401.51	140.75
401.734	122.75
401.958	132.75
402.182	121.75
402.406	119.75
402.63	145.75
402.854	107.75
403.078	120.75
403.302	130.75
403.526	128.75
403.75	133.75
403.974	151.75
404.198	120.75
404.422	128.75
404.645	122.75
404.869	130.75
405.093	129.75
405.317	125.75
405.541	124.75
405.765	141.75
405.988	133.75
406.212	138.75
406.436	133.75
406.66	124.75
406.883	122.75
407.107	140.75
407.331	135.75
407.555	137.75
407.778	133.75
408.002	119.75
408.226	147.75
408.449	122.75
408.673	118.75
408.896	134.75
409.12	139.75
409.344	137.75
409.567	133.75
409.791	140.75
410.014	126.75
410.238	122.75
410.461	108.75
410.685	115.75
410.908	126.75
411.132	131.75
411.355	119.75
411.578	112.75
411.802	132.75
412.025	145.75
412.249	112.75
412.472	132.75
412.695	130.75
412.919	131.75
413.142	125.75
413.365	136.75
413.589	132.75
413.812	122.75
414.035	125.75
414.258	126.75
414.482	129.75
414.705	136.75
414.928	134.75
415.151	137.75
415.374	134.75
415.597	130.75
415.821	114.75
416.044	124.75
416.267	119.75
416.49	111.75
416.713	114.75
416.936	121.75
417.159	125.75
417.382	126.75
417.605	127.75
417.828	124.75
418.051	150.75
418.274	138.75
418.497	138.75
418.72	126.75
418.943	136.75
419.166	132.75
419.389	129.75
419.611	122.75
419.834	130.75
420.057	126.75
420.28	132.75
420.503	132.75
420.726	136.75
420.948	136.75
421.171	130.75
421.394	119.75
421.617	134.75
421.839	121.75
422.062	109.75
422.285	128.75
422.507	128.75
422.73	134.75
422.953	124.75
423.175	135.75
423.398	116.75
423.621	129.75
423.843	127.75
424.066	131.75
424.288	128.75
424.511	127.75
424.733	125.75
424.956	143.75
425.178	134.75
425.401	128.75
425.623	142.75
425.846	124.75
426.068	120.75
426.291	127.75
426.513	152.75
426.735	142.75
426.958	130.75
427.18	125.75
427.402	133.75
427.625	149.75
427.847	136.75
428.069	121.75
428.292	112.75
428.514	125.75
428.736	129.75
428.958	133.75
429.181	133.75
429.403	121.75
429.625	109.75
429.847	142.75
430.069	120.75
430.292	128.75
430.514	116.75
430.736	132.75
430.958	130.75
431.18	107.75
431.402	123.75
431.624	120.75
431.846	115.75
432.068	124.75
432.29	124.75
432.512	107.75
432.734	100.75
432.956	128.75
433.178	126.75
433.4	124.75
433.622	127.75
433.844	131.75
434.066	125.75
434.287	128.75
434.509	115.75
434.731	122.75
434.953	123.75
435.175	125.75
435.397	123.75
435.618	133.75
435.84	122.75
436.062	140.75
436.284	137.75
436.505	122.75
436.727	122.75
436.949	122.75
437.17	127.75
437.392	101.75
437.614	109.75
437.835	119.75
438.057	120.75
438.278	149.75
438.5	126.75
438.721	127.75
438.943	142.75
439.165	128.75
439.386	117.75
439.608	131.75
439.829	145.75
440.05	127.75
440.272	134.75
440.493	133.75
440.715	145.75
440.936	143.75
441.158	120.75
441.379	118.75
441.6	133.75
441.822	136.75
442.043	140.75
442.264	142.75
442.486	138.75
442.707	135.75
442.928	126.75
443.149	127.75
443.371	140.75
443.592	137.75
443.813	130.75
444.034	145.75
444.255	131.75
444.476	123.75
444.698	147.75
444.919	137.75
445.14	261.75
445.361	189.75
445.582	142.75
445.803	145.75
446.024	137.75
446.245	123.75
446.466	114.75
446.687	122.75
446.908	132.75
447.129	124.75
447.35	123.75
447.571	118.75
447.792	106.75
448.013	121.75
448.234	114.75
448.455	128.75
448.675	119.75
448.896	121.75
449.117	117.75
449.338	124.75
449.559	136.75
449.779	137.75
450	124.75
450.221	101.75
450.442	132.75
450.662	122.75
450.883	119.75
451.104	128.75
451.324	109.75
451.545	119.75
451.766	110.75
451.986	106.75
452.207	123.75
452.428	122.75
452.648	105.75
452.869	124.75
453.089	122.75
453.31	124.75
453.53	112.75
453.751	113.75
453.971	108.75
454.192	108.75
454.412	112.75
454.633	114.75
454.853	123.75
455.073	122.75
455.294	108.75
455.514	112.75
455.734	124.75
455.955	119.75
456.175	113.75
456.395	108.75
456.616	116.75
456.836	109.75
457.056	123.75
457.276	107.75
457.497	108.75
457.717	122.75
457.937	127.75
458.157	124.75
458.377	106.75
458.598	115.75
458.818	126.75
459.038	127.75
459.258	120.75
459.478	110.75
459.698	112.75
459.918	136.75
460.138	126.75
460.358	127.75
460.578	111.75
460.798	120.75
461.018	146.75
461.238	125.75
461.458	140.75
461.678	123.75
461.898	121.75
462.118	128.75
462.338	134.75
462.558	142.75
462.777	128.75
462.997	127.75
463.217	150.75
463.437	142.75
463.657	146.75
463.876	146.75
464.096	125.75
464.316	135.75
464.536	142.75
464.755	141.75
464.975	130.75
465.195	128.75
465.414	132.75
465.634	138.75
465.854	114.75
466.073	115.75
466.293	124.75
466.512	122.75
466.732	125.75
466.951	109.75
467.171	119.75
467.391	113.75
467.61	112.75
467.829	122.75
468.049	124.75
468.268	121.75
468.488	122.75
468.707	130.75
468.927	116.75
469.146	112.75
469.365	125.75
469.585	120.75
469.804	104.75
470.023	114.75
470.243	115.75
470.462	115.75
470.681	129.75
470.901	119.75
471.12	134.75
471.339	129.75
471.558	120.75
471.777	127.75
471.997	117.75
472.216	128.75
472.435	118.75
472.654	117.75
472.873	120.75
473.092	118.75
473.311	126.75
473.53	129.75
473.749	125.75
473.968	120.75
474.187	137.75
474.406	111.75
474.625	126.75
474.844	133.75
475.063	112.75
475.282	112.75
475.501	130.75
475.72	124.75
475.939	106.75
476.158	112.75
476.377	117.75
476.596	114.75
476.814	118.75
477.033	116.75
477.252	114.75
477.471	130.75
477.69	126.75
477.908	126.75
478.127	137.75
478.346	122.75
478.564	121.75
478.783	126.75
479.002	135.75
479.22	124.75
479.439	133.75
479.658	146.75
479.876	138.75
480.095	136.75
480.313	129.75
480.532	120.75
480.751	128.75
480.969	123.75
481.188	136.75
481.406	127.75
481.624	125.75
481.843	115.75
482.061	109.75
482.28	126.75
482.498	128.75
482.717	122.75
482.935	110.75
483.153	120.75
483.372	118.75
483.59	126.75
483.808	128.75
484.027	128.75
484.245	127.75
484.463	128.75
484.681	136.75
484.9	132.75
485.118	137.75
485.336	122.75
485.554	120.75
485.772	120.75
485.99	128.75
486.209	138.75
486.427	124.75
486.645	124.75
486.863	127.75
487.081	126.75
487.299	132.75
487.517	125.75
487.735	137.75
487.953	133.75
488.171	137.75
488.389	124.75
488.607	134.75
488.825	137.75
489.043	133.75
489.261	117.75
489.479	138.75
489.696	124.75
489.914	130.75
490.132	144.75
490.35	127.75
490.568	129.75
490.786	130.75
491.003	147.75
491.221	132.75
491.439	147.75
491.657	130.75
491.874	141.75
492.092	138.75
492.31	149.75
492.527	150.75
492.745	147.75
492.963	142.75
493.18	137.75
493.398	137.75
493.615	146.75
493.833	144.75
494.05	141.75
494.268	152.75
494.485	141.75
494.703	139.75
494.92	142.75
495.138	137.75
495.355	133.75
495.573	156.75
495.79	140.75
496.008	137.75
496.225	140.75
496.442	132.75
496.66	149.75
496.877	148.75
497.094	150.75
497.312	155.75
497.529	144.75
497.746	142.75
497.963	148.75
498.181	144.75
498.398	140.75
498.615	144.75
498.832	160.75
499.049	150.75
499.267	154.75
499.484	176.75
499.701	188.75
499.918	172.75
500.135	200.75
500.352	201.75
500.569	205.75
500.786	211.75
501.003	203.75
501.22	176.75
501.437	174.75
501.654	168.75
501.871	160.75
502.088	170.75
502.305	161.75
502.522	157.75
502.739	166.75
502.956	162.75
503.172	142.75
503.389	152.75
503.606	138.75
503.823	155.75
504.04	151.75
504.256	159.75
504.473	139.75
504.69	161.75
504.907	141.75
505.123	140.75
505.34	137.75
505.557	130.75
505.773	138.75
505.99	133.75
506.207	133.75
506.423	135.75
506.64	129.75
506.856	136.75
507.073	136.75
507.289	141.75
507.506	133.75
507.722	138.75
507.939	142.75
508.155	150.75
508.372	130.75
508.588	138.75
508.805	140.75
509.021	123.75
509.238	124.75
509.454	122.75
509.67	135.75
509.887	126.75
510.103	118.75
510.319	134.75
510.536	133.75
510.752	162.75
510.968	138.75
511.184	122.75
511.401	108.75
511.617	134.75
511.833	122.75
512.049	126.75
512.265	123.75
512.481	135.75
512.698	132.75
512.914	134.75
513.13	142.75
513.346	122.75
513.562	122.75
513.778	126.75
513.994	133.75
514.21	133.75
514.426	125.75
514.642	134.75
514.858	126.75
515.074	132.75
515.29	136.75
515.506	160.75
515.721	139.75
515.937	136.75
516.153	126.75
516.369	139.75
516.585	131.75
516.801	122.75
517.016	143.75
517.232	126.75
517.448	117.75
517.664	134.75
517.879	140.75
518.095	135.75
518.311	130.75
518.527	135.75
518.742	142.75
518.958	124.75
519.173	138.75
519.389	139.75
519.605	126.75
519.82	111.75
520.036	130.75
520.251	123.75
520.467	118.75
520.682	115.75
520.898	139.75
521.113	139.75
521.329	121.75
521.544	137.75
521.76	126.75
521.975	165.75
522.19	184.75
522.406	146.75
522.621	132.75
522.836	129.75
523.052	121.75
523.267	126.75
523.482	123.75
523.698	129.75
523.913	120.75
524.128	121.75
524.343	122.75
524.559	127.75
524.774	113.75
524.989	121.75
525.204	124.75
525.419	122.75
525.634	108.75
525.849	110.75
526.064	132.75
526.28	115.75
526.495	110.75
526.71	118.75
526.925	120.75
527.14	110.75
527.355	118.75
527.57	103.75
527.785	118.75
527.999	120.75
528.214	119.75
528.429	119.75
528.644	129.75
528.859	142.75
529.074	135.75
529.289	120.75
529.503	134.75
529.718	130.75
529.933	118.75
530.148	112.75
530.363	109.75
530.577	110.75
530.792	113.75
531.007	121.75
531.221	109.75
531.436	118.75
531.651	126.75
531.865	128.75
532.08	119.75
532.295	130.75
532.509	124.75
532.724	103.75
532.938	125.75
533.153	117.75
533.367	106.75
533.582	134.75
533.796	126.75
534.011	117.75
534.225	103.75
534.44	116.75
534.654	134.75
534.868	117.75
535.083	121.75
535.297	123.75
535.511	129.75
535.726	116.75
535.94	128.75
536.154	112.75
536.369	129.75
536.583	113.75
536.797	121.75
537.011	120.75
537.225	114.75
537.44	112.75
537.654	118.75
537.868	120.75
538.082	108.75
538.296	97.75
538.51	115.75
538.724	109.75
538.938	126.75
539.153	116.75
539.367	119.75
539.581	119.75
539.795	119.75
540.009	118.75
540.222	117.75
540.436	134.75
540.65	114.75
540.864	116.75
541.078	110.75
541.292	128.75
541.506	123.75
541.72	113.75
541.934	124.75
542.147	146.75
542.361	136.75
542.575	124.75
542.789	128.75
543.002	125.75
543.216	134.75
543.43	127.75
543.644	122.75
543.857	138.75
544.071	124.75
544.285	128.75
544.498	128.75
544.712	130.75
544.925	127.75
545.139	122.75
545.352	142.75
545.566	140.75
545.779	119.75
545.993	134.75
546.206	139.75
546.42	137.75
546.633	132.75
546.847	126.75
547.06	105.75
547.274	142.75
547.487	120.75
547.7	123.75
547.914	122.75
548.127	131.75
548.34	129.75
548.554	135.75
548.767	130.75
548.98	134.75
549.193	131.75
549.407	121.75
549.62	122.75
549.833	127.75
550.046	140.75
550.259	137.75
550.473	109.75
550.686	131.75
550.899	110.75
551.112	130.75
551.325	119.75
551.538	123.75
551.751	126.75
551.964	118.75
552.177	119.75
552.39	131.75
552.603	120.75
552.816	121.75
553.029	124.75
553.242	140.75
553.455	132.75
553.667	129.75
553.88	109.75
554.093	134.75
554.306	121.75
554.519	121.75
554.732	122.75
554.944	129.75
555.157	107.75
555.37	120.75
555.583	121.75
555.795	121.75
556.008	131.75
556.221	121.75
556.433	124.75
556.646	131.75
556.859	114.75
557.071	109.75
557.284	120.75
557.496	103.75
557.709	123.75
557.921	125.75
558.134	109.75
558.346	107.75
558.559	116.75
558.771	118.75
558.984	122.75
559.196	117.75
559.409	118.75
559.621	117.75
559.833	116.75
560.046	114.75
560.258	108.75
560.47	103.75
560.683	121.75
560.895	110.75
561.107	113.75
561.32	100.75
561.532	120.75
561.744	115.75
561.956	111.75
562.168	124.75
562.381	119.75
562.593	113.75
562.805	109.75
563.017	128.75
563.229	108.75
563.441	106.75
563.653	114.75
563.865	101.75
564.077	114.75
564.289	110.75
564.501	116.75
564.713	118.75
564.925	116.75
565.137	125.75
565.349	125.75
565.561	115.75
565.773	129.75
565.985	133.75
566.197	126.75
566.408	135.75
566.62	119.75
566.832	122.75
567.044	131.75
567.255	135.75
567.467	137.75
567.679	149.75
567.891	138.75
568.102	137.75
568.314	137.75
568.526	139.75
568.737	126.75
568.949	133.75
569.161	120.75
569.372	107.75
569.584	117.75
569.795	115.75
570.007	106.75
570.218	124.75
570.43	107.75
570.641	105.75
570.853	100.75
571.064	115.75
571.276	122.75
571.487	90.75
571.698	119.75
571.91	122.75
572.121	98.75
572.333	119.75
572.544	97.75
572.755	115.75
572.966	109.75
573.178	124.75
573.389	123.75
573.6	101.75
573.811	100.75
574.023	98.75
574.234	109.75
574.445	106.75
574.656	91.75
574.867	109.75
575.078	106.75
575.289	115.75
575.501	119.75
575.712	107.75
575.923	117.75
576.134	88.75
576.345	104.75
576.556	99.75
576.767	112.75
576.978	112.75
577.188	112.75
577.399	120.75
577.61	107.75
577.821	100.75
578.032	92.75
578.243	99.75
578.454	118.75
578.665	102.75
578.875	100.75
579.086	107.75
579.297	103.75
579.508	101.75
579.718	107.75
579.929	118.75
580.14	100.75
580.35	110.75
580.561	105.75
580.772	107.75
580.982	103.75
581.193	98.75
581.403	107.75
581.614	122.75
581.825	111.75
582.035	102.75
582.246	93.75
582.456	91.75
582.667	103.75
582.877	103.75
583.087	105.75
583.298	104.75
583.508	103.75
583.719	100.75
583.929	108.75
584.139	105.75
584.35	105.75
584.56	100.75
584.77	104.75
584.981	97.75
585.191	94.75
585.401	105.75
585.611	101.75
585.821	109.75
586.032	108.75
586.242	100.75
586.452	100.75
586.662	109.75
586.872	96.75
587.082	104.75
587.292	99.75
587.502	102.75
587.713	107.75
587.923	112.75
588.133	101.75
588.343	94.75
588.553	103.75
588.762	102.75
588.972	99.75
589.182	114.75
589.392	102.75
589.602	82.75
589.812	105.75
590.022	110.75
590.232	105.75
590.441	115.75
590.651	114.75
590.861	101.75
591.071	100.75
591.281	92.75
591.49	101.75
591.7	101.75
591.91	109.75
592.119	104.75
592.329	104.75
592.539	117.75
592.748	107.75
592.958	109.75
593.167	113.75
593.377	110.75
593.587	121.75
593.796	106.75
594.006	112.75
594.215	112.75
594.424	110.75
594.634	101.75
594.843	109.75
595.053	98.75
595.262	113.75
595.472	120.75
595.681	97.75
595.89	97.75
596.1	100.75
596.309	105.75
596.518	95.75
596.727	107.75
596.937	100.75
597.146	99.75
597.355	87.75
597.564	102.75
597.774	104.75
597.983	113.75
598.192	106.75
598.401	103.75
598.61	100.75
598.819	117.75
599.028	122.75
599.237	94.75
599.446	104.75
599.655	115.75
599.864	99.75
600.073	97.75
600.282	101.75
600.491	96.75
600.7	101.75
600.909	100.75
601.118	103.75
601.327	90.75
601.536	105.75
601.745	108.75
601.953	106.75
602.162	115.75
602.371	106.75
602.58	108.75
602.789	94.75
602.997	92.75
603.206	87.75
603.415	93.75
603.623	110.75
603.832	99.75
604.041	108.75
604.249	112.75
604.458	100.75
604.666	112.75
604.875	99.75
605.084	98.75
605.292	98.75
605.501	100.75
605.709	95.75
605.918	98.75
606.126	112.75
606.334	101.75
606.543	94.75
606.751	103.75
606.96	87.75
607.168	118.75
607.376	98.75
607.585	106.75
607.793	118.75
608.001	110.75
608.21	102.75
608.418	98.75
608.626	108.75
608.834	89.75
609.043	93.75
609.251	106.75
609.459	111.75
609.667	99.75
609.875	114.75
610.083	98.75
610.291	106.75
610.499	104.75
610.707	93.75
610.916	97.75
611.124	110.75
611.332	105.75
611.54	110.75
611.748	120.75
611.955	115.75
612.163	108.75
612.371	93.75
612.579	114.75
612.787	86.75
612.995	97.75
613.203	112.75
613.411	101.75
613.618	110.75
613.826	101.75
614.034	97.75
614.242	102.75
614.449	112.75
614.657	100.75
614.865	112.75
615.072	116.75
615.28	109.75
615.488	110.75
615.695	110.75
615.903	103.75
616.111	101.75
616.318	113.75
616.526	100.75
616.733	98.75
616.941	106.75
617.148	108.75
617.356	96.75
617.563	98.75
617.771	97.75
617.978	105.75
618.185	104.75
618.393	104.75
618.6	93.75
618.807	93.75
619.015	112.75
619.222	104.75
619.429	94.75
619.637	101.75
619.844	109.75
620.051	94.75
620.258	88.75
620.466	102.75
620.673	95.75
620.88	107.75
621.087	101.75
621.294	93.75
621.501	100.75
621.708	103.75
621.915	98.75
622.122	92.75
622.329	109.75
622.536	85.75
622.743	92.75
622.95	81.75
623.157	86.75
623.364	116.75
623.571	101.75
623.778	102.75
623.985	89.75
624.192	89.75
624.399	93.75
624.606	100.75
624.812	93.75
625.019	112.75
625.226	102.75
625.433	91.75
625.639	100.75
625.846	113.75
626.053	100.75
626.259	97.75
626.466	108.75
626.673	105.75
626.879	102.75
627.086	95.75
627.293	102.75
627.499	113.75
627.706	92.75
627.912	88.75
628.119	93.75
628.325	96.75
628.532	101.75
628.738	91.75
628.945	95.75
629.151	84.75
629.357	89.75
629.564	100.75
629.77	96.75
629.976	108.75
630.183	89.75
630.389	89.75
630.595	101.75
630.802	99.75
631.008	101.75
631.214	89.75
631.42	98.75
631.627	107.75
631.833	93.75
632.039	91.75
632.245	80.75
632.451	92.75
632.657	98.75
632.863	105.75
633.069	86.75
633.275	100.75
633.481	85.75
633.688	97.75
633.893	86.75
634.099	95.75
634.305	89.75
634.511	96.75
634.717	97.75
634.923	88.75
635.129	92.75
635.335	93.75
635.541	99.75
635.747	95.75
635.952	99.75
636.158	112.75
636.364	97.75
636.57	89.75
636.775	99.75
636.981	101.75
637.187	107.75
637.392	100.75
637.598	96.75
637.804	101.75
638.009	90.75
638.215	95.75
638.421	93.75
638.626	97.75
638.832	100.75
639.037	91.75
639.243	101.75
639.448	91.75
639.654	96.75
639.859	98.75
640.065	84.75
640.27	99.75
640.475	88.75
640.681	77.75
640.886	90.75
641.091	104.75
641.297	103.75
641.502	87.75
641.707	101.75
641.913	101.75
642.118	87.75
642.323	95.75
642.528	107.75
642.733	106.75
642.939	104.75
643.144	76.75
643.349	96.75
643.554	86.75
643.759	88.75
643.964	94.75
644.169	97.75
644.374	93.75
644.579	89.75
644.784	99.75
644.989	86.75
645.194	92.75
645.399	94.75
645.604	94.75
645.809	93.75
646.014	97.75
646.219	91.75
646.423	95.75
646.628	99.75
646.833	83.75
647.038	100.75
647.243	102.75
647.447	96.75
647.652	96.75
647.857	100.75
648.062	88.75
648.266	78.75
648.471	92.75
648.676	90.75
648.88	86.75
649.085	84.75
649.289	95.75
649.494	90.75
649.698	92.75
649.903	90.75
650.107	103.75
650.312	97.75
650.516	101.75
650.721	78.75
650.925	82.75
651.13	85.75
651.334	95.75
651.539	83.75
651.743	104.75
651.947	97.75
652.152	99.75
652.356	90.75
652.56	89.75
652.764	83.75
652.969	100.75
653.173	88.75
653.377	109.75
653.581	103.75
653.785	77.75
653.99	94.75
654.194	83.75
654.398	90.75
654.602	87.75
654.806	94.75
655.01	90.75
655.214	104.75
655.418	79.75
655.622	91.75
655.826	79.75
656.03	96.75
656.234	96.75
656.438	100.75
656.642	98.75
656.846	95.75
657.049	88.75
657.253	90.75
657.457	73.75
657.661	72.75
657.865	77.75
658.068	85.75
658.272	98.75
658.476	82.75
658.68	82.75
658.883	73.75
659.087	84.75
659.291	87.75
659.494	89.75
659.698	75.75
659.901	97.75
660.105	91.75
660.309	80.75
660.512	74.75
660.716	86.75
660.919	88.75
661.123	104.75
661.326	75.75
661.53	91.75
661.733	83.75
661.936	90.75
662.14	93.75
662.343	91.75
662.546	75.75
662.75	98.75
662.953	92.75
663.156	85.75
663.36	81.75
663.563	96.75
663.766	83.75
663.969	65.75
664.173	89.75
664.376	74.75
664.579	83.75
664.782	71.75
664.985	84.75
665.188	83.75
665.391	79.75
665.594	70.75
665.797	75.75
666	76.75
666.203	70.75
666.406	83.75
666.609	77.75
666.812	69.75
667.015	80.75
667.218	77.75
667.421	76.75
667.624	92.75
667.827	83.75
668.03	82.75
668.232	88.75
668.435	71.75
668.638	74.75
668.841	84.75
669.043	82.75
669.246	75.75
669.449	83.75
669.651	101.75
669.854	88.75
670.057	95.75
670.259	71.75
670.462	87.75
670.665	76.75
670.867	90.75
671.07	78.75
671.272	86.75
671.475	87.75
671.677	73.75
671.88	78.75
672.082	84.75
672.284	73.75
672.487	70.75
672.689	77.75
672.892	83.75
