Data from 1968.PennyLincolnUp.Lamp.En5.5.200Scan.071719.P1._HRD10591_14-49-09-969.txt Node
Date: Thu Jul 18 14:49:09 EDT 2019
User: cochatt
Spectrometer: HR+D1059
Trigger mode: 1
Integration Time (sec): 1.000000E-1
Scans to average: 1
Electric dark correction enabled: true
Nonlinearity correction enabled: false
Boxcar width: 0
XAxis mode: Wavelengths
Number of Pixels in Spectrum: 2048
>>>>>Begin Spectral Data<<<<<
223.165	-13.12
223.4	-13.12
223.635	-13.12
223.869	-21.12
224.104	-19.12
224.338	-24.12
224.573	-11.12
224.808	-9.12
225.042	-12.12
225.277	-11.12
225.511	9.88
225.746	5.88
225.98	-6.12
226.215	10.88
226.449	22.88
226.683	15.88
226.918	35.88
227.152	25.88
227.387	28.88
227.621	23.88
227.856	42.88
228.09	53.88
228.324	43.88
228.559	51.88
228.793	53.88
229.027	58.88
229.262	86.88
229.496	66.88
229.73	88.88
229.964	78.88
230.199	78.88
230.433	75.88
230.667	78.88
230.901	80.88
231.136	79.88
231.37	87.88
231.604	77.88
231.838	84.88
232.072	86.88
232.306	84.88
232.541	87.88
232.775	97.88
233.009	79.88
233.243	81.88
233.477	91.88
233.711	89.88
233.945	93.88
234.179	87.88
234.413	78.88
234.647	85.88
234.881	79.88
235.115	86.88
235.349	85.88
235.583	59.88
235.817	81.88
236.051	93.88
236.285	71.88
236.519	70.88
236.753	81.88
236.987	87.88
237.221	81.88
237.455	91.88
237.689	88.88
237.922	83.88
238.156	79.88
238.39	85.88
238.624	71.88
238.858	81.88
239.091	88.88
239.325	94.88
239.559	73.88
239.793	81.88
240.027	83.88
240.26	75.88
240.494	85.88
240.728	76.88
240.961	87.88
241.195	87.88
241.429	83.88
241.662	79.88
241.896	77.88
242.13	91.88
242.363	80.88
242.597	81.88
242.83	81.88
243.064	81.88
243.298	94.88
243.531	100.88
243.765	87.88
243.998	80.88
244.232	93.88
244.465	89.88
244.699	92.88
244.932	88.88
245.166	86.88
245.399	74.88
245.633	86.88
245.866	91.88
246.099	75.88
246.333	83.88
246.566	74.88
246.8	88.88
247.033	79.88
247.266	71.88
247.5	89.88
247.733	95.88
247.966	76.88
248.2	77.88
248.433	92.88
248.666	80.88
248.899	90.88
249.133	70.88
249.366	82.88
249.599	90.88
249.832	81.88
250.066	90.88
250.299	88.88
250.532	86.88
250.765	93.88
250.998	68.88
251.231	78.88
251.465	93.88
251.698	82.88
251.931	85.88
252.164	93.88
252.397	91.88
252.63	99.88
252.863	103.88
253.096	94.88
253.329	90.88
253.562	95.88
253.795	75.88
254.028	75.88
254.261	99.88
254.494	95.88
254.727	89.88
254.96	81.88
255.193	81.88
255.426	87.88
255.659	96.88
255.892	102.88
256.124	100.88
256.357	92.88
256.59	97.88
256.823	87.88
257.056	103.88
257.289	105.88
257.521	110.88
257.754	94.88
257.987	96.88
258.22	82.88
258.452	80.88
258.685	93.88
258.918	84.88
259.151	105.88
259.383	88.88
259.616	99.88
259.849	118.88
260.081	96.88
260.314	94.88
260.547	103.88
260.779	98.88
261.012	85.88
261.244	102.88
261.477	81.88
261.71	88.88
261.942	91.88
262.175	83.88
262.407	86.88
262.64	102.88
262.872	89.88
263.105	85.88
263.337	97.88
263.57	82.88
263.802	85.88
264.035	87.88
264.267	92.88
264.499	101.88
264.732	103.88
264.964	90.88
265.197	84.88
265.429	95.88
265.661	87.88
265.894	89.88
266.126	110.88
266.358	90.88
266.591	99.88
266.823	84.88
267.055	100.88
267.287	92.88
267.52	106.88
267.752	100.88
267.984	96.88
268.216	98.88
268.448	101.88
268.681	97.88
268.913	92.88
269.145	99.88
269.377	101.88
269.609	75.88
269.841	94.88
270.073	91.88
270.306	92.88
270.538	89.88
270.77	98.88
271.002	102.88
271.234	99.88
271.466	88.88
271.698	99.88
271.93	115.88
272.162	97.88
272.394	91.88
272.626	90.88
272.858	104.88
273.09	103.88
273.322	84.88
273.553	91.88
273.785	92.88
274.017	99.88
274.249	93.88
274.481	94.88
274.713	88.88
274.945	99.88
275.176	105.88
275.408	99.88
275.64	98.88
275.872	99.88
276.104	110.88
276.335	104.88
276.567	103.88
276.799	90.88
277.031	79.88
277.262	101.88
277.494	88.88
277.726	110.88
277.957	112.88
278.189	104.88
278.421	101.88
278.652	99.88
278.884	94.88
279.115	116.88
279.347	105.88
279.579	91.88
279.81	92.88
280.042	88.88
280.273	101.88
280.505	88.88
280.736	116.88
280.968	109.88
281.199	95.88
281.431	94.88
281.662	104.88
281.894	99.88
282.125	104.88
282.356	111.88
282.588	101.88
282.819	103.88
283.051	102.88
283.282	102.88
283.513	108.88
283.745	100.88
283.976	104.88
284.207	112.88
284.439	108.88
284.67	111.88
284.901	102.88
285.132	108.88
285.364	104.88
285.595	109.88
285.826	101.88
286.057	121.88
286.288	99.88
286.52	102.88
286.751	101.88
286.982	104.88
287.213	100.88
287.444	105.88
287.675	107.88
287.906	113.88
288.138	95.88
288.369	109.88
288.6	107.88
288.831	106.88
289.062	113.88
289.293	113.88
289.524	96.88
289.755	95.88
289.986	99.88
290.217	88.88
290.448	91.88
290.679	94.88
290.91	99.88
291.141	108.88
291.371	111.88
291.602	106.88
291.833	101.88
292.064	93.88
292.295	104.88
292.526	102.88
292.757	100.88
292.987	101.88
293.218	104.88
293.449	106.88
293.68	107.88
293.91	96.88
294.141	113.88
294.372	99.88
294.603	96.88
294.833	104.88
295.064	100.88
295.295	117.88
295.525	109.88
295.756	112.88
295.987	115.88
296.217	111.88
296.448	112.88
296.679	104.88
296.909	93.88
297.14	108.88
297.37	112.88
297.601	113.88
297.831	114.88
298.062	109.88
298.292	87.88
298.523	89.88
298.753	100.88
298.984	106.88
299.214	117.88
299.445	104.88
299.675	93.88
299.905	103.88
300.136	105.88
300.366	118.88
300.597	104.88
300.827	110.88
301.057	115.88
301.288	97.88
301.518	89.88
301.748	111.88
301.979	108.88
302.209	108.88
302.439	87.88
302.669	120.88
302.9	119.88
303.13	93.88
303.36	116.88
303.59	90.88
303.82	99.88
304.051	108.88
304.281	111.88
304.511	100.88
304.741	121.88
304.971	122.88
305.201	112.88
305.431	115.88
305.661	100.88
305.891	95.88
306.121	100.88
306.352	97.88
306.582	104.88
306.812	101.88
307.042	103.88
307.272	107.88
307.502	100.88
307.731	111.88
307.961	107.88
308.191	94.88
308.421	110.88
308.651	123.88
308.881	116.88
309.111	97.88
309.341	110.88
309.571	110.88
309.8	118.88
310.03	88.88
310.26	119.88
310.49	104.88
310.72	111.88
310.949	103.88
311.179	120.88
311.409	110.88
311.639	97.88
311.868	103.88
312.098	120.88
312.328	107.88
312.557	112.88
312.787	110.88
313.017	108.88
313.246	112.88
313.476	103.88
313.706	106.88
313.935	129.88
314.165	110.88
314.394	108.88
314.624	111.88
314.853	111.88
315.083	111.88
315.312	117.88
315.542	103.88
315.771	110.88
316.001	101.88
316.23	106.88
316.46	129.88
316.689	107.88
316.919	129.88
317.148	115.88
317.377	107.88
317.607	119.88
317.836	107.88
318.065	102.88
318.295	116.88
318.524	125.88
318.753	101.88
318.983	113.88
319.212	109.88
319.441	116.88
319.67	106.88
319.9	101.88
320.129	104.88
320.358	116.88
320.587	104.88
320.816	107.88
321.046	111.88
321.275	106.88
321.504	107.88
321.733	109.88
321.962	118.88
322.191	117.88
322.42	115.88
322.649	115.88
322.878	119.88
323.108	118.88
323.337	117.88
323.566	110.88
323.795	104.88
324.024	104.88
324.253	120.88
324.482	125.88
324.71	139.88
324.939	150.88
325.168	145.88
325.397	127.88
325.626	112.88
325.855	107.88
326.084	107.88
326.313	122.88
326.542	125.88
326.77	132.88
326.999	129.88
327.228	122.88
327.457	139.88
327.686	121.88
327.914	138.88
328.143	127.88
328.372	118.88
328.6	95.88
328.829	123.88
329.058	119.88
329.287	118.88
329.515	106.88
329.744	111.88
329.972	122.88
330.201	108.88
330.43	117.88
330.658	125.88
330.887	117.88
331.115	113.88
331.344	101.88
331.572	116.88
331.801	130.88
332.03	121.88
332.258	110.88
332.486	112.88
332.715	102.88
332.943	110.88
333.172	131.88
333.4	121.88
333.629	120.88
333.857	118.88
334.085	104.88
334.314	115.88
334.542	123.88
334.771	125.88
334.999	119.88
335.227	120.88
335.455	125.88
335.684	123.88
335.912	111.88
336.14	122.88
336.369	112.88
336.597	120.88
336.825	117.88
337.053	120.88
337.281	122.88
337.51	110.88
337.738	110.88
337.966	104.88
338.194	98.88
338.422	115.88
338.65	115.88
338.878	116.88
339.106	115.88
339.334	117.88
339.562	119.88
339.79	113.88
340.018	107.88
340.246	126.88
340.474	116.88
340.702	119.88
340.93	116.88
341.158	110.88
341.386	115.88
341.614	125.88
341.842	129.88
342.07	112.88
342.298	117.88
342.526	131.88
342.754	119.88
342.981	104.88
343.209	117.88
343.437	105.88
343.665	112.88
343.893	127.88
344.12	123.88
344.348	127.88
344.576	117.88
344.804	123.88
345.031	104.88
345.259	113.88
345.487	123.88
345.714	125.88
345.942	116.88
346.17	121.88
346.397	103.88
346.625	104.88
346.853	111.88
347.08	115.88
347.308	119.88
347.535	119.88
347.763	105.88
347.99	104.88
348.218	115.88
348.445	121.88
348.673	107.88
348.9	112.88
349.128	119.88
349.355	110.88
349.583	99.88
349.81	122.88
350.037	125.88
350.265	121.88
350.492	103.88
350.72	113.88
350.947	118.88
351.174	123.88
351.402	103.88
351.629	107.88
351.856	113.88
352.083	115.88
352.311	108.88
352.538	110.88
352.765	121.88
352.992	129.88
353.22	110.88
353.447	112.88
353.674	108.88
353.901	105.88
354.128	108.88
354.355	101.88
354.583	106.88
354.81	113.88
355.037	110.88
355.264	122.88
355.491	124.88
355.718	121.88
355.945	123.88
356.172	99.88
356.399	112.88
356.626	107.88
356.853	107.88
357.08	118.88
357.307	116.88
357.534	117.88
357.761	107.88
357.988	116.88
358.215	106.88
358.441	120.88
358.668	101.88
358.895	117.88
359.122	119.88
359.349	111.88
359.576	135.88
359.802	107.88
360.029	123.88
360.256	102.88
360.483	115.88
360.709	101.88
360.936	110.88
361.163	125.88
361.39	99.88
361.616	116.88
361.843	121.88
362.07	110.88
362.296	115.88
362.523	120.88
362.749	107.88
362.976	120.88
363.203	127.88
363.429	108.88
363.656	126.88
363.882	93.88
364.109	108.88
364.335	127.88
364.562	111.88
364.788	132.88
365.015	119.88
365.241	107.88
365.468	115.88
365.694	99.88
365.92	105.88
366.147	128.88
366.373	114.88
366.599	104.88
366.826	106.88
367.052	104.88
367.278	110.88
367.505	110.88
367.731	111.88
367.957	112.88
368.184	123.88
368.41	114.88
368.636	115.88
368.862	129.88
369.089	106.88
369.315	99.88
369.541	102.88
369.767	100.88
369.993	115.88
370.219	114.88
370.445	109.88
370.672	123.88
370.898	118.88
371.124	117.88
371.35	118.88
371.576	102.88
371.802	126.88
372.028	107.88
372.254	115.88
372.48	115.88
372.706	113.88
372.932	109.88
373.158	117.88
373.384	122.88
373.61	114.88
373.835	117.88
374.061	117.88
374.287	116.88
374.513	107.88
374.739	111.88
374.965	116.88
375.191	124.88
375.416	119.88
375.642	127.88
375.868	125.88
376.094	116.88
376.319	105.88
376.545	119.88
376.771	107.88
376.997	115.88
377.222	122.88
377.448	134.88
377.674	121.88
377.899	119.88
378.125	127.88
378.35	123.88
378.576	115.88
378.802	116.88
379.027	111.88
379.253	124.88
379.478	115.88
379.704	108.88
379.929	113.88
380.155	110.88
380.38	118.88
380.606	127.88
380.831	108.88
381.057	116.88
381.282	120.88
381.507	120.88
381.733	128.88
381.958	116.88
382.184	120.88
382.409	129.88
382.634	127.88
382.86	119.88
383.085	118.88
383.31	117.88
383.535	116.88
383.761	107.88
383.986	113.88
384.211	130.88
384.436	129.88
384.662	101.88
384.887	108.88
385.112	130.88
385.337	135.88
385.562	129.88
385.787	131.88
386.013	122.88
386.238	124.88
386.463	117.88
386.688	141.88
386.913	127.88
387.138	128.88
387.363	113.88
387.588	122.88
387.813	105.88
388.038	131.88
388.263	118.88
388.488	125.88
388.713	120.88
388.938	126.88
389.163	117.88
389.387	114.88
389.612	115.88
389.837	111.88
390.062	121.88
390.287	137.88
390.512	129.88
390.736	131.88
390.961	113.88
391.186	117.88
391.411	136.88
391.636	125.88
391.86	139.88
392.085	126.88
392.31	119.88
392.534	127.88
392.759	118.88
392.984	129.88
393.208	124.88
393.433	131.88
393.658	118.88
393.882	133.88
394.107	120.88
394.331	129.88
394.556	136.88
394.78	125.88
395.005	126.88
395.229	132.88
395.454	128.88
395.678	119.88
395.903	139.88
396.127	135.88
396.352	125.88
396.576	129.88
396.801	126.88
397.025	128.88
397.249	127.88
397.474	141.88
397.698	120.88
397.922	133.88
398.147	119.88
398.371	131.88
398.595	135.88
398.82	117.88
399.044	126.88
399.268	141.88
399.492	155.88
399.717	150.88
399.941	143.88
400.165	150.88
400.389	147.88
400.613	137.88
400.837	132.88
401.062	140.88
401.286	126.88
401.51	135.88
401.734	144.88
401.958	149.88
402.182	136.88
402.406	135.88
402.63	137.88
402.854	144.88
403.078	138.88
403.302	128.88
403.526	137.88
403.75	132.88
403.974	127.88
404.198	139.88
404.422	158.88
404.645	144.88
404.869	137.88
405.093	142.88
405.317	123.88
405.541	149.88
405.765	125.88
405.988	136.88
406.212	137.88
406.436	142.88
406.66	134.88
406.883	142.88
407.107	153.88
407.331	166.88
407.555	150.88
407.778	148.88
408.002	155.88
408.226	141.88
408.449	144.88
408.673	136.88
408.896	144.88
409.12	143.88
409.344	147.88
409.567	144.88
409.791	136.88
410.014	129.88
410.238	148.88
410.461	131.88
410.685	135.88
410.908	129.88
411.132	146.88
411.355	145.88
411.578	131.88
411.802	127.88
412.025	144.88
412.249	143.88
412.472	143.88
412.695	139.88
412.919	127.88
413.142	150.88
413.365	139.88
413.589	139.88
413.812	136.88
414.035	141.88
414.258	131.88
414.482	133.88
414.705	131.88
414.928	144.88
415.151	140.88
415.374	127.88
415.597	129.88
415.821	133.88
416.044	131.88
416.267	144.88
416.49	155.88
416.713	147.88
416.936	120.88
417.159	125.88
417.382	127.88
417.605	122.88
417.828	131.88
418.051	133.88
418.274	146.88
418.497	143.88
418.72	120.88
418.943	134.88
419.166	146.88
419.389	136.88
419.611	154.88
419.834	147.88
420.057	143.88
420.28	141.88
420.503	127.88
420.726	130.88
420.948	129.88
421.171	145.88
421.394	127.88
421.617	134.88
421.839	139.88
422.062	128.88
422.285	151.88
422.507	145.88
422.73	145.88
422.953	129.88
423.175	132.88
423.398	137.88
423.621	139.88
423.843	127.88
424.066	133.88
424.288	137.88
424.511	122.88
424.733	138.88
424.956	135.88
425.178	131.88
425.401	140.88
425.623	124.88
425.846	138.88
426.068	141.88
426.291	136.88
426.513	136.88
426.735	128.88
426.958	126.88
427.18	155.88
427.402	146.88
427.625	137.88
427.847	149.88
428.069	144.88
428.292	129.88
428.514	126.88
428.736	132.88
428.958	129.88
429.181	139.88
429.403	131.88
429.625	143.88
429.847	134.88
430.069	124.88
430.292	129.88
430.514	124.88
430.736	126.88
430.958	131.88
431.18	127.88
431.402	129.88
431.624	126.88
431.846	122.88
432.068	125.88
432.29	122.88
432.512	137.88
432.734	131.88
432.956	125.88
433.178	130.88
433.4	125.88
433.622	133.88
433.844	135.88
434.066	123.88
434.287	138.88
434.509	133.88
434.731	123.88
434.953	135.88
435.175	135.88
435.397	146.88
435.618	133.88
435.84	127.88
436.062	144.88
436.284	137.88
436.505	135.88
436.727	144.88
436.949	135.88
437.17	128.88
437.392	134.88
437.614	128.88
437.835	134.88
438.057	124.88
438.278	136.88
438.5	112.88
438.721	135.88
438.943	139.88
439.165	139.88
439.386	139.88
439.608	129.88
439.829	118.88
440.05	147.88
440.272	143.88
440.493	130.88
440.715	142.88
440.936	138.88
441.158	130.88
441.379	136.88
441.6	149.88
441.822	133.88
442.043	140.88
442.264	145.88
442.486	143.88
442.707	128.88
442.928	131.88
443.149	149.88
443.371	138.88
443.592	133.88
443.813	141.88
444.034	146.88
444.255	149.88
444.476	141.88
444.698	139.88
444.919	147.88
445.14	268.88
445.361	193.88
445.582	145.88
445.803	131.88
446.024	119.88
446.245	151.88
446.466	153.88
446.687	133.88
446.908	127.88
447.129	142.88
447.35	136.88
447.571	133.88
447.792	139.88
448.013	122.88
448.234	128.88
448.455	126.88
448.675	149.88
448.896	143.88
449.117	131.88
449.338	138.88
449.559	137.88
449.779	132.88
450	139.88
450.221	139.88
450.442	114.88
450.662	137.88
450.883	124.88
451.104	124.88
451.324	121.88
451.545	136.88
451.766	125.88
451.986	113.88
452.207	119.88
452.428	125.88
452.648	128.88
452.869	138.88
453.089	125.88
453.31	118.88
453.53	123.88
453.751	107.88
453.971	129.88
454.192	127.88
454.412	121.88
454.633	135.88
454.853	122.88
455.073	118.88
455.294	117.88
455.514	132.88
455.734	133.88
455.955	112.88
456.175	120.88
456.395	119.88
456.616	116.88
456.836	119.88
457.056	107.88
457.276	113.88
457.497	124.88
457.717	124.88
457.937	125.88
458.157	122.88
458.377	131.88
458.598	133.88
458.818	112.88
459.038	133.88
459.258	117.88
459.478	117.88
459.698	128.88
459.918	135.88
460.138	134.88
460.358	135.88
460.578	149.88
460.798	142.88
461.018	143.88
461.238	134.88
461.458	145.88
461.678	126.88
461.898	149.88
462.118	149.88
462.338	154.88
462.558	135.88
462.777	149.88
462.997	152.88
463.217	133.88
463.437	135.88
463.657	138.88
463.876	140.88
464.096	144.88
464.316	147.88
464.536	147.88
464.755	137.88
464.975	135.88
465.195	140.88
465.414	157.88
465.634	127.88
465.854	121.88
466.073	121.88
466.293	126.88
466.512	129.88
466.732	124.88
466.951	141.88
467.171	116.88
467.391	120.88
467.61	131.88
467.829	122.88
468.049	124.88
468.268	142.88
468.488	135.88
468.707	125.88
468.927	130.88
469.146	112.88
469.365	133.88
469.585	127.88
469.804	128.88
470.023	115.88
470.243	139.88
470.462	140.88
470.681	140.88
470.901	114.88
471.12	117.88
471.339	131.88
471.558	122.88
471.777	130.88
471.997	134.88
472.216	132.88
472.435	121.88
472.654	123.88
472.873	125.88
473.092	126.88
473.311	126.88
473.53	134.88
473.749	127.88
473.968	125.88
474.187	138.88
474.406	131.88
474.625	138.88
474.844	133.88
475.063	129.88
475.282	137.88
475.501	149.88
475.72	127.88
475.939	128.88
476.158	138.88
476.377	137.88
476.596	139.88
476.814	130.88
477.033	102.88
477.252	133.88
477.471	135.88
477.69	147.88
477.908	137.88
478.127	129.88
478.346	145.88
478.564	126.88
478.783	123.88
479.002	144.88
479.22	151.88
479.439	141.88
479.658	123.88
479.876	141.88
480.095	144.88
480.313	152.88
480.532	143.88
480.751	134.88
480.969	150.88
481.188	139.88
481.406	147.88
481.624	122.88
481.843	134.88
482.061	147.88
482.28	147.88
482.498	136.88
482.717	151.88
482.935	150.88
483.153	142.88
483.372	142.88
483.59	135.88
483.808	138.88
484.027	140.88
484.245	146.88
484.463	131.88
484.681	153.88
484.9	130.88
485.118	132.88
485.336	139.88
485.554	144.88
485.772	123.88
485.99	141.88
486.209	145.88
486.427	146.88
486.645	143.88
486.863	144.88
487.081	143.88
487.299	135.88
487.517	156.88
487.735	151.88
487.953	150.88
488.171	162.88
488.389	138.88
488.607	139.88
488.825	141.88
489.043	144.88
489.261	151.88
489.479	135.88
489.696	152.88
489.914	143.88
490.132	147.88
490.35	149.88
490.568	129.88
490.786	149.88
491.003	128.88
491.221	133.88
491.439	149.88
491.657	157.88
491.874	153.88
492.092	137.88
492.31	151.88
492.527	130.88
492.745	146.88
492.963	164.88
493.18	144.88
493.398	144.88
493.615	160.88
493.833	147.88
494.05	150.88
494.268	143.88
494.485	156.88
494.703	149.88
494.92	139.88
495.138	143.88
495.355	147.88
495.573	154.88
495.79	146.88
496.008	154.88
496.225	147.88
496.442	155.88
496.66	163.88
496.877	153.88
497.094	147.88
497.312	145.88
497.529	152.88
497.746	150.88
497.963	152.88
498.181	165.88
498.398	158.88
498.615	172.88
498.832	183.88
499.049	195.88
499.267	169.88
499.484	191.88
499.701	202.88
499.918	200.88
500.135	216.88
500.352	227.88
500.569	230.88
500.786	230.88
501.003	225.88
501.22	200.88
501.437	189.88
501.654	177.88
501.871	179.88
502.088	188.88
502.305	166.88
502.522	163.88
502.739	171.88
502.956	164.88
503.172	164.88
503.389	153.88
503.606	155.88
503.823	167.88
504.04	144.88
504.256	153.88
504.473	151.88
504.69	150.88
504.907	155.88
505.123	165.88
505.34	143.88
505.557	143.88
505.773	150.88
505.99	137.88
506.207	137.88
506.423	156.88
506.64	141.88
506.856	143.88
507.073	135.88
507.289	144.88
507.506	137.88
507.722	135.88
507.939	132.88
508.155	145.88
508.372	143.88
508.588	124.88
508.805	137.88
509.021	141.88
509.238	151.88
509.454	131.88
509.67	142.88
509.887	127.88
510.103	122.88
510.319	129.88
510.536	124.88
510.752	152.88
510.968	150.88
511.184	149.88
511.401	136.88
511.617	129.88
511.833	125.88
512.049	141.88
512.265	129.88
512.481	133.88
512.698	134.88
512.914	136.88
513.13	132.88
513.346	133.88
513.562	131.88
513.778	143.88
513.994	138.88
514.21	135.88
514.426	137.88
514.642	134.88
514.858	120.88
515.074	136.88
515.29	134.88
515.506	152.88
515.721	149.88
515.937	144.88
516.153	140.88
516.369	131.88
516.585	133.88
516.801	128.88
517.016	135.88
517.232	151.88
517.448	139.88
517.664	140.88
517.879	139.88
518.095	137.88
518.311	135.88
518.527	143.88
518.742	138.88
518.958	144.88
519.173	141.88
519.389	149.88
519.605	138.88
519.82	133.88
520.036	136.88
520.251	136.88
520.467	138.88
520.682	128.88
520.898	130.88
521.113	131.88
521.329	116.88
521.544	126.88
521.76	126.88
521.975	175.88
522.19	148.88
522.406	127.88
522.621	142.88
522.836	135.88
523.052	132.88
523.267	135.88
523.482	123.88
523.698	121.88
523.913	125.88
524.128	135.88
524.343	134.88
524.559	133.88
524.774	111.88
524.989	137.88
525.204	134.88
525.419	138.88
525.634	143.88
525.849	132.88
526.064	131.88
526.28	135.88
526.495	119.88
526.71	125.88
526.925	117.88
527.14	120.88
527.355	130.88
527.57	115.88
527.785	126.88
527.999	127.88
528.214	127.88
528.429	121.88
528.644	123.88
528.859	125.88
529.074	149.88
529.289	127.88
529.503	141.88
529.718	131.88
529.933	140.88
530.148	128.88
530.363	131.88
530.577	119.88
530.792	135.88
531.007	125.88
531.221	127.88
531.436	113.88
531.651	133.88
531.865	131.88
532.08	128.88
532.295	136.88
532.509	129.88
532.724	119.88
532.938	115.88
533.153	131.88
533.367	138.88
533.582	120.88
533.796	126.88
534.011	119.88
534.225	127.88
534.44	128.88
534.654	121.88
534.868	124.88
535.083	133.88
535.297	139.88
535.511	126.88
535.726	116.88
535.94	126.88
536.154	125.88
536.369	135.88
536.583	113.88
536.797	117.88
537.011	110.88
537.225	101.88
537.44	109.88
537.654	127.88
537.868	129.88
538.082	108.88
538.296	121.88
538.51	129.88
538.724	141.88
538.938	123.88
539.153	133.88
539.367	138.88
539.581	127.88
539.795	129.88
540.009	128.88
540.222	111.88
540.436	131.88
540.65	114.88
540.864	142.88
541.078	138.88
541.292	139.88
541.506	140.88
541.72	142.88
541.934	140.88
542.147	141.88
542.361	133.88
542.575	135.88
542.789	133.88
543.002	132.88
543.216	139.88
543.43	147.88
543.644	145.88
543.857	143.88
544.071	142.88
544.285	139.88
544.498	144.88
544.712	144.88
544.925	140.88
545.139	126.88
545.352	142.88
545.566	145.88
545.779	128.88
545.993	132.88
546.206	151.88
546.42	151.88
546.633	145.88
546.847	143.88
547.06	144.88
547.274	145.88
547.487	131.88
547.7	131.88
547.914	124.88
548.127	141.88
548.34	112.88
548.554	123.88
548.767	127.88
548.98	140.88
549.193	129.88
549.407	128.88
549.62	141.88
549.833	140.88
550.046	133.88
550.259	126.88
550.473	127.88
550.686	142.88
550.899	129.88
551.112	135.88
551.325	128.88
551.538	133.88
551.751	117.88
551.964	132.88
552.177	134.88
552.39	127.88
552.603	127.88
552.816	127.88
553.029	139.88
553.242	134.88
553.455	142.88
553.667	141.88
553.88	142.88
554.093	124.88
554.306	132.88
554.519	120.88
554.732	133.88
554.944	134.88
555.157	128.88
555.37	122.88
555.583	128.88
555.795	125.88
556.008	112.88
556.221	127.88
556.433	106.88
556.646	129.88
556.859	118.88
557.071	129.88
557.284	120.88
557.496	125.88
557.709	127.88
557.921	131.88
558.134	131.88
558.346	113.88
558.559	127.88
558.771	116.88
558.984	133.88
559.196	131.88
559.409	123.88
559.621	116.88
559.833	119.88
560.046	128.88
560.258	127.88
560.47	119.88
560.683	124.88
560.895	133.88
561.107	110.88
561.32	117.88
561.532	126.88
561.744	121.88
561.956	118.88
562.168	119.88
562.381	137.88
562.593	124.88
562.805	112.88
563.017	113.88
563.229	115.88
563.441	135.88
563.653	129.88
563.865	128.88
564.077	130.88
564.289	117.88
564.501	135.88
564.713	129.88
564.925	125.88
565.137	132.88
565.349	121.88
565.561	111.88
565.773	108.88
565.985	127.88
566.197	132.88
566.408	129.88
566.62	130.88
566.832	143.88
567.044	139.88
567.255	135.88
567.467	143.88
567.679	145.88
567.891	151.88
568.102	156.88
568.314	157.88
568.526	143.88
568.737	144.88
568.949	134.88
569.161	125.88
569.372	147.88
569.584	118.88
569.795	124.88
570.007	129.88
570.218	127.88
570.43	121.88
570.641	115.88
570.853	118.88
571.064	120.88
571.276	105.88
571.487	118.88
571.698	123.88
571.91	109.88
572.121	117.88
572.333	135.88
572.544	111.88
572.755	113.88
572.966	103.88
573.178	99.88
573.389	108.88
573.6	105.88
573.811	103.88
574.023	99.88
574.234	102.88
574.445	111.88
574.656	118.88
574.867	117.88
575.078	106.88
575.289	126.88
575.501	119.88
575.712	115.88
575.923	99.88
576.134	117.88
576.345	108.88
576.556	110.88
576.767	108.88
576.978	113.88
577.188	111.88
577.399	127.88
577.61	118.88
577.821	111.88
578.032	120.88
578.243	117.88
578.454	127.88
578.665	124.88
578.875	112.88
579.086	111.88
579.297	122.88
579.508	113.88
579.718	110.88
579.929	112.88
580.14	112.88
580.35	105.88
580.561	119.88
580.772	127.88
580.982	116.88
581.193	96.88
581.403	119.88
581.614	110.88
581.825	120.88
582.035	113.88
582.246	120.88
582.456	111.88
582.667	120.88
582.877	106.88
583.087	99.88
583.298	121.88
583.508	109.88
583.719	118.88
583.929	105.88
584.139	107.88
584.35	115.88
584.56	99.88
584.77	110.88
584.981	111.88
585.191	111.88
585.401	120.88
585.611	105.88
585.821	98.88
586.032	116.88
586.242	116.88
586.452	123.88
586.662	109.88
586.872	100.88
587.082	99.88
587.292	129.88
587.502	117.88
587.713	103.88
587.923	107.88
588.133	92.88
588.343	104.88
588.553	104.88
588.762	113.88
588.972	117.88
589.182	115.88
589.392	103.88
589.602	96.88
589.812	106.88
590.022	117.88
590.232	116.88
590.441	102.88
590.651	121.88
590.861	111.88
591.071	99.88
591.281	116.88
591.49	118.88
591.7	117.88
591.91	112.88
592.119	116.88
592.329	107.88
592.539	88.88
592.748	129.88
592.958	125.88
593.167	125.88
593.377	108.88
593.587	131.88
593.796	119.88
594.006	116.88
594.215	110.88
594.424	111.88
594.634	109.88
594.843	127.88
595.053	119.88
595.262	118.88
595.472	116.88
595.681	117.88
595.89	105.88
596.1	124.88
596.309	96.88
596.518	97.88
596.727	93.88
596.937	136.88
597.146	121.88
597.355	122.88
597.564	122.88
597.774	99.88
597.983	108.88
598.192	124.88
598.401	108.88
598.61	105.88
598.819	109.88
599.028	110.88
599.237	101.88
599.446	98.88
599.655	108.88
599.864	99.88
600.073	107.88
600.282	96.88
600.491	96.88
600.7	102.88
600.909	99.88
601.118	97.88
601.327	122.88
601.536	117.88
601.745	93.88
601.953	91.88
602.162	119.88
602.371	113.88
602.58	112.88
602.789	96.88
602.997	110.88
603.206	105.88
603.415	100.88
603.623	102.88
603.832	117.88
604.041	117.88
604.249	96.88
604.458	101.88
604.666	119.88
604.875	105.88
605.084	99.88
605.292	105.88
605.501	100.88
605.709	112.88
605.918	104.88
606.126	118.88
606.334	98.88
606.543	117.88
606.751	112.88
606.96	100.88
607.168	120.88
607.376	106.88
607.585	97.88
607.793	95.88
608.001	106.88
608.21	97.88
608.418	113.88
608.626	108.88
608.834	120.88
609.043	104.88
609.251	105.88
609.459	112.88
609.667	103.88
609.875	118.88
610.083	96.88
610.291	104.88
610.499	115.88
610.707	117.88
610.916	99.88
611.124	95.88
611.332	116.88
611.54	125.88
611.748	128.88
611.955	124.88
612.163	92.88
612.371	106.88
612.579	105.88
612.787	120.88
612.995	105.88
613.203	113.88
613.411	95.88
613.618	122.88
613.826	108.88
614.034	100.88
614.242	106.88
614.449	125.88
614.657	105.88
614.865	108.88
615.072	112.88
615.28	103.88
615.488	109.88
615.695	98.88
615.903	104.88
616.111	112.88
616.318	106.88
616.526	110.88
616.733	111.88
616.941	101.88
617.148	101.88
617.356	107.88
617.563	88.88
617.771	116.88
617.978	110.88
618.185	105.88
618.393	112.88
618.6	120.88
618.807	117.88
619.015	100.88
619.222	117.88
619.429	99.88
619.637	112.88
619.844	110.88
620.051	104.88
620.258	120.88
620.466	103.88
620.673	93.88
620.88	92.88
621.087	99.88
621.294	108.88
621.501	103.88
621.708	108.88
621.915	103.88
622.122	104.88
622.329	105.88
622.536	97.88
622.743	104.88
622.95	91.88
623.157	91.88
623.364	102.88
623.571	113.88
623.778	104.88
623.985	104.88
624.192	95.88
624.399	90.88
624.606	102.88
624.812	106.88
625.019	109.88
625.226	100.88
625.433	93.88
625.639	88.88
625.846	93.88
626.053	95.88
626.259	99.88
626.466	113.88
626.673	86.88
626.879	100.88
627.086	81.88
627.293	113.88
627.499	101.88
627.706	103.88
627.912	101.88
628.119	97.88
628.325	107.88
628.532	94.88
628.738	115.88
628.945	96.88
629.151	103.88
629.357	101.88
629.564	104.88
629.77	105.88
629.976	105.88
630.183	88.88
630.389	93.88
630.595	112.88
630.802	97.88
631.008	109.88
631.214	107.88
631.42	101.88
631.627	94.88
631.833	101.88
632.039	101.88
632.245	100.88
632.451	91.88
632.657	94.88
632.863	98.88
633.069	88.88
633.275	96.88
633.481	118.88
633.688	98.88
633.893	93.88
634.099	100.88
634.305	101.88
634.511	107.88
634.717	91.88
634.923	87.88
635.129	101.88
635.335	93.88
635.541	96.88
635.747	109.88
635.952	101.88
636.158	93.88
636.364	97.88
636.57	103.88
636.775	101.88
636.981	99.88
637.187	107.88
637.392	98.88
637.598	101.88
637.804	94.88
638.009	85.88
638.215	88.88
638.421	102.88
638.626	97.88
638.832	93.88
639.037	96.88
639.243	97.88
639.448	104.88
639.654	101.88
639.859	99.88
640.065	96.88
640.27	94.88
640.475	101.88
640.681	95.88
640.886	94.88
641.091	99.88
641.297	109.88
641.502	96.88
641.707	105.88
641.913	88.88
642.118	95.88
642.323	95.88
642.528	90.88
642.733	98.88
642.939	109.88
643.144	106.88
643.349	92.88
643.554	101.88
643.759	101.88
643.964	93.88
644.169	111.88
644.374	91.88
644.579	96.88
644.784	87.88
644.989	92.88
645.194	88.88
645.399	93.88
645.604	86.88
645.809	96.88
646.014	99.88
646.219	96.88
646.423	78.88
646.628	95.88
646.833	105.88
647.038	99.88
647.243	106.88
647.447	91.88
647.652	99.88
647.857	108.88
648.062	100.88
648.266	94.88
648.471	105.88
648.676	99.88
648.88	101.88
649.085	88.88
649.289	97.88
649.494	107.88
649.698	89.88
649.903	92.88
650.107	103.88
650.312	95.88
650.516	95.88
650.721	84.88
650.925	93.88
651.13	97.88
651.334	95.88
651.539	96.88
651.743	95.88
651.947	102.88
652.152	96.88
652.356	92.88
652.56	94.88
652.764	85.88
652.969	99.88
653.173	99.88
653.377	74.88
653.581	91.88
653.785	88.88
653.99	91.88
654.194	89.88
654.398	96.88
654.602	88.88
654.806	89.88
655.01	103.88
655.214	103.88
655.418	100.88
655.622	100.88
655.826	96.88
656.03	91.88
656.234	80.88
656.438	83.88
656.642	112.88
656.846	101.88
657.049	90.88
657.253	87.88
657.457	87.88
657.661	84.88
657.865	91.88
658.068	67.88
658.272	95.88
658.476	81.88
658.68	90.88
658.883	93.88
659.087	84.88
659.291	87.88
659.494	93.88
659.698	91.88
659.901	97.88
660.105	87.88
660.309	93.88
660.512	79.88
660.716	92.88
660.919	86.88
661.123	97.88
661.326	87.88
661.53	81.88
661.733	86.88
661.936	83.88
662.14	84.88
662.343	82.88
662.546	93.88
662.75	84.88
662.953	83.88
663.156	91.88
663.36	94.88
663.563	81.88
663.766	72.88
663.969	88.88
664.173	87.88
664.376	76.88
664.579	92.88
664.782	90.88
664.985	86.88
665.188	85.88
665.391	102.88
665.594	80.88
665.797	84.88
666	77.88
666.203	80.88
666.406	75.88
666.609	88.88
666.812	75.88
667.015	90.88
667.218	88.88
667.421	91.88
667.624	73.88
667.827	69.88
668.03	81.88
668.232	85.88
668.435	81.88
668.638	83.88
668.841	85.88
669.043	86.88
669.246	80.88
669.449	86.88
669.651	82.88
669.854	82.88
670.057	83.88
670.259	83.88
670.462	97.88
670.665	71.88
670.867	81.88
671.07	90.88
671.272	75.88
671.475	80.88
671.677	84.88
671.88	79.88
672.082	80.88
672.284	95.88
672.487	73.88
672.689	78.88
672.892	78.88
