Data from 1968.PennyLincolnUp.Lamp.En5.5.200Scan.071719.P1._HRD10591_14-49-56-969.txt Node
Date: Thu Jul 18 14:49:56 EDT 2019
User: cochatt
Spectrometer: HR+D1059
Trigger mode: 1
Integration Time (sec): 1.000000E-1
Scans to average: 1
Electric dark correction enabled: true
Nonlinearity correction enabled: false
Boxcar width: 0
XAxis mode: Wavelengths
Number of Pixels in Spectrum: 2048
>>>>>Begin Spectral Data<<<<<
223.165	-4.25
223.4	-4.25
223.635	-4.25
223.869	-14.25
224.104	-11.25
224.338	-22.25
224.573	-11.25
224.808	-12.25
225.042	-4.25
225.277	6.75
225.511	1.75
225.746	23.75
225.98	-7.25
226.215	-0.25
226.449	-2.25
226.683	14.75
226.918	16.75
227.152	25.75
227.387	40.75
227.621	34.75
227.856	37.75
228.09	38.75
228.324	54.75
228.559	58.75
228.793	51.75
229.027	59.75
229.262	71.75
229.496	60.75
229.73	62.75
229.964	69.75
230.199	78.75
230.433	73.75
230.667	77.75
230.901	85.75
231.136	79.75
231.37	79.75
231.604	85.75
231.838	69.75
232.072	81.75
232.306	73.75
232.541	76.75
232.775	92.75
233.009	82.75
233.243	88.75
233.477	91.75
233.711	80.75
233.945	82.75
234.179	85.75
234.413	87.75
234.647	86.75
234.881	79.75
235.115	76.75
235.349	83.75
235.583	79.75
235.817	83.75
236.051	73.75
236.285	78.75
236.519	88.75
236.753	80.75
236.987	69.75
237.221	97.75
237.455	75.75
237.689	85.75
237.922	91.75
238.156	81.75
238.39	93.75
238.624	75.75
238.858	79.75
239.091	76.75
239.325	87.75
239.559	88.75
239.793	72.75
240.027	92.75
240.26	79.75
240.494	75.75
240.728	77.75
240.961	87.75
241.195	77.75
241.429	63.75
241.662	76.75
241.896	75.75
242.13	77.75
242.363	89.75
242.597	75.75
242.83	87.75
243.064	76.75
243.298	80.75
243.531	92.75
243.765	81.75
243.998	89.75
244.232	82.75
244.465	75.75
244.699	85.75
244.932	74.75
245.166	86.75
245.399	88.75
245.633	90.75
245.866	81.75
246.099	87.75
246.333	85.75
246.566	90.75
246.8	97.75
247.033	89.75
247.266	87.75
247.5	88.75
247.733	87.75
247.966	83.75
248.2	93.75
248.433	79.75
248.666	76.75
248.899	91.75
249.133	84.75
249.366	95.75
249.599	90.75
249.832	71.75
250.066	82.75
250.299	87.75
250.532	85.75
250.765	90.75
250.998	103.75
251.231	80.75
251.465	94.75
251.698	87.75
251.931	91.75
252.164	91.75
252.397	92.75
252.63	79.75
252.863	92.75
253.096	89.75
253.329	86.75
253.562	89.75
253.795	88.75
254.028	82.75
254.261	100.75
254.494	98.75
254.727	82.75
254.96	96.75
255.193	87.75
255.426	81.75
255.659	91.75
255.892	85.75
256.124	82.75
256.357	102.75
256.59	103.75
256.823	95.75
257.056	85.75
257.289	91.75
257.521	93.75
257.754	82.75
257.987	78.75
258.22	97.75
258.452	84.75
258.685	89.75
258.918	95.75
259.151	93.75
259.383	89.75
259.616	82.75
259.849	98.75
260.081	85.75
260.314	100.75
260.547	77.75
260.779	113.75
261.012	95.75
261.244	90.75
261.477	83.75
261.71	94.75
261.942	77.75
262.175	91.75
262.407	89.75
262.64	94.75
262.872	85.75
263.105	93.75
263.337	92.75
263.57	90.75
263.802	93.75
264.035	79.75
264.267	94.75
264.499	78.75
264.732	90.75
264.964	90.75
265.197	107.75
265.429	96.75
265.661	92.75
265.894	98.75
266.126	98.75
266.358	91.75
266.591	101.75
266.823	100.75
267.055	89.75
267.287	87.75
267.52	87.75
267.752	106.75
267.984	84.75
268.216	74.75
268.448	85.75
268.681	83.75
268.913	89.75
269.145	94.75
269.377	80.75
269.609	95.75
269.841	90.75
270.073	101.75
270.306	91.75
270.538	84.75
270.77	102.75
271.002	116.75
271.234	91.75
271.466	87.75
271.698	85.75
271.93	96.75
272.162	108.75
272.394	91.75
272.626	92.75
272.858	101.75
273.09	91.75
273.322	92.75
273.553	92.75
273.785	89.75
274.017	86.75
274.249	94.75
274.481	91.75
274.713	100.75
274.945	92.75
275.176	89.75
275.408	74.75
275.64	89.75
275.872	96.75
276.104	88.75
276.335	78.75
276.567	85.75
276.799	87.75
277.031	95.75
277.262	102.75
277.494	98.75
277.726	102.75
277.957	92.75
278.189	93.75
278.421	98.75
278.652	90.75
278.884	88.75
279.115	113.75
279.347	105.75
279.579	94.75
279.81	102.75
280.042	106.75
280.273	93.75
280.505	101.75
280.736	103.75
280.968	100.75
281.199	95.75
281.431	95.75
281.662	91.75
281.894	107.75
282.125	112.75
282.356	89.75
282.588	102.75
282.819	113.75
283.051	123.75
283.282	101.75
283.513	101.75
283.745	92.75
283.976	104.75
284.207	100.75
284.439	109.75
284.67	108.75
284.901	109.75
285.132	106.75
285.364	97.75
285.595	94.75
285.826	88.75
286.057	88.75
286.288	97.75
286.52	104.75
286.751	92.75
286.982	95.75
287.213	100.75
287.444	102.75
287.675	94.75
287.906	118.75
288.138	83.75
288.369	92.75
288.6	93.75
288.831	105.75
289.062	108.75
289.293	111.75
289.524	110.75
289.755	95.75
289.986	91.75
290.217	105.75
290.448	103.75
290.679	113.75
290.91	103.75
291.141	97.75
291.371	101.75
291.602	92.75
291.833	83.75
292.064	92.75
292.295	106.75
292.526	107.75
292.757	86.75
292.987	106.75
293.218	93.75
293.449	103.75
293.68	105.75
293.91	95.75
294.141	105.75
294.372	104.75
294.603	100.75
294.833	103.75
295.064	100.75
295.295	98.75
295.525	102.75
295.756	101.75
295.987	110.75
296.217	110.75
296.448	102.75
296.679	99.75
296.909	116.75
297.14	103.75
297.37	115.75
297.601	107.75
297.831	111.75
298.062	113.75
298.292	104.75
298.523	104.75
298.753	92.75
298.984	100.75
299.214	108.75
299.445	99.75
299.675	113.75
299.905	107.75
300.136	102.75
300.366	103.75
300.597	96.75
300.827	102.75
301.057	116.75
301.288	90.75
301.518	96.75
301.748	106.75
301.979	90.75
302.209	91.75
302.439	98.75
302.669	99.75
302.9	109.75
303.13	84.75
303.36	103.75
303.59	105.75
303.82	110.75
304.051	99.75
304.281	106.75
304.511	101.75
304.741	108.75
304.971	112.75
305.201	103.75
305.431	105.75
305.661	97.75
305.891	101.75
306.121	105.75
306.352	108.75
306.582	107.75
306.812	92.75
307.042	93.75
307.272	89.75
307.502	94.75
307.731	99.75
307.961	93.75
308.191	90.75
308.421	111.75
308.651	118.75
308.881	105.75
309.111	112.75
309.341	124.75
309.571	103.75
309.8	95.75
310.03	103.75
310.26	110.75
310.49	114.75
310.72	106.75
310.949	103.75
311.179	110.75
311.409	88.75
311.639	108.75
311.868	102.75
312.098	108.75
312.328	98.75
312.557	117.75
312.787	119.75
313.017	109.75
313.246	97.75
313.476	99.75
313.706	103.75
313.935	109.75
314.165	95.75
314.394	105.75
314.624	118.75
314.853	111.75
315.083	100.75
315.312	106.75
315.542	109.75
315.771	105.75
316.001	102.75
316.23	121.75
316.46	101.75
316.689	111.75
316.919	98.75
317.148	117.75
317.377	101.75
317.607	101.75
317.836	95.75
318.065	88.75
318.295	109.75
318.524	102.75
318.753	101.75
318.983	118.75
319.212	99.75
319.441	113.75
319.67	110.75
319.9	117.75
320.129	101.75
320.358	115.75
320.587	113.75
320.816	106.75
321.046	105.75
321.275	116.75
321.504	89.75
321.733	111.75
321.962	105.75
322.191	105.75
322.42	117.75
322.649	105.75
322.878	123.75
323.108	110.75
323.337	115.75
323.566	124.75
323.795	109.75
324.024	119.75
324.253	116.75
324.482	140.75
324.71	133.75
324.939	164.75
325.168	149.75
325.397	122.75
325.626	93.75
325.855	119.75
326.084	112.75
326.313	111.75
326.542	97.75
326.77	103.75
326.999	116.75
327.228	121.75
327.457	143.75
327.686	158.75
327.914	132.75
328.143	118.75
328.372	106.75
328.6	106.75
328.829	105.75
329.058	119.75
329.287	102.75
329.515	101.75
329.744	130.75
329.972	108.75
330.201	115.75
330.43	113.75
330.658	123.75
330.887	107.75
331.115	112.75
331.344	119.75
331.572	117.75
331.801	113.75
332.03	102.75
332.258	109.75
332.486	114.75
332.715	104.75
332.943	113.75
333.172	113.75
333.4	122.75
333.629	128.75
333.857	117.75
334.085	121.75
334.314	113.75
334.542	106.75
334.771	125.75
334.999	124.75
335.227	111.75
335.455	111.75
335.684	122.75
335.912	115.75
336.14	108.75
336.369	104.75
336.597	108.75
336.825	121.75
337.053	113.75
337.281	105.75
337.51	97.75
337.738	117.75
337.966	97.75
338.194	115.75
338.422	125.75
338.65	126.75
338.878	109.75
339.106	113.75
339.334	126.75
339.562	117.75
339.79	103.75
340.018	114.75
340.246	104.75
340.474	95.75
340.702	103.75
340.93	127.75
341.158	106.75
341.386	106.75
341.614	115.75
341.842	117.75
342.07	103.75
342.298	117.75
342.526	105.75
342.754	98.75
342.981	117.75
343.209	110.75
343.437	108.75
343.665	104.75
343.893	110.75
344.12	117.75
344.348	122.75
344.576	115.75
344.804	118.75
345.031	124.75
345.259	106.75
345.487	114.75
345.714	110.75
345.942	117.75
346.17	110.75
346.397	106.75
346.625	121.75
346.853	102.75
347.08	118.75
347.308	109.75
347.535	99.75
347.763	120.75
347.99	109.75
348.218	109.75
348.445	102.75
348.673	117.75
348.9	92.75
349.128	107.75
349.355	117.75
349.583	121.75
349.81	94.75
350.037	106.75
350.265	105.75
350.492	107.75
350.72	114.75
350.947	108.75
351.174	110.75
351.402	99.75
351.629	99.75
351.856	102.75
352.083	109.75
352.311	105.75
352.538	116.75
352.765	114.75
352.992	108.75
353.22	94.75
353.447	109.75
353.674	110.75
353.901	115.75
354.128	116.75
354.355	100.75
354.583	111.75
354.81	108.75
355.037	108.75
355.264	107.75
355.491	112.75
355.718	105.75
355.945	97.75
356.172	101.75
356.399	117.75
356.626	118.75
356.853	111.75
357.08	107.75
357.307	109.75
357.534	96.75
357.761	105.75
357.988	117.75
358.215	116.75
358.441	119.75
358.668	115.75
358.895	111.75
359.122	104.75
359.349	96.75
359.576	92.75
359.802	107.75
360.029	135.75
360.256	110.75
360.483	115.75
360.709	97.75
360.936	117.75
361.163	114.75
361.39	106.75
361.616	97.75
361.843	101.75
362.07	100.75
362.296	121.75
362.523	117.75
362.749	114.75
362.976	110.75
363.203	113.75
363.429	102.75
363.656	114.75
363.882	125.75
364.109	100.75
364.335	119.75
364.562	104.75
364.788	113.75
365.015	98.75
365.241	109.75
365.468	137.75
365.694	106.75
365.92	102.75
366.147	98.75
366.373	114.75
366.599	110.75
366.826	100.75
367.052	100.75
367.278	94.75
367.505	110.75
367.731	119.75
367.957	105.75
368.184	112.75
368.41	117.75
368.636	113.75
368.862	121.75
369.089	110.75
369.315	119.75
369.541	108.75
369.767	98.75
369.993	106.75
370.219	115.75
370.445	104.75
370.672	127.75
370.898	118.75
371.124	117.75
371.35	103.75
371.576	110.75
371.802	118.75
372.028	120.75
372.254	129.75
372.48	123.75
372.706	97.75
372.932	123.75
373.158	116.75
373.384	115.75
373.61	121.75
373.835	117.75
374.061	109.75
374.287	109.75
374.513	104.75
374.739	107.75
374.965	109.75
375.191	114.75
375.416	131.75
375.642	110.75
375.868	113.75
376.094	104.75
376.319	101.75
376.545	114.75
376.771	107.75
376.997	129.75
377.222	110.75
377.448	90.75
377.674	104.75
377.899	117.75
378.125	105.75
378.35	106.75
378.576	110.75
378.802	117.75
379.027	123.75
379.253	130.75
379.478	117.75
379.704	125.75
379.929	111.75
380.155	110.75
380.38	101.75
380.606	100.75
380.831	119.75
381.057	109.75
381.282	117.75
381.507	109.75
381.733	100.75
381.958	105.75
382.184	103.75
382.409	113.75
382.634	115.75
382.86	100.75
383.085	125.75
383.31	106.75
383.535	122.75
383.761	113.75
383.986	115.75
384.211	104.75
384.436	97.75
384.662	110.75
384.887	128.75
385.112	119.75
385.337	121.75
385.562	132.75
385.787	130.75
386.013	122.75
386.238	109.75
386.463	115.75
386.688	117.75
386.913	107.75
387.138	113.75
387.363	121.75
387.588	110.75
387.813	109.75
388.038	116.75
388.263	114.75
388.488	117.75
388.713	107.75
388.938	119.75
389.163	119.75
389.387	123.75
389.612	115.75
389.837	112.75
390.062	123.75
390.287	110.75
390.512	125.75
390.736	113.75
390.961	126.75
391.186	113.75
391.411	114.75
391.636	113.75
391.86	116.75
392.085	129.75
392.31	126.75
392.534	114.75
392.759	104.75
392.984	115.75
393.208	132.75
393.433	113.75
393.658	119.75
393.882	114.75
394.107	138.75
394.331	128.75
394.556	122.75
394.78	133.75
395.005	123.75
395.229	129.75
395.454	122.75
395.678	119.75
395.903	125.75
396.127	129.75
396.352	117.75
396.576	124.75
396.801	131.75
397.025	121.75
397.249	120.75
397.474	124.75
397.698	124.75
397.922	128.75
398.147	121.75
398.371	115.75
398.595	125.75
398.82	118.75
399.044	120.75
399.268	133.75
399.492	138.75
399.717	144.75
399.941	138.75
400.165	143.75
400.389	133.75
400.613	138.75
400.837	138.75
401.062	127.75
401.286	113.75
401.51	114.75
401.734	129.75
401.958	127.75
402.182	129.75
402.406	126.75
402.63	131.75
402.854	109.75
403.078	129.75
403.302	127.75
403.526	136.75
403.75	121.75
403.974	126.75
404.198	141.75
404.422	126.75
404.645	147.75
404.869	133.75
405.093	123.75
405.317	135.75
405.541	137.75
405.765	149.75
405.988	135.75
406.212	128.75
406.436	131.75
406.66	131.75
406.883	135.75
407.107	136.75
407.331	131.75
407.555	122.75
407.778	133.75
408.002	140.75
408.226	124.75
408.449	126.75
408.673	125.75
408.896	144.75
409.12	130.75
409.344	151.75
409.567	138.75
409.791	127.75
410.014	151.75
410.238	124.75
410.461	125.75
410.685	136.75
410.908	123.75
411.132	121.75
411.355	136.75
411.578	137.75
411.802	131.75
412.025	132.75
412.249	139.75
412.472	145.75
412.695	131.75
412.919	128.75
413.142	132.75
413.365	135.75
413.589	117.75
413.812	131.75
414.035	127.75
414.258	142.75
414.482	132.75
414.705	138.75
414.928	133.75
415.151	119.75
415.374	127.75
415.597	134.75
415.821	134.75
416.044	130.75
416.267	132.75
416.49	142.75
416.713	121.75
416.936	129.75
417.159	125.75
417.382	120.75
417.605	136.75
417.828	132.75
418.051	123.75
418.274	127.75
418.497	127.75
418.72	133.75
418.943	137.75
419.166	135.75
419.389	142.75
419.611	121.75
419.834	143.75
420.057	136.75
420.28	119.75
420.503	125.75
420.726	128.75
420.948	124.75
421.171	126.75
421.394	141.75
421.617	129.75
421.839	133.75
422.062	116.75
422.285	133.75
422.507	121.75
422.73	131.75
422.953	129.75
423.175	133.75
423.398	124.75
423.621	139.75
423.843	131.75
424.066	129.75
424.288	131.75
424.511	141.75
424.733	130.75
424.956	132.75
425.178	133.75
425.401	131.75
425.623	128.75
425.846	126.75
426.068	126.75
426.291	120.75
426.513	134.75
426.735	151.75
426.958	128.75
427.18	139.75
427.402	130.75
427.625	141.75
427.847	130.75
428.069	121.75
428.292	117.75
428.514	130.75
428.736	133.75
428.958	116.75
429.181	129.75
429.403	123.75
429.625	113.75
429.847	129.75
430.069	111.75
430.292	108.75
430.514	133.75
430.736	133.75
430.958	140.75
431.18	123.75
431.402	123.75
431.624	130.75
431.846	119.75
432.068	131.75
432.29	123.75
432.512	123.75
432.734	121.75
432.956	132.75
433.178	131.75
433.4	122.75
433.622	123.75
433.844	123.75
434.066	120.75
434.287	120.75
434.509	134.75
434.731	128.75
434.953	130.75
435.175	123.75
435.397	125.75
435.618	135.75
435.84	136.75
436.062	131.75
436.284	137.75
436.505	150.75
436.727	121.75
436.949	128.75
437.17	119.75
437.392	127.75
437.614	138.75
437.835	118.75
438.057	116.75
438.278	135.75
438.5	132.75
438.721	145.75
438.943	144.75
439.165	123.75
439.386	126.75
439.608	127.75
439.829	117.75
440.05	148.75
440.272	131.75
440.493	114.75
440.715	122.75
440.936	110.75
441.158	133.75
441.379	129.75
441.6	142.75
441.822	133.75
442.043	131.75
442.264	147.75
442.486	140.75
442.707	139.75
442.928	135.75
443.149	121.75
443.371	135.75
443.592	127.75
443.813	129.75
444.034	134.75
444.255	144.75
444.476	131.75
444.698	127.75
444.919	142.75
445.14	254.75
445.361	185.75
445.582	129.75
445.803	132.75
446.024	125.75
446.245	142.75
446.466	142.75
446.687	125.75
446.908	126.75
447.129	128.75
447.35	119.75
447.571	121.75
447.792	125.75
448.013	129.75
448.234	116.75
448.455	132.75
448.675	126.75
448.896	131.75
449.117	130.75
449.338	125.75
449.559	137.75
449.779	138.75
450	129.75
450.221	127.75
450.442	116.75
450.662	135.75
450.883	121.75
451.104	129.75
451.324	110.75
451.545	121.75
451.766	105.75
451.986	113.75
452.207	127.75
452.428	119.75
452.648	121.75
452.869	127.75
453.089	120.75
453.31	120.75
453.53	124.75
453.751	133.75
453.971	111.75
454.192	100.75
454.412	123.75
454.633	132.75
454.853	125.75
455.073	122.75
455.294	121.75
455.514	131.75
455.734	113.75
455.955	119.75
456.175	117.75
456.395	114.75
456.616	98.75
456.836	117.75
457.056	113.75
457.276	119.75
457.497	120.75
457.717	110.75
457.937	101.75
458.157	118.75
458.377	107.75
458.598	133.75
458.818	125.75
459.038	141.75
459.258	121.75
459.478	126.75
459.698	118.75
459.918	146.75
460.138	139.75
460.358	131.75
460.578	130.75
460.798	145.75
461.018	131.75
461.238	139.75
461.458	141.75
461.678	144.75
461.898	127.75
462.118	126.75
462.338	130.75
462.558	131.75
462.777	130.75
462.997	142.75
463.217	154.75
463.437	153.75
463.657	147.75
463.876	139.75
464.096	118.75
464.316	143.75
464.536	133.75
464.755	146.75
464.975	131.75
465.195	134.75
465.414	135.75
465.634	132.75
465.854	134.75
466.073	135.75
466.293	124.75
466.512	122.75
466.732	102.75
466.951	105.75
467.171	131.75
467.391	125.75
467.61	123.75
467.829	117.75
468.049	130.75
468.268	129.75
468.488	118.75
468.707	114.75
468.927	125.75
469.146	121.75
469.365	137.75
469.585	121.75
469.804	123.75
470.023	115.75
470.243	109.75
470.462	106.75
470.681	133.75
470.901	115.75
471.12	110.75
471.339	121.75
471.558	125.75
471.777	125.75
471.997	124.75
472.216	125.75
472.435	126.75
472.654	118.75
472.873	114.75
473.092	111.75
473.311	114.75
473.53	117.75
473.749	119.75
473.968	122.75
474.187	122.75
474.406	118.75
474.625	135.75
474.844	126.75
475.063	123.75
475.282	137.75
475.501	122.75
475.72	107.75
475.939	131.75
476.158	127.75
476.377	121.75
476.596	126.75
476.814	130.75
477.033	129.75
477.252	117.75
477.471	120.75
477.69	121.75
477.908	125.75
478.127	135.75
478.346	137.75
478.564	133.75
478.783	139.75
479.002	134.75
479.22	147.75
479.439	144.75
479.658	138.75
479.876	121.75
480.095	115.75
480.313	132.75
480.532	135.75
480.751	125.75
480.969	125.75
481.188	137.75
481.406	137.75
481.624	126.75
481.843	125.75
482.061	127.75
482.28	126.75
482.498	134.75
482.717	124.75
482.935	128.75
483.153	126.75
483.372	128.75
483.59	123.75
483.808	133.75
484.027	130.75
484.245	133.75
484.463	143.75
484.681	127.75
484.9	124.75
485.118	148.75
485.336	135.75
485.554	119.75
485.772	135.75
485.99	116.75
486.209	125.75
486.427	125.75
486.645	129.75
486.863	110.75
487.081	137.75
487.299	124.75
487.517	133.75
487.735	122.75
487.953	130.75
488.171	144.75
488.389	133.75
488.607	135.75
488.825	133.75
489.043	139.75
489.261	136.75
489.479	134.75
489.696	123.75
489.914	123.75
490.132	137.75
490.35	144.75
490.568	142.75
490.786	133.75
491.003	127.75
491.221	133.75
491.439	148.75
491.657	134.75
491.874	143.75
492.092	141.75
492.31	147.75
492.527	149.75
492.745	129.75
492.963	137.75
493.18	134.75
493.398	146.75
493.615	146.75
493.833	148.75
494.05	153.75
494.268	138.75
494.485	141.75
494.703	133.75
494.92	154.75
495.138	144.75
495.355	143.75
495.573	141.75
495.79	127.75
496.008	146.75
496.225	151.75
496.442	148.75
496.66	135.75
496.877	139.75
497.094	144.75
497.312	155.75
497.529	139.75
497.746	141.75
497.963	156.75
498.181	155.75
498.398	151.75
498.615	152.75
498.832	157.75
499.049	162.75
499.267	163.75
499.484	169.75
499.701	178.75
499.918	185.75
500.135	193.75
500.352	207.75
500.569	217.75
500.786	207.75
501.003	210.75
501.22	183.75
501.437	163.75
501.654	177.75
501.871	169.75
502.088	182.75
502.305	165.75
502.522	159.75
502.739	154.75
502.956	151.75
503.172	164.75
503.389	149.75
503.606	140.75
503.823	156.75
504.04	151.75
504.256	151.75
504.473	142.75
504.69	147.75
504.907	147.75
505.123	144.75
505.34	138.75
505.557	161.75
505.773	143.75
505.99	131.75
506.207	125.75
506.423	136.75
506.64	128.75
506.856	140.75
507.073	138.75
507.289	130.75
507.506	137.75
507.722	116.75
507.939	136.75
508.155	121.75
508.372	130.75
508.588	107.75
508.805	123.75
509.021	135.75
509.238	125.75
509.454	123.75
509.67	111.75
509.887	141.75
510.103	126.75
510.319	114.75
510.536	144.75
510.752	155.75
510.968	128.75
511.184	123.75
511.401	129.75
511.617	133.75
511.833	127.75
512.049	127.75
512.265	123.75
512.481	129.75
512.698	135.75
512.914	141.75
513.13	121.75
513.346	125.75
513.562	119.75
513.778	134.75
513.994	121.75
514.21	144.75
514.426	124.75
514.642	141.75
514.858	129.75
515.074	129.75
515.29	133.75
515.506	165.75
515.721	150.75
515.937	135.75
516.153	115.75
516.369	124.75
516.585	149.75
516.801	121.75
517.016	127.75
517.232	124.75
517.448	140.75
517.664	134.75
517.879	152.75
518.095	132.75
518.311	128.75
518.527	131.75
518.742	135.75
518.958	124.75
519.173	126.75
519.389	141.75
519.605	128.75
519.82	135.75
520.036	137.75
520.251	131.75
520.467	142.75
520.682	115.75
520.898	137.75
521.113	127.75
521.329	148.75
521.544	125.75
521.76	151.75
521.975	168.75
522.19	175.75
522.406	134.75
522.621	131.75
522.836	128.75
523.052	143.75
523.267	121.75
523.482	120.75
523.698	126.75
523.913	127.75
524.128	118.75
524.343	112.75
524.559	122.75
524.774	121.75
524.989	135.75
525.204	125.75
525.419	130.75
525.634	121.75
525.849	114.75
526.064	112.75
526.28	120.75
526.495	114.75
526.71	116.75
526.925	120.75
527.14	126.75
527.355	123.75
527.57	123.75
527.785	124.75
527.999	124.75
528.214	126.75
528.429	141.75
528.644	119.75
528.859	111.75
529.074	126.75
529.289	125.75
529.503	127.75
529.718	129.75
529.933	125.75
530.148	131.75
530.363	125.75
530.577	130.75
530.792	125.75
531.007	122.75
531.221	116.75
531.436	115.75
531.651	114.75
531.865	122.75
532.08	130.75
532.295	120.75
532.509	115.75
532.724	147.75
532.938	122.75
533.153	102.75
533.367	117.75
533.582	106.75
533.796	107.75
534.011	117.75
534.225	127.75
534.44	123.75
534.654	123.75
534.868	124.75
535.083	116.75
535.297	114.75
535.511	109.75
535.726	106.75
535.94	123.75
536.154	124.75
536.369	109.75
536.583	113.75
536.797	116.75
537.011	114.75
537.225	115.75
537.44	118.75
537.654	126.75
537.868	117.75
538.082	123.75
538.296	124.75
538.51	115.75
538.724	126.75
538.938	124.75
539.153	115.75
539.367	111.75
539.581	127.75
539.795	115.75
540.009	135.75
540.222	111.75
540.436	113.75
540.65	113.75
540.864	120.75
541.078	129.75
541.292	126.75
541.506	129.75
541.72	116.75
541.934	127.75
542.147	146.75
542.361	144.75
542.575	131.75
542.789	131.75
543.002	143.75
543.216	132.75
543.43	128.75
543.644	135.75
543.857	131.75
544.071	131.75
544.285	125.75
544.498	137.75
544.712	131.75
544.925	136.75
545.139	124.75
545.352	125.75
545.566	137.75
545.779	131.75
545.993	125.75
546.206	146.75
546.42	161.75
546.633	133.75
546.847	117.75
547.06	120.75
547.274	131.75
547.487	131.75
547.7	108.75
547.914	123.75
548.127	125.75
548.34	125.75
548.554	135.75
548.767	109.75
548.98	121.75
549.193	122.75
549.407	137.75
549.62	127.75
549.833	145.75
550.046	146.75
550.259	128.75
550.473	127.75
550.686	117.75
550.899	127.75
551.112	125.75
551.325	119.75
551.538	121.75
551.751	122.75
551.964	120.75
552.177	117.75
552.39	120.75
552.603	117.75
552.816	137.75
553.029	127.75
553.242	124.75
553.455	124.75
553.667	135.75
553.88	121.75
554.093	119.75
554.306	134.75
554.519	118.75
554.732	122.75
554.944	123.75
555.157	123.75
555.37	131.75
555.583	127.75
555.795	125.75
556.008	118.75
556.221	127.75
556.433	123.75
556.646	112.75
556.859	123.75
557.071	130.75
557.284	93.75
557.496	115.75
557.709	110.75
557.921	112.75
558.134	121.75
558.346	93.75
558.559	102.75
558.771	102.75
558.984	114.75
559.196	129.75
559.409	113.75
559.621	103.75
559.833	111.75
560.046	101.75
560.258	114.75
560.47	107.75
560.683	121.75
560.895	106.75
561.107	127.75
561.32	126.75
561.532	108.75
561.744	117.75
561.956	123.75
562.168	117.75
562.381	102.75
562.593	122.75
562.805	109.75
563.017	100.75
563.229	118.75
563.441	121.75
563.653	110.75
563.865	119.75
564.077	129.75
564.289	126.75
564.501	120.75
564.713	113.75
564.925	119.75
565.137	132.75
565.349	122.75
565.561	126.75
565.773	135.75
565.985	118.75
566.197	129.75
566.408	129.75
566.62	123.75
566.832	142.75
567.044	144.75
567.255	138.75
567.467	137.75
567.679	142.75
567.891	137.75
568.102	125.75
568.314	141.75
568.526	133.75
568.737	123.75
568.949	120.75
569.161	121.75
569.372	130.75
569.584	122.75
569.795	123.75
570.007	125.75
570.218	109.75
570.43	117.75
570.641	113.75
570.853	115.75
571.064	105.75
571.276	115.75
571.487	114.75
571.698	122.75
571.91	129.75
572.121	114.75
572.333	117.75
572.544	115.75
572.755	119.75
572.966	121.75
573.178	107.75
573.389	111.75
573.6	91.75
573.811	118.75
574.023	113.75
574.234	100.75
574.445	106.75
574.656	122.75
574.867	109.75
575.078	101.75
575.289	105.75
575.501	95.75
575.712	117.75
575.923	113.75
576.134	110.75
576.345	122.75
576.556	101.75
576.767	113.75
576.978	109.75
577.188	108.75
577.399	110.75
577.61	103.75
577.821	121.75
578.032	108.75
578.243	115.75
578.454	109.75
578.665	115.75
578.875	109.75
579.086	123.75
579.297	120.75
579.508	100.75
579.718	103.75
579.929	99.75
580.14	115.75
580.35	109.75
580.561	109.75
580.772	116.75
580.982	108.75
581.193	95.75
581.403	110.75
581.614	98.75
581.825	106.75
582.035	99.75
582.246	93.75
582.456	110.75
582.667	110.75
582.877	110.75
583.087	108.75
583.298	119.75
583.508	108.75
583.719	108.75
583.929	101.75
584.139	94.75
584.35	110.75
584.56	118.75
584.77	102.75
584.981	104.75
585.191	124.75
585.401	117.75
585.611	97.75
585.821	115.75
586.032	104.75
586.242	104.75
586.452	113.75
586.662	109.75
586.872	119.75
587.082	122.75
587.292	104.75
587.502	114.75
587.713	95.75
587.923	114.75
588.133	115.75
588.343	108.75
588.553	97.75
588.762	107.75
588.972	102.75
589.182	106.75
589.392	114.75
589.602	114.75
589.812	89.75
590.022	109.75
590.232	106.75
590.441	102.75
590.651	109.75
590.861	107.75
591.071	95.75
591.281	110.75
591.49	103.75
591.7	106.75
591.91	101.75
592.119	84.75
592.329	122.75
592.539	103.75
592.748	111.75
592.958	120.75
593.167	115.75
593.377	118.75
593.587	115.75
593.796	109.75
594.006	119.75
594.215	109.75
594.424	101.75
594.634	114.75
594.843	116.75
595.053	110.75
595.262	107.75
595.472	113.75
595.681	115.75
595.89	105.75
596.1	96.75
596.309	108.75
596.518	100.75
596.727	104.75
596.937	114.75
597.146	104.75
597.355	108.75
597.564	104.75
597.774	93.75
597.983	103.75
598.192	97.75
598.401	106.75
598.61	98.75
598.819	104.75
599.028	88.75
599.237	101.75
599.446	117.75
599.655	85.75
599.864	94.75
600.073	107.75
600.282	88.75
600.491	99.75
600.7	105.75
600.909	97.75
601.118	90.75
601.327	104.75
601.536	117.75
601.745	110.75
601.953	110.75
602.162	105.75
602.371	101.75
602.58	113.75
602.789	105.75
602.997	101.75
603.206	120.75
603.415	97.75
603.623	92.75
603.832	108.75
604.041	89.75
604.249	85.75
604.458	104.75
604.666	95.75
604.875	110.75
605.084	103.75
605.292	90.75
605.501	98.75
605.709	106.75
605.918	97.75
606.126	98.75
606.334	103.75
606.543	99.75
606.751	86.75
606.96	105.75
607.168	87.75
607.376	111.75
607.585	112.75
607.793	119.75
608.001	102.75
608.21	91.75
608.418	82.75
608.626	98.75
608.834	108.75
609.043	101.75
609.251	98.75
609.459	107.75
609.667	110.75
609.875	104.75
610.083	99.75
610.291	88.75
610.499	111.75
610.707	107.75
610.916	106.75
611.124	116.75
611.332	118.75
611.54	104.75
611.748	109.75
611.955	110.75
612.163	82.75
612.371	111.75
612.579	92.75
612.787	124.75
612.995	95.75
613.203	113.75
613.411	105.75
613.618	109.75
613.826	102.75
614.034	119.75
614.242	103.75
614.449	107.75
614.657	101.75
614.865	101.75
615.072	88.75
615.28	93.75
615.488	110.75
615.695	95.75
615.903	104.75
616.111	97.75
616.318	95.75
616.526	101.75
616.733	103.75
616.941	94.75
617.148	96.75
617.356	123.75
617.563	115.75
617.771	100.75
617.978	94.75
618.185	102.75
618.393	88.75
618.6	100.75
618.807	89.75
619.015	93.75
619.222	108.75
619.429	101.75
619.637	101.75
619.844	91.75
620.051	113.75
620.258	96.75
620.466	102.75
620.673	113.75
620.88	89.75
621.087	91.75
621.294	110.75
621.501	95.75
621.708	96.75
621.915	108.75
622.122	97.75
622.329	107.75
622.536	94.75
622.743	78.75
622.95	106.75
623.157	94.75
623.364	90.75
623.571	114.75
623.778	103.75
623.985	113.75
624.192	107.75
624.399	97.75
624.606	108.75
624.812	106.75
625.019	107.75
625.226	98.75
625.433	105.75
625.639	102.75
625.846	101.75
626.053	101.75
626.259	95.75
626.466	107.75
626.673	101.75
626.879	100.75
627.086	98.75
627.293	102.75
627.499	95.75
627.706	118.75
627.912	94.75
628.119	106.75
628.325	92.75
628.532	87.75
628.738	105.75
628.945	102.75
629.151	91.75
629.357	93.75
629.564	95.75
629.77	97.75
629.976	106.75
630.183	82.75
630.389	113.75
630.595	101.75
630.802	92.75
631.008	82.75
631.214	92.75
631.42	106.75
631.627	106.75
631.833	95.75
632.039	89.75
632.245	85.75
632.451	94.75
632.657	96.75
632.863	102.75
633.069	99.75
633.275	108.75
633.481	92.75
633.688	86.75
633.893	103.75
634.099	93.75
634.305	94.75
634.511	91.75
634.717	108.75
634.923	93.75
635.129	102.75
635.335	90.75
635.541	81.75
635.747	98.75
635.952	75.75
636.158	93.75
636.364	101.75
636.57	93.75
636.775	98.75
636.981	88.75
637.187	92.75
637.392	98.75
637.598	87.75
637.804	101.75
638.009	109.75
638.215	91.75
638.421	102.75
638.626	97.75
638.832	106.75
639.037	87.75
639.243	91.75
639.448	93.75
639.654	84.75
639.859	90.75
640.065	105.75
640.27	113.75
640.475	98.75
640.681	95.75
640.886	89.75
641.091	85.75
641.297	101.75
641.502	83.75
641.707	83.75
641.913	99.75
642.118	80.75
642.323	93.75
642.528	93.75
642.733	88.75
642.939	107.75
643.144	97.75
643.349	102.75
643.554	80.75
643.759	98.75
643.964	81.75
644.169	103.75
644.374	87.75
644.579	99.75
644.784	93.75
644.989	91.75
645.194	82.75
645.399	103.75
645.604	100.75
645.809	109.75
646.014	106.75
646.219	76.75
646.423	102.75
646.628	93.75
646.833	98.75
647.038	94.75
647.243	93.75
647.447	103.75
647.652	98.75
647.857	93.75
648.062	93.75
648.266	81.75
648.471	103.75
648.676	99.75
648.88	98.75
649.085	105.75
649.289	84.75
649.494	91.75
649.698	88.75
649.903	90.75
650.107	102.75
650.312	101.75
650.516	93.75
650.721	81.75
650.925	91.75
651.13	91.75
651.334	82.75
651.539	76.75
651.743	104.75
651.947	90.75
652.152	88.75
652.356	89.75
652.56	92.75
652.764	90.75
652.969	84.75
653.173	95.75
653.377	93.75
653.581	86.75
653.785	92.75
653.99	88.75
654.194	77.75
654.398	95.75
654.602	78.75
654.806	98.75
655.01	91.75
655.214	88.75
655.418	95.75
655.622	99.75
655.826	99.75
656.03	106.75
656.234	93.75
656.438	90.75
656.642	103.75
656.846	85.75
657.049	82.75
657.253	97.75
657.457	96.75
657.661	99.75
657.865	98.75
658.068	94.75
658.272	76.75
658.476	78.75
658.68	80.75
658.883	69.75
659.087	81.75
659.291	76.75
659.494	79.75
659.698	81.75
659.901	86.75
660.105	73.75
660.309	90.75
660.512	80.75
660.716	99.75
660.919	94.75
661.123	89.75
661.326	86.75
661.53	94.75
661.733	68.75
661.936	80.75
662.14	82.75
662.343	83.75
662.546	82.75
662.75	78.75
662.953	69.75
663.156	73.75
663.36	86.75
663.563	77.75
663.766	76.75
663.969	77.75
664.173	92.75
664.376	78.75
664.579	87.75
664.782	77.75
664.985	81.75
665.188	69.75
665.391	70.75
665.594	82.75
665.797	76.75
666	77.75
666.203	87.75
666.406	63.75
666.609	87.75
666.812	66.75
667.015	81.75
667.218	82.75
667.421	70.75
667.624	85.75
667.827	84.75
668.03	94.75
668.232	82.75
668.435	96.75
668.638	77.75
668.841	103.75
669.043	75.75
669.246	83.75
669.449	90.75
669.651	89.75
669.854	85.75
670.057	82.75
670.259	90.75
670.462	76.75
670.665	74.75
670.867	79.75
671.07	91.75
671.272	83.75
671.475	76.75
671.677	81.75
671.88	73.75
672.082	81.75
672.284	84.75
672.487	85.75
672.689	69.75
672.892	90.75
