Data from 1968.PennyLincolnUp.Lamp.En5.5.200Scan.071719.P1._HRD10591_14-49-48-969.txt Node
Date: Thu Jul 18 14:49:48 EDT 2019
User: cochatt
Spectrometer: HR+D1059
Trigger mode: 1
Integration Time (sec): 1.000000E-1
Scans to average: 1
Electric dark correction enabled: true
Nonlinearity correction enabled: false
Boxcar width: 0
XAxis mode: Wavelengths
Number of Pixels in Spectrum: 2048
>>>>>Begin Spectral Data<<<<<
223.165	-10.25
223.4	-10.25
223.635	-10.25
223.869	-14.25
224.104	-17.25
224.338	-20.25
224.573	-14.25
224.808	-8.25
225.042	-10.25
225.277	-7.25
225.511	5.75
225.746	-3.25
225.98	1.75
226.215	3.75
226.449	11.75
226.683	12.75
226.918	38.75
227.152	30.75
227.387	42.75
227.621	42.75
227.856	42.75
228.09	49.75
228.324	53.75
228.559	52.75
228.793	49.75
229.027	65.75
229.262	72.75
229.496	70.75
229.73	75.75
229.964	68.75
230.199	83.75
230.433	73.75
230.667	80.75
230.901	62.75
231.136	79.75
231.37	93.75
231.604	81.75
231.838	79.75
232.072	87.75
232.306	87.75
232.541	74.75
232.775	94.75
233.009	88.75
233.243	89.75
233.477	92.75
233.711	78.75
233.945	88.75
234.179	90.75
234.413	87.75
234.647	82.75
234.881	76.75
235.115	90.75
235.349	78.75
235.583	85.75
235.817	93.75
236.051	77.75
236.285	78.75
236.519	82.75
236.753	94.75
236.987	91.75
237.221	90.75
237.455	76.75
237.689	83.75
237.922	79.75
238.156	72.75
238.39	73.75
238.624	77.75
238.858	74.75
239.091	77.75
239.325	86.75
239.559	88.75
239.793	80.75
240.027	86.75
240.26	79.75
240.494	81.75
240.728	88.75
240.961	77.75
241.195	72.75
241.429	75.75
241.662	73.75
241.896	81.75
242.13	82.75
242.363	89.75
242.597	100.75
242.83	95.75
243.064	91.75
243.298	95.75
243.531	92.75
243.765	73.75
243.998	77.75
244.232	84.75
244.465	86.75
244.699	87.75
244.932	93.75
245.166	78.75
245.399	69.75
245.633	83.75
245.866	75.75
246.099	83.75
246.333	78.75
246.566	56.75
246.8	80.75
247.033	89.75
247.266	97.75
247.5	77.75
247.733	82.75
247.966	85.75
248.2	86.75
248.433	79.75
248.666	85.75
248.899	82.75
249.133	74.75
249.366	94.75
249.599	81.75
249.832	84.75
250.066	88.75
250.299	94.75
250.532	80.75
250.765	90.75
250.998	71.75
251.231	94.75
251.465	91.75
251.698	85.75
251.931	91.75
252.164	91.75
252.397	80.75
252.63	98.75
252.863	98.75
253.096	74.75
253.329	78.75
253.562	103.75
253.795	91.75
254.028	71.75
254.261	83.75
254.494	84.75
254.727	83.75
254.96	90.75
255.193	85.75
255.426	83.75
255.659	99.75
255.892	91.75
256.124	90.75
256.357	85.75
256.59	83.75
256.823	100.75
257.056	87.75
257.289	83.75
257.521	99.75
257.754	81.75
257.987	84.75
258.22	100.75
258.452	93.75
258.685	98.75
258.918	90.75
259.151	83.75
259.383	93.75
259.616	81.75
259.849	90.75
260.081	97.75
260.314	108.75
260.547	114.75
260.779	97.75
261.012	86.75
261.244	91.75
261.477	97.75
261.71	100.75
261.942	102.75
262.175	92.75
262.407	83.75
262.64	85.75
262.872	90.75
263.105	84.75
263.337	92.75
263.57	93.75
263.802	103.75
264.035	97.75
264.267	97.75
264.499	105.75
264.732	93.75
264.964	78.75
265.197	97.75
265.429	96.75
265.661	88.75
265.894	101.75
266.126	94.75
266.358	94.75
266.591	95.75
266.823	82.75
267.055	93.75
267.287	85.75
267.52	96.75
267.752	115.75
267.984	80.75
268.216	99.75
268.448	101.75
268.681	108.75
268.913	92.75
269.145	94.75
269.377	84.75
269.609	96.75
269.841	96.75
270.073	101.75
270.306	102.75
270.538	86.75
270.77	97.75
271.002	110.75
271.234	91.75
271.466	94.75
271.698	96.75
271.93	89.75
272.162	112.75
272.394	105.75
272.626	109.75
272.858	96.75
273.09	109.75
273.322	94.75
273.553	91.75
273.785	87.75
274.017	83.75
274.249	84.75
274.481	103.75
274.713	87.75
274.945	107.75
275.176	90.75
275.408	93.75
275.64	101.75
275.872	87.75
276.104	108.75
276.335	100.75
276.567	104.75
276.799	107.75
277.031	98.75
277.262	98.75
277.494	94.75
277.726	95.75
277.957	87.75
278.189	100.75
278.421	101.75
278.652	90.75
278.884	111.75
279.115	111.75
279.347	98.75
279.579	98.75
279.81	103.75
280.042	97.75
280.273	111.75
280.505	84.75
280.736	90.75
280.968	98.75
281.199	97.75
281.431	107.75
281.662	86.75
281.894	107.75
282.125	104.75
282.356	89.75
282.588	110.75
282.819	109.75
283.051	97.75
283.282	91.75
283.513	87.75
283.745	97.75
283.976	108.75
284.207	98.75
284.439	105.75
284.67	115.75
284.901	110.75
285.132	108.75
285.364	92.75
285.595	98.75
285.826	108.75
286.057	96.75
286.288	110.75
286.52	101.75
286.751	106.75
286.982	101.75
287.213	106.75
287.444	87.75
287.675	114.75
287.906	115.75
288.138	100.75
288.369	93.75
288.6	86.75
288.831	102.75
289.062	101.75
289.293	104.75
289.524	109.75
289.755	108.75
289.986	103.75
290.217	107.75
290.448	105.75
290.679	120.75
290.91	92.75
291.141	103.75
291.371	97.75
291.602	110.75
291.833	96.75
292.064	86.75
292.295	101.75
292.526	104.75
292.757	105.75
292.987	97.75
293.218	105.75
293.449	108.75
293.68	101.75
293.91	105.75
294.141	104.75
294.372	98.75
294.603	93.75
294.833	97.75
295.064	108.75
295.295	126.75
295.525	98.75
295.756	101.75
295.987	105.75
296.217	90.75
296.448	115.75
296.679	93.75
296.909	105.75
297.14	90.75
297.37	111.75
297.601	105.75
297.831	89.75
298.062	100.75
298.292	94.75
298.523	106.75
298.753	96.75
298.984	115.75
299.214	110.75
299.445	96.75
299.675	102.75
299.905	114.75
300.136	94.75
300.366	102.75
300.597	104.75
300.827	93.75
301.057	106.75
301.288	123.75
301.518	108.75
301.748	103.75
301.979	104.75
302.209	103.75
302.439	106.75
302.669	116.75
302.9	108.75
303.13	101.75
303.36	110.75
303.59	90.75
303.82	116.75
304.051	106.75
304.281	107.75
304.511	101.75
304.741	113.75
304.971	114.75
305.201	103.75
305.431	98.75
305.661	100.75
305.891	108.75
306.121	116.75
306.352	110.75
306.582	108.75
306.812	119.75
307.042	106.75
307.272	104.75
307.502	103.75
307.731	123.75
307.961	106.75
308.191	95.75
308.421	104.75
308.651	111.75
308.881	106.75
309.111	101.75
309.341	113.75
309.571	109.75
309.8	111.75
310.03	109.75
310.26	95.75
310.49	115.75
310.72	101.75
310.949	109.75
311.179	109.75
311.409	111.75
311.639	110.75
311.868	103.75
312.098	119.75
312.328	115.75
312.557	103.75
312.787	97.75
313.017	97.75
313.246	111.75
313.476	93.75
313.706	89.75
313.935	106.75
314.165	102.75
314.394	124.75
314.624	107.75
314.853	111.75
315.083	104.75
315.312	119.75
315.542	113.75
315.771	105.75
316.001	117.75
316.23	115.75
316.46	116.75
316.689	113.75
316.919	90.75
317.148	105.75
317.377	112.75
317.607	110.75
317.836	109.75
318.065	117.75
318.295	102.75
318.524	97.75
318.753	116.75
318.983	101.75
319.212	112.75
319.441	105.75
319.67	97.75
319.9	102.75
320.129	110.75
320.358	110.75
320.587	108.75
320.816	105.75
321.046	109.75
321.275	129.75
321.504	104.75
321.733	105.75
321.962	126.75
322.191	109.75
322.42	102.75
322.649	99.75
322.878	104.75
323.108	121.75
323.337	115.75
323.566	98.75
323.795	105.75
324.024	109.75
324.253	118.75
324.482	120.75
324.71	148.75
324.939	172.75
325.168	142.75
325.397	128.75
325.626	105.75
325.855	115.75
326.084	98.75
326.313	122.75
326.542	105.75
326.77	110.75
326.999	120.75
327.228	129.75
327.457	145.75
327.686	161.75
327.914	136.75
328.143	121.75
328.372	106.75
328.6	111.75
328.829	117.75
329.058	125.75
329.287	122.75
329.515	128.75
329.744	116.75
329.972	122.75
330.201	118.75
330.43	123.75
330.658	123.75
330.887	117.75
331.115	113.75
331.344	116.75
331.572	109.75
331.801	113.75
332.03	123.75
332.258	114.75
332.486	120.75
332.715	104.75
332.943	98.75
333.172	114.75
333.4	128.75
333.629	126.75
333.857	113.75
334.085	128.75
334.314	121.75
334.542	115.75
334.771	110.75
334.999	120.75
335.227	111.75
335.455	110.75
335.684	104.75
335.912	115.75
336.14	115.75
336.369	102.75
336.597	103.75
336.825	104.75
337.053	115.75
337.281	126.75
337.51	126.75
337.738	117.75
337.966	96.75
338.194	127.75
338.422	108.75
338.65	113.75
338.878	121.75
339.106	119.75
339.334	115.75
339.562	105.75
339.79	113.75
340.018	126.75
340.246	104.75
340.474	105.75
340.702	124.75
340.93	108.75
341.158	116.75
341.386	106.75
341.614	106.75
341.842	126.75
342.07	116.75
342.298	115.75
342.526	102.75
342.754	114.75
342.981	108.75
343.209	108.75
343.437	119.75
343.665	105.75
343.893	131.75
344.12	131.75
344.348	111.75
344.576	113.75
344.804	128.75
345.031	109.75
345.259	123.75
345.487	114.75
345.714	116.75
345.942	103.75
346.17	117.75
346.397	108.75
346.625	108.75
346.853	110.75
347.08	97.75
347.308	106.75
347.535	111.75
347.763	116.75
347.99	109.75
348.218	107.75
348.445	103.75
348.673	110.75
348.9	103.75
349.128	118.75
349.355	101.75
349.583	106.75
349.81	99.75
350.037	123.75
350.265	110.75
350.492	106.75
350.72	110.75
350.947	123.75
351.174	124.75
351.402	108.75
351.629	128.75
351.856	111.75
352.083	104.75
352.311	113.75
352.538	114.75
352.765	122.75
352.992	102.75
353.22	119.75
353.447	108.75
353.674	89.75
353.901	118.75
354.128	107.75
354.355	103.75
354.583	128.75
354.81	104.75
355.037	109.75
355.264	107.75
355.491	110.75
355.718	111.75
355.945	121.75
356.172	86.75
356.399	100.75
356.626	114.75
356.853	100.75
357.08	115.75
357.307	119.75
357.534	109.75
357.761	106.75
357.988	100.75
358.215	115.75
358.441	110.75
358.668	109.75
358.895	109.75
359.122	113.75
359.349	105.75
359.576	104.75
359.802	104.75
360.029	114.75
360.256	112.75
360.483	116.75
360.709	105.75
360.936	113.75
361.163	113.75
361.39	117.75
361.616	113.75
361.843	117.75
362.07	118.75
362.296	107.75
362.523	96.75
362.749	106.75
362.976	105.75
363.203	109.75
363.429	103.75
363.656	117.75
363.882	111.75
364.109	119.75
364.335	121.75
364.562	116.75
364.788	117.75
365.015	113.75
365.241	102.75
365.468	117.75
365.694	123.75
365.92	118.75
366.147	106.75
366.373	116.75
366.599	109.75
366.826	108.75
367.052	107.75
367.278	102.75
367.505	100.75
367.731	103.75
367.957	106.75
368.184	116.75
368.41	117.75
368.636	118.75
368.862	123.75
369.089	97.75
369.315	108.75
369.541	111.75
369.767	119.75
369.993	105.75
370.219	119.75
370.445	115.75
370.672	106.75
370.898	121.75
371.124	117.75
371.35	104.75
371.576	109.75
371.802	116.75
372.028	129.75
372.254	102.75
372.48	92.75
372.706	105.75
372.932	122.75
373.158	128.75
373.384	121.75
373.61	120.75
373.835	132.75
374.061	106.75
374.287	101.75
374.513	120.75
374.739	108.75
374.965	121.75
375.191	115.75
375.416	119.75
375.642	121.75
375.868	122.75
376.094	102.75
376.319	101.75
376.545	107.75
376.771	105.75
376.997	117.75
377.222	92.75
377.448	102.75
377.674	109.75
377.899	121.75
378.125	112.75
378.35	91.75
378.576	126.75
378.802	123.75
379.027	123.75
379.253	114.75
379.478	107.75
379.704	105.75
379.929	104.75
380.155	105.75
380.38	116.75
380.606	108.75
380.831	119.75
381.057	115.75
381.282	104.75
381.507	116.75
381.733	125.75
381.958	124.75
382.184	123.75
382.409	117.75
382.634	117.75
382.86	120.75
383.085	115.75
383.31	122.75
383.535	114.75
383.761	112.75
383.986	120.75
384.211	123.75
384.436	105.75
384.662	123.75
384.887	121.75
385.112	124.75
385.337	126.75
385.562	133.75
385.787	109.75
386.013	121.75
386.238	107.75
386.463	115.75
386.688	122.75
386.913	115.75
387.138	105.75
387.363	118.75
387.588	119.75
387.813	126.75
388.038	116.75
388.263	121.75
388.488	125.75
388.713	105.75
388.938	112.75
389.163	126.75
389.387	111.75
389.612	133.75
389.837	117.75
390.062	113.75
390.287	119.75
390.512	120.75
390.736	118.75
390.961	122.75
391.186	127.75
391.411	123.75
391.636	135.75
391.86	121.75
392.085	113.75
392.31	109.75
392.534	123.75
392.759	116.75
392.984	124.75
393.208	130.75
393.433	108.75
393.658	115.75
393.882	115.75
394.107	124.75
394.331	134.75
394.556	111.75
394.78	126.75
395.005	121.75
395.229	126.75
395.454	119.75
395.678	122.75
395.903	126.75
396.127	142.75
396.352	114.75
396.576	123.75
396.801	120.75
397.025	131.75
397.249	125.75
397.474	110.75
397.698	121.75
397.922	135.75
398.147	126.75
398.371	131.75
398.595	131.75
398.82	123.75
399.044	129.75
399.268	129.75
399.492	131.75
399.717	154.75
399.941	133.75
400.165	157.75
400.389	138.75
400.613	130.75
400.837	141.75
401.062	126.75
401.286	126.75
401.51	126.75
401.734	113.75
401.958	127.75
402.182	124.75
402.406	142.75
402.63	129.75
402.854	130.75
403.078	142.75
403.302	129.75
403.526	131.75
403.75	130.75
403.974	134.75
404.198	129.75
404.422	131.75
404.645	132.75
404.869	145.75
405.093	148.75
405.317	134.75
405.541	127.75
405.765	128.75
405.988	113.75
406.212	130.75
406.436	135.75
406.66	138.75
406.883	139.75
407.107	132.75
407.331	122.75
407.555	134.75
407.778	135.75
408.002	154.75
408.226	130.75
408.449	134.75
408.673	117.75
408.896	122.75
409.12	139.75
409.344	124.75
409.567	127.75
409.791	127.75
410.014	135.75
410.238	129.75
410.461	133.75
410.685	126.75
410.908	129.75
411.132	137.75
411.355	127.75
411.578	150.75
411.802	132.75
412.025	125.75
412.249	139.75
412.472	145.75
412.695	127.75
412.919	117.75
413.142	132.75
413.365	124.75
413.589	125.75
413.812	121.75
414.035	140.75
414.258	132.75
414.482	127.75
414.705	136.75
414.928	125.75
415.151	121.75
415.374	133.75
415.597	117.75
415.821	125.75
416.044	138.75
416.267	133.75
416.49	126.75
416.713	119.75
416.936	128.75
417.159	139.75
417.382	128.75
417.605	130.75
417.828	122.75
418.051	134.75
418.274	121.75
418.497	118.75
418.72	133.75
418.943	134.75
419.166	127.75
419.389	135.75
419.611	125.75
419.834	134.75
420.057	122.75
420.28	133.75
420.503	117.75
420.726	124.75
420.948	110.75
421.171	120.75
421.394	111.75
421.617	129.75
421.839	147.75
422.062	116.75
422.285	126.75
422.507	125.75
422.73	132.75
422.953	130.75
423.175	129.75
423.398	127.75
423.621	129.75
423.843	133.75
424.066	146.75
424.288	129.75
424.511	136.75
424.733	145.75
424.956	131.75
425.178	120.75
425.401	127.75
425.623	149.75
425.846	130.75
426.068	129.75
426.291	124.75
426.513	134.75
426.735	109.75
426.958	129.75
427.18	133.75
427.402	149.75
427.625	142.75
427.847	132.75
428.069	131.75
428.292	142.75
428.514	123.75
428.736	130.75
428.958	127.75
429.181	113.75
429.403	117.75
429.625	118.75
429.847	109.75
430.069	131.75
430.292	117.75
430.514	125.75
430.736	132.75
430.958	140.75
431.18	130.75
431.402	121.75
431.624	126.75
431.846	129.75
432.068	125.75
432.29	103.75
432.512	123.75
432.734	124.75
432.956	141.75
433.178	133.75
433.4	126.75
433.622	107.75
433.844	127.75
434.066	131.75
434.287	116.75
434.509	125.75
434.731	122.75
434.953	126.75
435.175	121.75
435.397	139.75
435.618	129.75
435.84	129.75
436.062	127.75
436.284	131.75
436.505	124.75
436.727	124.75
436.949	125.75
437.17	135.75
437.392	113.75
437.614	119.75
437.835	132.75
438.057	119.75
438.278	123.75
438.5	138.75
438.721	149.75
438.943	123.75
439.165	128.75
439.386	135.75
439.608	110.75
439.829	129.75
440.05	129.75
440.272	134.75
440.493	131.75
440.715	129.75
440.936	136.75
441.158	133.75
441.379	118.75
441.6	131.75
441.822	125.75
442.043	115.75
442.264	119.75
442.486	120.75
442.707	134.75
442.928	134.75
443.149	131.75
443.371	138.75
443.592	135.75
443.813	149.75
444.034	135.75
444.255	142.75
444.476	129.75
444.698	153.75
444.919	135.75
445.14	256.75
445.361	173.75
445.582	129.75
445.803	133.75
446.024	141.75
446.245	139.75
446.466	144.75
446.687	124.75
446.908	123.75
447.129	126.75
447.35	122.75
447.571	126.75
447.792	118.75
448.013	129.75
448.234	121.75
448.455	123.75
448.675	137.75
448.896	129.75
449.117	130.75
449.338	132.75
449.559	134.75
449.779	135.75
450	127.75
450.221	111.75
450.442	129.75
450.662	115.75
450.883	124.75
451.104	133.75
451.324	120.75
451.545	125.75
451.766	133.75
451.986	127.75
452.207	126.75
452.428	124.75
452.648	110.75
452.869	124.75
453.089	128.75
453.31	126.75
453.53	127.75
453.751	121.75
453.971	124.75
454.192	129.75
454.412	118.75
454.633	122.75
454.853	109.75
455.073	123.75
455.294	119.75
455.514	125.75
455.734	121.75
455.955	132.75
456.175	133.75
456.395	122.75
456.616	127.75
456.836	135.75
457.056	120.75
457.276	120.75
457.497	123.75
457.717	119.75
457.937	119.75
458.157	109.75
458.377	114.75
458.598	102.75
458.818	127.75
459.038	133.75
459.258	129.75
459.478	121.75
459.698	113.75
459.918	135.75
460.138	136.75
460.358	122.75
460.578	139.75
460.798	127.75
461.018	128.75
461.238	126.75
461.458	118.75
461.678	116.75
461.898	124.75
462.118	134.75
462.338	129.75
462.558	138.75
462.777	153.75
462.997	144.75
463.217	138.75
463.437	150.75
463.657	133.75
463.876	127.75
464.096	122.75
464.316	131.75
464.536	135.75
464.755	130.75
464.975	131.75
465.195	133.75
465.414	125.75
465.634	115.75
465.854	130.75
466.073	114.75
466.293	123.75
466.512	126.75
466.732	121.75
466.951	123.75
467.171	119.75
467.391	125.75
467.61	125.75
467.829	138.75
468.049	125.75
468.268	123.75
468.488	122.75
468.707	119.75
468.927	121.75
469.146	119.75
469.365	112.75
469.585	113.75
469.804	126.75
470.023	117.75
470.243	108.75
470.462	129.75
470.681	127.75
470.901	123.75
471.12	134.75
471.339	108.75
471.558	121.75
471.777	123.75
471.997	122.75
472.216	127.75
472.435	113.75
472.654	116.75
472.873	126.75
473.092	126.75
473.311	117.75
473.53	118.75
473.749	107.75
473.968	124.75
474.187	113.75
474.406	138.75
474.625	122.75
474.844	143.75
475.063	124.75
475.282	126.75
475.501	111.75
475.72	127.75
475.939	117.75
476.158	120.75
476.377	119.75
476.596	107.75
476.814	131.75
477.033	131.75
477.252	123.75
477.471	121.75
477.69	134.75
477.908	133.75
478.127	118.75
478.346	119.75
478.564	126.75
478.783	130.75
479.002	135.75
479.22	135.75
479.439	117.75
479.658	135.75
479.876	133.75
480.095	136.75
480.313	140.75
480.532	145.75
480.751	142.75
480.969	129.75
481.188	133.75
481.406	139.75
481.624	123.75
481.843	123.75
482.061	129.75
482.28	123.75
482.498	118.75
482.717	116.75
482.935	128.75
483.153	124.75
483.372	123.75
483.59	115.75
483.808	113.75
484.027	136.75
484.245	143.75
484.463	127.75
484.681	125.75
484.9	134.75
485.118	110.75
485.336	139.75
485.554	135.75
485.772	125.75
485.99	123.75
486.209	131.75
486.427	131.75
486.645	136.75
486.863	140.75
487.081	150.75
487.299	134.75
487.517	144.75
487.735	142.75
487.953	150.75
488.171	129.75
488.389	144.75
488.607	120.75
488.825	130.75
489.043	106.75
489.261	135.75
489.479	126.75
489.696	129.75
489.914	123.75
490.132	127.75
490.35	138.75
490.568	126.75
490.786	137.75
491.003	125.75
491.221	133.75
491.439	131.75
491.657	141.75
491.874	148.75
492.092	152.75
492.31	141.75
492.527	147.75
492.745	152.75
492.963	144.75
493.18	133.75
493.398	137.75
493.615	146.75
493.833	149.75
494.05	134.75
494.268	157.75
494.485	147.75
494.703	142.75
494.92	147.75
495.138	147.75
495.355	161.75
495.573	144.75
495.79	139.75
496.008	141.75
496.225	145.75
496.442	137.75
496.66	141.75
496.877	140.75
497.094	137.75
497.312	142.75
497.529	157.75
497.746	149.75
497.963	146.75
498.181	162.75
498.398	162.75
498.615	153.75
498.832	143.75
499.049	157.75
499.267	175.75
499.484	172.75
499.701	163.75
499.918	191.75
500.135	197.75
500.352	204.75
500.569	222.75
500.786	223.75
501.003	206.75
501.22	195.75
501.437	181.75
501.654	179.75
501.871	185.75
502.088	174.75
502.305	163.75
502.522	165.75
502.739	146.75
502.956	144.75
503.172	133.75
503.389	135.75
503.606	123.75
503.823	139.75
504.04	146.75
504.256	142.75
504.473	154.75
504.69	149.75
504.907	153.75
505.123	154.75
505.34	129.75
505.557	137.75
505.773	148.75
505.99	131.75
506.207	132.75
506.423	133.75
506.64	136.75
506.856	122.75
507.073	135.75
507.289	137.75
507.506	133.75
507.722	117.75
507.939	138.75
508.155	115.75
508.372	133.75
508.588	125.75
508.805	132.75
509.021	118.75
509.238	127.75
509.454	120.75
509.67	119.75
509.887	114.75
510.103	108.75
510.319	119.75
510.536	136.75
510.752	158.75
510.968	146.75
511.184	137.75
511.401	113.75
511.617	114.75
511.833	126.75
512.049	141.75
512.265	131.75
512.481	129.75
512.698	129.75
512.914	122.75
513.13	125.75
513.346	125.75
513.562	135.75
513.778	126.75
513.994	117.75
514.21	122.75
514.426	133.75
514.642	125.75
514.858	132.75
515.074	135.75
515.29	133.75
515.506	142.75
515.721	153.75
515.937	149.75
516.153	135.75
516.369	125.75
516.585	130.75
516.801	133.75
517.016	139.75
517.232	134.75
517.448	145.75
517.664	133.75
517.879	140.75
518.095	138.75
518.311	127.75
518.527	135.75
518.742	135.75
518.958	128.75
519.173	122.75
519.389	131.75
519.605	142.75
519.82	126.75
520.036	139.75
520.251	125.75
520.467	133.75
520.682	137.75
520.898	129.75
521.113	138.75
521.329	137.75
521.544	123.75
521.76	130.75
521.975	172.75
522.19	155.75
522.406	140.75
522.621	123.75
522.836	122.75
523.052	122.75
523.267	122.75
523.482	126.75
523.698	112.75
523.913	129.75
524.128	130.75
524.343	125.75
524.559	112.75
524.774	119.75
524.989	131.75
525.204	125.75
525.419	133.75
525.634	123.75
525.849	126.75
526.064	129.75
526.28	125.75
526.495	118.75
526.71	110.75
526.925	123.75
527.14	125.75
527.355	116.75
527.57	114.75
527.785	128.75
527.999	110.75
528.214	143.75
528.429	111.75
528.644	119.75
528.859	100.75
529.074	125.75
529.289	115.75
529.503	127.75
529.718	126.75
529.933	127.75
530.148	124.75
530.363	126.75
530.577	131.75
530.792	118.75
531.007	116.75
531.221	127.75
531.436	130.75
531.651	115.75
531.865	136.75
532.08	135.75
532.295	130.75
532.509	123.75
532.724	123.75
532.938	131.75
533.153	117.75
533.367	130.75
533.582	119.75
533.796	127.75
534.011	127.75
534.225	121.75
534.44	114.75
534.654	114.75
534.868	126.75
535.083	124.75
535.297	102.75
535.511	128.75
535.726	115.75
535.94	131.75
536.154	114.75
536.369	110.75
536.583	123.75
536.797	108.75
537.011	113.75
537.225	123.75
537.44	106.75
537.654	95.75
537.868	119.75
538.082	134.75
538.296	130.75
538.51	125.75
538.724	108.75
538.938	121.75
539.153	133.75
539.367	129.75
539.581	113.75
539.795	113.75
540.009	125.75
540.222	117.75
540.436	123.75
540.65	122.75
540.864	135.75
541.078	124.75
541.292	126.75
541.506	124.75
541.72	129.75
541.934	129.75
542.147	126.75
542.361	141.75
542.575	139.75
542.789	136.75
543.002	137.75
543.216	122.75
543.43	126.75
543.644	110.75
543.857	129.75
544.071	135.75
544.285	134.75
544.498	142.75
544.712	131.75
544.925	137.75
545.139	119.75
545.352	130.75
545.566	128.75
545.779	131.75
545.993	129.75
546.206	145.75
546.42	157.75
546.633	123.75
546.847	133.75
547.06	125.75
547.274	124.75
547.487	144.75
547.7	126.75
547.914	139.75
548.127	123.75
548.34	114.75
548.554	134.75
548.767	129.75
548.98	127.75
549.193	118.75
549.407	137.75
549.62	120.75
549.833	112.75
550.046	119.75
550.259	123.75
550.473	126.75
550.686	121.75
550.899	119.75
551.112	123.75
551.325	123.75
551.538	123.75
551.751	113.75
551.964	141.75
552.177	127.75
552.39	115.75
552.603	133.75
552.816	143.75
553.029	141.75
553.242	133.75
553.455	119.75
553.667	128.75
553.88	126.75
554.093	139.75
554.306	129.75
554.519	132.75
554.732	135.75
554.944	129.75
555.157	129.75
555.37	131.75
555.583	109.75
555.795	115.75
556.008	116.75
556.221	118.75
556.433	116.75
556.646	119.75
556.859	116.75
557.071	115.75
557.284	105.75
557.496	102.75
557.709	114.75
557.921	123.75
558.134	121.75
558.346	94.75
558.559	122.75
558.771	112.75
558.984	114.75
559.196	118.75
559.409	124.75
559.621	106.75
559.833	127.75
560.046	127.75
560.258	123.75
560.47	119.75
560.683	114.75
560.895	110.75
561.107	111.75
561.32	111.75
561.532	115.75
561.744	123.75
561.956	110.75
562.168	126.75
562.381	111.75
562.593	117.75
562.805	130.75
563.017	125.75
563.229	110.75
563.441	111.75
563.653	129.75
563.865	119.75
564.077	111.75
564.289	123.75
564.501	120.75
564.713	132.75
564.925	112.75
565.137	127.75
565.349	118.75
565.561	127.75
565.773	133.75
565.985	136.75
566.197	137.75
566.408	125.75
566.62	131.75
566.832	121.75
567.044	128.75
567.255	129.75
567.467	138.75
567.679	138.75
567.891	142.75
568.102	153.75
568.314	135.75
568.526	130.75
568.737	121.75
568.949	125.75
569.161	127.75
569.372	134.75
569.584	122.75
569.795	132.75
570.007	132.75
570.218	125.75
570.43	123.75
570.641	109.75
570.853	109.75
571.064	115.75
571.276	101.75
571.487	116.75
571.698	113.75
571.91	125.75
572.121	124.75
572.333	130.75
572.544	114.75
572.755	117.75
572.966	101.75
573.178	107.75
573.389	117.75
573.6	96.75
573.811	113.75
574.023	102.75
574.234	106.75
574.445	124.75
574.656	106.75
574.867	122.75
575.078	110.75
575.289	100.75
575.501	115.75
575.712	107.75
575.923	120.75
576.134	118.75
576.345	116.75
576.556	107.75
576.767	108.75
576.978	101.75
577.188	108.75
577.399	109.75
577.61	103.75
577.821	114.75
578.032	118.75
578.243	99.75
578.454	121.75
578.665	118.75
578.875	101.75
579.086	104.75
579.297	102.75
579.508	86.75
579.718	113.75
579.929	105.75
580.14	117.75
580.35	111.75
580.561	108.75
580.772	98.75
580.982	104.75
581.193	106.75
581.403	91.75
581.614	103.75
581.825	107.75
582.035	98.75
582.246	105.75
582.456	123.75
582.667	121.75
582.877	115.75
583.087	110.75
583.298	115.75
583.508	118.75
583.719	103.75
583.929	105.75
584.139	110.75
584.35	109.75
584.56	101.75
584.77	118.75
584.981	93.75
585.191	81.75
585.401	114.75
585.611	106.75
585.821	106.75
586.032	112.75
586.242	106.75
586.452	115.75
586.662	113.75
586.872	106.75
587.082	113.75
587.292	103.75
587.502	113.75
587.713	105.75
587.923	97.75
588.133	106.75
588.343	110.75
588.553	111.75
588.762	102.75
588.972	113.75
589.182	105.75
589.392	102.75
589.602	109.75
589.812	88.75
590.022	98.75
590.232	104.75
590.441	79.75
590.651	106.75
590.861	92.75
591.071	98.75
591.281	116.75
591.49	109.75
591.7	99.75
591.91	115.75
592.119	117.75
592.329	107.75
592.539	109.75
592.748	101.75
592.958	114.75
593.167	105.75
593.377	121.75
593.587	116.75
593.796	109.75
594.006	105.75
594.215	116.75
594.424	123.75
594.634	108.75
594.843	103.75
595.053	94.75
595.262	105.75
595.472	100.75
595.681	103.75
595.89	110.75
596.1	97.75
596.309	104.75
596.518	91.75
596.727	107.75
596.937	106.75
597.146	102.75
597.355	113.75
597.564	102.75
597.774	101.75
597.983	105.75
598.192	96.75
598.401	95.75
598.61	95.75
598.819	93.75
599.028	108.75
599.237	94.75
599.446	110.75
599.655	116.75
599.864	102.75
600.073	96.75
600.282	101.75
600.491	109.75
600.7	109.75
600.909	96.75
601.118	103.75
601.327	102.75
601.536	110.75
601.745	101.75
601.953	96.75
602.162	93.75
602.371	118.75
602.58	106.75
602.789	102.75
602.997	101.75
603.206	116.75
603.415	91.75
603.623	96.75
603.832	105.75
604.041	98.75
604.249	106.75
604.458	104.75
604.666	101.75
604.875	90.75
605.084	95.75
605.292	103.75
605.501	94.75
605.709	93.75
605.918	106.75
606.126	100.75
606.334	108.75
606.543	111.75
606.751	102.75
606.96	119.75
607.168	121.75
607.376	98.75
607.585	97.75
607.793	85.75
608.001	115.75
608.21	116.75
608.418	105.75
608.626	99.75
608.834	100.75
609.043	97.75
609.251	116.75
609.459	101.75
609.667	106.75
609.875	105.75
610.083	104.75
610.291	105.75
610.499	110.75
610.707	106.75
610.916	108.75
611.124	99.75
611.332	127.75
611.54	115.75
611.748	119.75
611.955	113.75
612.163	110.75
612.371	91.75
612.579	95.75
612.787	99.75
612.995	108.75
613.203	108.75
613.411	113.75
613.618	101.75
613.826	103.75
614.034	110.75
614.242	118.75
614.449	102.75
614.657	121.75
614.865	113.75
615.072	99.75
615.28	111.75
615.488	113.75
615.695	113.75
615.903	116.75
616.111	107.75
616.318	104.75
616.526	94.75
616.733	92.75
616.941	101.75
617.148	106.75
617.356	107.75
617.563	100.75
617.771	108.75
617.978	98.75
618.185	95.75
618.393	97.75
618.6	100.75
618.807	99.75
619.015	104.75
619.222	111.75
619.429	109.75
619.637	106.75
619.844	99.75
620.051	101.75
620.258	111.75
620.466	98.75
620.673	99.75
620.88	101.75
621.087	97.75
621.294	100.75
621.501	116.75
621.708	84.75
621.915	105.75
622.122	105.75
622.329	106.75
622.536	91.75
622.743	106.75
622.95	92.75
623.157	104.75
623.364	98.75
623.571	108.75
623.778	105.75
623.985	100.75
624.192	105.75
624.399	91.75
624.606	98.75
624.812	106.75
625.019	104.75
625.226	101.75
625.433	111.75
625.639	103.75
625.846	85.75
626.053	99.75
626.259	95.75
626.466	101.75
626.673	118.75
626.879	92.75
627.086	97.75
627.293	112.75
627.499	108.75
627.706	92.75
627.912	106.75
628.119	89.75
628.325	88.75
628.532	99.75
628.738	97.75
628.945	92.75
629.151	101.75
629.357	98.75
629.564	102.75
629.77	93.75
629.976	80.75
630.183	103.75
630.389	105.75
630.595	95.75
630.802	93.75
631.008	84.75
631.214	109.75
631.42	102.75
631.627	105.75
631.833	110.75
632.039	110.75
632.245	109.75
632.451	97.75
632.657	100.75
632.863	99.75
633.069	87.75
633.275	79.75
633.481	92.75
633.688	105.75
633.893	93.75
634.099	98.75
634.305	100.75
634.511	93.75
634.717	98.75
634.923	108.75
635.129	105.75
635.335	101.75
635.541	78.75
635.747	90.75
635.952	94.75
636.158	82.75
636.364	102.75
636.57	93.75
636.775	99.75
636.981	93.75
637.187	102.75
637.392	99.75
637.598	104.75
637.804	95.75
638.009	94.75
638.215	84.75
638.421	93.75
638.626	99.75
638.832	99.75
639.037	98.75
639.243	86.75
639.448	96.75
639.654	95.75
639.859	87.75
640.065	87.75
640.27	103.75
640.475	95.75
640.681	105.75
640.886	99.75
641.091	91.75
641.297	84.75
641.502	89.75
641.707	91.75
641.913	91.75
642.118	97.75
642.323	89.75
642.528	114.75
642.733	113.75
642.939	85.75
643.144	93.75
643.349	80.75
643.554	81.75
643.759	85.75
643.964	87.75
644.169	93.75
644.374	95.75
644.579	93.75
644.784	98.75
644.989	102.75
645.194	98.75
645.399	77.75
645.604	94.75
645.809	93.75
646.014	97.75
646.219	101.75
646.423	103.75
646.628	99.75
646.833	94.75
647.038	89.75
647.243	90.75
647.447	93.75
647.652	104.75
647.857	88.75
648.062	87.75
648.266	100.75
648.471	113.75
648.676	97.75
648.88	94.75
649.085	86.75
649.289	84.75
649.494	83.75
649.698	91.75
649.903	87.75
650.107	100.75
650.312	102.75
650.516	93.75
650.721	86.75
650.925	100.75
651.13	89.75
651.334	91.75
651.539	81.75
651.743	92.75
651.947	94.75
652.152	92.75
652.356	90.75
652.56	108.75
652.764	86.75
652.969	91.75
653.173	91.75
653.377	90.75
653.581	89.75
653.785	86.75
653.99	92.75
654.194	101.75
654.398	92.75
654.602	87.75
654.806	102.75
655.01	107.75
655.214	90.75
655.418	81.75
655.622	86.75
655.826	98.75
656.03	91.75
656.234	83.75
656.438	78.75
656.642	106.75
656.846	89.75
657.049	77.75
657.253	81.75
657.457	86.75
657.661	85.75
657.865	94.75
658.068	85.75
658.272	91.75
658.476	82.75
658.68	93.75
658.883	84.75
659.087	92.75
659.291	92.75
659.494	91.75
659.698	74.75
659.901	83.75
660.105	99.75
660.309	87.75
660.512	72.75
660.716	85.75
660.919	86.75
661.123	82.75
661.326	81.75
661.53	82.75
661.733	92.75
661.936	99.75
662.14	82.75
662.343	92.75
662.546	78.75
662.75	100.75
662.953	81.75
663.156	78.75
663.36	79.75
663.563	88.75
663.766	73.75
663.969	85.75
664.173	86.75
664.376	81.75
664.579	77.75
664.782	91.75
664.985	101.75
665.188	84.75
665.391	94.75
665.594	79.75
665.797	73.75
666	74.75
666.203	82.75
666.406	87.75
666.609	83.75
666.812	89.75
667.015	90.75
667.218	93.75
667.421	91.75
667.624	78.75
667.827	99.75
668.03	76.75
668.232	74.75
668.435	90.75
668.638	83.75
668.841	105.75
669.043	78.75
669.246	78.75
669.449	75.75
669.651	89.75
669.854	84.75
670.057	82.75
670.259	84.75
670.462	81.75
670.665	84.75
670.867	83.75
671.07	82.75
671.272	93.75
671.475	85.75
671.677	89.75
671.88	75.75
672.082	75.75
672.284	89.75
672.487	85.75
672.689	79.75
672.892	98.75
