Data from 1968.PennyLincolnUp.Lamp.En5.5.200Scan.071719.P1._HRD10591_14-49-11-969.txt Node
Date: Thu Jul 18 14:49:11 EDT 2019
User: cochatt
Spectrometer: HR+D1059
Trigger mode: 1
Integration Time (sec): 1.000000E-1
Scans to average: 1
Electric dark correction enabled: true
Nonlinearity correction enabled: false
Boxcar width: 0
XAxis mode: Wavelengths
Number of Pixels in Spectrum: 2048
>>>>>Begin Spectral Data<<<<<
223.165	-18.94
223.4	-18.94
223.635	-18.94
223.869	-21.94
224.104	-14.94
224.338	-13.94
224.573	-18.94
224.808	-21.94
225.042	-5.94
225.277	-7.94
225.511	1.06
225.746	4.06
225.98	14.06
226.215	5.06
226.449	19.06
226.683	18.06
226.918	36.06
227.152	27.06
227.387	22.06
227.621	28.06
227.856	43.06
228.09	48.06
228.324	45.06
228.559	50.06
228.793	46.06
229.027	54.06
229.262	56.06
229.496	56.06
229.73	79.06
229.964	74.06
230.199	85.06
230.433	80.06
230.667	78.06
230.901	71.06
231.136	68.06
231.37	82.06
231.604	84.06
231.838	84.06
232.072	93.06
232.306	78.06
232.541	77.06
232.775	78.06
233.009	77.06
233.243	79.06
233.477	84.06
233.711	91.06
233.945	68.06
234.179	71.06
234.413	84.06
234.647	94.06
234.881	73.06
235.115	72.06
235.349	85.06
235.583	91.06
235.817	77.06
236.051	77.06
236.285	73.06
236.519	82.06
236.753	73.06
236.987	85.06
237.221	75.06
237.455	87.06
237.689	72.06
237.922	81.06
238.156	85.06
238.39	79.06
238.624	88.06
238.858	88.06
239.091	86.06
239.325	68.06
239.559	74.06
239.793	86.06
240.027	79.06
240.26	73.06
240.494	79.06
240.728	76.06
240.961	78.06
241.195	84.06
241.429	89.06
241.662	78.06
241.896	74.06
242.13	68.06
242.363	71.06
242.597	86.06
242.83	88.06
243.064	93.06
243.298	52.06
243.531	74.06
243.765	81.06
243.998	76.06
244.232	75.06
244.465	88.06
244.699	80.06
244.932	92.06
245.166	98.06
245.399	80.06
245.633	78.06
245.866	98.06
246.099	85.06
246.333	80.06
246.566	75.06
246.8	88.06
247.033	78.06
247.266	91.06
247.5	87.06
247.733	89.06
247.966	77.06
248.2	88.06
248.433	89.06
248.666	74.06
248.899	88.06
249.133	88.06
249.366	102.06
249.599	91.06
249.832	79.06
250.066	73.06
250.299	67.06
250.532	95.06
250.765	71.06
250.998	93.06
251.231	96.06
251.465	80.06
251.698	102.06
251.931	95.06
252.164	56.06
252.397	74.06
252.63	70.06
252.863	88.06
253.096	87.06
253.329	87.06
253.562	82.06
253.795	85.06
254.028	97.06
254.261	93.06
254.494	92.06
254.727	89.06
254.96	87.06
255.193	79.06
255.426	84.06
255.659	77.06
255.892	84.06
256.124	96.06
256.357	97.06
256.59	87.06
256.823	79.06
257.056	88.06
257.289	81.06
257.521	90.06
257.754	86.06
257.987	86.06
258.22	85.06
258.452	94.06
258.685	88.06
258.918	104.06
259.151	89.06
259.383	83.06
259.616	90.06
259.849	102.06
260.081	93.06
260.314	92.06
260.547	88.06
260.779	97.06
261.012	89.06
261.244	82.06
261.477	101.06
261.71	94.06
261.942	90.06
262.175	92.06
262.407	76.06
262.64	87.06
262.872	85.06
263.105	85.06
263.337	106.06
263.57	85.06
263.802	109.06
264.035	79.06
264.267	96.06
264.499	96.06
264.732	95.06
264.964	102.06
265.197	98.06
265.429	77.06
265.661	93.06
265.894	86.06
266.126	92.06
266.358	82.06
266.591	93.06
266.823	101.06
267.055	93.06
267.287	90.06
267.52	78.06
267.752	100.06
267.984	92.06
268.216	90.06
268.448	89.06
268.681	68.06
268.913	87.06
269.145	80.06
269.377	103.06
269.609	89.06
269.841	97.06
270.073	103.06
270.306	98.06
270.538	99.06
270.77	96.06
271.002	95.06
271.234	99.06
271.466	90.06
271.698	95.06
271.93	93.06
272.162	92.06
272.394	97.06
272.626	97.06
272.858	89.06
273.09	101.06
273.322	106.06
273.553	94.06
273.785	93.06
274.017	87.06
274.249	98.06
274.481	101.06
274.713	85.06
274.945	112.06
275.176	93.06
275.408	89.06
275.64	93.06
275.872	89.06
276.104	92.06
276.335	93.06
276.567	89.06
276.799	84.06
277.031	81.06
277.262	94.06
277.494	90.06
277.726	88.06
277.957	85.06
278.189	96.06
278.421	97.06
278.652	101.06
278.884	89.06
279.115	99.06
279.347	94.06
279.579	105.06
279.81	91.06
280.042	100.06
280.273	87.06
280.505	85.06
280.736	103.06
280.968	98.06
281.199	99.06
281.431	97.06
281.662	113.06
281.894	93.06
282.125	93.06
282.356	102.06
282.588	98.06
282.819	86.06
283.051	103.06
283.282	93.06
283.513	103.06
283.745	102.06
283.976	96.06
284.207	107.06
284.439	107.06
284.67	96.06
284.901	90.06
285.132	104.06
285.364	98.06
285.595	104.06
285.826	113.06
286.057	97.06
286.288	100.06
286.52	92.06
286.751	97.06
286.982	99.06
287.213	87.06
287.444	107.06
287.675	100.06
287.906	109.06
288.138	102.06
288.369	113.06
288.6	105.06
288.831	90.06
289.062	110.06
289.293	113.06
289.524	93.06
289.755	97.06
289.986	89.06
290.217	102.06
290.448	111.06
290.679	98.06
290.91	96.06
291.141	104.06
291.371	112.06
291.602	100.06
291.833	101.06
292.064	94.06
292.295	89.06
292.526	93.06
292.757	99.06
292.987	99.06
293.218	99.06
293.449	96.06
293.68	103.06
293.91	101.06
294.141	97.06
294.372	102.06
294.603	105.06
294.833	96.06
295.064	116.06
295.295	92.06
295.525	106.06
295.756	98.06
295.987	93.06
296.217	104.06
296.448	101.06
296.679	98.06
296.909	98.06
297.14	101.06
297.37	97.06
297.601	102.06
297.831	94.06
298.062	95.06
298.292	109.06
298.523	93.06
298.753	100.06
298.984	94.06
299.214	99.06
299.445	98.06
299.675	111.06
299.905	94.06
300.136	117.06
300.366	99.06
300.597	107.06
300.827	90.06
301.057	85.06
301.288	108.06
301.518	112.06
301.748	98.06
301.979	107.06
302.209	109.06
302.439	109.06
302.669	93.06
302.9	102.06
303.13	102.06
303.36	122.06
303.59	109.06
303.82	104.06
304.051	109.06
304.281	88.06
304.511	100.06
304.741	104.06
304.971	105.06
305.201	112.06
305.431	114.06
305.661	105.06
305.891	106.06
306.121	113.06
306.352	101.06
306.582	113.06
306.812	114.06
307.042	107.06
307.272	117.06
307.502	101.06
307.731	107.06
307.961	94.06
308.191	107.06
308.421	114.06
308.651	101.06
308.881	112.06
309.111	104.06
309.341	107.06
309.571	112.06
309.8	109.06
310.03	119.06
310.26	106.06
310.49	117.06
310.72	107.06
310.949	103.06
311.179	103.06
311.409	109.06
311.639	97.06
311.868	96.06
312.098	126.06
312.328	104.06
312.557	114.06
312.787	121.06
313.017	113.06
313.246	115.06
313.476	107.06
313.706	104.06
313.935	104.06
314.165	114.06
314.394	108.06
314.624	117.06
314.853	105.06
315.083	109.06
315.312	107.06
315.542	105.06
315.771	99.06
316.001	113.06
316.23	101.06
316.46	103.06
316.689	109.06
316.919	89.06
317.148	119.06
317.377	105.06
317.607	109.06
317.836	113.06
318.065	109.06
318.295	124.06
318.524	108.06
318.753	110.06
318.983	102.06
319.212	117.06
319.441	105.06
319.67	107.06
319.9	124.06
320.129	104.06
320.358	110.06
320.587	114.06
320.816	103.06
321.046	117.06
321.275	118.06
321.504	96.06
321.733	124.06
321.962	113.06
322.191	128.06
322.42	114.06
322.649	110.06
322.878	120.06
323.108	118.06
323.337	112.06
323.566	113.06
323.795	108.06
324.024	112.06
324.253	130.06
324.482	132.06
324.71	135.06
324.939	148.06
325.168	136.06
325.397	119.06
325.626	114.06
325.855	114.06
326.084	119.06
326.313	112.06
326.542	111.06
326.77	108.06
326.999	114.06
327.228	130.06
327.457	135.06
327.686	128.06
327.914	126.06
328.143	108.06
328.372	103.06
328.6	103.06
328.829	105.06
329.058	116.06
329.287	97.06
329.515	104.06
329.744	120.06
329.972	116.06
330.201	101.06
330.43	108.06
330.658	110.06
330.887	121.06
331.115	122.06
331.344	103.06
331.572	108.06
331.801	112.06
332.03	112.06
332.258	106.06
332.486	124.06
332.715	110.06
332.943	110.06
333.172	121.06
333.4	105.06
333.629	126.06
333.857	116.06
334.085	115.06
334.314	124.06
334.542	113.06
334.771	102.06
334.999	107.06
335.227	103.06
335.455	120.06
335.684	108.06
335.912	132.06
336.14	118.06
336.369	120.06
336.597	127.06
336.825	112.06
337.053	115.06
337.281	107.06
337.51	111.06
337.738	106.06
337.966	122.06
338.194	123.06
338.422	110.06
338.65	119.06
338.878	109.06
339.106	110.06
339.334	114.06
339.562	99.06
339.79	122.06
340.018	103.06
340.246	127.06
340.474	106.06
340.702	121.06
340.93	108.06
341.158	117.06
341.386	108.06
341.614	116.06
341.842	115.06
342.07	118.06
342.298	128.06
342.526	108.06
342.754	105.06
342.981	123.06
343.209	112.06
343.437	128.06
343.665	97.06
343.893	109.06
344.12	130.06
344.348	119.06
344.576	114.06
344.804	117.06
345.031	118.06
345.259	116.06
345.487	116.06
345.714	110.06
345.942	110.06
346.17	107.06
346.397	108.06
346.625	117.06
346.853	109.06
347.08	116.06
347.308	110.06
347.535	111.06
347.763	108.06
347.99	110.06
348.218	116.06
348.445	103.06
348.673	94.06
348.9	106.06
349.128	109.06
349.355	117.06
349.583	95.06
349.81	105.06
350.037	125.06
350.265	101.06
350.492	107.06
350.72	109.06
350.947	116.06
351.174	122.06
351.402	132.06
351.629	106.06
351.856	101.06
352.083	102.06
352.311	118.06
352.538	121.06
352.765	117.06
352.992	110.06
353.22	113.06
353.447	112.06
353.674	116.06
353.901	112.06
354.128	115.06
354.355	128.06
354.583	115.06
354.81	108.06
355.037	91.06
355.264	98.06
355.491	100.06
355.718	103.06
355.945	110.06
356.172	101.06
356.399	116.06
356.626	99.06
356.853	113.06
357.08	116.06
357.307	108.06
357.534	96.06
357.761	109.06
357.988	110.06
358.215	117.06
358.441	100.06
358.668	101.06
358.895	97.06
359.122	107.06
359.349	113.06
359.576	109.06
359.802	108.06
360.029	119.06
360.256	102.06
360.483	112.06
360.709	114.06
360.936	104.06
361.163	119.06
361.39	108.06
361.616	106.06
361.843	115.06
362.07	117.06
362.296	104.06
362.523	106.06
362.749	106.06
362.976	122.06
363.203	115.06
363.429	105.06
363.656	104.06
363.882	106.06
364.109	110.06
364.335	123.06
364.562	109.06
364.788	113.06
365.015	117.06
365.241	113.06
365.468	110.06
365.694	108.06
365.92	124.06
366.147	102.06
366.373	115.06
366.599	108.06
366.826	106.06
367.052	103.06
367.278	114.06
367.505	112.06
367.731	109.06
367.957	115.06
368.184	116.06
368.41	124.06
368.636	95.06
368.862	120.06
369.089	116.06
369.315	105.06
369.541	118.06
369.767	117.06
369.993	123.06
370.219	121.06
370.445	109.06
370.672	127.06
370.898	123.06
371.124	104.06
371.35	99.06
371.576	105.06
371.802	118.06
372.028	114.06
372.254	121.06
372.48	120.06
372.706	100.06
372.932	118.06
373.158	120.06
373.384	117.06
373.61	120.06
373.835	114.06
374.061	116.06
374.287	103.06
374.513	114.06
374.739	105.06
374.965	111.06
375.191	120.06
375.416	126.06
375.642	115.06
375.868	109.06
376.094	109.06
376.319	117.06
376.545	106.06
376.771	113.06
376.997	109.06
377.222	102.06
377.448	116.06
377.674	116.06
377.899	117.06
378.125	115.06
378.35	118.06
378.576	129.06
378.802	109.06
379.027	107.06
379.253	112.06
379.478	122.06
379.704	105.06
379.929	114.06
380.155	114.06
380.38	121.06
380.606	107.06
380.831	105.06
381.057	120.06
381.282	112.06
381.507	118.06
381.733	100.06
381.958	112.06
382.184	119.06
382.409	109.06
382.634	124.06
382.86	116.06
383.085	127.06
383.31	117.06
383.535	118.06
383.761	118.06
383.986	102.06
384.211	99.06
384.436	121.06
384.662	114.06
384.887	121.06
385.112	114.06
385.337	119.06
385.562	116.06
385.787	120.06
386.013	128.06
386.238	124.06
386.463	110.06
386.688	100.06
386.913	138.06
387.138	101.06
387.363	96.06
387.588	126.06
387.813	135.06
388.038	118.06
388.263	122.06
388.488	106.06
388.713	116.06
388.938	111.06
389.163	109.06
389.387	123.06
389.612	122.06
389.837	114.06
390.062	116.06
390.287	120.06
390.512	123.06
390.736	110.06
390.961	120.06
391.186	123.06
391.411	112.06
391.636	113.06
391.86	124.06
392.085	126.06
392.31	117.06
392.534	134.06
392.759	109.06
392.984	125.06
393.208	120.06
393.433	125.06
393.658	112.06
393.882	132.06
394.107	121.06
394.331	124.06
394.556	123.06
394.78	111.06
395.005	120.06
395.229	121.06
395.454	122.06
395.678	124.06
395.903	121.06
396.127	119.06
396.352	134.06
396.576	123.06
396.801	108.06
397.025	124.06
397.249	120.06
397.474	129.06
397.698	125.06
397.922	119.06
398.147	132.06
398.371	118.06
398.595	131.06
398.82	134.06
399.044	138.06
399.268	160.06
399.492	142.06
399.717	132.06
399.941	147.06
400.165	125.06
400.389	129.06
400.613	139.06
400.837	135.06
401.062	135.06
401.286	121.06
401.51	127.06
401.734	120.06
401.958	131.06
402.182	135.06
402.406	127.06
402.63	125.06
402.854	136.06
403.078	136.06
403.302	147.06
403.526	126.06
403.75	140.06
403.974	128.06
404.198	122.06
404.422	118.06
404.645	148.06
404.869	123.06
405.093	142.06
405.317	125.06
405.541	146.06
405.765	132.06
405.988	130.06
406.212	130.06
406.436	131.06
406.66	139.06
406.883	130.06
407.107	152.06
407.331	136.06
407.555	124.06
407.778	146.06
408.002	132.06
408.226	140.06
408.449	144.06
408.673	140.06
408.896	140.06
409.12	149.06
409.344	136.06
409.567	142.06
409.791	138.06
410.014	133.06
410.238	131.06
410.461	137.06
410.685	136.06
410.908	131.06
411.132	130.06
411.355	136.06
411.578	109.06
411.802	142.06
412.025	125.06
412.249	129.06
412.472	136.06
412.695	131.06
412.919	134.06
413.142	134.06
413.365	125.06
413.589	138.06
413.812	125.06
414.035	148.06
414.258	144.06
414.482	135.06
414.705	124.06
414.928	121.06
415.151	126.06
415.374	127.06
415.597	133.06
415.821	121.06
416.044	133.06
416.267	132.06
416.49	143.06
416.713	123.06
416.936	124.06
417.159	132.06
417.382	131.06
417.605	121.06
417.828	124.06
418.051	132.06
418.274	129.06
418.497	124.06
418.72	120.06
418.943	135.06
419.166	134.06
419.389	142.06
419.611	127.06
419.834	132.06
420.057	137.06
420.28	133.06
420.503	119.06
420.726	133.06
420.948	142.06
421.171	129.06
421.394	140.06
421.617	138.06
421.839	136.06
422.062	130.06
422.285	142.06
422.507	139.06
422.73	132.06
422.953	130.06
423.175	135.06
423.398	147.06
423.621	153.06
423.843	120.06
424.066	140.06
424.288	116.06
424.511	124.06
424.733	135.06
424.956	145.06
425.178	135.06
425.401	136.06
425.623	136.06
425.846	126.06
426.068	128.06
426.291	116.06
426.513	120.06
426.735	131.06
426.958	124.06
427.18	142.06
427.402	142.06
427.625	142.06
427.847	140.06
428.069	136.06
428.292	136.06
428.514	122.06
428.736	125.06
428.958	119.06
429.181	124.06
429.403	126.06
429.625	110.06
429.847	138.06
430.069	134.06
430.292	117.06
430.514	121.06
430.736	147.06
430.958	132.06
431.18	125.06
431.402	121.06
431.624	114.06
431.846	100.06
432.068	123.06
432.29	128.06
432.512	124.06
432.734	125.06
432.956	129.06
433.178	119.06
433.4	123.06
433.622	134.06
433.844	140.06
434.066	127.06
434.287	122.06
434.509	140.06
434.731	134.06
434.953	125.06
435.175	117.06
435.397	132.06
435.618	126.06
435.84	143.06
436.062	145.06
436.284	140.06
436.505	138.06
436.727	127.06
436.949	125.06
437.17	122.06
437.392	123.06
437.614	113.06
437.835	118.06
438.057	138.06
438.278	134.06
438.5	121.06
438.721	150.06
438.943	142.06
439.165	125.06
439.386	136.06
439.608	136.06
439.829	137.06
440.05	133.06
440.272	123.06
440.493	130.06
440.715	132.06
440.936	126.06
441.158	124.06
441.379	133.06
441.6	130.06
441.822	137.06
442.043	132.06
442.264	143.06
442.486	143.06
442.707	130.06
442.928	148.06
443.149	116.06
443.371	122.06
443.592	130.06
443.813	137.06
444.034	135.06
444.255	144.06
444.476	126.06
444.698	124.06
444.919	142.06
445.14	259.06
445.361	182.06
445.582	134.06
445.803	122.06
446.024	115.06
446.245	135.06
446.466	139.06
446.687	126.06
446.908	126.06
447.129	138.06
447.35	128.06
447.571	138.06
447.792	140.06
448.013	110.06
448.234	121.06
448.455	136.06
448.675	122.06
448.896	141.06
449.117	124.06
449.338	127.06
449.559	124.06
449.779	138.06
450	122.06
450.221	121.06
450.442	124.06
450.662	126.06
450.883	126.06
451.104	114.06
451.324	134.06
451.545	125.06
451.766	118.06
451.986	116.06
452.207	137.06
452.428	121.06
452.648	134.06
452.869	112.06
453.089	115.06
453.31	105.06
453.53	128.06
453.751	113.06
453.971	120.06
454.192	117.06
454.412	116.06
454.633	123.06
454.853	108.06
455.073	116.06
455.294	126.06
455.514	115.06
455.734	113.06
455.955	113.06
456.175	133.06
456.395	134.06
456.616	126.06
456.836	137.06
457.056	114.06
457.276	106.06
457.497	110.06
457.717	115.06
457.937	118.06
458.157	115.06
458.377	118.06
458.598	119.06
458.818	132.06
459.038	118.06
459.258	122.06
459.478	128.06
459.698	117.06
459.918	135.06
460.138	134.06
460.358	132.06
460.578	133.06
460.798	118.06
461.018	127.06
461.238	128.06
461.458	120.06
461.678	119.06
461.898	124.06
462.118	123.06
462.338	143.06
462.558	123.06
462.777	144.06
462.997	146.06
463.217	151.06
463.437	129.06
463.657	124.06
463.876	141.06
464.096	136.06
464.316	145.06
464.536	139.06
464.755	148.06
464.975	126.06
465.195	132.06
465.414	141.06
465.634	132.06
465.854	128.06
466.073	124.06
466.293	113.06
466.512	119.06
466.732	133.06
466.951	132.06
467.171	123.06
467.391	136.06
467.61	129.06
467.829	150.06
468.049	124.06
468.268	116.06
468.488	120.06
468.707	120.06
468.927	114.06
469.146	122.06
469.365	119.06
469.585	118.06
469.804	117.06
470.023	127.06
470.243	135.06
470.462	128.06
470.681	129.06
470.901	124.06
471.12	135.06
471.339	127.06
471.558	132.06
471.777	123.06
471.997	118.06
472.216	130.06
472.435	120.06
472.654	129.06
472.873	110.06
473.092	116.06
473.311	123.06
473.53	132.06
473.749	118.06
473.968	135.06
474.187	122.06
474.406	129.06
474.625	122.06
474.844	124.06
475.063	119.06
475.282	117.06
475.501	113.06
475.72	144.06
475.939	128.06
476.158	122.06
476.377	124.06
476.596	131.06
476.814	133.06
477.033	122.06
477.252	125.06
477.471	133.06
477.69	124.06
477.908	134.06
478.127	131.06
478.346	128.06
478.564	131.06
478.783	122.06
479.002	129.06
479.22	142.06
479.439	133.06
479.658	152.06
479.876	130.06
480.095	131.06
480.313	131.06
480.532	140.06
480.751	140.06
480.969	126.06
481.188	132.06
481.406	128.06
481.624	135.06
481.843	142.06
482.061	135.06
482.28	123.06
482.498	138.06
482.717	124.06
482.935	136.06
483.153	122.06
483.372	130.06
483.59	124.06
483.808	141.06
484.027	126.06
484.245	128.06
484.463	136.06
484.681	145.06
484.9	141.06
485.118	121.06
485.336	128.06
485.554	122.06
485.772	135.06
485.99	135.06
486.209	134.06
486.427	146.06
486.645	138.06
486.863	128.06
487.081	122.06
487.299	123.06
487.517	133.06
487.735	124.06
487.953	140.06
488.171	152.06
488.389	120.06
488.607	133.06
488.825	132.06
489.043	124.06
489.261	116.06
489.479	133.06
489.696	125.06
489.914	130.06
490.132	140.06
490.35	137.06
490.568	146.06
490.786	150.06
491.003	136.06
491.221	142.06
491.439	141.06
491.657	145.06
491.874	152.06
492.092	133.06
492.31	147.06
492.527	142.06
492.745	144.06
492.963	156.06
493.18	146.06
493.398	140.06
493.615	133.06
493.833	134.06
494.05	150.06
494.268	157.06
494.485	149.06
494.703	135.06
494.92	149.06
495.138	154.06
495.355	127.06
495.573	128.06
495.79	131.06
496.008	152.06
496.225	160.06
496.442	130.06
496.66	148.06
496.877	141.06
497.094	132.06
497.312	136.06
497.529	140.06
497.746	150.06
497.963	147.06
498.181	162.06
498.398	141.06
498.615	166.06
498.832	165.06
499.049	173.06
499.267	166.06
499.484	177.06
499.701	185.06
499.918	188.06
500.135	200.06
500.352	219.06
500.569	220.06
500.786	216.06
501.003	229.06
501.22	192.06
501.437	189.06
501.654	184.06
501.871	165.06
502.088	171.06
502.305	170.06
502.522	160.06
502.739	151.06
502.956	153.06
503.172	143.06
503.389	160.06
503.606	156.06
503.823	152.06
504.04	148.06
504.256	159.06
504.473	152.06
504.69	165.06
504.907	147.06
505.123	140.06
505.34	153.06
505.557	132.06
505.773	146.06
505.99	128.06
506.207	140.06
506.423	148.06
506.64	134.06
506.856	144.06
507.073	119.06
507.289	136.06
507.506	122.06
507.722	119.06
507.939	136.06
508.155	140.06
508.372	131.06
508.588	131.06
508.805	126.06
509.021	126.06
509.238	132.06
509.454	117.06
509.67	131.06
509.887	128.06
510.103	125.06
510.319	133.06
510.536	148.06
510.752	140.06
510.968	136.06
511.184	123.06
511.401	123.06
511.617	123.06
511.833	118.06
512.049	122.06
512.265	128.06
512.481	112.06
512.698	121.06
512.914	130.06
513.13	138.06
513.346	133.06
513.562	133.06
513.778	137.06
513.994	121.06
514.21	122.06
514.426	132.06
514.642	134.06
514.858	136.06
515.074	144.06
515.29	126.06
515.506	140.06
515.721	142.06
515.937	144.06
516.153	136.06
516.369	131.06
516.585	134.06
516.801	132.06
517.016	140.06
517.232	143.06
517.448	118.06
517.664	132.06
517.879	132.06
518.095	155.06
518.311	137.06
518.527	146.06
518.742	146.06
518.958	122.06
519.173	128.06
519.389	134.06
519.605	113.06
519.82	141.06
520.036	132.06
520.251	131.06
520.467	143.06
520.682	129.06
520.898	131.06
521.113	122.06
521.329	138.06
521.544	128.06
521.76	130.06
521.975	168.06
522.19	152.06
522.406	131.06
522.621	134.06
522.836	121.06
523.052	120.06
523.267	128.06
523.482	121.06
523.698	133.06
523.913	121.06
524.128	126.06
524.343	131.06
524.559	138.06
524.774	135.06
524.989	124.06
525.204	121.06
525.419	113.06
525.634	117.06
525.849	124.06
526.064	118.06
526.28	124.06
526.495	126.06
526.71	132.06
526.925	112.06
527.14	133.06
527.355	122.06
527.57	116.06
527.785	124.06
527.999	125.06
528.214	118.06
528.429	115.06
528.644	126.06
528.859	121.06
529.074	132.06
529.289	129.06
529.503	126.06
529.718	136.06
529.933	128.06
530.148	108.06
530.363	117.06
530.577	123.06
530.792	109.06
531.007	123.06
531.221	131.06
531.436	129.06
531.651	125.06
531.865	121.06
532.08	116.06
532.295	122.06
532.509	120.06
532.724	105.06
532.938	115.06
533.153	124.06
533.367	129.06
533.582	128.06
533.796	112.06
534.011	124.06
534.225	112.06
534.44	100.06
534.654	121.06
534.868	116.06
535.083	114.06
535.297	134.06
535.511	126.06
535.726	110.06
535.94	129.06
536.154	131.06
536.369	122.06
536.583	108.06
536.797	130.06
537.011	117.06
537.225	119.06
537.44	116.06
537.654	113.06
537.868	122.06
538.082	123.06
538.296	109.06
538.51	122.06
538.724	100.06
538.938	134.06
539.153	130.06
539.367	123.06
539.581	114.06
539.795	117.06
540.009	102.06
540.222	125.06
540.436	119.06
540.65	129.06
540.864	130.06
541.078	123.06
541.292	123.06
541.506	132.06
541.72	157.06
541.934	125.06
542.147	152.06
542.361	130.06
542.575	128.06
542.789	142.06
543.002	128.06
543.216	130.06
543.43	130.06
543.644	138.06
543.857	133.06
544.071	128.06
544.285	123.06
544.498	150.06
544.712	139.06
544.925	123.06
545.139	136.06
545.352	140.06
545.566	138.06
545.779	133.06
545.993	137.06
546.206	152.06
546.42	157.06
546.633	132.06
546.847	126.06
547.06	135.06
547.274	118.06
547.487	128.06
547.7	129.06
547.914	130.06
548.127	145.06
548.34	121.06
548.554	134.06
548.767	140.06
548.98	120.06
549.193	122.06
549.407	143.06
549.62	141.06
549.833	126.06
550.046	123.06
550.259	138.06
550.473	124.06
550.686	133.06
550.899	128.06
551.112	119.06
551.325	119.06
551.538	126.06
551.751	122.06
551.964	119.06
552.177	135.06
552.39	119.06
552.603	140.06
552.816	132.06
553.029	120.06
553.242	122.06
553.455	120.06
553.667	117.06
553.88	123.06
554.093	140.06
554.306	132.06
554.519	129.06
554.732	129.06
554.944	134.06
555.157	113.06
555.37	134.06
555.583	112.06
555.795	115.06
556.008	129.06
556.221	126.06
556.433	121.06
556.646	118.06
556.859	110.06
557.071	131.06
557.284	124.06
557.496	112.06
557.709	112.06
557.921	124.06
558.134	104.06
558.346	132.06
558.559	116.06
558.771	121.06
558.984	127.06
559.196	106.06
559.409	124.06
559.621	112.06
559.833	110.06
560.046	115.06
560.258	106.06
560.47	114.06
560.683	107.06
560.895	124.06
561.107	105.06
561.32	116.06
561.532	124.06
561.744	119.06
561.956	116.06
562.168	123.06
562.381	93.06
562.593	129.06
562.805	120.06
563.017	115.06
563.229	122.06
563.441	125.06
563.653	118.06
563.865	124.06
564.077	118.06
564.289	124.06
564.501	128.06
564.713	121.06
564.925	116.06
565.137	122.06
565.349	118.06
565.561	126.06
565.773	130.06
565.985	128.06
566.197	104.06
566.408	128.06
566.62	127.06
566.832	137.06
567.044	150.06
567.255	132.06
567.467	141.06
567.679	130.06
567.891	142.06
568.102	128.06
568.314	133.06
568.526	121.06
568.737	121.06
568.949	133.06
569.161	133.06
569.372	116.06
569.584	104.06
569.795	111.06
570.007	106.06
570.218	122.06
570.43	111.06
570.641	131.06
570.853	120.06
571.064	114.06
571.276	118.06
571.487	123.06
571.698	108.06
571.91	118.06
572.121	117.06
572.333	102.06
572.544	114.06
572.755	118.06
572.966	113.06
573.178	111.06
573.389	117.06
573.6	100.06
573.811	114.06
574.023	107.06
574.234	108.06
574.445	119.06
574.656	109.06
574.867	110.06
575.078	115.06
575.289	104.06
575.501	122.06
575.712	108.06
575.923	103.06
576.134	120.06
576.345	124.06
576.556	109.06
576.767	101.06
576.978	105.06
577.188	93.06
577.399	116.06
577.61	103.06
577.821	94.06
578.032	115.06
578.243	109.06
578.454	109.06
578.665	124.06
578.875	109.06
579.086	112.06
579.297	112.06
579.508	114.06
579.718	115.06
579.929	109.06
580.14	113.06
580.35	100.06
580.561	117.06
580.772	112.06
580.982	101.06
581.193	105.06
581.403	114.06
581.614	122.06
581.825	108.06
582.035	96.06
582.246	103.06
582.456	118.06
582.667	105.06
582.877	104.06
583.087	101.06
583.298	103.06
583.508	109.06
583.719	112.06
583.929	122.06
584.139	113.06
584.35	107.06
584.56	123.06
584.77	101.06
584.981	95.06
585.191	106.06
585.401	121.06
585.611	110.06
585.821	103.06
586.032	102.06
586.242	103.06
586.452	102.06
586.662	112.06
586.872	105.06
587.082	105.06
587.292	103.06
587.502	112.06
587.713	106.06
587.923	106.06
588.133	97.06
588.343	105.06
588.553	103.06
588.762	105.06
588.972	122.06
589.182	112.06
589.392	102.06
589.602	132.06
589.812	109.06
590.022	126.06
590.232	120.06
590.441	93.06
590.651	106.06
590.861	123.06
591.071	100.06
591.281	101.06
591.49	107.06
591.7	102.06
591.91	107.06
592.119	113.06
592.329	112.06
592.539	100.06
592.748	114.06
592.958	106.06
593.167	112.06
593.377	98.06
593.587	100.06
593.796	113.06
594.006	111.06
594.215	125.06
594.424	116.06
594.634	112.06
594.843	123.06
595.053	117.06
595.262	110.06
595.472	126.06
595.681	114.06
595.89	99.06
596.1	108.06
596.309	107.06
596.518	98.06
596.727	102.06
596.937	100.06
597.146	97.06
597.355	106.06
597.564	101.06
597.774	92.06
597.983	107.06
598.192	107.06
598.401	113.06
598.61	103.06
598.819	105.06
599.028	98.06
599.237	102.06
599.446	103.06
599.655	100.06
599.864	107.06
600.073	119.06
600.282	106.06
600.491	116.06
600.7	112.06
600.909	98.06
601.118	97.06
601.327	98.06
601.536	94.06
601.745	94.06
601.953	105.06
602.162	109.06
602.371	100.06
602.58	98.06
602.789	107.06
602.997	109.06
603.206	117.06
603.415	108.06
603.623	89.06
603.832	101.06
604.041	106.06
604.249	113.06
604.458	93.06
604.666	103.06
604.875	89.06
605.084	87.06
605.292	100.06
605.501	98.06
605.709	110.06
605.918	113.06
606.126	119.06
606.334	110.06
606.543	114.06
606.751	101.06
606.96	112.06
607.168	105.06
607.376	95.06
607.585	98.06
607.793	99.06
608.001	107.06
608.21	109.06
608.418	98.06
608.626	107.06
608.834	107.06
609.043	104.06
609.251	104.06
609.459	99.06
609.667	100.06
609.875	88.06
610.083	114.06
610.291	101.06
610.499	107.06
610.707	115.06
610.916	108.06
611.124	108.06
611.332	112.06
611.54	130.06
611.748	127.06
611.955	95.06
612.163	121.06
612.371	91.06
612.579	102.06
612.787	91.06
612.995	96.06
613.203	96.06
613.411	102.06
613.618	108.06
613.826	116.06
614.034	99.06
614.242	101.06
614.449	104.06
614.657	112.06
614.865	94.06
615.072	97.06
615.28	106.06
615.488	93.06
615.695	93.06
615.903	98.06
616.111	102.06
616.318	114.06
616.526	109.06
616.733	100.06
616.941	102.06
617.148	107.06
617.356	108.06
617.563	100.06
617.771	106.06
617.978	106.06
618.185	108.06
618.393	112.06
618.6	100.06
618.807	110.06
619.015	97.06
619.222	100.06
619.429	101.06
619.637	123.06
619.844	107.06
620.051	101.06
620.258	100.06
620.466	102.06
620.673	113.06
620.88	97.06
621.087	106.06
621.294	99.06
621.501	92.06
621.708	117.06
621.915	89.06
622.122	103.06
622.329	105.06
622.536	114.06
622.743	103.06
622.95	103.06
623.157	94.06
623.364	114.06
623.571	102.06
623.778	100.06
623.985	96.06
624.192	90.06
624.399	93.06
624.606	103.06
624.812	106.06
625.019	92.06
625.226	98.06
625.433	106.06
625.639	117.06
625.846	100.06
626.053	97.06
626.259	93.06
626.466	94.06
626.673	93.06
626.879	101.06
627.086	104.06
627.293	92.06
627.499	92.06
627.706	114.06
627.912	99.06
628.119	119.06
628.325	109.06
628.532	107.06
628.738	92.06
628.945	97.06
629.151	94.06
629.357	96.06
629.564	92.06
629.77	104.06
629.976	97.06
630.183	102.06
630.389	82.06
630.595	90.06
630.802	91.06
631.008	101.06
631.214	106.06
631.42	92.06
631.627	86.06
631.833	103.06
632.039	96.06
632.245	89.06
632.451	94.06
632.657	82.06
632.863	101.06
633.069	94.06
633.275	81.06
633.481	94.06
633.688	100.06
633.893	96.06
634.099	98.06
634.305	96.06
634.511	105.06
634.717	90.06
634.923	94.06
635.129	88.06
635.335	94.06
635.541	96.06
635.747	92.06
635.952	77.06
636.158	100.06
636.364	98.06
636.57	104.06
636.775	89.06
636.981	86.06
637.187	90.06
637.392	90.06
637.598	98.06
637.804	100.06
638.009	106.06
638.215	89.06
638.421	100.06
638.626	86.06
638.832	91.06
639.037	86.06
639.243	89.06
639.448	102.06
639.654	90.06
639.859	91.06
640.065	88.06
640.27	82.06
640.475	87.06
640.681	77.06
640.886	80.06
641.091	88.06
641.297	96.06
641.502	86.06
641.707	96.06
641.913	107.06
642.118	95.06
642.323	97.06
642.528	92.06
642.733	84.06
642.939	86.06
643.144	108.06
643.349	93.06
643.554	89.06
643.759	92.06
643.964	91.06
644.169	91.06
644.374	87.06
644.579	91.06
644.784	83.06
644.989	91.06
645.194	92.06
645.399	77.06
645.604	74.06
645.809	90.06
646.014	94.06
646.219	96.06
646.423	91.06
646.628	107.06
646.833	78.06
647.038	100.06
647.243	100.06
647.447	97.06
647.652	98.06
647.857	108.06
648.062	89.06
648.266	100.06
648.471	95.06
648.676	92.06
648.88	88.06
649.085	93.06
649.289	104.06
649.494	91.06
649.698	103.06
649.903	112.06
650.107	83.06
650.312	102.06
650.516	101.06
650.721	78.06
650.925	102.06
651.13	91.06
651.334	89.06
651.539	105.06
651.743	94.06
651.947	101.06
652.152	87.06
652.356	74.06
652.56	89.06
652.764	93.06
652.969	84.06
653.173	75.06
653.377	76.06
653.581	86.06
653.785	87.06
653.99	88.06
654.194	92.06
654.398	81.06
654.602	96.06
654.806	84.06
655.01	75.06
655.214	93.06
655.418	91.06
655.622	97.06
655.826	92.06
656.03	89.06
656.234	87.06
656.438	90.06
656.642	112.06
656.846	82.06
657.049	89.06
657.253	89.06
657.457	83.06
657.661	88.06
657.865	85.06
658.068	74.06
658.272	85.06
658.476	76.06
658.68	81.06
658.883	84.06
659.087	82.06
659.291	88.06
659.494	69.06
659.698	73.06
659.901	73.06
660.105	84.06
660.309	74.06
660.512	83.06
660.716	83.06
660.919	71.06
661.123	84.06
661.326	86.06
661.53	91.06
661.733	87.06
661.936	81.06
662.14	76.06
662.343	84.06
662.546	92.06
662.75	84.06
662.953	82.06
663.156	76.06
663.36	86.06
663.563	75.06
663.766	80.06
663.969	89.06
664.173	95.06
664.376	82.06
664.579	78.06
664.782	80.06
664.985	64.06
665.188	63.06
665.391	94.06
665.594	83.06
665.797	73.06
666	82.06
666.203	68.06
666.406	74.06
666.609	77.06
666.812	77.06
667.015	71.06
667.218	80.06
667.421	88.06
667.624	77.06
667.827	73.06
668.03	85.06
668.232	70.06
668.435	77.06
668.638	90.06
668.841	85.06
669.043	77.06
669.246	76.06
669.449	67.06
669.651	76.06
669.854	77.06
670.057	89.06
670.259	83.06
670.462	78.06
670.665	84.06
670.867	79.06
671.07	80.06
671.272	72.06
671.475	99.06
671.677	95.06
671.88	79.06
672.082	89.06
672.284	86.06
672.487	73.06
672.689	85.06
672.892	85.06
