Data from 1968.PennyLincolnUp.Lamp.En5.5.200Scan.071719.P1._HRD10591_14-49-36-969.txt Node
Date: Thu Jul 18 14:49:36 EDT 2019
User: cochatt
Spectrometer: HR+D1059
Trigger mode: 1
Integration Time (sec): 1.000000E-1
Scans to average: 1
Electric dark correction enabled: true
Nonlinearity correction enabled: false
Boxcar width: 0
XAxis mode: Wavelengths
Number of Pixels in Spectrum: 2048
>>>>>Begin Spectral Data<<<<<
223.165	-10.25
223.4	-10.25
223.635	-10.25
223.869	-27.25
224.104	-21.25
224.338	-14.25
224.573	-5.25
224.808	-7.25
225.042	-12.25
225.277	-2.25
225.511	-7.25
225.746	-2.25
225.98	0.75
226.215	10.75
226.449	24.75
226.683	13.75
226.918	25.75
227.152	33.75
227.387	19.75
227.621	36.75
227.856	42.75
228.09	46.75
228.324	45.75
228.559	55.75
228.793	57.75
229.027	62.75
229.262	75.75
229.496	73.75
229.73	83.75
229.964	78.75
230.199	83.75
230.433	63.75
230.667	87.75
230.901	89.75
231.136	90.75
231.37	81.75
231.604	85.75
231.838	75.75
232.072	82.75
232.306	89.75
232.541	85.75
232.775	77.75
233.009	78.75
233.243	79.75
233.477	83.75
233.711	79.75
233.945	97.75
234.179	79.75
234.413	81.75
234.647	92.75
234.881	95.75
235.115	81.75
235.349	82.75
235.583	90.75
235.817	102.75
236.051	88.75
236.285	81.75
236.519	71.75
236.753	76.75
236.987	95.75
237.221	76.75
237.455	82.75
237.689	96.75
237.922	91.75
238.156	83.75
238.39	70.75
238.624	88.75
238.858	69.75
239.091	75.75
239.325	71.75
239.559	92.75
239.793	83.75
240.027	88.75
240.26	83.75
240.494	73.75
240.728	77.75
240.961	95.75
241.195	73.75
241.429	88.75
241.662	67.75
241.896	94.75
242.13	76.75
242.363	85.75
242.597	80.75
242.83	92.75
243.064	74.75
243.298	79.75
243.531	86.75
243.765	75.75
243.998	78.75
244.232	95.75
244.465	88.75
244.699	88.75
244.932	101.75
245.166	91.75
245.399	90.75
245.633	77.75
245.866	76.75
246.099	79.75
246.333	89.75
246.566	81.75
246.8	82.75
247.033	84.75
247.266	73.75
247.5	91.75
247.733	73.75
247.966	78.75
248.2	79.75
248.433	82.75
248.666	85.75
248.899	90.75
249.133	92.75
249.366	90.75
249.599	89.75
249.832	80.75
250.066	85.75
250.299	93.75
250.532	91.75
250.765	98.75
250.998	94.75
251.231	91.75
251.465	90.75
251.698	94.75
251.931	72.75
252.164	90.75
252.397	86.75
252.63	82.75
252.863	74.75
253.096	86.75
253.329	86.75
253.562	79.75
253.795	81.75
254.028	80.75
254.261	77.75
254.494	83.75
254.727	85.75
254.96	93.75
255.193	93.75
255.426	94.75
255.659	86.75
255.892	85.75
256.124	89.75
256.357	93.75
256.59	85.75
256.823	98.75
257.056	86.75
257.289	92.75
257.521	91.75
257.754	92.75
257.987	86.75
258.22	86.75
258.452	84.75
258.685	84.75
258.918	76.75
259.151	83.75
259.383	94.75
259.616	93.75
259.849	91.75
260.081	92.75
260.314	93.75
260.547	89.75
260.779	89.75
261.012	86.75
261.244	87.75
261.477	88.75
261.71	97.75
261.942	92.75
262.175	90.75
262.407	93.75
262.64	90.75
262.872	94.75
263.105	91.75
263.337	91.75
263.57	100.75
263.802	83.75
264.035	92.75
264.267	90.75
264.499	81.75
264.732	97.75
264.964	101.75
265.197	90.75
265.429	100.75
265.661	100.75
265.894	86.75
266.126	103.75
266.358	107.75
266.591	94.75
266.823	105.75
267.055	103.75
267.287	107.75
267.52	94.75
267.752	90.75
267.984	91.75
268.216	96.75
268.448	88.75
268.681	85.75
268.913	89.75
269.145	91.75
269.377	85.75
269.609	103.75
269.841	105.75
270.073	94.75
270.306	96.75
270.538	104.75
270.77	90.75
271.002	102.75
271.234	82.75
271.466	95.75
271.698	92.75
271.93	97.75
272.162	97.75
272.394	100.75
272.626	97.75
272.858	97.75
273.09	86.75
273.322	106.75
273.553	79.75
273.785	96.75
274.017	93.75
274.249	100.75
274.481	79.75
274.713	93.75
274.945	93.75
275.176	89.75
275.408	87.75
275.64	83.75
275.872	108.75
276.104	89.75
276.335	101.75
276.567	101.75
276.799	106.75
277.031	107.75
277.262	103.75
277.494	95.75
277.726	99.75
277.957	102.75
278.189	97.75
278.421	90.75
278.652	94.75
278.884	93.75
279.115	103.75
279.347	102.75
279.579	92.75
279.81	94.75
280.042	104.75
280.273	87.75
280.505	103.75
280.736	104.75
280.968	106.75
281.199	80.75
281.431	104.75
281.662	107.75
281.894	92.75
282.125	89.75
282.356	106.75
282.588	97.75
282.819	93.75
283.051	90.75
283.282	99.75
283.513	88.75
283.745	107.75
283.976	95.75
284.207	93.75
284.439	94.75
284.67	94.75
284.901	89.75
285.132	89.75
285.364	118.75
285.595	102.75
285.826	87.75
286.057	100.75
286.288	94.75
286.52	102.75
286.751	97.75
286.982	107.75
287.213	102.75
287.444	95.75
287.675	91.75
287.906	114.75
288.138	107.75
288.369	97.75
288.6	105.75
288.831	100.75
289.062	85.75
289.293	101.75
289.524	102.75
289.755	96.75
289.986	105.75
290.217	91.75
290.448	108.75
290.679	102.75
290.91	119.75
291.141	101.75
291.371	99.75
291.602	108.75
291.833	88.75
292.064	101.75
292.295	94.75
292.526	100.75
292.757	105.75
292.987	95.75
293.218	108.75
293.449	108.75
293.68	108.75
293.91	102.75
294.141	108.75
294.372	88.75
294.603	101.75
294.833	103.75
295.064	105.75
295.295	99.75
295.525	110.75
295.756	106.75
295.987	104.75
296.217	103.75
296.448	107.75
296.679	107.75
296.909	97.75
297.14	114.75
297.37	101.75
297.601	108.75
297.831	100.75
298.062	90.75
298.292	82.75
298.523	97.75
298.753	95.75
298.984	106.75
299.214	122.75
299.445	111.75
299.675	105.75
299.905	108.75
300.136	111.75
300.366	93.75
300.597	101.75
300.827	116.75
301.057	102.75
301.288	106.75
301.518	95.75
301.748	108.75
301.979	110.75
302.209	103.75
302.439	104.75
302.669	106.75
302.9	101.75
303.13	100.75
303.36	101.75
303.59	101.75
303.82	91.75
304.051	118.75
304.281	110.75
304.511	131.75
304.741	100.75
304.971	99.75
305.201	117.75
305.431	97.75
305.661	101.75
305.891	93.75
306.121	102.75
306.352	110.75
306.582	107.75
306.812	103.75
307.042	116.75
307.272	107.75
307.502	107.75
307.731	109.75
307.961	111.75
308.191	104.75
308.421	109.75
308.651	104.75
308.881	101.75
309.111	108.75
309.341	105.75
309.571	108.75
309.8	97.75
310.03	94.75
310.26	103.75
310.49	105.75
310.72	100.75
310.949	117.75
311.179	106.75
311.409	91.75
311.639	97.75
311.868	107.75
312.098	119.75
312.328	109.75
312.557	109.75
312.787	101.75
313.017	116.75
313.246	115.75
313.476	106.75
313.706	104.75
313.935	111.75
314.165	108.75
314.394	109.75
314.624	110.75
314.853	118.75
315.083	96.75
315.312	117.75
315.542	106.75
315.771	108.75
316.001	104.75
316.23	103.75
316.46	118.75
316.689	116.75
316.919	113.75
317.148	114.75
317.377	113.75
317.607	115.75
317.836	113.75
318.065	98.75
318.295	104.75
318.524	87.75
318.753	108.75
318.983	114.75
319.212	102.75
319.441	104.75
319.67	106.75
319.9	105.75
320.129	111.75
320.358	108.75
320.587	101.75
320.816	106.75
321.046	102.75
321.275	92.75
321.504	91.75
321.733	122.75
321.962	101.75
322.191	107.75
322.42	122.75
322.649	117.75
322.878	108.75
323.108	113.75
323.337	96.75
323.566	120.75
323.795	108.75
324.024	120.75
324.253	123.75
324.482	117.75
324.71	139.75
324.939	156.75
325.168	141.75
325.397	118.75
325.626	111.75
325.855	107.75
326.084	103.75
326.313	109.75
326.542	116.75
326.77	112.75
326.999	125.75
327.228	116.75
327.457	142.75
327.686	152.75
327.914	133.75
328.143	113.75
328.372	117.75
328.6	107.75
328.829	117.75
329.058	109.75
329.287	116.75
329.515	113.75
329.744	102.75
329.972	118.75
330.201	104.75
330.43	102.75
330.658	122.75
330.887	110.75
331.115	117.75
331.344	126.75
331.572	125.75
331.801	114.75
332.03	108.75
332.258	115.75
332.486	109.75
332.715	115.75
332.943	117.75
333.172	124.75
333.4	123.75
333.629	121.75
333.857	125.75
334.085	129.75
334.314	116.75
334.542	126.75
334.771	119.75
334.999	109.75
335.227	120.75
335.455	107.75
335.684	107.75
335.912	129.75
336.14	114.75
336.369	113.75
336.597	108.75
336.825	123.75
337.053	114.75
337.281	125.75
337.51	126.75
337.738	110.75
337.966	112.75
338.194	126.75
338.422	117.75
338.65	103.75
338.878	121.75
339.106	130.75
339.334	125.75
339.562	115.75
339.79	116.75
340.018	119.75
340.246	107.75
340.474	101.75
340.702	104.75
340.93	117.75
341.158	121.75
341.386	114.75
341.614	104.75
341.842	106.75
342.07	114.75
342.298	103.75
342.526	98.75
342.754	113.75
342.981	109.75
343.209	104.75
343.437	114.75
343.665	104.75
343.893	108.75
344.12	115.75
344.348	128.75
344.576	126.75
344.804	121.75
345.031	93.75
345.259	105.75
345.487	109.75
345.714	101.75
345.942	121.75
346.17	111.75
346.397	111.75
346.625	108.75
346.853	100.75
347.08	108.75
347.308	108.75
347.535	124.75
347.763	112.75
347.99	115.75
348.218	99.75
348.445	102.75
348.673	107.75
348.9	113.75
349.128	117.75
349.355	98.75
349.583	120.75
349.81	113.75
350.037	107.75
350.265	107.75
350.492	102.75
350.72	104.75
350.947	117.75
351.174	107.75
351.402	117.75
351.629	121.75
351.856	100.75
352.083	110.75
352.311	99.75
352.538	109.75
352.765	101.75
352.992	107.75
353.22	115.75
353.447	125.75
353.674	94.75
353.901	124.75
354.128	117.75
354.355	95.75
354.583	99.75
354.81	100.75
355.037	113.75
355.264	114.75
355.491	106.75
355.718	100.75
355.945	117.75
356.172	116.75
356.399	104.75
356.626	123.75
356.853	97.75
357.08	104.75
357.307	115.75
357.534	118.75
357.761	103.75
357.988	104.75
358.215	110.75
358.441	107.75
358.668	108.75
358.895	118.75
359.122	109.75
359.349	107.75
359.576	102.75
359.802	102.75
360.029	127.75
360.256	112.75
360.483	124.75
360.709	110.75
360.936	104.75
361.163	116.75
361.39	96.75
361.616	118.75
361.843	107.75
362.07	110.75
362.296	132.75
362.523	99.75
362.749	116.75
362.976	95.75
363.203	119.75
363.429	111.75
363.656	105.75
363.882	99.75
364.109	123.75
364.335	88.75
364.562	114.75
364.788	111.75
365.015	115.75
365.241	108.75
365.468	117.75
365.694	110.75
365.92	111.75
366.147	107.75
366.373	118.75
366.599	113.75
366.826	102.75
367.052	110.75
367.278	115.75
367.505	117.75
367.731	108.75
367.957	107.75
368.184	105.75
368.41	101.75
368.636	118.75
368.862	110.75
369.089	125.75
369.315	117.75
369.541	109.75
369.767	94.75
369.993	120.75
370.219	117.75
370.445	108.75
370.672	112.75
370.898	101.75
371.124	127.75
371.35	115.75
371.576	101.75
371.802	120.75
372.028	104.75
372.254	112.75
372.48	107.75
372.706	103.75
372.932	104.75
373.158	107.75
373.384	110.75
373.61	111.75
373.835	106.75
374.061	124.75
374.287	122.75
374.513	106.75
374.739	111.75
374.965	106.75
375.191	114.75
375.416	121.75
375.642	109.75
375.868	107.75
376.094	108.75
376.319	117.75
376.545	123.75
376.771	108.75
376.997	115.75
377.222	110.75
377.448	97.75
377.674	120.75
377.899	101.75
378.125	123.75
378.35	117.75
378.576	98.75
378.802	108.75
379.027	121.75
379.253	108.75
379.478	111.75
379.704	108.75
379.929	120.75
380.155	108.75
380.38	112.75
380.606	103.75
380.831	110.75
381.057	108.75
381.282	112.75
381.507	110.75
381.733	106.75
381.958	102.75
382.184	92.75
382.409	112.75
382.634	126.75
382.86	119.75
383.085	116.75
383.31	119.75
383.535	124.75
383.761	129.75
383.986	119.75
384.211	122.75
384.436	120.75
384.662	122.75
384.887	126.75
385.112	115.75
385.337	107.75
385.562	121.75
385.787	117.75
386.013	130.75
386.238	127.75
386.463	124.75
386.688	124.75
386.913	105.75
387.138	111.75
387.363	125.75
387.588	125.75
387.813	123.75
388.038	112.75
388.263	125.75
388.488	107.75
388.713	103.75
388.938	120.75
389.163	98.75
389.387	110.75
389.612	110.75
389.837	104.75
390.062	130.75
390.287	119.75
390.512	121.75
390.736	120.75
390.961	125.75
391.186	112.75
391.411	114.75
391.636	124.75
391.86	117.75
392.085	107.75
392.31	117.75
392.534	123.75
392.759	142.75
392.984	109.75
393.208	133.75
393.433	123.75
393.658	120.75
393.882	122.75
394.107	109.75
394.331	124.75
394.556	116.75
394.78	121.75
395.005	117.75
395.229	115.75
395.454	119.75
395.678	120.75
395.903	132.75
396.127	115.75
396.352	120.75
396.576	123.75
396.801	133.75
397.025	117.75
397.249	129.75
397.474	136.75
397.698	131.75
397.922	124.75
398.147	129.75
398.371	116.75
398.595	135.75
398.82	132.75
399.044	124.75
399.268	140.75
399.492	127.75
399.717	139.75
399.941	153.75
400.165	147.75
400.389	131.75
400.613	143.75
400.837	135.75
401.062	139.75
401.286	128.75
401.51	129.75
401.734	124.75
401.958	127.75
402.182	123.75
402.406	124.75
402.63	137.75
402.854	129.75
403.078	131.75
403.302	134.75
403.526	145.75
403.75	135.75
403.974	133.75
404.198	138.75
404.422	140.75
404.645	142.75
404.869	138.75
405.093	139.75
405.317	141.75
405.541	137.75
405.765	127.75
405.988	125.75
406.212	129.75
406.436	120.75
406.66	124.75
406.883	126.75
407.107	131.75
407.331	149.75
407.555	151.75
407.778	142.75
408.002	141.75
408.226	133.75
408.449	126.75
408.673	139.75
408.896	121.75
409.12	139.75
409.344	135.75
409.567	124.75
409.791	131.75
410.014	138.75
410.238	129.75
410.461	135.75
410.685	134.75
410.908	136.75
411.132	153.75
411.355	137.75
411.578	143.75
411.802	130.75
412.025	138.75
412.249	128.75
412.472	126.75
412.695	136.75
412.919	125.75
413.142	124.75
413.365	129.75
413.589	116.75
413.812	117.75
414.035	129.75
414.258	126.75
414.482	134.75
414.705	131.75
414.928	122.75
415.151	125.75
415.374	122.75
415.597	121.75
415.821	139.75
416.044	121.75
416.267	147.75
416.49	134.75
416.713	121.75
416.936	125.75
417.159	118.75
417.382	112.75
417.605	116.75
417.828	139.75
418.051	126.75
418.274	140.75
418.497	114.75
418.72	127.75
418.943	129.75
419.166	131.75
419.389	132.75
419.611	127.75
419.834	132.75
420.057	139.75
420.28	141.75
420.503	133.75
420.726	124.75
420.948	114.75
421.171	127.75
421.394	142.75
421.617	132.75
421.839	126.75
422.062	143.75
422.285	125.75
422.507	147.75
422.73	138.75
422.953	138.75
423.175	131.75
423.398	129.75
423.621	143.75
423.843	123.75
424.066	129.75
424.288	133.75
424.511	136.75
424.733	134.75
424.956	146.75
425.178	147.75
425.401	136.75
425.623	139.75
425.846	135.75
426.068	125.75
426.291	123.75
426.513	139.75
426.735	121.75
426.958	128.75
427.18	132.75
427.402	150.75
427.625	158.75
427.847	132.75
428.069	136.75
428.292	121.75
428.514	120.75
428.736	121.75
428.958	133.75
429.181	123.75
429.403	124.75
429.625	127.75
429.847	136.75
430.069	120.75
430.292	129.75
430.514	120.75
430.736	115.75
430.958	131.75
431.18	127.75
431.402	123.75
431.624	114.75
431.846	125.75
432.068	106.75
432.29	124.75
432.512	135.75
432.734	127.75
432.956	123.75
433.178	115.75
433.4	121.75
433.622	127.75
433.844	134.75
434.066	136.75
434.287	133.75
434.509	129.75
434.731	137.75
434.953	130.75
435.175	128.75
435.397	141.75
435.618	128.75
435.84	144.75
436.062	142.75
436.284	158.75
436.505	130.75
436.727	133.75
436.949	119.75
437.17	104.75
437.392	110.75
437.614	118.75
437.835	138.75
438.057	129.75
438.278	130.75
438.5	126.75
438.721	137.75
438.943	124.75
439.165	118.75
439.386	121.75
439.608	127.75
439.829	131.75
440.05	143.75
440.272	132.75
440.493	140.75
440.715	122.75
440.936	115.75
441.158	129.75
441.379	120.75
441.6	123.75
441.822	147.75
442.043	138.75
442.264	143.75
442.486	138.75
442.707	133.75
442.928	126.75
443.149	131.75
443.371	137.75
443.592	134.75
443.813	144.75
444.034	135.75
444.255	127.75
444.476	133.75
444.698	139.75
444.919	148.75
445.14	277.75
445.361	187.75
445.582	141.75
445.803	130.75
446.024	129.75
446.245	150.75
446.466	131.75
446.687	141.75
446.908	126.75
447.129	125.75
447.35	126.75
447.571	135.75
447.792	127.75
448.013	120.75
448.234	114.75
448.455	131.75
448.675	139.75
448.896	144.75
449.117	127.75
449.338	129.75
449.559	138.75
449.779	141.75
450	137.75
450.221	121.75
450.442	112.75
450.662	117.75
450.883	124.75
451.104	131.75
451.324	121.75
451.545	126.75
451.766	119.75
451.986	119.75
452.207	121.75
452.428	119.75
452.648	126.75
452.869	119.75
453.089	104.75
453.31	119.75
453.53	122.75
453.751	124.75
453.971	109.75
454.192	124.75
454.412	114.75
454.633	118.75
454.853	121.75
455.073	120.75
455.294	111.75
455.514	129.75
455.734	110.75
455.955	115.75
456.175	124.75
456.395	120.75
456.616	106.75
456.836	114.75
457.056	123.75
457.276	111.75
457.497	109.75
457.717	127.75
457.937	109.75
458.157	120.75
458.377	139.75
458.598	123.75
458.818	124.75
459.038	133.75
459.258	124.75
459.478	105.75
459.698	125.75
459.918	124.75
460.138	117.75
460.358	118.75
460.578	125.75
460.798	141.75
461.018	126.75
461.238	114.75
461.458	124.75
461.678	135.75
461.898	126.75
462.118	135.75
462.338	137.75
462.558	126.75
462.777	129.75
462.997	139.75
463.217	130.75
463.437	134.75
463.657	121.75
463.876	133.75
464.096	121.75
464.316	144.75
464.536	133.75
464.755	129.75
464.975	125.75
465.195	131.75
465.414	137.75
465.634	131.75
465.854	127.75
466.073	115.75
466.293	147.75
466.512	132.75
466.732	111.75
466.951	125.75
467.171	138.75
467.391	114.75
467.61	117.75
467.829	125.75
468.049	127.75
468.268	120.75
468.488	111.75
468.707	108.75
468.927	132.75
469.146	123.75
469.365	110.75
469.585	112.75
469.804	123.75
470.023	126.75
470.243	130.75
470.462	121.75
470.681	122.75
470.901	129.75
471.12	123.75
471.339	134.75
471.558	123.75
471.777	135.75
471.997	122.75
472.216	120.75
472.435	116.75
472.654	115.75
472.873	114.75
473.092	127.75
473.311	124.75
473.53	127.75
473.749	123.75
473.968	131.75
474.187	126.75
474.406	127.75
474.625	135.75
474.844	121.75
475.063	131.75
475.282	126.75
475.501	125.75
475.72	127.75
475.939	109.75
476.158	123.75
476.377	111.75
476.596	125.75
476.814	118.75
477.033	110.75
477.252	137.75
477.471	124.75
477.69	105.75
477.908	130.75
478.127	127.75
478.346	121.75
478.564	128.75
478.783	133.75
479.002	129.75
479.22	140.75
479.439	141.75
479.658	124.75
479.876	125.75
480.095	122.75
480.313	137.75
480.532	130.75
480.751	129.75
480.969	122.75
481.188	142.75
481.406	135.75
481.624	133.75
481.843	109.75
482.061	133.75
482.28	129.75
482.498	116.75
482.717	122.75
482.935	116.75
483.153	133.75
483.372	128.75
483.59	121.75
483.808	130.75
484.027	117.75
484.245	150.75
484.463	147.75
484.681	139.75
484.9	133.75
485.118	121.75
485.336	141.75
485.554	131.75
485.772	140.75
485.99	139.75
486.209	119.75
486.427	128.75
486.645	137.75
486.863	142.75
487.081	142.75
487.299	137.75
487.517	129.75
487.735	132.75
487.953	137.75
488.171	136.75
488.389	140.75
488.607	141.75
488.825	129.75
489.043	121.75
489.261	133.75
489.479	124.75
489.696	138.75
489.914	138.75
490.132	144.75
490.35	131.75
490.568	129.75
490.786	138.75
491.003	144.75
491.221	121.75
491.439	121.75
491.657	135.75
491.874	156.75
492.092	144.75
492.31	157.75
492.527	139.75
492.745	141.75
492.963	135.75
493.18	145.75
493.398	127.75
493.615	150.75
493.833	136.75
494.05	145.75
494.268	147.75
494.485	150.75
494.703	145.75
494.92	133.75
495.138	129.75
495.355	142.75
495.573	139.75
495.79	156.75
496.008	148.75
496.225	141.75
496.442	142.75
496.66	148.75
496.877	135.75
497.094	141.75
497.312	125.75
497.529	145.75
497.746	153.75
497.963	155.75
498.181	148.75
498.398	158.75
498.615	172.75
498.832	165.75
499.049	143.75
499.267	173.75
499.484	172.75
499.701	184.75
499.918	197.75
500.135	198.75
500.352	206.75
500.569	222.75
500.786	225.75
501.003	199.75
501.22	189.75
501.437	194.75
501.654	188.75
501.871	173.75
502.088	156.75
502.305	155.75
502.522	154.75
502.739	174.75
502.956	154.75
503.172	147.75
503.389	141.75
503.606	144.75
503.823	148.75
504.04	145.75
504.256	148.75
504.473	153.75
504.69	138.75
504.907	154.75
505.123	134.75
505.34	137.75
505.557	138.75
505.773	125.75
505.99	131.75
506.207	121.75
506.423	133.75
506.64	150.75
506.856	141.75
507.073	133.75
507.289	131.75
507.506	129.75
507.722	137.75
507.939	135.75
508.155	131.75
508.372	133.75
508.588	134.75
508.805	127.75
509.021	132.75
509.238	124.75
509.454	134.75
509.67	122.75
509.887	129.75
510.103	129.75
510.319	129.75
510.536	148.75
510.752	159.75
510.968	138.75
511.184	132.75
511.401	124.75
511.617	124.75
511.833	126.75
512.049	126.75
512.265	130.75
512.481	126.75
512.698	129.75
512.914	133.75
513.13	136.75
513.346	132.75
513.562	119.75
513.778	121.75
513.994	120.75
514.21	120.75
514.426	125.75
514.642	122.75
514.858	125.75
515.074	130.75
515.29	138.75
515.506	156.75
515.721	143.75
515.937	143.75
516.153	135.75
516.369	143.75
516.585	139.75
516.801	136.75
517.016	147.75
517.232	129.75
517.448	133.75
517.664	132.75
517.879	156.75
518.095	132.75
518.311	139.75
518.527	154.75
518.742	121.75
518.958	128.75
519.173	135.75
519.389	129.75
519.605	131.75
519.82	139.75
520.036	133.75
520.251	129.75
520.467	152.75
520.682	129.75
520.898	123.75
521.113	108.75
521.329	143.75
521.544	135.75
521.76	145.75
521.975	168.75
522.19	159.75
522.406	130.75
522.621	102.75
522.836	117.75
523.052	125.75
523.267	139.75
523.482	118.75
523.698	126.75
523.913	119.75
524.128	118.75
524.343	122.75
524.559	118.75
524.774	127.75
524.989	128.75
525.204	123.75
525.419	122.75
525.634	115.75
525.849	119.75
526.064	129.75
526.28	125.75
526.495	118.75
526.71	129.75
526.925	133.75
527.14	132.75
527.355	120.75
527.57	125.75
527.785	133.75
527.999	116.75
528.214	126.75
528.429	133.75
528.644	132.75
528.859	132.75
529.074	122.75
529.289	129.75
529.503	141.75
529.718	125.75
529.933	117.75
530.148	129.75
530.363	114.75
530.577	116.75
530.792	125.75
531.007	114.75
531.221	110.75
531.436	129.75
531.651	141.75
531.865	117.75
532.08	109.75
532.295	100.75
532.509	110.75
532.724	125.75
532.938	120.75
533.153	123.75
533.367	103.75
533.582	119.75
533.796	118.75
534.011	110.75
534.225	123.75
534.44	120.75
534.654	108.75
534.868	120.75
535.083	101.75
535.297	127.75
535.511	123.75
535.726	129.75
535.94	123.75
536.154	123.75
536.369	115.75
536.583	106.75
536.797	125.75
537.011	117.75
537.225	109.75
537.44	107.75
537.654	124.75
537.868	133.75
538.082	115.75
538.296	131.75
538.51	122.75
538.724	120.75
538.938	122.75
539.153	123.75
539.367	120.75
539.581	123.75
539.795	133.75
540.009	121.75
540.222	125.75
540.436	124.75
540.65	122.75
540.864	121.75
541.078	108.75
541.292	131.75
541.506	123.75
541.72	124.75
541.934	119.75
542.147	123.75
542.361	132.75
542.575	130.75
542.789	141.75
543.002	133.75
543.216	144.75
543.43	134.75
543.644	136.75
543.857	128.75
544.071	149.75
544.285	147.75
544.498	132.75
544.712	125.75
544.925	133.75
545.139	138.75
545.352	130.75
545.566	129.75
545.779	135.75
545.993	139.75
546.206	130.75
546.42	158.75
546.633	126.75
546.847	143.75
547.06	133.75
547.274	136.75
547.487	129.75
547.7	125.75
547.914	129.75
548.127	130.75
548.34	128.75
548.554	120.75
548.767	129.75
548.98	127.75
549.193	118.75
549.407	130.75
549.62	135.75
549.833	118.75
550.046	125.75
550.259	120.75
550.473	129.75
550.686	124.75
550.899	121.75
551.112	127.75
551.325	109.75
551.538	135.75
551.751	123.75
551.964	122.75
552.177	112.75
552.39	121.75
552.603	110.75
552.816	133.75
553.029	122.75
553.242	133.75
553.455	112.75
553.667	121.75
553.88	131.75
554.093	124.75
554.306	123.75
554.519	125.75
554.732	117.75
554.944	121.75
555.157	125.75
555.37	122.75
555.583	118.75
555.795	122.75
556.008	123.75
556.221	110.75
556.433	125.75
556.646	129.75
556.859	120.75
557.071	125.75
557.284	121.75
557.496	110.75
557.709	121.75
557.921	121.75
558.134	111.75
558.346	128.75
558.559	119.75
558.771	129.75
558.984	118.75
559.196	105.75
559.409	116.75
559.621	119.75
559.833	123.75
560.046	114.75
560.258	103.75
560.47	119.75
560.683	122.75
560.895	102.75
561.107	107.75
561.32	119.75
561.532	119.75
561.744	107.75
561.956	97.75
562.168	127.75
562.381	110.75
562.593	116.75
562.805	118.75
563.017	122.75
563.229	110.75
563.441	127.75
563.653	124.75
563.865	118.75
564.077	105.75
564.289	117.75
564.501	106.75
564.713	126.75
564.925	123.75
565.137	108.75
565.349	122.75
565.561	135.75
565.773	127.75
565.985	131.75
566.197	113.75
566.408	136.75
566.62	127.75
566.832	122.75
567.044	137.75
567.255	134.75
567.467	147.75
567.679	127.75
567.891	141.75
568.102	144.75
568.314	151.75
568.526	128.75
568.737	131.75
568.949	128.75
569.161	116.75
569.372	124.75
569.584	113.75
569.795	125.75
570.007	117.75
570.218	105.75
570.43	97.75
570.641	132.75
570.853	124.75
571.064	119.75
571.276	118.75
571.487	111.75
571.698	129.75
571.91	110.75
572.121	107.75
572.333	126.75
572.544	119.75
572.755	118.75
572.966	102.75
573.178	97.75
573.389	90.75
573.6	93.75
573.811	96.75
574.023	110.75
574.234	102.75
574.445	114.75
574.656	109.75
574.867	113.75
575.078	104.75
575.289	114.75
575.501	118.75
575.712	104.75
575.923	104.75
576.134	100.75
576.345	108.75
576.556	109.75
576.767	101.75
576.978	102.75
577.188	117.75
577.399	102.75
577.61	112.75
577.821	113.75
578.032	105.75
578.243	113.75
578.454	109.75
578.665	115.75
578.875	111.75
579.086	108.75
579.297	110.75
579.508	98.75
579.718	106.75
579.929	115.75
580.14	104.75
580.35	106.75
580.561	119.75
580.772	113.75
580.982	109.75
581.193	101.75
581.403	116.75
581.614	109.75
581.825	102.75
582.035	102.75
582.246	103.75
582.456	109.75
582.667	110.75
582.877	95.75
583.087	98.75
583.298	109.75
583.508	117.75
583.719	103.75
583.929	113.75
584.139	119.75
584.35	98.75
584.56	111.75
584.77	108.75
584.981	107.75
585.191	92.75
585.401	98.75
585.611	103.75
585.821	119.75
586.032	94.75
586.242	101.75
586.452	111.75
586.662	116.75
586.872	108.75
587.082	93.75
587.292	109.75
587.502	109.75
587.713	100.75
587.923	87.75
588.133	108.75
588.343	94.75
588.553	100.75
588.762	113.75
588.972	103.75
589.182	96.75
589.392	106.75
589.602	109.75
589.812	108.75
590.022	108.75
590.232	97.75
590.441	98.75
590.651	96.75
590.861	95.75
591.071	112.75
591.281	94.75
591.49	108.75
591.7	100.75
591.91	100.75
592.119	119.75
592.329	115.75
592.539	110.75
592.748	104.75
592.958	111.75
593.167	113.75
593.377	100.75
593.587	104.75
593.796	118.75
594.006	108.75
594.215	100.75
594.424	118.75
594.634	110.75
594.843	101.75
595.053	102.75
595.262	101.75
595.472	86.75
595.681	101.75
595.89	117.75
596.1	100.75
596.309	102.75
596.518	107.75
596.727	98.75
596.937	113.75
597.146	103.75
597.355	104.75
597.564	101.75
597.774	96.75
597.983	100.75
598.192	105.75
598.401	105.75
598.61	99.75
598.819	109.75
599.028	95.75
599.237	101.75
599.446	105.75
599.655	106.75
599.864	102.75
600.073	117.75
600.282	103.75
600.491	93.75
600.7	86.75
600.909	106.75
601.118	85.75
601.327	107.75
601.536	88.75
601.745	96.75
601.953	111.75
602.162	110.75
602.371	109.75
602.58	95.75
602.789	98.75
602.997	109.75
603.206	111.75
603.415	112.75
603.623	95.75
603.832	89.75
604.041	83.75
604.249	105.75
604.458	98.75
604.666	90.75
604.875	99.75
605.084	90.75
605.292	95.75
605.501	118.75
605.709	103.75
605.918	96.75
606.126	109.75
606.334	107.75
606.543	98.75
606.751	102.75
606.96	94.75
607.168	109.75
607.376	101.75
607.585	97.75
607.793	107.75
608.001	108.75
608.21	106.75
608.418	107.75
608.626	97.75
608.834	100.75
609.043	105.75
609.251	101.75
609.459	104.75
609.667	102.75
609.875	95.75
610.083	102.75
610.291	102.75
610.499	96.75
610.707	114.75
610.916	97.75
611.124	96.75
611.332	108.75
611.54	118.75
611.748	105.75
611.955	117.75
612.163	98.75
612.371	99.75
612.579	101.75
612.787	106.75
612.995	94.75
613.203	101.75
613.411	96.75
613.618	113.75
613.826	100.75
614.034	85.75
614.242	104.75
614.449	105.75
614.657	113.75
614.865	97.75
615.072	95.75
615.28	94.75
615.488	86.75
615.695	102.75
615.903	98.75
616.111	105.75
616.318	99.75
616.526	98.75
616.733	101.75
616.941	94.75
617.148	96.75
617.356	102.75
617.563	100.75
617.771	98.75
617.978	110.75
618.185	106.75
618.393	93.75
618.6	106.75
618.807	93.75
619.015	102.75
619.222	104.75
619.429	84.75
619.637	92.75
619.844	108.75
620.051	109.75
620.258	102.75
620.466	111.75
620.673	99.75
620.88	115.75
621.087	101.75
621.294	106.75
621.501	98.75
621.708	85.75
621.915	92.75
622.122	103.75
622.329	103.75
622.536	103.75
622.743	94.75
622.95	119.75
623.157	97.75
623.364	96.75
623.571	79.75
623.778	98.75
623.985	102.75
624.192	102.75
624.399	103.75
624.606	94.75
624.812	106.75
625.019	101.75
625.226	92.75
625.433	91.75
625.639	93.75
625.846	94.75
626.053	102.75
626.259	99.75
626.466	95.75
626.673	83.75
626.879	97.75
627.086	102.75
627.293	96.75
627.499	85.75
627.706	88.75
627.912	102.75
628.119	103.75
628.325	104.75
628.532	105.75
628.738	107.75
628.945	77.75
629.151	105.75
629.357	93.75
629.564	102.75
629.77	99.75
629.976	95.75
630.183	86.75
630.389	85.75
630.595	97.75
630.802	82.75
631.008	99.75
631.214	99.75
631.42	103.75
631.627	98.75
631.833	88.75
632.039	89.75
632.245	102.75
632.451	92.75
632.657	93.75
632.863	99.75
633.069	100.75
633.275	94.75
633.481	95.75
633.688	91.75
633.893	105.75
634.099	98.75
634.305	98.75
634.511	111.75
634.717	100.75
634.923	82.75
635.129	94.75
635.335	109.75
635.541	97.75
635.747	100.75
635.952	106.75
636.158	83.75
636.364	99.75
636.57	90.75
636.775	93.75
636.981	76.75
637.187	92.75
637.392	97.75
637.598	106.75
637.804	101.75
638.009	91.75
638.215	95.75
638.421	78.75
638.626	97.75
638.832	102.75
639.037	103.75
639.243	95.75
639.448	83.75
639.654	92.75
639.859	100.75
640.065	105.75
640.27	109.75
640.475	110.75
640.681	94.75
640.886	91.75
641.091	87.75
641.297	88.75
641.502	101.75
641.707	89.75
641.913	91.75
642.118	70.75
642.323	91.75
642.528	98.75
642.733	101.75
642.939	82.75
643.144	95.75
643.349	95.75
643.554	94.75
643.759	85.75
643.964	85.75
644.169	91.75
644.374	98.75
644.579	99.75
644.784	104.75
644.989	88.75
645.194	102.75
645.399	106.75
645.604	86.75
645.809	103.75
646.014	95.75
646.219	79.75
646.423	95.75
646.628	85.75
646.833	97.75
647.038	94.75
647.243	96.75
647.447	87.75
647.652	98.75
647.857	87.75
648.062	110.75
648.266	93.75
648.471	98.75
648.676	97.75
648.88	91.75
649.085	96.75
649.289	86.75
649.494	88.75
649.698	100.75
649.903	82.75
650.107	85.75
650.312	101.75
650.516	91.75
650.721	69.75
650.925	83.75
651.13	94.75
651.334	84.75
651.539	91.75
651.743	92.75
651.947	95.75
652.152	102.75
652.356	100.75
652.56	86.75
652.764	100.75
652.969	87.75
653.173	79.75
653.377	88.75
653.581	86.75
653.785	96.75
653.99	96.75
654.194	95.75
654.398	98.75
654.602	93.75
654.806	102.75
655.01	89.75
655.214	90.75
655.418	94.75
655.622	94.75
655.826	101.75
656.03	85.75
656.234	86.75
656.438	94.75
656.642	77.75
656.846	98.75
657.049	96.75
657.253	95.75
657.457	101.75
657.661	89.75
657.865	85.75
658.068	81.75
658.272	75.75
658.476	81.75
658.68	77.75
658.883	77.75
659.087	81.75
659.291	87.75
659.494	76.75
659.698	92.75
659.901	108.75
660.105	88.75
660.309	87.75
660.512	78.75
660.716	67.75
660.919	86.75
661.123	94.75
661.326	80.75
661.53	93.75
661.733	83.75
661.936	78.75
662.14	95.75
662.343	89.75
662.546	78.75
662.75	85.75
662.953	82.75
663.156	69.75
663.36	90.75
663.563	89.75
663.766	75.75
663.969	97.75
664.173	81.75
664.376	93.75
664.579	84.75
664.782	75.75
664.985	83.75
665.188	78.75
665.391	61.75
665.594	87.75
665.797	87.75
666	89.75
666.203	76.75
666.406	67.75
666.609	87.75
666.812	89.75
667.015	82.75
667.218	103.75
667.421	87.75
667.624	79.75
667.827	96.75
668.03	93.75
668.232	78.75
668.435	93.75
668.638	74.75
668.841	82.75
669.043	79.75
669.246	82.75
669.449	87.75
669.651	92.75
669.854	81.75
670.057	89.75
670.259	70.75
670.462	77.75
670.665	76.75
670.867	88.75
671.07	76.75
671.272	69.75
671.475	85.75
671.677	82.75
671.88	76.75
672.082	79.75
672.284	76.75
672.487	79.75
672.689	84.75
672.892	89.75
