Data from 1968.PennyLincolnUp.Lamp.En5.5.200Scan.071719.P1._HRD10591_14-50-24-969.txt Node
Date: Thu Jul 18 14:50:24 EDT 2019
User: cochatt
Spectrometer: HR+D1059
Trigger mode: 1
Integration Time (sec): 1.000000E-1
Scans to average: 1
Electric dark correction enabled: true
Nonlinearity correction enabled: false
Boxcar width: 0
XAxis mode: Wavelengths
Number of Pixels in Spectrum: 2048
>>>>>Begin Spectral Data<<<<<
223.165	-16.62
223.4	-16.62
223.635	-16.62
223.869	-8.62
224.104	-13.62
224.338	-10.62
224.573	-16.62
224.808	-20.62
225.042	-8.62
225.277	-9.62
225.511	-3.62
225.746	8.38
225.98	9.38
226.215	17.38
226.449	10.38
226.683	17.38
226.918	23.38
227.152	22.38
227.387	35.38
227.621	37.38
227.856	43.38
228.09	41.38
228.324	47.38
228.559	53.38
228.793	44.38
229.027	58.38
229.262	52.38
229.496	62.38
229.73	83.38
229.964	76.38
230.199	83.38
230.433	73.38
230.667	77.38
230.901	95.38
231.136	77.38
231.37	80.38
231.604	78.38
231.838	97.38
232.072	84.38
232.306	94.38
232.541	99.38
232.775	86.38
233.009	89.38
233.243	96.38
233.477	80.38
233.711	90.38
233.945	87.38
234.179	89.38
234.413	87.38
234.647	84.38
234.881	79.38
235.115	80.38
235.349	102.38
235.583	79.38
235.817	86.38
236.051	96.38
236.285	85.38
236.519	91.38
236.753	89.38
236.987	91.38
237.221	84.38
237.455	92.38
237.689	87.38
237.922	103.38
238.156	86.38
238.39	77.38
238.624	81.38
238.858	80.38
239.091	91.38
239.325	90.38
239.559	85.38
239.793	72.38
240.027	86.38
240.26	79.38
240.494	76.38
240.728	86.38
240.961	83.38
241.195	81.38
241.429	76.38
241.662	74.38
241.896	80.38
242.13	66.38
242.363	80.38
242.597	83.38
242.83	100.38
243.064	91.38
243.298	91.38
243.531	98.38
243.765	86.38
243.998	85.38
244.232	92.38
244.465	85.38
244.699	90.38
244.932	87.38
245.166	86.38
245.399	77.38
245.633	102.38
245.866	96.38
246.099	90.38
246.333	99.38
246.566	83.38
246.8	91.38
247.033	79.38
247.266	89.38
247.5	82.38
247.733	87.38
247.966	93.38
248.2	82.38
248.433	88.38
248.666	84.38
248.899	95.38
249.133	82.38
249.366	85.38
249.599	77.38
249.832	97.38
250.066	83.38
250.299	80.38
250.532	72.38
250.765	79.38
250.998	91.38
251.231	86.38
251.465	84.38
251.698	95.38
251.931	91.38
252.164	94.38
252.397	93.38
252.63	86.38
252.863	94.38
253.096	87.38
253.329	93.38
253.562	78.38
253.795	102.38
254.028	99.38
254.261	91.38
254.494	84.38
254.727	92.38
254.96	83.38
255.193	87.38
255.426	99.38
255.659	97.38
255.892	85.38
256.124	92.38
256.357	90.38
256.59	92.38
256.823	83.38
257.056	95.38
257.289	100.38
257.521	91.38
257.754	93.38
257.987	104.38
258.22	99.38
258.452	88.38
258.685	94.38
258.918	95.38
259.151	93.38
259.383	87.38
259.616	83.38
259.849	85.38
260.081	96.38
260.314	107.38
260.547	96.38
260.779	91.38
261.012	104.38
261.244	100.38
261.477	96.38
261.71	83.38
261.942	95.38
262.175	95.38
262.407	94.38
262.64	80.38
262.872	102.38
263.105	93.38
263.337	92.38
263.57	102.38
263.802	91.38
264.035	103.38
264.267	96.38
264.499	99.38
264.732	90.38
264.964	100.38
265.197	95.38
265.429	96.38
265.661	79.38
265.894	103.38
266.126	112.38
266.358	88.38
266.591	111.38
266.823	90.38
267.055	94.38
267.287	103.38
267.52	91.38
267.752	94.38
267.984	107.38
268.216	92.38
268.448	105.38
268.681	105.38
268.913	92.38
269.145	98.38
269.377	100.38
269.609	86.38
269.841	98.38
270.073	115.38
270.306	102.38
270.538	95.38
270.77	98.38
271.002	91.38
271.234	100.38
271.466	119.38
271.698	100.38
271.93	87.38
272.162	90.38
272.394	96.38
272.626	101.38
272.858	83.38
273.09	84.38
273.322	107.38
273.553	105.38
273.785	95.38
274.017	110.38
274.249	93.38
274.481	103.38
274.713	97.38
274.945	87.38
275.176	94.38
275.408	104.38
275.64	93.38
275.872	94.38
276.104	93.38
276.335	103.38
276.567	100.38
276.799	101.38
277.031	87.38
277.262	91.38
277.494	95.38
277.726	96.38
277.957	99.38
278.189	97.38
278.421	92.38
278.652	82.38
278.884	102.38
279.115	88.38
279.347	103.38
279.579	103.38
279.81	87.38
280.042	89.38
280.273	95.38
280.505	97.38
280.736	98.38
280.968	118.38
281.199	91.38
281.431	101.38
281.662	101.38
281.894	96.38
282.125	102.38
282.356	92.38
282.588	103.38
282.819	120.38
283.051	99.38
283.282	103.38
283.513	103.38
283.745	115.38
283.976	115.38
284.207	101.38
284.439	88.38
284.67	105.38
284.901	96.38
285.132	90.38
285.364	102.38
285.595	106.38
285.826	98.38
286.057	102.38
286.288	106.38
286.52	112.38
286.751	100.38
286.982	119.38
287.213	94.38
287.444	110.38
287.675	97.38
287.906	90.38
288.138	85.38
288.369	90.38
288.6	112.38
288.831	114.38
289.062	100.38
289.293	97.38
289.524	119.38
289.755	106.38
289.986	104.38
290.217	102.38
290.448	104.38
290.679	113.38
290.91	106.38
291.141	92.38
291.371	93.38
291.602	84.38
291.833	100.38
292.064	94.38
292.295	110.38
292.526	106.38
292.757	97.38
292.987	98.38
293.218	100.38
293.449	105.38
293.68	102.38
293.91	109.38
294.141	124.38
294.372	97.38
294.603	114.38
294.833	106.38
295.064	114.38
295.295	108.38
295.525	109.38
295.756	90.38
295.987	96.38
296.217	111.38
296.448	114.38
296.679	110.38
296.909	115.38
297.14	106.38
297.37	98.38
297.601	108.38
297.831	102.38
298.062	99.38
298.292	101.38
298.523	104.38
298.753	94.38
298.984	100.38
299.214	103.38
299.445	110.38
299.675	109.38
299.905	102.38
300.136	101.38
300.366	98.38
300.597	106.38
300.827	98.38
301.057	100.38
301.288	120.38
301.518	103.38
301.748	100.38
301.979	114.38
302.209	92.38
302.439	116.38
302.669	102.38
302.9	118.38
303.13	102.38
303.36	112.38
303.59	109.38
303.82	98.38
304.051	100.38
304.281	92.38
304.511	111.38
304.741	109.38
304.971	103.38
305.201	96.38
305.431	96.38
305.661	110.38
305.891	96.38
306.121	95.38
306.352	110.38
306.582	103.38
306.812	103.38
307.042	106.38
307.272	109.38
307.502	89.38
307.731	103.38
307.961	93.38
308.191	102.38
308.421	121.38
308.651	105.38
308.881	95.38
309.111	113.38
309.341	116.38
309.571	99.38
309.8	110.38
310.03	112.38
310.26	114.38
310.49	102.38
310.72	108.38
310.949	111.38
311.179	103.38
311.409	101.38
311.639	108.38
311.868	109.38
312.098	104.38
312.328	103.38
312.557	110.38
312.787	106.38
313.017	106.38
313.246	120.38
313.476	107.38
313.706	100.38
313.935	112.38
314.165	102.38
314.394	99.38
314.624	91.38
314.853	112.38
315.083	108.38
315.312	101.38
315.542	105.38
315.771	120.38
316.001	115.38
316.23	109.38
316.46	126.38
316.689	108.38
316.919	112.38
317.148	110.38
317.377	120.38
317.607	117.38
317.836	109.38
318.065	105.38
318.295	113.38
318.524	99.38
318.753	112.38
318.983	112.38
319.212	111.38
319.441	110.38
319.67	113.38
319.9	112.38
320.129	106.38
320.358	125.38
320.587	116.38
320.816	121.38
321.046	112.38
321.275	116.38
321.504	122.38
321.733	117.38
321.962	115.38
322.191	91.38
322.42	121.38
322.649	120.38
322.878	119.38
323.108	105.38
323.337	102.38
323.566	115.38
323.795	115.38
324.024	111.38
324.253	114.38
324.482	122.38
324.71	147.38
324.939	172.38
325.168	161.38
325.397	124.38
325.626	116.38
325.855	102.38
326.084	104.38
326.313	113.38
326.542	115.38
326.77	135.38
326.999	125.38
327.228	126.38
327.457	142.38
327.686	144.38
327.914	130.38
328.143	109.38
328.372	115.38
328.6	122.38
328.829	111.38
329.058	98.38
329.287	120.38
329.515	114.38
329.744	124.38
329.972	121.38
330.201	109.38
330.43	117.38
330.658	118.38
330.887	119.38
331.115	124.38
331.344	102.38
331.572	118.38
331.801	119.38
332.03	122.38
332.258	110.38
332.486	104.38
332.715	133.38
332.943	116.38
333.172	130.38
333.4	122.38
333.629	126.38
333.857	143.38
334.085	137.38
334.314	126.38
334.542	111.38
334.771	106.38
334.999	125.38
335.227	130.38
335.455	120.38
335.684	100.38
335.912	116.38
336.14	112.38
336.369	105.38
336.597	118.38
336.825	118.38
337.053	110.38
337.281	107.38
337.51	110.38
337.738	122.38
337.966	117.38
338.194	118.38
338.422	125.38
338.65	103.38
338.878	124.38
339.106	114.38
339.334	106.38
339.562	104.38
339.79	121.38
340.018	113.38
340.246	117.38
340.474	120.38
340.702	104.38
340.93	105.38
341.158	115.38
341.386	121.38
341.614	108.38
341.842	118.38
342.07	116.38
342.298	119.38
342.526	126.38
342.754	114.38
342.981	102.38
343.209	97.38
343.437	123.38
343.665	102.38
343.893	124.38
344.12	124.38
344.348	110.38
344.576	114.38
344.804	109.38
345.031	128.38
345.259	104.38
345.487	104.38
345.714	114.38
345.942	116.38
346.17	109.38
346.397	105.38
346.625	100.38
346.853	104.38
347.08	111.38
347.308	104.38
347.535	110.38
347.763	108.38
347.99	116.38
348.218	106.38
348.445	119.38
348.673	114.38
348.9	102.38
349.128	109.38
349.355	109.38
349.583	101.38
349.81	122.38
350.037	111.38
350.265	108.38
350.492	116.38
350.72	118.38
350.947	110.38
351.174	100.38
351.402	101.38
351.629	119.38
351.856	105.38
352.083	100.38
352.311	103.38
352.538	104.38
352.765	112.38
352.992	128.38
353.22	107.38
353.447	106.38
353.674	102.38
353.901	105.38
354.128	104.38
354.355	99.38
354.583	104.38
354.81	110.38
355.037	106.38
355.264	107.38
355.491	114.38
355.718	112.38
355.945	116.38
356.172	125.38
356.399	114.38
356.626	102.38
356.853	118.38
357.08	112.38
357.307	105.38
357.534	100.38
357.761	106.38
357.988	107.38
358.215	116.38
358.441	108.38
358.668	119.38
358.895	99.38
359.122	118.38
359.349	112.38
359.576	106.38
359.802	107.38
360.029	112.38
360.256	109.38
360.483	117.38
360.709	92.38
360.936	114.38
361.163	108.38
361.39	110.38
361.616	88.38
361.843	118.38
362.07	123.38
362.296	113.38
362.523	109.38
362.749	114.38
362.976	107.38
363.203	109.38
363.429	111.38
363.656	106.38
363.882	99.38
364.109	120.38
364.335	98.38
364.562	117.38
364.788	104.38
365.015	126.38
365.241	106.38
365.468	111.38
365.694	111.38
365.92	107.38
366.147	100.38
366.373	99.38
366.599	106.38
366.826	110.38
367.052	124.38
367.278	106.38
367.505	118.38
367.731	112.38
367.957	124.38
368.184	118.38
368.41	115.38
368.636	105.38
368.862	125.38
369.089	115.38
369.315	115.38
369.541	107.38
369.767	126.38
369.993	120.38
370.219	105.38
370.445	117.38
370.672	125.38
370.898	100.38
371.124	106.38
371.35	104.38
371.576	109.38
371.802	111.38
372.028	127.38
372.254	109.38
372.48	110.38
372.706	106.38
372.932	102.38
373.158	111.38
373.384	100.38
373.61	121.38
373.835	102.38
374.061	123.38
374.287	125.38
374.513	115.38
374.739	110.38
374.965	114.38
375.191	132.38
375.416	100.38
375.642	117.38
375.868	122.38
376.094	115.38
376.319	114.38
376.545	121.38
376.771	100.38
376.997	121.38
377.222	109.38
377.448	120.38
377.674	112.38
377.899	106.38
378.125	114.38
378.35	110.38
378.576	112.38
378.802	103.38
379.027	124.38
379.253	112.38
379.478	99.38
379.704	115.38
379.929	129.38
380.155	120.38
380.38	110.38
380.606	108.38
380.831	111.38
381.057	111.38
381.282	125.38
381.507	117.38
381.733	118.38
381.958	114.38
382.184	110.38
382.409	124.38
382.634	113.38
382.86	120.38
383.085	122.38
383.31	105.38
383.535	121.38
383.761	111.38
383.986	116.38
384.211	122.38
384.436	114.38
384.662	125.38
384.887	118.38
385.112	135.38
385.337	132.38
385.562	134.38
385.787	126.38
386.013	123.38
386.238	96.38
386.463	121.38
386.688	107.38
386.913	113.38
387.138	125.38
387.363	105.38
387.588	126.38
387.813	135.38
388.038	127.38
388.263	114.38
388.488	108.38
388.713	123.38
388.938	120.38
389.163	111.38
389.387	125.38
389.612	124.38
389.837	125.38
390.062	120.38
390.287	128.38
390.512	120.38
390.736	103.38
390.961	114.38
391.186	128.38
391.411	121.38
391.636	122.38
391.86	139.38
392.085	120.38
392.31	120.38
392.534	125.38
392.759	115.38
392.984	122.38
393.208	111.38
393.433	136.38
393.658	114.38
393.882	136.38
394.107	115.38
394.331	123.38
394.556	112.38
394.78	106.38
395.005	134.38
395.229	124.38
395.454	125.38
395.678	126.38
395.903	137.38
396.127	132.38
396.352	119.38
396.576	118.38
396.801	116.38
397.025	126.38
397.249	117.38
397.474	120.38
397.698	120.38
397.922	126.38
398.147	116.38
398.371	119.38
398.595	130.38
398.82	141.38
399.044	133.38
399.268	131.38
399.492	138.38
399.717	153.38
399.941	157.38
400.165	139.38
400.389	137.38
400.613	129.38
400.837	138.38
401.062	119.38
401.286	118.38
401.51	137.38
401.734	125.38
401.958	143.38
402.182	121.38
402.406	127.38
402.63	129.38
402.854	142.38
403.078	123.38
403.302	129.38
403.526	138.38
403.75	139.38
403.974	120.38
404.198	125.38
404.422	132.38
404.645	130.38
404.869	141.38
405.093	135.38
405.317	136.38
405.541	133.38
405.765	136.38
405.988	143.38
406.212	148.38
406.436	105.38
406.66	139.38
406.883	131.38
407.107	141.38
407.331	139.38
407.555	158.38
407.778	136.38
408.002	147.38
408.226	150.38
408.449	133.38
408.673	137.38
408.896	141.38
409.12	150.38
409.344	123.38
409.567	140.38
409.791	129.38
410.014	132.38
410.238	135.38
410.461	132.38
410.685	128.38
410.908	123.38
411.132	124.38
411.355	134.38
411.578	142.38
411.802	147.38
412.025	122.38
412.249	114.38
412.472	143.38
412.695	123.38
412.919	142.38
413.142	126.38
413.365	119.38
413.589	142.38
413.812	138.38
414.035	136.38
414.258	143.38
414.482	126.38
414.705	120.38
414.928	124.38
415.151	117.38
415.374	124.38
415.597	119.38
415.821	105.38
416.044	126.38
416.267	149.38
416.49	126.38
416.713	133.38
416.936	143.38
417.159	135.38
417.382	145.38
417.605	134.38
417.828	124.38
418.051	141.38
418.274	136.38
418.497	131.38
418.72	142.38
418.943	128.38
419.166	130.38
419.389	140.38
419.611	142.38
419.834	129.38
420.057	137.38
420.28	131.38
420.503	127.38
420.726	136.38
420.948	125.38
421.171	132.38
421.394	131.38
421.617	144.38
421.839	137.38
422.062	117.38
422.285	125.38
422.507	142.38
422.73	141.38
422.953	116.38
423.175	124.38
423.398	133.38
423.621	140.38
423.843	125.38
424.066	133.38
424.288	126.38
424.511	118.38
424.733	139.38
424.956	161.38
425.178	142.38
425.401	121.38
425.623	150.38
425.846	136.38
426.068	126.38
426.291	131.38
426.513	130.38
426.735	128.38
426.958	139.38
427.18	144.38
427.402	149.38
427.625	154.38
427.847	143.38
428.069	152.38
428.292	125.38
428.514	128.38
428.736	131.38
428.958	140.38
429.181	144.38
429.403	122.38
429.625	139.38
429.847	139.38
430.069	128.38
430.292	141.38
430.514	126.38
430.736	116.38
430.958	120.38
431.18	128.38
431.402	123.38
431.624	131.38
431.846	128.38
432.068	127.38
432.29	104.38
432.512	121.38
432.734	128.38
432.956	141.38
433.178	140.38
433.4	128.38
433.622	122.38
433.844	125.38
434.066	127.38
434.287	135.38
434.509	131.38
434.731	121.38
434.953	142.38
435.175	141.38
435.397	115.38
435.618	120.38
435.84	139.38
436.062	130.38
436.284	135.38
436.505	134.38
436.727	128.38
436.949	124.38
437.17	128.38
437.392	123.38
437.614	118.38
437.835	147.38
438.057	144.38
438.278	127.38
438.5	127.38
438.721	142.38
438.943	145.38
439.165	132.38
439.386	130.38
439.608	132.38
439.829	138.38
440.05	137.38
440.272	130.38
440.493	120.38
440.715	132.38
440.936	119.38
441.158	117.38
441.379	126.38
441.6	144.38
441.822	137.38
442.043	143.38
442.264	151.38
442.486	133.38
442.707	134.38
442.928	130.38
443.149	137.38
443.371	138.38
443.592	127.38
443.813	137.38
444.034	145.38
444.255	139.38
444.476	146.38
444.698	132.38
444.919	139.38
445.14	266.38
445.361	201.38
445.582	144.38
445.803	147.38
446.024	144.38
446.245	132.38
446.466	137.38
446.687	129.38
446.908	126.38
447.129	137.38
447.35	126.38
447.571	125.38
447.792	127.38
448.013	119.38
448.234	128.38
448.455	119.38
448.675	139.38
448.896	145.38
449.117	145.38
449.338	125.38
449.559	132.38
449.779	148.38
450	125.38
450.221	126.38
450.442	115.38
450.662	119.38
450.883	112.38
451.104	120.38
451.324	116.38
451.545	120.38
451.766	120.38
451.986	112.38
452.207	117.38
452.428	113.38
452.648	124.38
452.869	111.38
453.089	118.38
453.31	121.38
453.53	115.38
453.751	135.38
453.971	109.38
454.192	125.38
454.412	115.38
454.633	122.38
454.853	103.38
455.073	112.38
455.294	122.38
455.514	117.38
455.734	115.38
455.955	122.38
456.175	128.38
456.395	113.38
456.616	128.38
456.836	126.38
457.056	120.38
457.276	115.38
457.497	115.38
457.717	124.38
457.937	120.38
458.157	114.38
458.377	115.38
458.598	122.38
458.818	120.38
459.038	111.38
459.258	116.38
459.478	121.38
459.698	130.38
459.918	130.38
460.138	127.38
460.358	134.38
460.578	137.38
460.798	133.38
461.018	139.38
461.238	128.38
461.458	135.38
461.678	122.38
461.898	121.38
462.118	137.38
462.338	126.38
462.558	135.38
462.777	134.38
462.997	150.38
463.217	140.38
463.437	145.38
463.657	127.38
463.876	126.38
464.096	140.38
464.316	140.38
464.536	130.38
464.755	141.38
464.975	126.38
465.195	140.38
465.414	138.38
465.634	132.38
465.854	138.38
466.073	125.38
466.293	127.38
466.512	131.38
466.732	123.38
466.951	130.38
467.171	126.38
467.391	126.38
467.61	109.38
467.829	117.38
468.049	118.38
468.268	118.38
468.488	125.38
468.707	119.38
468.927	124.38
469.146	122.38
469.365	128.38
469.585	130.38
469.804	143.38
470.023	119.38
470.243	132.38
470.462	134.38
470.681	130.38
470.901	123.38
471.12	129.38
471.339	123.38
471.558	127.38
471.777	123.38
471.997	123.38
472.216	123.38
472.435	131.38
472.654	124.38
472.873	130.38
473.092	132.38
473.311	132.38
473.53	126.38
473.749	131.38
473.968	119.38
474.187	139.38
474.406	130.38
474.625	118.38
474.844	136.38
475.063	125.38
475.282	130.38
475.501	121.38
475.72	140.38
475.939	119.38
476.158	115.38
476.377	106.38
476.596	124.38
476.814	128.38
477.033	131.38
477.252	138.38
477.471	108.38
477.69	128.38
477.908	126.38
478.127	124.38
478.346	125.38
478.564	132.38
478.783	127.38
479.002	129.38
479.22	121.38
479.439	138.38
479.658	135.38
479.876	134.38
480.095	124.38
480.313	136.38
480.532	141.38
480.751	114.38
480.969	133.38
481.188	128.38
481.406	138.38
481.624	130.38
481.843	137.38
482.061	114.38
482.28	132.38
482.498	126.38
482.717	136.38
482.935	130.38
483.153	130.38
483.372	123.38
483.59	133.38
483.808	118.38
484.027	125.38
484.245	139.38
484.463	131.38
484.681	154.38
484.9	128.38
485.118	114.38
485.336	126.38
485.554	126.38
485.772	132.38
485.99	136.38
486.209	147.38
486.427	124.38
486.645	137.38
486.863	134.38
487.081	122.38
487.299	134.38
487.517	140.38
487.735	140.38
487.953	134.38
488.171	133.38
488.389	135.38
488.607	136.38
488.825	142.38
489.043	127.38
489.261	131.38
489.479	142.38
489.696	138.38
489.914	140.38
490.132	142.38
490.35	144.38
490.568	139.38
490.786	148.38
491.003	142.38
491.221	132.38
491.439	142.38
491.657	142.38
491.874	146.38
492.092	137.38
492.31	151.38
492.527	132.38
492.745	145.38
492.963	154.38
493.18	139.38
493.398	132.38
493.615	158.38
493.833	147.38
494.05	146.38
494.268	140.38
494.485	162.38
494.703	135.38
494.92	143.38
495.138	147.38
495.355	158.38
495.573	128.38
495.79	147.38
496.008	152.38
496.225	164.38
496.442	145.38
496.66	154.38
496.877	147.38
497.094	159.38
497.312	156.38
497.529	161.38
497.746	143.38
497.963	148.38
498.181	148.38
498.398	149.38
498.615	145.38
498.832	156.38
499.049	157.38
499.267	169.38
499.484	174.38
499.701	179.38
499.918	167.38
500.135	196.38
500.352	217.38
500.569	212.38
500.786	223.38
501.003	201.38
501.22	191.38
501.437	193.38
501.654	181.38
501.871	166.38
502.088	163.38
502.305	176.38
502.522	149.38
502.739	169.38
502.956	151.38
503.172	159.38
503.389	144.38
503.606	146.38
503.823	139.38
504.04	146.38
504.256	142.38
504.473	144.38
504.69	150.38
504.907	158.38
505.123	144.38
505.34	142.38
505.557	147.38
505.773	156.38
505.99	130.38
506.207	132.38
506.423	130.38
506.64	135.38
506.856	136.38
507.073	128.38
507.289	130.38
507.506	132.38
507.722	137.38
507.939	130.38
508.155	126.38
508.372	134.38
508.588	146.38
508.805	139.38
509.021	142.38
509.238	118.38
509.454	128.38
509.67	126.38
509.887	133.38
510.103	125.38
510.319	135.38
510.536	138.38
510.752	157.38
510.968	142.38
511.184	115.38
511.401	117.38
511.617	106.38
511.833	126.38
512.049	138.38
512.265	135.38
512.481	138.38
512.698	140.38
512.914	132.38
513.13	149.38
513.346	143.38
513.562	119.38
513.778	128.38
513.994	130.38
514.21	134.38
514.426	139.38
514.642	126.38
514.858	125.38
515.074	130.38
515.29	135.38
515.506	154.38
515.721	139.38
515.937	135.38
516.153	125.38
516.369	123.38
516.585	135.38
516.801	156.38
517.016	145.38
517.232	135.38
517.448	147.38
517.664	152.38
517.879	129.38
518.095	126.38
518.311	140.38
518.527	134.38
518.742	140.38
518.958	150.38
519.173	132.38
519.389	133.38
519.605	143.38
519.82	125.38
520.036	128.38
520.251	119.38
520.467	122.38
520.682	151.38
520.898	145.38
521.113	126.38
521.329	131.38
521.544	131.38
521.76	138.38
521.975	178.38
522.19	165.38
522.406	122.38
522.621	126.38
522.836	135.38
523.052	109.38
523.267	120.38
523.482	123.38
523.698	135.38
523.913	134.38
524.128	121.38
524.343	131.38
524.559	135.38
524.774	111.38
524.989	123.38
525.204	135.38
525.419	126.38
525.634	115.38
525.849	130.38
526.064	122.38
526.28	137.38
526.495	121.38
526.71	121.38
526.925	116.38
527.14	113.38
527.355	125.38
527.57	117.38
527.785	109.38
527.999	118.38
528.214	122.38
528.429	115.38
528.644	127.38
528.859	125.38
529.074	138.38
529.289	133.38
529.503	132.38
529.718	118.38
529.933	135.38
530.148	117.38
530.363	102.38
530.577	132.38
530.792	122.38
531.007	120.38
531.221	124.38
531.436	135.38
531.651	119.38
531.865	115.38
532.08	140.38
532.295	133.38
532.509	117.38
532.724	118.38
532.938	129.38
533.153	111.38
533.367	126.38
533.582	119.38
533.796	130.38
534.011	110.38
534.225	124.38
534.44	122.38
534.654	107.38
534.868	109.38
535.083	116.38
535.297	106.38
535.511	126.38
535.726	112.38
535.94	127.38
536.154	115.38
536.369	119.38
536.583	125.38
536.797	123.38
537.011	108.38
537.225	109.38
537.44	110.38
537.654	133.38
537.868	132.38
538.082	128.38
538.296	117.38
538.51	125.38
538.724	106.38
538.938	122.38
539.153	120.38
539.367	125.38
539.581	127.38
539.795	106.38
540.009	114.38
540.222	143.38
540.436	132.38
540.65	123.38
540.864	115.38
541.078	128.38
541.292	119.38
541.506	126.38
541.72	121.38
541.934	145.38
542.147	152.38
542.361	144.38
542.575	136.38
542.789	125.38
543.002	124.38
543.216	124.38
543.43	121.38
543.644	122.38
543.857	147.38
544.071	148.38
544.285	143.38
544.498	146.38
544.712	136.38
544.925	133.38
545.139	127.38
545.352	138.38
545.566	132.38
545.779	134.38
545.993	140.38
546.206	131.38
546.42	140.38
546.633	128.38
546.847	126.38
547.06	124.38
547.274	127.38
547.487	121.38
547.7	133.38
547.914	140.38
548.127	111.38
548.34	139.38
548.554	128.38
548.767	130.38
548.98	137.38
549.193	123.38
549.407	122.38
549.62	124.38
549.833	125.38
550.046	107.38
550.259	127.38
550.473	124.38
550.686	128.38
550.899	120.38
551.112	126.38
551.325	124.38
551.538	128.38
551.751	119.38
551.964	132.38
552.177	119.38
552.39	120.38
552.603	130.38
552.816	123.38
553.029	121.38
553.242	123.38
553.455	132.38
553.667	112.38
553.88	132.38
554.093	135.38
554.306	139.38
554.519	122.38
554.732	124.38
554.944	126.38
555.157	125.38
555.37	123.38
555.583	120.38
555.795	123.38
556.008	118.38
556.221	128.38
556.433	119.38
556.646	125.38
556.859	111.38
557.071	116.38
557.284	108.38
557.496	126.38
557.709	130.38
557.921	122.38
558.134	123.38
558.346	125.38
558.559	121.38
558.771	121.38
558.984	122.38
559.196	118.38
559.409	122.38
559.621	120.38
559.833	115.38
560.046	112.38
560.258	94.38
560.47	121.38
560.683	134.38
560.895	133.38
561.107	136.38
561.32	125.38
561.532	124.38
561.744	114.38
561.956	117.38
562.168	121.38
562.381	112.38
562.593	108.38
562.805	119.38
563.017	107.38
563.229	122.38
563.441	110.38
563.653	123.38
563.865	114.38
564.077	107.38
564.289	118.38
564.501	124.38
564.713	118.38
564.925	119.38
565.137	116.38
565.349	103.38
565.561	118.38
565.773	119.38
565.985	119.38
566.197	107.38
566.408	102.38
566.62	134.38
566.832	134.38
567.044	136.38
567.255	144.38
567.467	135.38
567.679	129.38
567.891	135.38
568.102	139.38
568.314	144.38
568.526	126.38
568.737	125.38
568.949	121.38
569.161	121.38
569.372	112.38
569.584	112.38
569.795	118.38
570.007	130.38
570.218	118.38
570.43	120.38
570.641	108.38
570.853	127.38
571.064	121.38
571.276	115.38
571.487	124.38
571.698	125.38
571.91	109.38
572.121	118.38
572.333	111.38
572.544	126.38
572.755	100.38
572.966	129.38
573.178	111.38
573.389	95.38
573.6	108.38
573.811	99.38
574.023	111.38
574.234	99.38
574.445	116.38
574.656	102.38
574.867	111.38
575.078	109.38
575.289	111.38
575.501	123.38
575.712	125.38
575.923	111.38
576.134	122.38
576.345	119.38
576.556	110.38
576.767	110.38
576.978	109.38
577.188	116.38
577.399	117.38
577.61	108.38
577.821	116.38
578.032	103.38
578.243	122.38
578.454	102.38
578.665	112.38
578.875	100.38
579.086	107.38
579.297	104.38
579.508	119.38
579.718	110.38
579.929	113.38
580.14	96.38
580.35	118.38
580.561	117.38
580.772	108.38
580.982	104.38
581.193	106.38
581.403	109.38
581.614	126.38
581.825	114.38
582.035	91.38
582.246	105.38
582.456	96.38
582.667	91.38
582.877	94.38
583.087	92.38
583.298	120.38
583.508	108.38
583.719	110.38
583.929	116.38
584.139	104.38
584.35	100.38
584.56	110.38
584.77	108.38
584.981	108.38
585.191	121.38
585.401	100.38
585.611	115.38
585.821	94.38
586.032	112.38
586.242	106.38
586.452	111.38
586.662	116.38
586.872	110.38
587.082	112.38
587.292	98.38
587.502	118.38
587.713	111.38
587.923	112.38
588.133	106.38
588.343	102.38
588.553	95.38
588.762	106.38
588.972	110.38
589.182	109.38
589.392	102.38
589.602	104.38
589.812	103.38
590.022	97.38
590.232	117.38
590.441	92.38
590.651	102.38
590.861	103.38
591.071	117.38
591.281	104.38
591.49	95.38
591.7	111.38
591.91	106.38
592.119	114.38
592.329	111.38
592.539	110.38
592.748	101.38
592.958	105.38
593.167	107.38
593.377	127.38
593.587	108.38
593.796	118.38
594.006	122.38
594.215	93.38
594.424	106.38
594.634	117.38
594.843	93.38
595.053	99.38
595.262	112.38
595.472	109.38
595.681	109.38
595.89	98.38
596.1	100.38
596.309	105.38
596.518	106.38
596.727	106.38
596.937	110.38
597.146	100.38
597.355	93.38
597.564	102.38
597.774	101.38
597.983	108.38
598.192	116.38
598.401	107.38
598.61	99.38
598.819	113.38
599.028	113.38
599.237	112.38
599.446	99.38
599.655	109.38
599.864	111.38
600.073	92.38
600.282	96.38
600.491	101.38
600.7	101.38
600.909	103.38
601.118	106.38
601.327	108.38
601.536	111.38
601.745	104.38
601.953	98.38
602.162	108.38
602.371	107.38
602.58	98.38
602.789	96.38
602.997	99.38
603.206	105.38
603.415	106.38
603.623	93.38
603.832	88.38
604.041	107.38
604.249	100.38
604.458	100.38
604.666	94.38
604.875	109.38
605.084	105.38
605.292	96.38
605.501	99.38
605.709	98.38
605.918	115.38
606.126	101.38
606.334	114.38
606.543	108.38
606.751	114.38
606.96	95.38
607.168	102.38
607.376	94.38
607.585	109.38
607.793	122.38
608.001	114.38
608.21	114.38
608.418	115.38
608.626	99.38
608.834	94.38
609.043	101.38
609.251	105.38
609.459	109.38
609.667	92.38
609.875	97.38
610.083	98.38
610.291	103.38
610.499	98.38
610.707	95.38
610.916	108.38
611.124	123.38
611.332	124.38
611.54	118.38
611.748	124.38
611.955	113.38
612.163	113.38
612.371	91.38
612.579	92.38
612.787	101.38
612.995	116.38
613.203	102.38
613.411	97.38
613.618	102.38
613.826	104.38
614.034	110.38
614.242	106.38
614.449	90.38
614.657	108.38
614.865	112.38
615.072	114.38
615.28	104.38
615.488	107.38
615.695	99.38
615.903	117.38
616.111	111.38
616.318	101.38
616.526	108.38
616.733	108.38
616.941	96.38
617.148	116.38
617.356	100.38
617.563	90.38
617.771	110.38
617.978	100.38
618.185	95.38
618.393	111.38
618.6	93.38
618.807	81.38
619.015	105.38
619.222	102.38
619.429	93.38
619.637	95.38
619.844	106.38
620.051	97.38
620.258	115.38
620.466	89.38
620.673	103.38
620.88	120.38
621.087	106.38
621.294	94.38
621.501	97.38
621.708	108.38
621.915	120.38
622.122	105.38
622.329	99.38
622.536	92.38
622.743	88.38
622.95	104.38
623.157	104.38
623.364	98.38
623.571	102.38
623.778	108.38
623.985	99.38
624.192	107.38
624.399	98.38
624.606	91.38
624.812	99.38
625.019	91.38
625.226	95.38
625.433	93.38
625.639	98.38
625.846	110.38
626.053	105.38
626.259	103.38
626.466	78.38
626.673	91.38
626.879	103.38
627.086	99.38
627.293	88.38
627.499	84.38
627.706	99.38
627.912	93.38
628.119	94.38
628.325	117.38
628.532	95.38
628.738	80.38
628.945	89.38
629.151	93.38
629.357	83.38
629.564	96.38
629.77	106.38
629.976	112.38
630.183	96.38
630.389	80.38
630.595	88.38
630.802	106.38
631.008	95.38
631.214	99.38
631.42	95.38
631.627	99.38
631.833	102.38
632.039	112.38
632.245	90.38
632.451	89.38
632.657	110.38
632.863	100.38
633.069	96.38
633.275	91.38
633.481	88.38
633.688	104.38
633.893	99.38
634.099	99.38
634.305	101.38
634.511	94.38
634.717	92.38
634.923	89.38
635.129	106.38
635.335	91.38
635.541	105.38
635.747	104.38
635.952	78.38
636.158	90.38
636.364	96.38
636.57	92.38
636.775	89.38
636.981	92.38
637.187	92.38
637.392	80.38
637.598	87.38
637.804	97.38
638.009	115.38
638.215	108.38
638.421	95.38
638.626	86.38
638.832	105.38
639.037	95.38
639.243	93.38
639.448	99.38
639.654	92.38
639.859	98.38
640.065	93.38
640.27	91.38
640.475	93.38
640.681	88.38
640.886	95.38
641.091	99.38
641.297	105.38
641.502	87.38
641.707	95.38
641.913	96.38
642.118	89.38
642.323	108.38
642.528	98.38
642.733	102.38
642.939	104.38
643.144	90.38
643.349	92.38
643.554	107.38
643.759	107.38
643.964	99.38
644.169	108.38
644.374	98.38
644.579	88.38
644.784	93.38
644.989	88.38
645.194	91.38
645.399	98.38
645.604	96.38
645.809	103.38
646.014	94.38
646.219	97.38
646.423	90.38
646.628	91.38
646.833	86.38
647.038	80.38
647.243	100.38
647.447	78.38
647.652	84.38
647.857	93.38
648.062	88.38
648.266	87.38
648.471	91.38
648.676	98.38
648.88	95.38
649.085	80.38
649.289	87.38
649.494	84.38
649.698	99.38
649.903	97.38
650.107	94.38
650.312	91.38
650.516	101.38
650.721	90.38
650.925	96.38
651.13	68.38
651.334	86.38
651.539	97.38
651.743	105.38
651.947	82.38
652.152	103.38
652.356	90.38
652.56	111.38
652.764	84.38
652.969	96.38
653.173	94.38
653.377	87.38
653.581	91.38
653.785	86.38
653.99	99.38
654.194	92.38
654.398	98.38
654.602	83.38
654.806	108.38
655.01	87.38
655.214	88.38
655.418	106.38
655.622	85.38
655.826	86.38
656.03	87.38
656.234	84.38
656.438	107.38
656.642	96.38
656.846	91.38
657.049	90.38
657.253	95.38
657.457	90.38
657.661	92.38
657.865	85.38
658.068	86.38
658.272	78.38
658.476	85.38
658.68	88.38
658.883	98.38
659.087	95.38
659.291	99.38
659.494	85.38
659.698	72.38
659.901	75.38
660.105	100.38
660.309	71.38
660.512	69.38
660.716	79.38
660.919	92.38
661.123	76.38
661.326	80.38
661.53	83.38
661.733	89.38
661.936	106.38
662.14	88.38
662.343	103.38
662.546	82.38
662.75	79.38
662.953	100.38
663.156	88.38
663.36	77.38
663.563	81.38
663.766	91.38
663.969	72.38
664.173	72.38
664.376	97.38
664.579	90.38
664.782	77.38
664.985	78.38
665.188	70.38
665.391	78.38
665.594	81.38
665.797	76.38
666	76.38
666.203	78.38
666.406	104.38
666.609	88.38
666.812	90.38
667.015	94.38
667.218	93.38
667.421	64.38
667.624	72.38
667.827	77.38
668.03	72.38
668.232	84.38
668.435	92.38
668.638	81.38
668.841	78.38
669.043	86.38
669.246	71.38
669.449	84.38
669.651	82.38
669.854	84.38
670.057	79.38
670.259	78.38
670.462	59.38
670.665	76.38
670.867	90.38
671.07	86.38
671.272	90.38
671.475	93.38
671.677	80.38
671.88	68.38
672.082	89.38
672.284	95.38
672.487	89.38
672.689	79.38
672.892	68.38
