Data from 1968.PennyLincolnUp.Lamp.En5.5.200Scan.071719.P1._HRD10591_14-51-42-970.txt Node
Date: Thu Jul 18 14:51:42 EDT 2019
User: cochatt
Spectrometer: HR+D1059
Trigger mode: 1
Integration Time (sec): 1.000000E-1
Scans to average: 1
Electric dark correction enabled: true
Nonlinearity correction enabled: false
Boxcar width: 0
XAxis mode: Wavelengths
Number of Pixels in Spectrum: 2048
>>>>>Begin Spectral Data<<<<<
223.165	-11.25
223.4	-11.25
223.635	-11.25
223.869	-1.25
224.104	-25.25
224.338	-5.25
224.573	-14.25
224.808	-11.25
225.042	-15.25
225.277	-1.25
225.511	-16.25
225.746	4.75
225.98	4.75
226.215	1.75
226.449	17.75
226.683	13.75
226.918	29.75
227.152	28.75
227.387	42.75
227.621	49.75
227.856	54.75
228.09	48.75
228.324	47.75
228.559	71.75
228.793	37.75
229.027	44.75
229.262	62.75
229.496	68.75
229.73	62.75
229.964	73.75
230.199	88.75
230.433	75.75
230.667	77.75
230.901	88.75
231.136	76.75
231.37	79.75
231.604	84.75
231.838	88.75
232.072	61.75
232.306	81.75
232.541	79.75
232.775	85.75
233.009	79.75
233.243	88.75
233.477	80.75
233.711	96.75
233.945	74.75
234.179	86.75
234.413	80.75
234.647	82.75
234.881	83.75
235.115	89.75
235.349	72.75
235.583	94.75
235.817	81.75
236.051	78.75
236.285	80.75
236.519	97.75
236.753	102.75
236.987	81.75
237.221	90.75
237.455	96.75
237.689	79.75
237.922	81.75
238.156	69.75
238.39	70.75
238.624	81.75
238.858	78.75
239.091	88.75
239.325	88.75
239.559	75.75
239.793	89.75
240.027	94.75
240.26	82.75
240.494	92.75
240.728	82.75
240.961	91.75
241.195	85.75
241.429	92.75
241.662	77.75
241.896	94.75
242.13	68.75
242.363	80.75
242.597	93.75
242.83	87.75
243.064	79.75
243.298	85.75
243.531	81.75
243.765	77.75
243.998	97.75
244.232	83.75
244.465	91.75
244.699	106.75
244.932	90.75
245.166	92.75
245.399	92.75
245.633	85.75
245.866	78.75
246.099	94.75
246.333	77.75
246.566	93.75
246.8	73.75
247.033	88.75
247.266	88.75
247.5	93.75
247.733	92.75
247.966	95.75
248.2	95.75
248.433	89.75
248.666	89.75
248.899	98.75
249.133	89.75
249.366	105.75
249.599	77.75
249.832	94.75
250.066	98.75
250.299	87.75
250.532	88.75
250.765	106.75
250.998	95.75
251.231	121.75
251.465	87.75
251.698	74.75
251.931	81.75
252.164	75.75
252.397	93.75
252.63	89.75
252.863	88.75
253.096	86.75
253.329	105.75
253.562	86.75
253.795	97.75
254.028	95.75
254.261	90.75
254.494	95.75
254.727	90.75
254.96	92.75
255.193	83.75
255.426	86.75
255.659	96.75
255.892	85.75
256.124	99.75
256.357	88.75
256.59	93.75
256.823	102.75
257.056	96.75
257.289	106.75
257.521	94.75
257.754	76.75
257.987	93.75
258.22	108.75
258.452	97.75
258.685	97.75
258.918	86.75
259.151	94.75
259.383	101.75
259.616	96.75
259.849	83.75
260.081	97.75
260.314	95.75
260.547	95.75
260.779	89.75
261.012	92.75
261.244	96.75
261.477	84.75
261.71	89.75
261.942	88.75
262.175	99.75
262.407	99.75
262.64	98.75
262.872	96.75
263.105	99.75
263.337	95.75
263.57	86.75
263.802	109.75
264.035	86.75
264.267	96.75
264.499	99.75
264.732	111.75
264.964	103.75
265.197	103.75
265.429	74.75
265.661	98.75
265.894	97.75
266.126	92.75
266.358	88.75
266.591	98.75
266.823	82.75
267.055	95.75
267.287	80.75
267.52	95.75
267.752	93.75
267.984	103.75
268.216	88.75
268.448	108.75
268.681	100.75
268.913	89.75
269.145	89.75
269.377	99.75
269.609	96.75
269.841	107.75
270.073	90.75
270.306	97.75
270.538	89.75
270.77	91.75
271.002	85.75
271.234	80.75
271.466	90.75
271.698	101.75
271.93	104.75
272.162	97.75
272.394	105.75
272.626	112.75
272.858	94.75
273.09	107.75
273.322	92.75
273.553	101.75
273.785	97.75
274.017	100.75
274.249	107.75
274.481	114.75
274.713	99.75
274.945	108.75
275.176	101.75
275.408	94.75
275.64	94.75
275.872	90.75
276.104	101.75
276.335	99.75
276.567	103.75
276.799	93.75
277.031	112.75
277.262	99.75
277.494	106.75
277.726	111.75
277.957	87.75
278.189	100.75
278.421	97.75
278.652	95.75
278.884	98.75
279.115	103.75
279.347	97.75
279.579	91.75
279.81	111.75
280.042	86.75
280.273	80.75
280.505	89.75
280.736	103.75
280.968	109.75
281.199	101.75
281.431	97.75
281.662	92.75
281.894	100.75
282.125	104.75
282.356	84.75
282.588	92.75
282.819	86.75
283.051	112.75
283.282	96.75
283.513	104.75
283.745	105.75
283.976	108.75
284.207	95.75
284.439	100.75
284.67	111.75
284.901	113.75
285.132	102.75
285.364	103.75
285.595	99.75
285.826	99.75
286.057	110.75
286.288	99.75
286.52	95.75
286.751	100.75
286.982	86.75
287.213	101.75
287.444	108.75
287.675	105.75
287.906	120.75
288.138	94.75
288.369	91.75
288.6	93.75
288.831	97.75
289.062	109.75
289.293	88.75
289.524	92.75
289.755	119.75
289.986	100.75
290.217	110.75
290.448	108.75
290.679	93.75
290.91	105.75
291.141	87.75
291.371	108.75
291.602	101.75
291.833	96.75
292.064	95.75
292.295	97.75
292.526	110.75
292.757	111.75
292.987	97.75
293.218	94.75
293.449	110.75
293.68	117.75
293.91	96.75
294.141	104.75
294.372	105.75
294.603	110.75
294.833	107.75
295.064	105.75
295.295	88.75
295.525	102.75
295.756	100.75
295.987	100.75
296.217	108.75
296.448	104.75
296.679	95.75
296.909	103.75
297.14	102.75
297.37	101.75
297.601	96.75
297.831	112.75
298.062	106.75
298.292	101.75
298.523	92.75
298.753	119.75
298.984	111.75
299.214	112.75
299.445	107.75
299.675	106.75
299.905	93.75
300.136	96.75
300.366	96.75
300.597	98.75
300.827	109.75
301.057	102.75
301.288	117.75
301.518	103.75
301.748	111.75
301.979	108.75
302.209	97.75
302.439	104.75
302.669	87.75
302.9	103.75
303.13	90.75
303.36	126.75
303.59	104.75
303.82	105.75
304.051	120.75
304.281	113.75
304.511	104.75
304.741	116.75
304.971	100.75
305.201	99.75
305.431	110.75
305.661	117.75
305.891	102.75
306.121	110.75
306.352	113.75
306.582	106.75
306.812	95.75
307.042	96.75
307.272	109.75
307.502	123.75
307.731	111.75
307.961	112.75
308.191	108.75
308.421	100.75
308.651	116.75
308.881	121.75
309.111	110.75
309.341	100.75
309.571	104.75
309.8	103.75
310.03	113.75
310.26	126.75
310.49	106.75
310.72	106.75
310.949	95.75
311.179	105.75
311.409	97.75
311.639	110.75
311.868	94.75
312.098	101.75
312.328	111.75
312.557	114.75
312.787	130.75
313.017	118.75
313.246	95.75
313.476	102.75
313.706	88.75
313.935	117.75
314.165	121.75
314.394	98.75
314.624	109.75
314.853	119.75
315.083	101.75
315.312	104.75
315.542	118.75
315.771	95.75
316.001	102.75
316.23	109.75
316.46	114.75
316.689	119.75
316.919	116.75
317.148	110.75
317.377	102.75
317.607	111.75
317.836	93.75
318.065	86.75
318.295	114.75
318.524	100.75
318.753	116.75
318.983	113.75
319.212	109.75
319.441	105.75
319.67	119.75
319.9	104.75
320.129	106.75
320.358	100.75
320.587	116.75
320.816	126.75
321.046	107.75
321.275	110.75
321.504	96.75
321.733	105.75
321.962	116.75
322.191	95.75
322.42	110.75
322.649	120.75
322.878	107.75
323.108	114.75
323.337	114.75
323.566	113.75
323.795	111.75
324.024	116.75
324.253	120.75
324.482	134.75
324.71	157.75
324.939	176.75
325.168	141.75
325.397	134.75
325.626	120.75
325.855	122.75
326.084	119.75
326.313	112.75
326.542	106.75
326.77	119.75
326.999	122.75
327.228	134.75
327.457	140.75
327.686	149.75
327.914	125.75
328.143	127.75
328.372	108.75
328.6	122.75
328.829	120.75
329.058	114.75
329.287	111.75
329.515	128.75
329.744	113.75
329.972	113.75
330.201	120.75
330.43	115.75
330.658	120.75
330.887	124.75
331.115	118.75
331.344	118.75
331.572	105.75
331.801	116.75
332.03	123.75
332.258	122.75
332.486	120.75
332.715	115.75
332.943	110.75
333.172	112.75
333.4	121.75
333.629	127.75
333.857	116.75
334.085	110.75
334.314	113.75
334.542	131.75
334.771	128.75
334.999	120.75
335.227	116.75
335.455	111.75
335.684	124.75
335.912	114.75
336.14	111.75
336.369	111.75
336.597	116.75
336.825	109.75
337.053	124.75
337.281	104.75
337.51	111.75
337.738	121.75
337.966	127.75
338.194	96.75
338.422	110.75
338.65	118.75
338.878	110.75
339.106	110.75
339.334	123.75
339.562	112.75
339.79	112.75
340.018	111.75
340.246	116.75
340.474	121.75
340.702	113.75
340.93	113.75
341.158	104.75
341.386	122.75
341.614	121.75
341.842	101.75
342.07	108.75
342.298	116.75
342.526	123.75
342.754	120.75
342.981	97.75
343.209	111.75
343.437	109.75
343.665	118.75
343.893	110.75
344.12	118.75
344.348	113.75
344.576	121.75
344.804	119.75
345.031	122.75
345.259	128.75
345.487	112.75
345.714	111.75
345.942	118.75
346.17	99.75
346.397	105.75
346.625	119.75
346.853	117.75
347.08	110.75
347.308	119.75
347.535	119.75
347.763	122.75
347.99	113.75
348.218	120.75
348.445	123.75
348.673	113.75
348.9	113.75
349.128	114.75
349.355	108.75
349.583	105.75
349.81	110.75
350.037	114.75
350.265	121.75
350.492	101.75
350.72	118.75
350.947	93.75
351.174	110.75
351.402	119.75
351.629	118.75
351.856	106.75
352.083	107.75
352.311	110.75
352.538	113.75
352.765	121.75
352.992	118.75
353.22	117.75
353.447	104.75
353.674	105.75
353.901	91.75
354.128	97.75
354.355	110.75
354.583	104.75
354.81	111.75
355.037	105.75
355.264	112.75
355.491	108.75
355.718	98.75
355.945	119.75
356.172	126.75
356.399	99.75
356.626	120.75
356.853	105.75
357.08	102.75
357.307	115.75
357.534	114.75
357.761	98.75
357.988	119.75
358.215	129.75
358.441	118.75
358.668	120.75
358.895	104.75
359.122	106.75
359.349	122.75
359.576	118.75
359.802	111.75
360.029	118.75
360.256	121.75
360.483	126.75
360.709	116.75
360.936	126.75
361.163	101.75
361.39	113.75
361.616	115.75
361.843	116.75
362.07	105.75
362.296	105.75
362.523	124.75
362.749	110.75
362.976	122.75
363.203	108.75
363.429	122.75
363.656	111.75
363.882	113.75
364.109	114.75
364.335	110.75
364.562	119.75
364.788	120.75
365.015	113.75
365.241	114.75
365.468	115.75
365.694	126.75
365.92	113.75
366.147	110.75
366.373	110.75
366.599	112.75
366.826	97.75
367.052	109.75
367.278	121.75
367.505	103.75
367.731	120.75
367.957	112.75
368.184	104.75
368.41	112.75
368.636	113.75
368.862	118.75
369.089	117.75
369.315	125.75
369.541	96.75
369.767	109.75
369.993	101.75
370.219	116.75
370.445	116.75
370.672	109.75
370.898	106.75
371.124	113.75
371.35	100.75
371.576	112.75
371.802	104.75
372.028	111.75
372.254	109.75
372.48	103.75
372.706	112.75
372.932	105.75
373.158	112.75
373.384	102.75
373.61	127.75
373.835	122.75
374.061	108.75
374.287	125.75
374.513	119.75
374.739	95.75
374.965	112.75
375.191	125.75
375.416	122.75
375.642	109.75
375.868	124.75
376.094	117.75
376.319	117.75
376.545	117.75
376.771	110.75
376.997	113.75
377.222	111.75
377.448	110.75
377.674	123.75
377.899	120.75
378.125	113.75
378.35	98.75
378.576	113.75
378.802	132.75
379.027	135.75
379.253	116.75
379.478	122.75
379.704	131.75
379.929	119.75
380.155	101.75
380.38	116.75
380.606	116.75
380.831	124.75
381.057	111.75
381.282	109.75
381.507	125.75
381.733	93.75
381.958	120.75
382.184	122.75
382.409	125.75
382.634	107.75
382.86	123.75
383.085	127.75
383.31	107.75
383.535	124.75
383.761	113.75
383.986	124.75
384.211	119.75
384.436	106.75
384.662	125.75
384.887	98.75
385.112	121.75
385.337	125.75
385.562	115.75
385.787	124.75
386.013	128.75
386.238	125.75
386.463	124.75
386.688	124.75
386.913	117.75
387.138	122.75
387.363	120.75
387.588	122.75
387.813	125.75
388.038	129.75
388.263	115.75
388.488	111.75
388.713	111.75
388.938	113.75
389.163	117.75
389.387	112.75
389.612	130.75
389.837	120.75
390.062	124.75
390.287	125.75
390.512	139.75
390.736	112.75
390.961	130.75
391.186	124.75
391.411	128.75
391.636	119.75
391.86	132.75
392.085	126.75
392.31	125.75
392.534	116.75
392.759	110.75
392.984	126.75
393.208	122.75
393.433	128.75
393.658	129.75
393.882	129.75
394.107	118.75
394.331	118.75
394.556	124.75
394.78	124.75
395.005	128.75
395.229	129.75
395.454	108.75
395.678	121.75
395.903	130.75
396.127	140.75
396.352	116.75
396.576	121.75
396.801	124.75
397.025	126.75
397.249	121.75
397.474	135.75
397.698	133.75
397.922	141.75
398.147	123.75
398.371	126.75
398.595	127.75
398.82	129.75
399.044	128.75
399.268	120.75
399.492	140.75
399.717	130.75
399.941	153.75
400.165	130.75
400.389	137.75
400.613	137.75
400.837	132.75
401.062	138.75
401.286	130.75
401.51	142.75
401.734	126.75
401.958	120.75
402.182	122.75
402.406	127.75
402.63	119.75
402.854	138.75
403.078	134.75
403.302	140.75
403.526	139.75
403.75	144.75
403.974	133.75
404.198	130.75
404.422	125.75
404.645	139.75
404.869	137.75
405.093	120.75
405.317	136.75
405.541	142.75
405.765	127.75
405.988	136.75
406.212	139.75
406.436	142.75
406.66	149.75
406.883	129.75
407.107	139.75
407.331	136.75
407.555	136.75
407.778	131.75
408.002	124.75
408.226	141.75
408.449	147.75
408.673	141.75
408.896	144.75
409.12	135.75
409.344	149.75
409.567	124.75
409.791	132.75
410.014	120.75
410.238	138.75
410.461	132.75
410.685	124.75
410.908	126.75
411.132	138.75
411.355	144.75
411.578	132.75
411.802	129.75
412.025	124.75
412.249	145.75
412.472	136.75
412.695	127.75
412.919	125.75
413.142	123.75
413.365	129.75
413.589	117.75
413.812	144.75
414.035	140.75
414.258	129.75
414.482	126.75
414.705	138.75
414.928	127.75
415.151	132.75
415.374	137.75
415.597	134.75
415.821	126.75
416.044	143.75
416.267	128.75
416.49	126.75
416.713	133.75
416.936	129.75
417.159	136.75
417.382	123.75
417.605	128.75
417.828	116.75
418.051	129.75
418.274	152.75
418.497	126.75
418.72	134.75
418.943	138.75
419.166	132.75
419.389	138.75
419.611	131.75
419.834	130.75
420.057	136.75
420.28	136.75
420.503	149.75
420.726	121.75
420.948	119.75
421.171	125.75
421.394	148.75
421.617	151.75
421.839	145.75
422.062	132.75
422.285	124.75
422.507	124.75
422.73	146.75
422.953	123.75
423.175	127.75
423.398	144.75
423.621	134.75
423.843	149.75
424.066	152.75
424.288	121.75
424.511	136.75
424.733	141.75
424.956	126.75
425.178	145.75
425.401	144.75
425.623	147.75
425.846	134.75
426.068	134.75
426.291	133.75
426.513	133.75
426.735	136.75
426.958	124.75
427.18	143.75
427.402	150.75
427.625	174.75
427.847	155.75
428.069	134.75
428.292	128.75
428.514	125.75
428.736	127.75
428.958	123.75
429.181	125.75
429.403	128.75
429.625	129.75
429.847	126.75
430.069	136.75
430.292	133.75
430.514	124.75
430.736	128.75
430.958	119.75
431.18	127.75
431.402	113.75
431.624	122.75
431.846	134.75
432.068	124.75
432.29	141.75
432.512	132.75
432.734	132.75
432.956	126.75
433.178	126.75
433.4	133.75
433.622	126.75
433.844	128.75
434.066	133.75
434.287	120.75
434.509	118.75
434.731	140.75
434.953	130.75
435.175	127.75
435.397	136.75
435.618	132.75
435.84	133.75
436.062	137.75
436.284	134.75
436.505	128.75
436.727	124.75
436.949	136.75
437.17	139.75
437.392	129.75
437.614	127.75
437.835	123.75
438.057	157.75
438.278	134.75
438.5	149.75
438.721	134.75
438.943	133.75
439.165	132.75
439.386	128.75
439.608	132.75
439.829	131.75
440.05	137.75
440.272	140.75
440.493	137.75
440.715	133.75
440.936	136.75
441.158	129.75
441.379	136.75
441.6	132.75
441.822	130.75
442.043	146.75
442.264	144.75
442.486	132.75
442.707	130.75
442.928	144.75
443.149	132.75
443.371	135.75
443.592	133.75
443.813	128.75
444.034	132.75
444.255	152.75
444.476	122.75
444.698	141.75
444.919	121.75
445.14	264.75
445.361	203.75
445.582	130.75
445.803	136.75
446.024	137.75
446.245	150.75
446.466	140.75
446.687	136.75
446.908	141.75
447.129	126.75
447.35	133.75
447.571	134.75
447.792	137.75
448.013	131.75
448.234	118.75
448.455	132.75
448.675	143.75
448.896	148.75
449.117	128.75
449.338	135.75
449.559	143.75
449.779	133.75
450	116.75
450.221	120.75
450.442	117.75
450.662	122.75
450.883	128.75
451.104	128.75
451.324	129.75
451.545	135.75
451.766	128.75
451.986	119.75
452.207	125.75
452.428	131.75
452.648	125.75
452.869	122.75
453.089	112.75
453.31	132.75
453.53	120.75
453.751	120.75
453.971	125.75
454.192	115.75
454.412	109.75
454.633	110.75
454.853	125.75
455.073	128.75
455.294	120.75
455.514	119.75
455.734	145.75
455.955	110.75
456.175	124.75
456.395	129.75
456.616	101.75
456.836	116.75
457.056	132.75
457.276	119.75
457.497	126.75
457.717	121.75
457.937	127.75
458.157	118.75
458.377	119.75
458.598	135.75
458.818	123.75
459.038	123.75
459.258	134.75
459.478	121.75
459.698	118.75
459.918	134.75
460.138	129.75
460.358	124.75
460.578	129.75
460.798	130.75
461.018	120.75
461.238	135.75
461.458	122.75
461.678	132.75
461.898	135.75
462.118	137.75
462.338	141.75
462.558	129.75
462.777	137.75
462.997	145.75
463.217	144.75
463.437	145.75
463.657	138.75
463.876	129.75
464.096	131.75
464.316	137.75
464.536	138.75
464.755	129.75
464.975	140.75
465.195	134.75
465.414	150.75
465.634	129.75
465.854	122.75
466.073	132.75
466.293	140.75
466.512	121.75
466.732	121.75
466.951	121.75
467.171	137.75
467.391	115.75
467.61	113.75
467.829	121.75
468.049	140.75
468.268	125.75
468.488	127.75
468.707	130.75
468.927	140.75
469.146	120.75
469.365	117.75
469.585	119.75
469.804	122.75
470.023	125.75
470.243	123.75
470.462	142.75
470.681	130.75
470.901	125.75
471.12	130.75
471.339	130.75
471.558	149.75
471.777	142.75
471.997	123.75
472.216	132.75
472.435	125.75
472.654	130.75
472.873	129.75
473.092	126.75
473.311	130.75
473.53	127.75
473.749	108.75
473.968	128.75
474.187	126.75
474.406	140.75
474.625	122.75
474.844	127.75
475.063	136.75
475.282	125.75
475.501	107.75
475.72	128.75
475.939	116.75
476.158	127.75
476.377	122.75
476.596	117.75
476.814	124.75
477.033	121.75
477.252	124.75
477.471	131.75
477.69	136.75
477.908	136.75
478.127	134.75
478.346	138.75
478.564	124.75
478.783	121.75
479.002	134.75
479.22	131.75
479.439	125.75
479.658	119.75
479.876	130.75
480.095	129.75
480.313	133.75
480.532	126.75
480.751	128.75
480.969	128.75
481.188	138.75
481.406	138.75
481.624	133.75
481.843	117.75
482.061	132.75
482.28	119.75
482.498	130.75
482.717	126.75
482.935	140.75
483.153	133.75
483.372	128.75
483.59	134.75
483.808	130.75
484.027	132.75
484.245	134.75
484.463	132.75
484.681	130.75
484.9	137.75
485.118	136.75
485.336	141.75
485.554	135.75
485.772	121.75
485.99	125.75
486.209	133.75
486.427	144.75
486.645	137.75
486.863	130.75
487.081	125.75
487.299	124.75
487.517	134.75
487.735	128.75
487.953	140.75
488.171	125.75
488.389	142.75
488.607	142.75
488.825	153.75
489.043	144.75
489.261	131.75
489.479	133.75
489.696	144.75
489.914	132.75
490.132	135.75
490.35	143.75
490.568	140.75
490.786	132.75
491.003	139.75
491.221	129.75
491.439	152.75
491.657	144.75
491.874	158.75
492.092	141.75
492.31	135.75
492.527	147.75
492.745	144.75
492.963	140.75
493.18	154.75
493.398	146.75
493.615	158.75
493.833	144.75
494.05	128.75
494.268	158.75
494.485	149.75
494.703	153.75
494.92	144.75
495.138	157.75
495.355	132.75
495.573	128.75
495.79	141.75
496.008	150.75
496.225	137.75
496.442	152.75
496.66	159.75
496.877	145.75
497.094	146.75
497.312	145.75
497.529	162.75
497.746	146.75
497.963	160.75
498.181	133.75
498.398	162.75
498.615	171.75
498.832	149.75
499.049	181.75
499.267	166.75
499.484	167.75
499.701	192.75
499.918	196.75
500.135	190.75
500.352	216.75
500.569	223.75
500.786	204.75
501.003	221.75
501.22	189.75
501.437	191.75
501.654	159.75
501.871	154.75
502.088	174.75
502.305	183.75
502.522	168.75
502.739	158.75
502.956	162.75
503.172	156.75
503.389	151.75
503.606	156.75
503.823	138.75
504.04	158.75
504.256	146.75
504.473	150.75
504.69	158.75
504.907	145.75
505.123	159.75
505.34	159.75
505.557	143.75
505.773	139.75
505.99	147.75
506.207	132.75
506.423	139.75
506.64	146.75
506.856	132.75
507.073	133.75
507.289	133.75
507.506	137.75
507.722	132.75
507.939	124.75
508.155	146.75
508.372	130.75
508.588	135.75
508.805	132.75
509.021	132.75
509.238	137.75
509.454	130.75
509.67	137.75
509.887	126.75
510.103	138.75
510.319	133.75
510.536	149.75
510.752	165.75
510.968	137.75
511.184	138.75
511.401	130.75
511.617	130.75
511.833	117.75
512.049	129.75
512.265	133.75
512.481	128.75
512.698	129.75
512.914	136.75
513.13	130.75
513.346	124.75
513.562	120.75
513.778	128.75
513.994	112.75
514.21	132.75
514.426	139.75
514.642	133.75
514.858	139.75
515.074	150.75
515.29	142.75
515.506	167.75
515.721	156.75
515.937	147.75
516.153	124.75
516.369	127.75
516.585	132.75
516.801	124.75
517.016	124.75
517.232	135.75
517.448	148.75
517.664	140.75
517.879	141.75
518.095	152.75
518.311	148.75
518.527	140.75
518.742	145.75
518.958	132.75
519.173	124.75
519.389	139.75
519.605	136.75
519.82	142.75
520.036	138.75
520.251	129.75
520.467	141.75
520.682	129.75
520.898	141.75
521.113	141.75
521.329	124.75
521.544	136.75
521.76	138.75
521.975	190.75
522.19	192.75
522.406	152.75
522.621	132.75
522.836	130.75
523.052	140.75
523.267	133.75
523.482	132.75
523.698	119.75
523.913	127.75
524.128	119.75
524.343	123.75
524.559	137.75
524.774	123.75
524.989	130.75
525.204	129.75
525.419	113.75
525.634	125.75
525.849	117.75
526.064	118.75
526.28	124.75
526.495	125.75
526.71	121.75
526.925	124.75
527.14	123.75
527.355	131.75
527.57	138.75
527.785	120.75
527.999	99.75
528.214	122.75
528.429	130.75
528.644	116.75
528.859	120.75
529.074	128.75
529.289	129.75
529.503	128.75
529.718	118.75
529.933	122.75
530.148	106.75
530.363	128.75
530.577	118.75
530.792	116.75
531.007	128.75
531.221	128.75
531.436	125.75
531.651	123.75
531.865	120.75
532.08	119.75
532.295	123.75
532.509	117.75
532.724	121.75
532.938	122.75
533.153	123.75
533.367	120.75
533.582	127.75
533.796	120.75
534.011	128.75
534.225	123.75
534.44	111.75
534.654	125.75
534.868	118.75
535.083	117.75
535.297	109.75
535.511	122.75
535.726	126.75
535.94	113.75
536.154	126.75
536.369	129.75
536.583	125.75
536.797	130.75
537.011	123.75
537.225	128.75
537.44	128.75
537.654	111.75
537.868	101.75
538.082	121.75
538.296	120.75
538.51	127.75
538.724	118.75
538.938	116.75
539.153	132.75
539.367	128.75
539.581	112.75
539.795	125.75
540.009	128.75
540.222	107.75
540.436	118.75
540.65	116.75
540.864	128.75
541.078	122.75
541.292	133.75
541.506	117.75
541.72	118.75
541.934	130.75
542.147	153.75
542.361	142.75
542.575	136.75
542.789	126.75
543.002	127.75
543.216	137.75
543.43	123.75
543.644	134.75
543.857	136.75
544.071	136.75
544.285	129.75
544.498	140.75
544.712	132.75
544.925	134.75
545.139	137.75
545.352	136.75
545.566	126.75
545.779	120.75
545.993	142.75
546.206	128.75
546.42	147.75
546.633	135.75
546.847	128.75
547.06	121.75
547.274	137.75
547.487	138.75
547.7	138.75
547.914	126.75
548.127	120.75
548.34	131.75
548.554	140.75
548.767	133.75
548.98	136.75
549.193	128.75
549.407	132.75
549.62	118.75
549.833	127.75
550.046	133.75
550.259	130.75
550.473	128.75
550.686	126.75
550.899	125.75
551.112	113.75
551.325	128.75
551.538	113.75
551.751	127.75
551.964	130.75
552.177	125.75
552.39	123.75
552.603	147.75
552.816	122.75
553.029	136.75
553.242	133.75
553.455	120.75
553.667	132.75
553.88	135.75
554.093	120.75
554.306	132.75
554.519	125.75
554.732	119.75
554.944	131.75
555.157	117.75
555.37	124.75
555.583	118.75
555.795	126.75
556.008	133.75
556.221	107.75
556.433	111.75
556.646	125.75
556.859	132.75
557.071	121.75
557.284	105.75
557.496	114.75
557.709	121.75
557.921	116.75
558.134	127.75
558.346	114.75
558.559	119.75
558.771	123.75
558.984	104.75
559.196	120.75
559.409	110.75
559.621	121.75
559.833	122.75
560.046	129.75
560.258	117.75
560.47	128.75
560.683	114.75
560.895	120.75
561.107	118.75
561.32	128.75
561.532	128.75
561.744	113.75
561.956	121.75
562.168	99.75
562.381	130.75
562.593	116.75
562.805	129.75
563.017	120.75
563.229	102.75
563.441	106.75
563.653	138.75
563.865	97.75
564.077	112.75
564.289	111.75
564.501	112.75
564.713	120.75
564.925	125.75
565.137	112.75
565.349	128.75
565.561	128.75
565.773	112.75
565.985	136.75
566.197	125.75
566.408	136.75
566.62	127.75
566.832	149.75
567.044	138.75
567.255	141.75
567.467	143.75
567.679	142.75
567.891	127.75
568.102	143.75
568.314	149.75
568.526	127.75
568.737	134.75
568.949	122.75
569.161	130.75
569.372	112.75
569.584	117.75
569.795	120.75
570.007	112.75
570.218	128.75
570.43	120.75
570.641	112.75
570.853	123.75
571.064	124.75
571.276	113.75
571.487	122.75
571.698	127.75
571.91	108.75
572.121	114.75
572.333	109.75
572.544	111.75
572.755	120.75
572.966	110.75
573.178	116.75
573.389	116.75
573.6	92.75
573.811	102.75
574.023	100.75
574.234	103.75
574.445	106.75
574.656	112.75
574.867	99.75
575.078	111.75
575.289	104.75
575.501	120.75
575.712	109.75
575.923	126.75
576.134	110.75
576.345	93.75
576.556	100.75
576.767	105.75
576.978	129.75
577.188	118.75
577.399	100.75
577.61	101.75
577.821	120.75
578.032	112.75
578.243	104.75
578.454	113.75
578.665	118.75
578.875	116.75
579.086	128.75
579.297	118.75
579.508	109.75
579.718	112.75
579.929	106.75
580.14	118.75
580.35	103.75
580.561	107.75
580.772	123.75
580.982	98.75
581.193	116.75
581.403	118.75
581.614	125.75
581.825	105.75
582.035	120.75
582.246	109.75
582.456	111.75
582.667	94.75
582.877	105.75
583.087	101.75
583.298	112.75
583.508	112.75
583.719	110.75
583.929	113.75
584.139	104.75
584.35	111.75
584.56	122.75
584.77	106.75
584.981	100.75
585.191	100.75
585.401	120.75
585.611	116.75
585.821	118.75
586.032	107.75
586.242	97.75
586.452	104.75
586.662	123.75
586.872	99.75
587.082	120.75
587.292	111.75
587.502	99.75
587.713	102.75
587.923	121.75
588.133	115.75
588.343	110.75
588.553	116.75
588.762	91.75
588.972	98.75
589.182	96.75
589.392	121.75
589.602	116.75
589.812	113.75
590.022	114.75
590.232	100.75
590.441	96.75
590.651	110.75
590.861	107.75
591.071	109.75
591.281	118.75
591.49	101.75
591.7	98.75
591.91	114.75
592.119	104.75
592.329	112.75
592.539	118.75
592.748	113.75
592.958	117.75
593.167	110.75
593.377	130.75
593.587	108.75
593.796	107.75
594.006	112.75
594.215	96.75
594.424	117.75
594.634	116.75
594.843	104.75
595.053	100.75
595.262	112.75
595.472	108.75
595.681	118.75
595.89	103.75
596.1	109.75
596.309	111.75
596.518	109.75
596.727	113.75
596.937	98.75
597.146	80.75
597.355	95.75
597.564	106.75
597.774	102.75
597.983	108.75
598.192	95.75
598.401	96.75
598.61	103.75
598.819	98.75
599.028	97.75
599.237	106.75
599.446	101.75
599.655	112.75
599.864	105.75
600.073	111.75
600.282	94.75
600.491	109.75
600.7	109.75
600.909	103.75
601.118	105.75
601.327	101.75
601.536	104.75
601.745	92.75
601.953	115.75
602.162	94.75
602.371	112.75
602.58	101.75
602.789	105.75
602.997	96.75
603.206	97.75
603.415	95.75
603.623	108.75
603.832	95.75
604.041	105.75
604.249	103.75
604.458	99.75
604.666	104.75
604.875	105.75
605.084	90.75
605.292	105.75
605.501	95.75
605.709	97.75
605.918	117.75
606.126	98.75
606.334	98.75
606.543	104.75
606.751	106.75
606.96	98.75
607.168	101.75
607.376	110.75
607.585	94.75
607.793	110.75
608.001	103.75
608.21	110.75
608.418	95.75
608.626	96.75
608.834	109.75
609.043	110.75
609.251	105.75
609.459	97.75
609.667	103.75
609.875	116.75
610.083	107.75
610.291	95.75
610.499	105.75
610.707	102.75
610.916	110.75
611.124	120.75
611.332	120.75
611.54	106.75
611.748	104.75
611.955	124.75
612.163	122.75
612.371	111.75
612.579	103.75
612.787	109.75
612.995	95.75
613.203	100.75
613.411	100.75
613.618	102.75
613.826	111.75
614.034	105.75
614.242	133.75
614.449	90.75
614.657	98.75
614.865	102.75
615.072	95.75
615.28	103.75
615.488	112.75
615.695	101.75
615.903	110.75
616.111	99.75
616.318	112.75
616.526	109.75
616.733	104.75
616.941	101.75
617.148	117.75
617.356	102.75
617.563	110.75
617.771	106.75
617.978	111.75
618.185	105.75
618.393	94.75
618.6	108.75
618.807	108.75
619.015	116.75
619.222	96.75
619.429	93.75
619.637	95.75
619.844	91.75
620.051	113.75
620.258	93.75
620.466	112.75
620.673	104.75
620.88	99.75
621.087	95.75
621.294	108.75
621.501	87.75
621.708	100.75
621.915	104.75
622.122	95.75
622.329	94.75
622.536	104.75
622.743	112.75
622.95	115.75
623.157	108.75
623.364	104.75
623.571	102.75
623.778	101.75
623.985	108.75
624.192	85.75
624.399	88.75
624.606	89.75
624.812	102.75
625.019	96.75
625.226	105.75
625.433	106.75
625.639	103.75
625.846	101.75
626.053	94.75
626.259	104.75
626.466	92.75
626.673	97.75
626.879	105.75
627.086	106.75
627.293	93.75
627.499	93.75
627.706	109.75
627.912	107.75
628.119	101.75
628.325	106.75
628.532	100.75
628.738	86.75
628.945	92.75
629.151	101.75
629.357	124.75
629.564	103.75
629.77	101.75
629.976	106.75
630.183	99.75
630.389	88.75
630.595	97.75
630.802	100.75
631.008	106.75
631.214	99.75
631.42	108.75
631.627	105.75
631.833	97.75
632.039	96.75
632.245	95.75
632.451	101.75
632.657	93.75
632.863	110.75
633.069	109.75
633.275	101.75
633.481	88.75
633.688	95.75
633.893	102.75
634.099	77.75
634.305	81.75
634.511	101.75
634.717	92.75
634.923	93.75
635.129	95.75
635.335	82.75
635.541	82.75
635.747	97.75
635.952	106.75
636.158	97.75
636.364	92.75
636.57	105.75
636.775	98.75
636.981	101.75
637.187	89.75
637.392	92.75
637.598	90.75
637.804	97.75
638.009	98.75
638.215	94.75
638.421	98.75
638.626	105.75
638.832	86.75
639.037	102.75
639.243	92.75
639.448	89.75
639.654	102.75
639.859	93.75
640.065	89.75
640.27	105.75
640.475	89.75
640.681	98.75
640.886	105.75
641.091	105.75
641.297	86.75
641.502	95.75
641.707	96.75
641.913	87.75
642.118	100.75
642.323	101.75
642.528	97.75
642.733	95.75
642.939	90.75
643.144	91.75
643.349	88.75
643.554	86.75
643.759	102.75
643.964	96.75
644.169	108.75
644.374	106.75
644.579	102.75
644.784	100.75
644.989	96.75
645.194	117.75
645.399	102.75
645.604	104.75
645.809	90.75
646.014	87.75
646.219	97.75
646.423	101.75
646.628	98.75
646.833	101.75
647.038	91.75
647.243	91.75
647.447	95.75
647.652	92.75
647.857	102.75
648.062	101.75
648.266	84.75
648.471	87.75
648.676	97.75
648.88	95.75
649.085	91.75
649.289	107.75
649.494	74.75
649.698	104.75
649.903	105.75
650.107	94.75
650.312	108.75
650.516	93.75
650.721	96.75
650.925	96.75
651.13	95.75
651.334	77.75
651.539	92.75
651.743	108.75
651.947	99.75
652.152	104.75
652.356	84.75
652.56	102.75
652.764	99.75
652.969	95.75
653.173	102.75
653.377	92.75
653.581	96.75
653.785	89.75
653.99	104.75
654.194	93.75
654.398	79.75
654.602	89.75
654.806	91.75
655.01	97.75
655.214	102.75
655.418	81.75
655.622	71.75
655.826	70.75
656.03	101.75
656.234	101.75
656.438	86.75
656.642	98.75
656.846	89.75
657.049	83.75
657.253	110.75
657.457	99.75
657.661	105.75
657.865	87.75
658.068	84.75
658.272	81.75
658.476	85.75
658.68	94.75
658.883	81.75
659.087	73.75
659.291	86.75
659.494	99.75
659.698	73.75
659.901	82.75
660.105	77.75
660.309	106.75
660.512	83.75
660.716	69.75
660.919	89.75
661.123	94.75
661.326	89.75
661.53	80.75
661.733	87.75
661.936	101.75
662.14	88.75
662.343	94.75
662.546	90.75
662.75	89.75
662.953	77.75
663.156	72.75
663.36	81.75
663.563	78.75
663.766	88.75
663.969	93.75
664.173	89.75
664.376	99.75
664.579	82.75
664.782	74.75
664.985	80.75
665.188	93.75
665.391	93.75
665.594	92.75
665.797	79.75
666	98.75
666.203	82.75
666.406	88.75
666.609	80.75
666.812	67.75
667.015	88.75
667.218	79.75
667.421	81.75
667.624	78.75
667.827	103.75
668.03	80.75
668.232	85.75
668.435	96.75
668.638	79.75
668.841	76.75
669.043	91.75
669.246	77.75
669.449	82.75
669.651	86.75
669.854	89.75
670.057	82.75
670.259	80.75
670.462	79.75
670.665	92.75
670.867	88.75
671.07	102.75
671.272	68.75
671.475	92.75
671.677	96.75
671.88	92.75
672.082	91.75
672.284	68.75
672.487	92.75
672.689	95.75
672.892	92.75
