Data from 1968.PennyLincolnUp.Lamp.En5.5.200Scan.071719.P1._HRD10591_14-49-49-969.txt Node
Date: Thu Jul 18 14:49:49 EDT 2019
User: cochatt
Spectrometer: HR+D1059
Trigger mode: 1
Integration Time (sec): 1.000000E-1
Scans to average: 1
Electric dark correction enabled: true
Nonlinearity correction enabled: false
Boxcar width: 0
XAxis mode: Wavelengths
Number of Pixels in Spectrum: 2048
>>>>>Begin Spectral Data<<<<<
223.165	-5.62
223.4	-5.62
223.635	-5.62
223.869	-24.62
224.104	-15.62
224.338	-19.62
224.573	-10.62
224.808	-16.62
225.042	-1.62
225.277	-5.62
225.511	-12.62
225.746	14.38
225.98	-3.62
226.215	15.38
226.449	23.38
226.683	6.38
226.918	18.38
227.152	38.38
227.387	29.38
227.621	23.38
227.856	44.38
228.09	48.38
228.324	54.38
228.559	68.38
228.793	59.38
229.027	57.38
229.262	71.38
229.496	62.38
229.73	61.38
229.964	83.38
230.199	78.38
230.433	73.38
230.667	84.38
230.901	78.38
231.136	83.38
231.37	88.38
231.604	96.38
231.838	103.38
232.072	97.38
232.306	80.38
232.541	78.38
232.775	86.38
233.009	84.38
233.243	78.38
233.477	82.38
233.711	89.38
233.945	91.38
234.179	83.38
234.413	98.38
234.647	88.38
234.881	70.38
235.115	82.38
235.349	88.38
235.583	79.38
235.817	91.38
236.051	85.38
236.285	81.38
236.519	80.38
236.753	81.38
236.987	80.38
237.221	77.38
237.455	83.38
237.689	75.38
237.922	89.38
238.156	84.38
238.39	82.38
238.624	80.38
238.858	81.38
239.091	66.38
239.325	88.38
239.559	69.38
239.793	87.38
240.027	76.38
240.26	85.38
240.494	89.38
240.728	90.38
240.961	73.38
241.195	91.38
241.429	94.38
241.662	72.38
241.896	84.38
242.13	79.38
242.363	80.38
242.597	81.38
242.83	80.38
243.064	78.38
243.298	84.38
243.531	90.38
243.765	106.38
243.998	94.38
244.232	78.38
244.465	90.38
244.699	87.38
244.932	82.38
245.166	80.38
245.399	84.38
245.633	87.38
245.866	83.38
246.099	68.38
246.333	79.38
246.566	86.38
246.8	76.38
247.033	91.38
247.266	83.38
247.5	93.38
247.733	81.38
247.966	88.38
248.2	81.38
248.433	66.38
248.666	100.38
248.899	93.38
249.133	96.38
249.366	86.38
249.599	72.38
249.832	79.38
250.066	80.38
250.299	78.38
250.532	80.38
250.765	78.38
250.998	78.38
251.231	68.38
251.465	71.38
251.698	93.38
251.931	98.38
252.164	87.38
252.397	84.38
252.63	85.38
252.863	90.38
253.096	88.38
253.329	99.38
253.562	85.38
253.795	93.38
254.028	85.38
254.261	89.38
254.494	87.38
254.727	93.38
254.96	102.38
255.193	97.38
255.426	100.38
255.659	84.38
255.892	89.38
256.124	86.38
256.357	91.38
256.59	100.38
256.823	88.38
257.056	94.38
257.289	104.38
257.521	91.38
257.754	85.38
257.987	96.38
258.22	91.38
258.452	92.38
258.685	87.38
258.918	83.38
259.151	90.38
259.383	83.38
259.616	98.38
259.849	78.38
260.081	87.38
260.314	74.38
260.547	96.38
260.779	108.38
261.012	86.38
261.244	97.38
261.477	89.38
261.71	89.38
261.942	98.38
262.175	107.38
262.407	94.38
262.64	103.38
262.872	85.38
263.105	90.38
263.337	98.38
263.57	90.38
263.802	100.38
264.035	88.38
264.267	85.38
264.499	90.38
264.732	82.38
264.964	85.38
265.197	102.38
265.429	99.38
265.661	81.38
265.894	87.38
266.126	97.38
266.358	79.38
266.591	84.38
266.823	96.38
267.055	91.38
267.287	101.38
267.52	97.38
267.752	89.38
267.984	100.38
268.216	88.38
268.448	102.38
268.681	100.38
268.913	90.38
269.145	96.38
269.377	101.38
269.609	99.38
269.841	106.38
270.073	100.38
270.306	95.38
270.538	101.38
270.77	92.38
271.002	101.38
271.234	103.38
271.466	90.38
271.698	93.38
271.93	102.38
272.162	106.38
272.394	110.38
272.626	91.38
272.858	104.38
273.09	86.38
273.322	103.38
273.553	92.38
273.785	99.38
274.017	96.38
274.249	99.38
274.481	92.38
274.713	98.38
274.945	93.38
275.176	104.38
275.408	105.38
275.64	101.38
275.872	96.38
276.104	103.38
276.335	99.38
276.567	115.38
276.799	85.38
277.031	107.38
277.262	90.38
277.494	106.38
277.726	101.38
277.957	88.38
278.189	91.38
278.421	91.38
278.652	100.38
278.884	103.38
279.115	89.38
279.347	107.38
279.579	95.38
279.81	104.38
280.042	106.38
280.273	111.38
280.505	98.38
280.736	93.38
280.968	98.38
281.199	93.38
281.431	97.38
281.662	105.38
281.894	101.38
282.125	92.38
282.356	111.38
282.588	112.38
282.819	103.38
283.051	109.38
283.282	105.38
283.513	92.38
283.745	110.38
283.976	102.38
284.207	100.38
284.439	90.38
284.67	111.38
284.901	117.38
285.132	94.38
285.364	108.38
285.595	83.38
285.826	101.38
286.057	102.38
286.288	94.38
286.52	107.38
286.751	96.38
286.982	94.38
287.213	115.38
287.444	113.38
287.675	91.38
287.906	107.38
288.138	100.38
288.369	92.38
288.6	91.38
288.831	104.38
289.062	103.38
289.293	110.38
289.524	95.38
289.755	105.38
289.986	118.38
290.217	90.38
290.448	100.38
290.679	97.38
290.91	101.38
291.141	88.38
291.371	109.38
291.602	95.38
291.833	90.38
292.064	106.38
292.295	91.38
292.526	102.38
292.757	103.38
292.987	102.38
293.218	93.38
293.449	114.38
293.68	108.38
293.91	112.38
294.141	109.38
294.372	102.38
294.603	115.38
294.833	109.38
295.064	107.38
295.295	114.38
295.525	103.38
295.756	100.38
295.987	114.38
296.217	104.38
296.448	101.38
296.679	112.38
296.909	104.38
297.14	108.38
297.37	98.38
297.601	93.38
297.831	103.38
298.062	90.38
298.292	101.38
298.523	92.38
298.753	92.38
298.984	98.38
299.214	112.38
299.445	109.38
299.675	110.38
299.905	101.38
300.136	117.38
300.366	114.38
300.597	92.38
300.827	132.38
301.057	106.38
301.288	118.38
301.518	106.38
301.748	109.38
301.979	98.38
302.209	92.38
302.439	96.38
302.669	113.38
302.9	97.38
303.13	103.38
303.36	111.38
303.59	99.38
303.82	103.38
304.051	101.38
304.281	100.38
304.511	106.38
304.741	109.38
304.971	102.38
305.201	95.38
305.431	102.38
305.661	100.38
305.891	115.38
306.121	99.38
306.352	105.38
306.582	102.38
306.812	104.38
307.042	106.38
307.272	96.38
307.502	101.38
307.731	104.38
307.961	103.38
308.191	107.38
308.421	106.38
308.651	110.38
308.881	107.38
309.111	103.38
309.341	103.38
309.571	125.38
309.8	104.38
310.03	102.38
310.26	123.38
310.49	100.38
310.72	98.38
310.949	107.38
311.179	101.38
311.409	110.38
311.639	108.38
311.868	120.38
312.098	111.38
312.328	122.38
312.557	116.38
312.787	94.38
313.017	112.38
313.246	105.38
313.476	104.38
313.706	112.38
313.935	110.38
314.165	114.38
314.394	105.38
314.624	104.38
314.853	109.38
315.083	106.38
315.312	123.38
315.542	114.38
315.771	104.38
316.001	115.38
316.23	104.38
316.46	119.38
316.689	102.38
316.919	100.38
317.148	102.38
317.377	83.38
317.607	112.38
317.836	113.38
318.065	120.38
318.295	102.38
318.524	95.38
318.753	103.38
318.983	107.38
319.212	114.38
319.441	108.38
319.67	124.38
319.9	97.38
320.129	91.38
320.358	104.38
320.587	102.38
320.816	102.38
321.046	103.38
321.275	115.38
321.504	127.38
321.733	108.38
321.962	101.38
322.191	111.38
322.42	105.38
322.649	104.38
322.878	129.38
323.108	99.38
323.337	109.38
323.566	114.38
323.795	114.38
324.024	123.38
324.253	118.38
324.482	129.38
324.71	146.38
324.939	169.38
325.168	168.38
325.397	132.38
325.626	118.38
325.855	120.38
326.084	112.38
326.313	91.38
326.542	111.38
326.77	130.38
326.999	118.38
327.228	126.38
327.457	145.38
327.686	144.38
327.914	119.38
328.143	112.38
328.372	113.38
328.6	105.38
328.829	111.38
329.058	103.38
329.287	122.38
329.515	108.38
329.744	120.38
329.972	119.38
330.201	111.38
330.43	121.38
330.658	122.38
330.887	110.38
331.115	117.38
331.344	108.38
331.572	125.38
331.801	107.38
332.03	118.38
332.258	120.38
332.486	124.38
332.715	113.38
332.943	114.38
333.172	117.38
333.4	114.38
333.629	106.38
333.857	118.38
334.085	119.38
334.314	125.38
334.542	104.38
334.771	122.38
334.999	105.38
335.227	120.38
335.455	134.38
335.684	131.38
335.912	118.38
336.14	111.38
336.369	118.38
336.597	124.38
336.825	121.38
337.053	124.38
337.281	107.38
337.51	100.38
337.738	130.38
337.966	101.38
338.194	126.38
338.422	124.38
338.65	129.38
338.878	115.38
339.106	100.38
339.334	114.38
339.562	112.38
339.79	109.38
340.018	99.38
340.246	108.38
340.474	119.38
340.702	100.38
340.93	112.38
341.158	95.38
341.386	120.38
341.614	108.38
341.842	112.38
342.07	103.38
342.298	102.38
342.526	111.38
342.754	112.38
342.981	117.38
343.209	122.38
343.437	116.38
343.665	110.38
343.893	126.38
344.12	132.38
344.348	119.38
344.576	108.38
344.804	111.38
345.031	120.38
345.259	120.38
345.487	118.38
345.714	105.38
345.942	114.38
346.17	110.38
346.397	95.38
346.625	102.38
346.853	103.38
347.08	114.38
347.308	113.38
347.535	103.38
347.763	106.38
347.99	101.38
348.218	121.38
348.445	105.38
348.673	106.38
348.9	86.38
349.128	106.38
349.355	99.38
349.583	116.38
349.81	103.38
350.037	109.38
350.265	117.38
350.492	115.38
350.72	100.38
350.947	103.38
351.174	117.38
351.402	116.38
351.629	109.38
351.856	112.38
352.083	106.38
352.311	94.38
352.538	91.38
352.765	117.38
352.992	103.38
353.22	111.38
353.447	96.38
353.674	110.38
353.901	105.38
354.128	95.38
354.355	112.38
354.583	116.38
354.81	123.38
355.037	114.38
355.264	99.38
355.491	103.38
355.718	123.38
355.945	116.38
356.172	106.38
356.399	121.38
356.626	128.38
356.853	108.38
357.08	102.38
357.307	109.38
357.534	114.38
357.761	111.38
357.988	112.38
358.215	111.38
358.441	104.38
358.668	105.38
358.895	94.38
359.122	124.38
359.349	104.38
359.576	102.38
359.802	109.38
360.029	107.38
360.256	117.38
360.483	122.38
360.709	121.38
360.936	109.38
361.163	110.38
361.39	98.38
361.616	125.38
361.843	105.38
362.07	103.38
362.296	109.38
362.523	108.38
362.749	103.38
362.976	122.38
363.203	115.38
363.429	121.38
363.656	114.38
363.882	104.38
364.109	108.38
364.335	111.38
364.562	123.38
364.788	111.38
365.015	110.38
365.241	113.38
365.468	123.38
365.694	108.38
365.92	114.38
366.147	97.38
366.373	94.38
366.599	111.38
366.826	105.38
367.052	98.38
367.278	112.38
367.505	101.38
367.731	106.38
367.957	93.38
368.184	104.38
368.41	107.38
368.636	116.38
368.862	125.38
369.089	113.38
369.315	120.38
369.541	118.38
369.767	103.38
369.993	112.38
370.219	120.38
370.445	116.38
370.672	101.38
370.898	116.38
371.124	122.38
371.35	118.38
371.576	124.38
371.802	112.38
372.028	118.38
372.254	123.38
372.48	115.38
372.706	111.38
372.932	109.38
373.158	118.38
373.384	128.38
373.61	116.38
373.835	112.38
374.061	119.38
374.287	116.38
374.513	128.38
374.739	103.38
374.965	109.38
375.191	121.38
375.416	117.38
375.642	107.38
375.868	122.38
376.094	103.38
376.319	108.38
376.545	114.38
376.771	127.38
376.997	118.38
377.222	96.38
377.448	103.38
377.674	108.38
377.899	104.38
378.125	119.38
378.35	118.38
378.576	112.38
378.802	104.38
379.027	124.38
379.253	119.38
379.478	118.38
379.704	114.38
379.929	119.38
380.155	111.38
380.38	106.38
380.606	104.38
380.831	120.38
381.057	120.38
381.282	117.38
381.507	107.38
381.733	105.38
381.958	120.38
382.184	118.38
382.409	126.38
382.634	108.38
382.86	115.38
383.085	110.38
383.31	116.38
383.535	117.38
383.761	106.38
383.986	124.38
384.211	112.38
384.436	129.38
384.662	130.38
384.887	129.38
385.112	129.38
385.337	132.38
385.562	128.38
385.787	124.38
386.013	131.38
386.238	120.38
386.463	118.38
386.688	124.38
386.913	115.38
387.138	121.38
387.363	118.38
387.588	123.38
387.813	128.38
388.038	118.38
388.263	110.38
388.488	124.38
388.713	119.38
388.938	115.38
389.163	123.38
389.387	124.38
389.612	131.38
389.837	116.38
390.062	119.38
390.287	123.38
390.512	117.38
390.736	122.38
390.961	122.38
391.186	133.38
391.411	118.38
391.636	108.38
391.86	114.38
392.085	107.38
392.31	130.38
392.534	131.38
392.759	130.38
392.984	110.38
393.208	124.38
393.433	123.38
393.658	122.38
393.882	130.38
394.107	120.38
394.331	126.38
394.556	114.38
394.78	117.38
395.005	133.38
395.229	128.38
395.454	115.38
395.678	123.38
395.903	119.38
396.127	118.38
396.352	120.38
396.576	115.38
396.801	114.38
397.025	125.38
397.249	130.38
397.474	127.38
397.698	127.38
397.922	123.38
398.147	135.38
398.371	125.38
398.595	126.38
398.82	126.38
399.044	122.38
399.268	145.38
399.492	123.38
399.717	142.38
399.941	148.38
400.165	150.38
400.389	138.38
400.613	144.38
400.837	115.38
401.062	136.38
401.286	129.38
401.51	124.38
401.734	134.38
401.958	141.38
402.182	127.38
402.406	134.38
402.63	138.38
402.854	124.38
403.078	131.38
403.302	132.38
403.526	141.38
403.75	137.38
403.974	137.38
404.198	133.38
404.422	127.38
404.645	136.38
404.869	118.38
405.093	126.38
405.317	130.38
405.541	137.38
405.765	126.38
405.988	119.38
406.212	130.38
406.436	141.38
406.66	135.38
406.883	143.38
407.107	103.38
407.331	146.38
407.555	141.38
407.778	140.38
408.002	132.38
408.226	138.38
408.449	138.38
408.673	134.38
408.896	130.38
409.12	134.38
409.344	135.38
409.567	129.38
409.791	144.38
410.014	128.38
410.238	130.38
410.461	132.38
410.685	135.38
410.908	137.38
411.132	136.38
411.355	141.38
411.578	130.38
411.802	143.38
412.025	140.38
412.249	140.38
412.472	123.38
412.695	141.38
412.919	144.38
413.142	126.38
413.365	136.38
413.589	125.38
413.812	130.38
414.035	129.38
414.258	111.38
414.482	134.38
414.705	117.38
414.928	135.38
415.151	126.38
415.374	119.38
415.597	126.38
415.821	124.38
416.044	138.38
416.267	130.38
416.49	119.38
416.713	148.38
416.936	127.38
417.159	116.38
417.382	129.38
417.605	122.38
417.828	130.38
418.051	128.38
418.274	131.38
418.497	128.38
418.72	130.38
418.943	135.38
419.166	134.38
419.389	135.38
419.611	128.38
419.834	144.38
420.057	124.38
420.28	128.38
420.503	135.38
420.726	134.38
420.948	124.38
421.171	138.38
421.394	136.38
421.617	137.38
421.839	130.38
422.062	139.38
422.285	136.38
422.507	125.38
422.73	139.38
422.953	132.38
423.175	130.38
423.398	133.38
423.621	141.38
423.843	123.38
424.066	139.38
424.288	140.38
424.511	134.38
424.733	126.38
424.956	134.38
425.178	140.38
425.401	130.38
425.623	137.38
425.846	132.38
426.068	125.38
426.291	145.38
426.513	128.38
426.735	125.38
426.958	127.38
427.18	122.38
427.402	136.38
427.625	154.38
427.847	137.38
428.069	141.38
428.292	132.38
428.514	132.38
428.736	129.38
428.958	140.38
429.181	139.38
429.403	127.38
429.625	120.38
429.847	142.38
430.069	122.38
430.292	120.38
430.514	117.38
430.736	126.38
430.958	129.38
431.18	122.38
431.402	126.38
431.624	114.38
431.846	126.38
432.068	131.38
432.29	118.38
432.512	122.38
432.734	125.38
432.956	120.38
433.178	121.38
433.4	114.38
433.622	121.38
433.844	118.38
434.066	122.38
434.287	123.38
434.509	121.38
434.731	129.38
434.953	110.38
435.175	112.38
435.397	123.38
435.618	126.38
435.84	133.38
436.062	143.38
436.284	142.38
436.505	131.38
436.727	116.38
436.949	120.38
437.17	119.38
437.392	121.38
437.614	136.38
437.835	118.38
438.057	118.38
438.278	140.38
438.5	129.38
438.721	155.38
438.943	144.38
439.165	130.38
439.386	126.38
439.608	116.38
439.829	133.38
440.05	120.38
440.272	123.38
440.493	122.38
440.715	118.38
440.936	137.38
441.158	124.38
441.379	131.38
441.6	136.38
441.822	133.38
442.043	134.38
442.264	143.38
442.486	121.38
442.707	130.38
442.928	154.38
443.149	128.38
443.371	132.38
443.592	144.38
443.813	163.38
444.034	142.38
444.255	137.38
444.476	132.38
444.698	131.38
444.919	141.38
445.14	291.38
445.361	185.38
445.582	143.38
445.803	135.38
446.024	149.38
446.245	134.38
446.466	139.38
446.687	117.38
446.908	126.38
447.129	123.38
447.35	128.38
447.571	118.38
447.792	123.38
448.013	115.38
448.234	108.38
448.455	133.38
448.675	135.38
448.896	133.38
449.117	103.38
449.338	122.38
449.559	128.38
449.779	149.38
450	133.38
450.221	119.38
450.442	118.38
450.662	118.38
450.883	112.38
451.104	122.38
451.324	122.38
451.545	131.38
451.766	116.38
451.986	132.38
452.207	122.38
452.428	117.38
452.648	111.38
452.869	115.38
453.089	128.38
453.31	130.38
453.53	132.38
453.751	135.38
453.971	125.38
454.192	120.38
454.412	122.38
454.633	114.38
454.853	123.38
455.073	102.38
455.294	136.38
455.514	105.38
455.734	126.38
455.955	119.38
456.175	110.38
456.395	128.38
456.616	127.38
456.836	110.38
457.056	108.38
457.276	106.38
457.497	112.38
457.717	132.38
457.937	126.38
458.157	109.38
458.377	126.38
458.598	110.38
458.818	125.38
459.038	120.38
459.258	142.38
459.478	128.38
459.698	121.38
459.918	126.38
460.138	138.38
460.358	122.38
460.578	127.38
460.798	142.38
461.018	128.38
461.238	123.38
461.458	114.38
461.678	134.38
461.898	139.38
462.118	126.38
462.338	146.38
462.558	134.38
462.777	122.38
462.997	128.38
463.217	147.38
463.437	120.38
463.657	126.38
463.876	136.38
464.096	138.38
464.316	140.38
464.536	127.38
464.755	144.38
464.975	136.38
465.195	141.38
465.414	126.38
465.634	117.38
465.854	133.38
466.073	128.38
466.293	131.38
466.512	130.38
466.732	111.38
466.951	120.38
467.171	128.38
467.391	125.38
467.61	140.38
467.829	119.38
468.049	120.38
468.268	115.38
468.488	125.38
468.707	108.38
468.927	112.38
469.146	127.38
469.365	127.38
469.585	127.38
469.804	130.38
470.023	116.38
470.243	139.38
470.462	136.38
470.681	123.38
470.901	126.38
471.12	127.38
471.339	124.38
471.558	126.38
471.777	127.38
471.997	110.38
472.216	132.38
472.435	140.38
472.654	123.38
472.873	112.38
473.092	128.38
473.311	118.38
473.53	109.38
473.749	118.38
473.968	126.38
474.187	122.38
474.406	134.38
474.625	112.38
474.844	124.38
475.063	130.38
475.282	124.38
475.501	115.38
475.72	117.38
475.939	123.38
476.158	110.38
476.377	122.38
476.596	126.38
476.814	127.38
477.033	126.38
477.252	137.38
477.471	126.38
477.69	128.38
477.908	138.38
478.127	123.38
478.346	127.38
478.564	120.38
478.783	145.38
479.002	142.38
479.22	129.38
479.439	128.38
479.658	138.38
479.876	138.38
480.095	122.38
480.313	116.38
480.532	158.38
480.751	132.38
480.969	132.38
481.188	138.38
481.406	129.38
481.624	136.38
481.843	137.38
482.061	116.38
482.28	132.38
482.498	132.38
482.717	129.38
482.935	138.38
483.153	120.38
483.372	137.38
483.59	123.38
483.808	117.38
484.027	142.38
484.245	127.38
484.463	134.38
484.681	123.38
484.9	126.38
485.118	128.38
485.336	140.38
485.554	137.38
485.772	131.38
485.99	121.38
486.209	134.38
486.427	135.38
486.645	131.38
486.863	138.38
487.081	140.38
487.299	131.38
487.517	142.38
487.735	150.38
487.953	134.38
488.171	152.38
488.389	154.38
488.607	138.38
488.825	127.38
489.043	124.38
489.261	141.38
489.479	137.38
489.696	138.38
489.914	146.38
490.132	129.38
490.35	140.38
490.568	147.38
490.786	139.38
491.003	172.38
491.221	134.38
491.439	148.38
491.657	140.38
491.874	142.38
492.092	135.38
492.31	143.38
492.527	143.38
492.745	157.38
492.963	155.38
493.18	148.38
493.398	145.38
493.615	147.38
493.833	140.38
494.05	128.38
494.268	134.38
494.485	121.38
494.703	149.38
494.92	141.38
495.138	130.38
495.355	150.38
495.573	140.38
495.79	142.38
496.008	131.38
496.225	146.38
496.442	130.38
496.66	147.38
496.877	150.38
497.094	169.38
497.312	138.38
497.529	152.38
497.746	150.38
497.963	157.38
498.181	146.38
498.398	154.38
498.615	172.38
498.832	138.38
499.049	162.38
499.267	159.38
499.484	163.38
499.701	186.38
499.918	202.38
500.135	211.38
500.352	214.38
500.569	229.38
500.786	218.38
501.003	206.38
501.22	185.38
501.437	200.38
501.654	155.38
501.871	168.38
502.088	154.38
502.305	166.38
502.522	143.38
502.739	157.38
502.956	146.38
503.172	158.38
503.389	147.38
503.606	140.38
503.823	151.38
504.04	149.38
504.256	161.38
504.473	134.38
504.69	130.38
504.907	155.38
505.123	134.38
505.34	141.38
505.557	127.38
505.773	136.38
505.99	150.38
506.207	123.38
506.423	136.38
506.64	138.38
506.856	137.38
507.073	140.38
507.289	130.38
507.506	136.38
507.722	126.38
507.939	138.38
508.155	120.38
508.372	124.38
508.588	142.38
508.805	148.38
509.021	132.38
509.238	138.38
509.454	124.38
509.67	126.38
509.887	124.38
510.103	143.38
510.319	130.38
510.536	147.38
510.752	157.38
510.968	128.38
511.184	126.38
511.401	120.38
511.617	126.38
511.833	119.38
512.049	125.38
512.265	143.38
512.481	138.38
512.698	119.38
512.914	118.38
513.13	138.38
513.346	140.38
513.562	120.38
513.778	119.38
513.994	119.38
514.21	129.38
514.426	125.38
514.642	157.38
514.858	132.38
515.074	135.38
515.29	142.38
515.506	154.38
515.721	130.38
515.937	145.38
516.153	136.38
516.369	126.38
516.585	136.38
516.801	130.38
517.016	144.38
517.232	131.38
517.448	136.38
517.664	134.38
517.879	143.38
518.095	111.38
518.311	134.38
518.527	119.38
518.742	143.38
518.958	132.38
519.173	140.38
519.389	127.38
519.605	125.38
519.82	139.38
520.036	125.38
520.251	123.38
520.467	108.38
520.682	134.38
520.898	132.38
521.113	120.38
521.329	137.38
521.544	124.38
521.76	134.38
521.975	169.38
522.19	173.38
522.406	127.38
522.621	127.38
522.836	131.38
523.052	130.38
523.267	124.38
523.482	130.38
523.698	129.38
523.913	135.38
524.128	130.38
524.343	123.38
524.559	126.38
524.774	125.38
524.989	121.38
525.204	109.38
525.419	121.38
525.634	118.38
525.849	114.38
526.064	129.38
526.28	127.38
526.495	132.38
526.71	120.38
526.925	119.38
527.14	105.38
527.355	126.38
527.57	115.38
527.785	126.38
527.999	124.38
528.214	134.38
528.429	121.38
528.644	127.38
528.859	124.38
529.074	122.38
529.289	140.38
529.503	126.38
529.718	124.38
529.933	125.38
530.148	117.38
530.363	119.38
530.577	103.38
530.792	126.38
531.007	117.38
531.221	122.38
531.436	117.38
531.651	120.38
531.865	114.38
532.08	111.38
532.295	134.38
532.509	108.38
532.724	122.38
532.938	125.38
533.153	127.38
533.367	111.38
533.582	126.38
533.796	112.38
534.011	120.38
534.225	119.38
534.44	128.38
534.654	129.38
534.868	121.38
535.083	131.38
535.297	120.38
535.511	109.38
535.726	126.38
535.94	107.38
536.154	138.38
536.369	130.38
536.583	108.38
536.797	126.38
537.011	110.38
537.225	101.38
537.44	105.38
537.654	126.38
537.868	118.38
538.082	136.38
538.296	132.38
538.51	127.38
538.724	119.38
538.938	131.38
539.153	116.38
539.367	130.38
539.581	124.38
539.795	114.38
540.009	115.38
540.222	116.38
540.436	136.38
540.65	126.38
540.864	126.38
541.078	139.38
541.292	142.38
541.506	131.38
541.72	128.38
541.934	125.38
542.147	129.38
542.361	128.38
542.575	122.38
542.789	131.38
543.002	129.38
543.216	128.38
543.43	123.38
543.644	135.38
543.857	134.38
544.071	135.38
544.285	133.38
544.498	132.38
544.712	133.38
544.925	128.38
545.139	114.38
545.352	128.38
545.566	139.38
545.779	141.38
545.993	151.38
546.206	142.38
546.42	147.38
546.633	125.38
546.847	140.38
547.06	142.38
547.274	128.38
547.487	143.38
547.7	133.38
547.914	135.38
548.127	136.38
548.34	138.38
548.554	136.38
548.767	115.38
548.98	123.38
549.193	130.38
549.407	116.38
549.62	127.38
549.833	127.38
550.046	122.38
550.259	129.38
550.473	122.38
550.686	143.38
550.899	134.38
551.112	115.38
551.325	106.38
551.538	128.38
551.751	121.38
551.964	119.38
552.177	121.38
552.39	119.38
552.603	120.38
552.816	121.38
553.029	126.38
553.242	125.38
553.455	135.38
553.667	126.38
553.88	136.38
554.093	136.38
554.306	132.38
554.519	144.38
554.732	117.38
554.944	112.38
555.157	134.38
555.37	115.38
555.583	111.38
555.795	130.38
556.008	126.38
556.221	111.38
556.433	128.38
556.646	118.38
556.859	121.38
557.071	110.38
557.284	117.38
557.496	116.38
557.709	123.38
557.921	122.38
558.134	107.38
558.346	115.38
558.559	114.38
558.771	120.38
558.984	121.38
559.196	116.38
559.409	120.38
559.621	115.38
559.833	115.38
560.046	124.38
560.258	125.38
560.47	123.38
560.683	127.38
560.895	129.38
561.107	113.38
561.32	124.38
561.532	120.38
561.744	123.38
561.956	119.38
562.168	115.38
562.381	100.38
562.593	113.38
562.805	124.38
563.017	117.38
563.229	122.38
563.441	118.38
563.653	107.38
563.865	107.38
564.077	114.38
564.289	116.38
564.501	115.38
564.713	107.38
564.925	118.38
565.137	117.38
565.349	127.38
565.561	135.38
565.773	120.38
565.985	112.38
566.197	122.38
566.408	138.38
566.62	133.38
566.832	124.38
567.044	142.38
567.255	115.38
567.467	148.38
567.679	132.38
567.891	138.38
568.102	151.38
568.314	143.38
568.526	125.38
568.737	122.38
568.949	122.38
569.161	115.38
569.372	119.38
569.584	120.38
569.795	115.38
570.007	126.38
570.218	133.38
570.43	120.38
570.641	128.38
570.853	112.38
571.064	117.38
571.276	108.38
571.487	120.38
571.698	120.38
571.91	120.38
572.121	106.38
572.333	128.38
572.544	114.38
572.755	108.38
572.966	109.38
573.178	108.38
573.389	102.38
573.6	95.38
573.811	109.38
574.023	125.38
574.234	123.38
574.445	121.38
574.656	99.38
574.867	104.38
575.078	111.38
575.289	117.38
575.501	115.38
575.712	103.38
575.923	125.38
576.134	123.38
576.345	124.38
576.556	107.38
576.767	120.38
576.978	122.38
577.188	110.38
577.399	117.38
577.61	108.38
577.821	110.38
578.032	103.38
578.243	114.38
578.454	129.38
578.665	128.38
578.875	116.38
579.086	103.38
579.297	105.38
579.508	121.38
579.718	104.38
579.929	106.38
580.14	110.38
580.35	101.38
580.561	116.38
580.772	106.38
580.982	102.38
581.193	92.38
581.403	106.38
581.614	101.38
581.825	114.38
582.035	104.38
582.246	107.38
582.456	108.38
582.667	118.38
582.877	97.38
583.087	103.38
583.298	95.38
583.508	102.38
583.719	107.38
583.929	111.38
584.139	102.38
584.35	113.38
584.56	96.38
584.77	125.38
584.981	100.38
585.191	106.38
585.401	88.38
585.611	125.38
585.821	109.38
586.032	104.38
586.242	108.38
586.452	93.38
586.662	92.38
586.872	126.38
587.082	103.38
587.292	95.38
587.502	119.38
587.713	108.38
587.923	109.38
588.133	100.38
588.343	102.38
588.553	93.38
588.762	99.38
588.972	118.38
589.182	107.38
589.392	99.38
589.602	114.38
589.812	125.38
590.022	110.38
590.232	114.38
590.441	110.38
590.651	104.38
590.861	97.38
591.071	103.38
591.281	106.38
591.49	108.38
591.7	101.38
591.91	116.38
592.119	125.38
592.329	110.38
592.539	93.38
592.748	103.38
592.958	119.38
593.167	117.38
593.377	115.38
593.587	123.38
593.796	106.38
594.006	114.38
594.215	108.38
594.424	126.38
594.634	115.38
594.843	105.38
595.053	114.38
595.262	102.38
595.472	108.38
595.681	103.38
595.89	93.38
596.1	115.38
596.309	126.38
596.518	114.38
596.727	109.38
596.937	113.38
597.146	122.38
597.355	96.38
597.564	107.38
597.774	123.38
597.983	98.38
598.192	106.38
598.401	106.38
598.61	116.38
598.819	106.38
599.028	93.38
599.237	103.38
599.446	112.38
599.655	120.38
599.864	104.38
600.073	111.38
600.282	111.38
600.491	95.38
600.7	106.38
600.909	98.38
601.118	110.38
601.327	117.38
601.536	111.38
601.745	94.38
601.953	110.38
602.162	84.38
602.371	100.38
602.58	83.38
602.789	105.38
602.997	105.38
603.206	117.38
603.415	106.38
603.623	120.38
603.832	101.38
604.041	108.38
604.249	104.38
604.458	98.38
604.666	98.38
604.875	110.38
605.084	125.38
605.292	91.38
605.501	100.38
605.709	110.38
605.918	118.38
606.126	120.38
606.334	108.38
606.543	118.38
606.751	94.38
606.96	92.38
607.168	91.38
607.376	109.38
607.585	99.38
607.793	111.38
608.001	90.38
608.21	99.38
608.418	114.38
608.626	100.38
608.834	107.38
609.043	102.38
609.251	98.38
609.459	100.38
609.667	109.38
609.875	98.38
610.083	87.38
610.291	100.38
610.499	88.38
610.707	111.38
610.916	103.38
611.124	110.38
611.332	108.38
611.54	107.38
611.748	110.38
611.955	93.38
612.163	117.38
612.371	105.38
612.579	116.38
612.787	105.38
612.995	118.38
613.203	132.38
613.411	99.38
613.618	113.38
613.826	108.38
614.034	124.38
614.242	105.38
614.449	103.38
614.657	97.38
614.865	99.38
615.072	95.38
615.28	110.38
615.488	105.38
615.695	100.38
615.903	94.38
616.111	101.38
616.318	119.38
616.526	99.38
616.733	104.38
616.941	92.38
617.148	103.38
617.356	93.38
617.563	102.38
617.771	97.38
617.978	101.38
618.185	103.38
618.393	117.38
618.6	91.38
618.807	98.38
619.015	98.38
619.222	98.38
619.429	123.38
619.637	98.38
619.844	104.38
620.051	87.38
620.258	96.38
620.466	115.38
620.673	88.38
620.88	93.38
621.087	101.38
621.294	84.38
621.501	102.38
621.708	103.38
621.915	99.38
622.122	110.38
622.329	100.38
622.536	109.38
622.743	110.38
622.95	92.38
623.157	95.38
623.364	89.38
623.571	102.38
623.778	100.38
623.985	122.38
624.192	116.38
624.399	103.38
624.606	123.38
624.812	111.38
625.019	90.38
625.226	97.38
625.433	110.38
625.639	94.38
625.846	103.38
626.053	94.38
626.259	98.38
626.466	105.38
626.673	90.38
626.879	96.38
627.086	104.38
627.293	93.38
627.499	96.38
627.706	111.38
627.912	101.38
628.119	99.38
628.325	105.38
628.532	115.38
628.738	108.38
628.945	103.38
629.151	100.38
629.357	85.38
629.564	110.38
629.77	98.38
629.976	104.38
630.183	92.38
630.389	95.38
630.595	93.38
630.802	99.38
631.008	93.38
631.214	99.38
631.42	108.38
631.627	101.38
631.833	103.38
632.039	102.38
632.245	118.38
632.451	94.38
632.657	86.38
632.863	90.38
633.069	100.38
633.275	102.38
633.481	105.38
633.688	90.38
633.893	115.38
634.099	107.38
634.305	99.38
634.511	94.38
634.717	98.38
634.923	91.38
635.129	85.38
635.335	101.38
635.541	97.38
635.747	100.38
635.952	89.38
636.158	87.38
636.364	115.38
636.57	96.38
636.775	96.38
636.981	89.38
637.187	93.38
637.392	95.38
637.598	100.38
637.804	96.38
638.009	86.38
638.215	83.38
638.421	98.38
638.626	100.38
638.832	80.38
639.037	71.38
639.243	89.38
639.448	102.38
639.654	113.38
639.859	103.38
640.065	90.38
640.27	102.38
640.475	85.38
640.681	94.38
640.886	90.38
641.091	92.38
641.297	96.38
641.502	99.38
641.707	103.38
641.913	93.38
642.118	102.38
642.323	100.38
642.528	89.38
642.733	93.38
642.939	96.38
643.144	94.38
643.349	94.38
643.554	93.38
643.759	95.38
643.964	111.38
644.169	112.38
644.374	88.38
644.579	107.38
644.784	88.38
644.989	92.38
645.194	95.38
645.399	109.38
645.604	97.38
645.809	100.38
646.014	93.38
646.219	100.38
646.423	108.38
646.628	95.38
646.833	103.38
647.038	99.38
647.243	79.38
647.447	104.38
647.652	83.38
647.857	113.38
648.062	91.38
648.266	104.38
648.471	99.38
648.676	87.38
648.88	98.38
649.085	89.38
649.289	106.38
649.494	94.38
649.698	93.38
649.903	81.38
650.107	92.38
650.312	98.38
650.516	90.38
650.721	92.38
650.925	101.38
651.13	90.38
651.334	108.38
651.539	98.38
651.743	90.38
651.947	95.38
652.152	95.38
652.356	104.38
652.56	90.38
652.764	84.38
652.969	80.38
653.173	80.38
653.377	79.38
653.581	88.38
653.785	95.38
653.99	100.38
654.194	91.38
654.398	99.38
654.602	86.38
654.806	87.38
655.01	85.38
655.214	91.38
655.418	83.38
655.622	76.38
655.826	93.38
656.03	90.38
656.234	84.38
656.438	95.38
656.642	91.38
656.846	91.38
657.049	96.38
657.253	103.38
657.457	87.38
657.661	78.38
657.865	88.38
658.068	86.38
658.272	76.38
658.476	88.38
658.68	87.38
658.883	74.38
659.087	75.38
659.291	72.38
659.494	74.38
659.698	90.38
659.901	83.38
660.105	75.38
660.309	76.38
660.512	86.38
660.716	72.38
660.919	71.38
661.123	93.38
661.326	90.38
661.53	61.38
661.733	75.38
661.936	72.38
662.14	93.38
662.343	86.38
662.546	58.38
662.75	81.38
662.953	79.38
663.156	67.38
663.36	82.38
663.563	86.38
663.766	72.38
663.969	86.38
664.173	86.38
664.376	102.38
664.579	104.38
664.782	77.38
664.985	78.38
665.188	73.38
665.391	80.38
665.594	81.38
665.797	89.38
666	73.38
666.203	91.38
666.406	79.38
666.609	93.38
666.812	88.38
667.015	87.38
667.218	70.38
667.421	90.38
667.624	78.38
667.827	79.38
668.03	66.38
668.232	80.38
668.435	79.38
668.638	81.38
668.841	90.38
669.043	85.38
669.246	87.38
669.449	81.38
669.651	77.38
669.854	71.38
670.057	76.38
670.259	81.38
670.462	89.38
670.665	73.38
670.867	84.38
671.07	77.38
671.272	78.38
671.475	87.38
671.677	84.38
671.88	87.38
672.082	83.38
672.284	86.38
672.487	86.38
672.689	96.38
672.892	79.38
