Data from 1968.PennyLincolnUp.Lamp.En5.5.200Scan.071719.P1._HRD10591_14-49-47-969.txt Node
Date: Thu Jul 18 14:49:47 EDT 2019
User: cochatt
Spectrometer: HR+D1059
Trigger mode: 1
Integration Time (sec): 1.000000E-1
Scans to average: 1
Electric dark correction enabled: true
Nonlinearity correction enabled: false
Boxcar width: 0
XAxis mode: Wavelengths
Number of Pixels in Spectrum: 2048
>>>>>Begin Spectral Data<<<<<
223.165	-5.31
223.4	-5.31
223.635	-5.31
223.869	-26.31
224.104	-13.31
224.338	-7.31
224.573	-22.31
224.808	-11.31
225.042	-17.31
225.277	2.69
225.511	-5.31
225.746	14.69
225.98	-1.31
226.215	12.69
226.449	21.69
226.683	1.69
226.918	28.69
227.152	27.69
227.387	26.69
227.621	46.69
227.856	40.69
228.09	53.69
228.324	61.69
228.559	67.69
228.793	54.69
229.027	57.69
229.262	77.69
229.496	78.69
229.73	69.69
229.964	84.69
230.199	69.69
230.433	63.69
230.667	77.69
230.901	91.69
231.136	80.69
231.37	92.69
231.604	76.69
231.838	93.69
232.072	90.69
232.306	86.69
232.541	92.69
232.775	73.69
233.009	105.69
233.243	88.69
233.477	90.69
233.711	83.69
233.945	86.69
234.179	93.69
234.413	88.69
234.647	85.69
234.881	86.69
235.115	86.69
235.349	92.69
235.583	74.69
235.817	74.69
236.051	77.69
236.285	83.69
236.519	89.69
236.753	92.69
236.987	85.69
237.221	76.69
237.455	80.69
237.689	89.69
237.922	68.69
238.156	84.69
238.39	60.69
238.624	80.69
238.858	85.69
239.091	73.69
239.325	66.69
239.559	84.69
239.793	83.69
240.027	89.69
240.26	76.69
240.494	88.69
240.728	89.69
240.961	75.69
241.195	93.69
241.429	84.69
241.662	77.69
241.896	86.69
242.13	84.69
242.363	77.69
242.597	87.69
242.83	75.69
243.064	61.69
243.298	82.69
243.531	80.69
243.765	79.69
243.998	86.69
244.232	86.69
244.465	84.69
244.699	82.69
244.932	78.69
245.166	79.69
245.399	89.69
245.633	94.69
245.866	81.69
246.099	86.69
246.333	100.69
246.566	74.69
246.8	86.69
247.033	90.69
247.266	96.69
247.5	81.69
247.733	78.69
247.966	72.69
248.2	99.69
248.433	83.69
248.666	94.69
248.899	91.69
249.133	83.69
249.366	92.69
249.599	84.69
249.832	84.69
250.066	95.69
250.299	82.69
250.532	68.69
250.765	99.69
250.998	86.69
251.231	92.69
251.465	75.69
251.698	82.69
251.931	76.69
252.164	77.69
252.397	91.69
252.63	84.69
252.863	85.69
253.096	79.69
253.329	97.69
253.562	100.69
253.795	84.69
254.028	84.69
254.261	99.69
254.494	89.69
254.727	100.69
254.96	86.69
255.193	91.69
255.426	92.69
255.659	89.69
255.892	96.69
256.124	77.69
256.357	80.69
256.59	89.69
256.823	96.69
257.056	86.69
257.289	90.69
257.521	85.69
257.754	92.69
257.987	94.69
258.22	101.69
258.452	99.69
258.685	85.69
258.918	81.69
259.151	82.69
259.383	85.69
259.616	96.69
259.849	94.69
260.081	91.69
260.314	96.69
260.547	93.69
260.779	86.69
261.012	103.69
261.244	86.69
261.477	90.69
261.71	81.69
261.942	89.69
262.175	86.69
262.407	87.69
262.64	98.69
262.872	98.69
263.105	88.69
263.337	86.69
263.57	106.69
263.802	83.69
264.035	73.69
264.267	76.69
264.499	83.69
264.732	99.69
264.964	99.69
265.197	93.69
265.429	77.69
265.661	86.69
265.894	97.69
266.126	86.69
266.358	84.69
266.591	103.69
266.823	90.69
267.055	98.69
267.287	92.69
267.52	99.69
267.752	93.69
267.984	87.69
268.216	91.69
268.448	88.69
268.681	85.69
268.913	81.69
269.145	86.69
269.377	90.69
269.609	100.69
269.841	77.69
270.073	96.69
270.306	87.69
270.538	94.69
270.77	96.69
271.002	98.69
271.234	101.69
271.466	102.69
271.698	90.69
271.93	108.69
272.162	108.69
272.394	103.69
272.626	88.69
272.858	109.69
273.09	78.69
273.322	90.69
273.553	90.69
273.785	88.69
274.017	86.69
274.249	100.69
274.481	85.69
274.713	97.69
274.945	105.69
275.176	90.69
275.408	82.69
275.64	106.69
275.872	96.69
276.104	91.69
276.335	104.69
276.567	102.69
276.799	107.69
277.031	83.69
277.262	105.69
277.494	98.69
277.726	102.69
277.957	95.69
278.189	99.69
278.421	109.69
278.652	102.69
278.884	100.69
279.115	106.69
279.347	88.69
279.579	87.69
279.81	93.69
280.042	101.69
280.273	89.69
280.505	91.69
280.736	97.69
280.968	100.69
281.199	87.69
281.431	96.69
281.662	107.69
281.894	97.69
282.125	91.69
282.356	101.69
282.588	103.69
282.819	98.69
283.051	99.69
283.282	98.69
283.513	96.69
283.745	97.69
283.976	87.69
284.207	88.69
284.439	98.69
284.67	92.69
284.901	81.69
285.132	100.69
285.364	104.69
285.595	88.69
285.826	95.69
286.057	98.69
286.288	98.69
286.52	95.69
286.751	98.69
286.982	101.69
287.213	94.69
287.444	109.69
287.675	82.69
287.906	100.69
288.138	99.69
288.369	92.69
288.6	103.69
288.831	92.69
289.062	96.69
289.293	101.69
289.524	92.69
289.755	99.69
289.986	103.69
290.217	105.69
290.448	107.69
290.679	89.69
290.91	92.69
291.141	96.69
291.371	101.69
291.602	99.69
291.833	99.69
292.064	103.69
292.295	97.69
292.526	99.69
292.757	107.69
292.987	100.69
293.218	108.69
293.449	97.69
293.68	89.69
293.91	90.69
294.141	101.69
294.372	78.69
294.603	101.69
294.833	94.69
295.064	100.69
295.295	97.69
295.525	98.69
295.756	102.69
295.987	111.69
296.217	98.69
296.448	108.69
296.679	102.69
296.909	101.69
297.14	103.69
297.37	112.69
297.601	95.69
297.831	92.69
298.062	90.69
298.292	106.69
298.523	105.69
298.753	96.69
298.984	106.69
299.214	102.69
299.445	107.69
299.675	107.69
299.905	102.69
300.136	102.69
300.366	89.69
300.597	92.69
300.827	109.69
301.057	114.69
301.288	88.69
301.518	106.69
301.748	91.69
301.979	102.69
302.209	89.69
302.439	101.69
302.669	109.69
302.9	105.69
303.13	116.69
303.36	109.69
303.59	105.69
303.82	99.69
304.051	100.69
304.281	98.69
304.511	100.69
304.741	93.69
304.971	106.69
305.201	92.69
305.431	94.69
305.661	103.69
305.891	101.69
306.121	93.69
306.352	84.69
306.582	94.69
306.812	101.69
307.042	106.69
307.272	105.69
307.502	93.69
307.731	108.69
307.961	102.69
308.191	97.69
308.421	88.69
308.651	100.69
308.881	102.69
309.111	103.69
309.341	100.69
309.571	111.69
309.8	112.69
310.03	104.69
310.26	96.69
310.49	114.69
310.72	99.69
310.949	102.69
311.179	102.69
311.409	97.69
311.639	96.69
311.868	105.69
312.098	110.69
312.328	103.69
312.557	97.69
312.787	106.69
313.017	107.69
313.246	101.69
313.476	95.69
313.706	100.69
313.935	90.69
314.165	105.69
314.394	88.69
314.624	99.69
314.853	116.69
315.083	99.69
315.312	116.69
315.542	100.69
315.771	97.69
316.001	114.69
316.23	101.69
316.46	122.69
316.689	99.69
316.919	106.69
317.148	102.69
317.377	108.69
317.607	117.69
317.836	100.69
318.065	120.69
318.295	91.69
318.524	98.69
318.753	95.69
318.983	105.69
319.212	97.69
319.441	94.69
319.67	106.69
319.9	108.69
320.129	110.69
320.358	107.69
320.587	109.69
320.816	97.69
321.046	96.69
321.275	88.69
321.504	110.69
321.733	110.69
321.962	118.69
322.191	93.69
322.42	116.69
322.649	101.69
322.878	125.69
323.108	112.69
323.337	116.69
323.566	112.69
323.795	120.69
324.024	108.69
324.253	114.69
324.482	131.69
324.71	163.69
324.939	169.69
325.168	162.69
325.397	114.69
325.626	92.69
325.855	121.69
326.084	100.69
326.313	122.69
326.542	114.69
326.77	122.69
326.999	110.69
327.228	121.69
327.457	153.69
327.686	146.69
327.914	126.69
328.143	106.69
328.372	118.69
328.6	104.69
328.829	122.69
329.058	103.69
329.287	125.69
329.515	126.69
329.744	95.69
329.972	114.69
330.201	103.69
330.43	110.69
330.658	121.69
330.887	119.69
331.115	106.69
331.344	105.69
331.572	115.69
331.801	117.69
332.03	100.69
332.258	112.69
332.486	116.69
332.715	102.69
332.943	116.69
333.172	120.69
333.4	122.69
333.629	117.69
333.857	108.69
334.085	110.69
334.314	110.69
334.542	129.69
334.771	122.69
334.999	112.69
335.227	105.69
335.455	128.69
335.684	126.69
335.912	132.69
336.14	118.69
336.369	118.69
336.597	113.69
336.825	126.69
337.053	128.69
337.281	100.69
337.51	109.69
337.738	112.69
337.966	112.69
338.194	100.69
338.422	116.69
338.65	114.69
338.878	102.69
339.106	97.69
339.334	123.69
339.562	107.69
339.79	114.69
340.018	116.69
340.246	106.69
340.474	104.69
340.702	99.69
340.93	106.69
341.158	122.69
341.386	103.69
341.614	100.69
341.842	100.69
342.07	94.69
342.298	109.69
342.526	114.69
342.754	114.69
342.981	117.69
343.209	104.69
343.437	120.69
343.665	98.69
343.893	112.69
344.12	124.69
344.348	102.69
344.576	119.69
344.804	105.69
345.031	120.69
345.259	108.69
345.487	116.69
345.714	101.69
345.942	111.69
346.17	122.69
346.397	120.69
346.625	93.69
346.853	106.69
347.08	96.69
347.308	97.69
347.535	95.69
347.763	102.69
347.99	117.69
348.218	109.69
348.445	98.69
348.673	119.69
348.9	110.69
349.128	114.69
349.355	119.69
349.583	98.69
349.81	102.69
350.037	104.69
350.265	113.69
350.492	108.69
350.72	112.69
350.947	97.69
351.174	121.69
351.402	112.69
351.629	116.69
351.856	132.69
352.083	108.69
352.311	104.69
352.538	105.69
352.765	121.69
352.992	103.69
353.22	107.69
353.447	99.69
353.674	105.69
353.901	105.69
354.128	114.69
354.355	110.69
354.583	113.69
354.81	110.69
355.037	124.69
355.264	108.69
355.491	104.69
355.718	115.69
355.945	109.69
356.172	92.69
356.399	94.69
356.626	115.69
356.853	102.69
357.08	109.69
357.307	102.69
357.534	118.69
357.761	99.69
357.988	98.69
358.215	104.69
358.441	109.69
358.668	113.69
358.895	104.69
359.122	93.69
359.349	105.69
359.576	100.69
359.802	106.69
360.029	114.69
360.256	117.69
360.483	116.69
360.709	106.69
360.936	118.69
361.163	120.69
361.39	117.69
361.616	100.69
361.843	118.69
362.07	121.69
362.296	102.69
362.523	111.69
362.749	109.69
362.976	120.69
363.203	96.69
363.429	99.69
363.656	108.69
363.882	109.69
364.109	102.69
364.335	101.69
364.562	99.69
364.788	109.69
365.015	114.69
365.241	101.69
365.468	98.69
365.694	102.69
365.92	106.69
366.147	113.69
366.373	96.69
366.599	114.69
366.826	113.69
367.052	113.69
367.278	101.69
367.505	113.69
367.731	99.69
367.957	104.69
368.184	104.69
368.41	113.69
368.636	118.69
368.862	101.69
369.089	113.69
369.315	105.69
369.541	107.69
369.767	104.69
369.993	105.69
370.219	87.69
370.445	90.69
370.672	95.69
370.898	107.69
371.124	113.69
371.35	122.69
371.576	112.69
371.802	113.69
372.028	108.69
372.254	91.69
372.48	103.69
372.706	116.69
372.932	116.69
373.158	120.69
373.384	115.69
373.61	117.69
373.835	109.69
374.061	105.69
374.287	113.69
374.513	98.69
374.739	103.69
374.965	109.69
375.191	121.69
375.416	98.69
375.642	117.69
375.868	114.69
376.094	123.69
376.319	114.69
376.545	111.69
376.771	104.69
376.997	100.69
377.222	115.69
377.448	106.69
377.674	119.69
377.899	115.69
378.125	117.69
378.35	117.69
378.576	105.69
378.802	115.69
379.027	113.69
379.253	101.69
379.478	95.69
379.704	108.69
379.929	108.69
380.155	112.69
380.38	128.69
380.606	117.69
380.831	106.69
381.057	118.69
381.282	116.69
381.507	111.69
381.733	123.69
381.958	88.69
382.184	102.69
382.409	118.69
382.634	108.69
382.86	103.69
383.085	106.69
383.31	117.69
383.535	118.69
383.761	100.69
383.986	103.69
384.211	109.69
384.436	122.69
384.662	105.69
384.887	117.69
385.112	119.69
385.337	126.69
385.562	129.69
385.787	112.69
386.013	125.69
386.238	130.69
386.463	123.69
386.688	113.69
386.913	114.69
387.138	109.69
387.363	114.69
387.588	120.69
387.813	119.69
388.038	127.69
388.263	112.69
388.488	102.69
388.713	104.69
388.938	107.69
389.163	122.69
389.387	115.69
389.612	113.69
389.837	123.69
390.062	112.69
390.287	117.69
390.512	119.69
390.736	121.69
390.961	125.69
391.186	120.69
391.411	122.69
391.636	119.69
391.86	126.69
392.085	125.69
392.31	118.69
392.534	107.69
392.759	116.69
392.984	117.69
393.208	114.69
393.433	124.69
393.658	128.69
393.882	117.69
394.107	109.69
394.331	132.69
394.556	112.69
394.78	118.69
395.005	113.69
395.229	117.69
395.454	114.69
395.678	131.69
395.903	138.69
396.127	120.69
396.352	122.69
396.576	115.69
396.801	105.69
397.025	110.69
397.249	125.69
397.474	127.69
397.698	124.69
397.922	128.69
398.147	123.69
398.371	138.69
398.595	119.69
398.82	114.69
399.044	134.69
399.268	154.69
399.492	132.69
399.717	150.69
399.941	123.69
400.165	134.69
400.389	125.69
400.613	131.69
400.837	138.69
401.062	114.69
401.286	118.69
401.51	138.69
401.734	132.69
401.958	119.69
402.182	121.69
402.406	134.69
402.63	124.69
402.854	126.69
403.078	140.69
403.302	138.69
403.526	133.69
403.75	131.69
403.974	132.69
404.198	129.69
404.422	129.69
404.645	115.69
404.869	119.69
405.093	133.69
405.317	129.69
405.541	131.69
405.765	119.69
405.988	131.69
406.212	125.69
406.436	124.69
406.66	144.69
406.883	121.69
407.107	133.69
407.331	129.69
407.555	142.69
407.778	151.69
408.002	143.69
408.226	142.69
408.449	146.69
408.673	124.69
408.896	128.69
409.12	138.69
409.344	149.69
409.567	133.69
409.791	148.69
410.014	144.69
410.238	134.69
410.461	140.69
410.685	132.69
410.908	125.69
411.132	147.69
411.355	137.69
411.578	139.69
411.802	128.69
412.025	124.69
412.249	121.69
412.472	136.69
412.695	126.69
412.919	123.69
413.142	122.69
413.365	120.69
413.589	124.69
413.812	141.69
414.035	133.69
414.258	144.69
414.482	139.69
414.705	128.69
414.928	120.69
415.151	148.69
415.374	130.69
415.597	125.69
415.821	126.69
416.044	133.69
416.267	126.69
416.49	124.69
416.713	120.69
416.936	125.69
417.159	124.69
417.382	138.69
417.605	130.69
417.828	131.69
418.051	137.69
418.274	135.69
418.497	131.69
418.72	108.69
418.943	145.69
419.166	129.69
419.389	140.69
419.611	133.69
419.834	133.69
420.057	142.69
420.28	131.69
420.503	120.69
420.726	128.69
420.948	117.69
421.171	130.69
421.394	125.69
421.617	134.69
421.839	136.69
422.062	132.69
422.285	116.69
422.507	135.69
422.73	132.69
422.953	129.69
423.175	124.69
423.398	132.69
423.621	138.69
423.843	132.69
424.066	141.69
424.288	123.69
424.511	128.69
424.733	123.69
424.956	130.69
425.178	133.69
425.401	121.69
425.623	124.69
425.846	126.69
426.068	127.69
426.291	128.69
426.513	141.69
426.735	132.69
426.958	132.69
427.18	123.69
427.402	146.69
427.625	140.69
427.847	135.69
428.069	133.69
428.292	126.69
428.514	130.69
428.736	115.69
428.958	120.69
429.181	110.69
429.403	130.69
429.625	128.69
429.847	116.69
430.069	128.69
430.292	132.69
430.514	130.69
430.736	116.69
430.958	132.69
431.18	120.69
431.402	116.69
431.624	134.69
431.846	122.69
432.068	120.69
432.29	132.69
432.512	117.69
432.734	118.69
432.956	132.69
433.178	125.69
433.4	130.69
433.622	117.69
433.844	125.69
434.066	127.69
434.287	119.69
434.509	107.69
434.731	106.69
434.953	120.69
435.175	125.69
435.397	130.69
435.618	128.69
435.84	144.69
436.062	141.69
436.284	150.69
436.505	118.69
436.727	134.69
436.949	121.69
437.17	117.69
437.392	116.69
437.614	132.69
437.835	124.69
438.057	138.69
438.278	139.69
438.5	126.69
438.721	137.69
438.943	132.69
439.165	125.69
439.386	127.69
439.608	110.69
439.829	124.69
440.05	114.69
440.272	140.69
440.493	128.69
440.715	129.69
440.936	125.69
441.158	119.69
441.379	140.69
441.6	124.69
441.822	130.69
442.043	116.69
442.264	141.69
442.486	144.69
442.707	130.69
442.928	135.69
443.149	120.69
443.371	136.69
443.592	129.69
443.813	142.69
444.034	136.69
444.255	141.69
444.476	133.69
444.698	126.69
444.919	132.69
445.14	260.69
445.361	185.69
445.582	138.69
445.803	125.69
446.024	130.69
446.245	146.69
446.466	132.69
446.687	132.69
446.908	116.69
447.129	132.69
447.35	117.69
447.571	114.69
447.792	134.69
448.013	124.69
448.234	124.69
448.455	136.69
448.675	128.69
448.896	128.69
449.117	125.69
449.338	125.69
449.559	145.69
449.779	132.69
450	122.69
450.221	126.69
450.442	121.69
450.662	120.69
450.883	124.69
451.104	123.69
451.324	125.69
451.545	122.69
451.766	122.69
451.986	116.69
452.207	136.69
452.428	112.69
452.648	120.69
452.869	130.69
453.089	116.69
453.31	121.69
453.53	128.69
453.751	123.69
453.971	103.69
454.192	108.69
454.412	112.69
454.633	136.69
454.853	91.69
455.073	114.69
455.294	113.69
455.514	106.69
455.734	122.69
455.955	122.69
456.175	123.69
456.395	122.69
456.616	113.69
456.836	120.69
457.056	113.69
457.276	109.69
457.497	109.69
457.717	121.69
457.937	130.69
458.157	109.69
458.377	118.69
458.598	114.69
458.818	109.69
459.038	121.69
459.258	121.69
459.478	111.69
459.698	122.69
459.918	125.69
460.138	130.69
460.358	134.69
460.578	124.69
460.798	127.69
461.018	126.69
461.238	131.69
461.458	131.69
461.678	133.69
461.898	132.69
462.118	126.69
462.338	126.69
462.558	137.69
462.777	132.69
462.997	150.69
463.217	128.69
463.437	130.69
463.657	136.69
463.876	132.69
464.096	123.69
464.316	135.69
464.536	141.69
464.755	127.69
464.975	121.69
465.195	140.69
465.414	136.69
465.634	121.69
465.854	123.69
466.073	132.69
466.293	109.69
466.512	136.69
466.732	122.69
466.951	129.69
467.171	120.69
467.391	114.69
467.61	110.69
467.829	108.69
468.049	126.69
468.268	125.69
468.488	123.69
468.707	124.69
468.927	118.69
469.146	131.69
469.365	122.69
469.585	141.69
469.804	120.69
470.023	120.69
470.243	129.69
470.462	124.69
470.681	120.69
470.901	120.69
471.12	122.69
471.339	141.69
471.558	140.69
471.777	130.69
471.997	120.69
472.216	131.69
472.435	116.69
472.654	124.69
472.873	115.69
473.092	125.69
473.311	118.69
473.53	118.69
473.749	119.69
473.968	120.69
474.187	133.69
474.406	117.69
474.625	131.69
474.844	123.69
475.063	122.69
475.282	124.69
475.501	109.69
475.72	117.69
475.939	128.69
476.158	123.69
476.377	114.69
476.596	117.69
476.814	134.69
477.033	102.69
477.252	121.69
477.471	132.69
477.69	120.69
477.908	122.69
478.127	128.69
478.346	121.69
478.564	138.69
478.783	125.69
479.002	137.69
479.22	117.69
479.439	120.69
479.658	124.69
479.876	117.69
480.095	136.69
480.313	133.69
480.532	138.69
480.751	131.69
480.969	135.69
481.188	119.69
481.406	136.69
481.624	131.69
481.843	132.69
482.061	124.69
482.28	132.69
482.498	122.69
482.717	135.69
482.935	130.69
483.153	121.69
483.372	126.69
483.59	134.69
483.808	126.69
484.027	127.69
484.245	138.69
484.463	131.69
484.681	126.69
484.9	132.69
485.118	125.69
485.336	120.69
485.554	116.69
485.772	124.69
485.99	132.69
486.209	123.69
486.427	125.69
486.645	130.69
486.863	117.69
487.081	136.69
487.299	142.69
487.517	122.69
487.735	124.69
487.953	133.69
488.171	130.69
488.389	143.69
488.607	128.69
488.825	120.69
489.043	147.69
489.261	125.69
489.479	136.69
489.696	130.69
489.914	133.69
490.132	135.69
490.35	136.69
490.568	130.69
490.786	127.69
491.003	140.69
491.221	146.69
491.439	134.69
491.657	136.69
491.874	147.69
492.092	151.69
492.31	138.69
492.527	128.69
492.745	129.69
492.963	141.69
493.18	156.69
493.398	140.69
493.615	133.69
493.833	126.69
494.05	150.69
494.268	136.69
494.485	148.69
494.703	133.69
494.92	132.69
495.138	150.69
495.355	150.69
495.573	129.69
495.79	132.69
496.008	147.69
496.225	135.69
496.442	147.69
496.66	141.69
496.877	149.69
497.094	154.69
497.312	131.69
497.529	140.69
497.746	157.69
497.963	151.69
498.181	155.69
498.398	156.69
498.615	158.69
498.832	157.69
499.049	166.69
499.267	182.69
499.484	170.69
499.701	168.69
499.918	188.69
500.135	189.69
500.352	196.69
500.569	194.69
500.786	222.69
501.003	210.69
501.22	197.69
501.437	187.69
501.654	172.69
501.871	183.69
502.088	175.69
502.305	150.69
502.522	156.69
502.739	160.69
502.956	150.69
503.172	141.69
503.389	139.69
503.606	154.69
503.823	136.69
504.04	141.69
504.256	149.69
504.473	139.69
504.69	142.69
504.907	148.69
505.123	136.69
505.34	133.69
505.557	138.69
505.773	140.69
505.99	130.69
506.207	138.69
506.423	140.69
506.64	126.69
506.856	126.69
507.073	131.69
507.289	133.69
507.506	149.69
507.722	135.69
507.939	137.69
508.155	134.69
508.372	134.69
508.588	131.69
508.805	126.69
509.021	125.69
509.238	123.69
509.454	132.69
509.67	135.69
509.887	128.69
510.103	132.69
510.319	123.69
510.536	131.69
510.752	139.69
510.968	147.69
511.184	121.69
511.401	109.69
511.617	123.69
511.833	125.69
512.049	133.69
512.265	127.69
512.481	116.69
512.698	123.69
512.914	140.69
513.13	136.69
513.346	115.69
513.562	106.69
513.778	120.69
513.994	132.69
514.21	124.69
514.426	119.69
514.642	125.69
514.858	126.69
515.074	130.69
515.29	141.69
515.506	159.69
515.721	138.69
515.937	130.69
516.153	131.69
516.369	117.69
516.585	125.69
516.801	138.69
517.016	127.69
517.232	126.69
517.448	122.69
517.664	126.69
517.879	137.69
518.095	147.69
518.311	138.69
518.527	128.69
518.742	139.69
518.958	143.69
519.173	125.69
519.389	132.69
519.605	128.69
519.82	132.69
520.036	131.69
520.251	130.69
520.467	128.69
520.682	132.69
520.898	136.69
521.113	128.69
521.329	132.69
521.544	122.69
521.76	150.69
521.975	173.69
522.19	176.69
522.406	134.69
522.621	135.69
522.836	109.69
523.052	131.69
523.267	134.69
523.482	127.69
523.698	120.69
523.913	116.69
524.128	128.69
524.343	132.69
524.559	130.69
524.774	120.69
524.989	129.69
525.204	140.69
525.419	124.69
525.634	126.69
525.849	132.69
526.064	105.69
526.28	121.69
526.495	127.69
526.71	116.69
526.925	117.69
527.14	128.69
527.355	116.69
527.57	135.69
527.785	120.69
527.999	115.69
528.214	141.69
528.429	118.69
528.644	133.69
528.859	120.69
529.074	122.69
529.289	114.69
529.503	132.69
529.718	132.69
529.933	118.69
530.148	123.69
530.363	122.69
530.577	122.69
530.792	114.69
531.007	119.69
531.221	122.69
531.436	130.69
531.651	123.69
531.865	127.69
532.08	116.69
532.295	122.69
532.509	126.69
532.724	118.69
532.938	118.69
533.153	115.69
533.367	122.69
533.582	120.69
533.796	122.69
534.011	126.69
534.225	118.69
534.44	121.69
534.654	125.69
534.868	122.69
535.083	125.69
535.297	115.69
535.511	116.69
535.726	128.69
535.94	107.69
536.154	118.69
536.369	118.69
536.583	125.69
536.797	118.69
537.011	116.69
537.225	126.69
537.44	122.69
537.654	109.69
537.868	123.69
538.082	128.69
538.296	129.69
538.51	129.69
538.724	136.69
538.938	124.69
539.153	128.69
539.367	118.69
539.581	117.69
539.795	115.69
540.009	128.69
540.222	128.69
540.436	119.69
540.65	117.69
540.864	125.69
541.078	127.69
541.292	115.69
541.506	124.69
541.72	132.69
541.934	121.69
542.147	123.69
542.361	129.69
542.575	132.69
542.789	128.69
543.002	134.69
543.216	136.69
543.43	120.69
543.644	135.69
543.857	133.69
544.071	134.69
544.285	135.69
544.498	130.69
544.712	142.69
544.925	140.69
545.139	131.69
545.352	135.69
545.566	122.69
545.779	132.69
545.993	137.69
546.206	140.69
546.42	141.69
546.633	133.69
546.847	129.69
547.06	137.69
547.274	139.69
547.487	129.69
547.7	120.69
547.914	128.69
548.127	144.69
548.34	136.69
548.554	123.69
548.767	138.69
548.98	124.69
549.193	139.69
549.407	128.69
549.62	122.69
549.833	121.69
550.046	117.69
550.259	131.69
550.473	140.69
550.686	133.69
550.899	119.69
551.112	130.69
551.325	114.69
551.538	122.69
551.751	134.69
551.964	122.69
552.177	131.69
552.39	128.69
552.603	133.69
552.816	132.69
553.029	118.69
553.242	120.69
553.455	116.69
553.667	142.69
553.88	113.69
554.093	126.69
554.306	136.69
554.519	142.69
554.732	139.69
554.944	140.69
555.157	136.69
555.37	124.69
555.583	132.69
555.795	120.69
556.008	108.69
556.221	118.69
556.433	110.69
556.646	115.69
556.859	123.69
557.071	120.69
557.284	121.69
557.496	93.69
557.709	122.69
557.921	101.69
558.134	126.69
558.346	121.69
558.559	114.69
558.771	120.69
558.984	113.69
559.196	116.69
559.409	124.69
559.621	118.69
559.833	105.69
560.046	112.69
560.258	114.69
560.47	124.69
560.683	110.69
560.895	117.69
561.107	119.69
561.32	114.69
561.532	124.69
561.744	108.69
561.956	102.69
562.168	109.69
562.381	113.69
562.593	103.69
562.805	110.69
563.017	134.69
563.229	130.69
563.441	116.69
563.653	122.69
563.865	107.69
564.077	101.69
564.289	115.69
564.501	119.69
564.713	106.69
564.925	108.69
565.137	107.69
565.349	119.69
565.561	136.69
565.773	122.69
565.985	121.69
566.197	123.69
566.408	133.69
566.62	129.69
566.832	127.69
567.044	131.69
567.255	131.69
567.467	142.69
567.679	130.69
567.891	132.69
568.102	142.69
568.314	128.69
568.526	128.69
568.737	133.69
568.949	121.69
569.161	122.69
569.372	114.69
569.584	117.69
569.795	132.69
570.007	120.69
570.218	117.69
570.43	122.69
570.641	109.69
570.853	112.69
571.064	105.69
571.276	116.69
571.487	120.69
571.698	101.69
571.91	108.69
572.121	113.69
572.333	124.69
572.544	100.69
572.755	102.69
572.966	93.69
573.178	96.69
573.389	106.69
573.6	105.69
573.811	99.69
574.023	108.69
574.234	104.69
574.445	101.69
574.656	104.69
574.867	107.69
575.078	103.69
575.289	104.69
575.501	114.69
575.712	118.69
575.923	106.69
576.134	102.69
576.345	109.69
576.556	101.69
576.767	119.69
576.978	108.69
577.188	115.69
577.399	116.69
577.61	116.69
577.821	92.69
578.032	120.69
578.243	114.69
578.454	117.69
578.665	120.69
578.875	109.69
579.086	115.69
579.297	114.69
579.508	116.69
579.718	106.69
579.929	110.69
580.14	106.69
580.35	102.69
580.561	98.69
580.772	99.69
580.982	106.69
581.193	108.69
581.403	103.69
581.614	118.69
581.825	112.69
582.035	107.69
582.246	107.69
582.456	108.69
582.667	103.69
582.877	100.69
583.087	98.69
583.298	117.69
583.508	94.69
583.719	121.69
583.929	108.69
584.139	105.69
584.35	117.69
584.56	110.69
584.77	100.69
584.981	112.69
585.191	105.69
585.401	88.69
585.611	96.69
585.821	109.69
586.032	104.69
586.242	103.69
586.452	97.69
586.662	102.69
586.872	109.69
587.082	93.69
587.292	94.69
587.502	105.69
587.713	109.69
587.923	116.69
588.133	98.69
588.343	91.69
588.553	101.69
588.762	101.69
588.972	94.69
589.182	125.69
589.392	115.69
589.602	124.69
589.812	109.69
590.022	107.69
590.232	101.69
590.441	90.69
590.651	99.69
590.861	108.69
591.071	98.69
591.281	98.69
591.49	110.69
591.7	102.69
591.91	100.69
592.119	122.69
592.329	114.69
592.539	109.69
592.748	121.69
592.958	113.69
593.167	103.69
593.377	101.69
593.587	120.69
593.796	110.69
594.006	113.69
594.215	115.69
594.424	104.69
594.634	117.69
594.843	116.69
595.053	132.69
595.262	105.69
595.472	86.69
595.681	110.69
595.89	115.69
596.1	114.69
596.309	103.69
596.518	107.69
596.727	96.69
596.937	102.69
597.146	105.69
597.355	93.69
597.564	109.69
597.774	102.69
597.983	89.69
598.192	86.69
598.401	97.69
598.61	90.69
598.819	96.69
599.028	92.69
599.237	105.69
599.446	104.69
599.655	114.69
599.864	108.69
600.073	98.69
600.282	107.69
600.491	113.69
600.7	100.69
600.909	93.69
601.118	94.69
601.327	103.69
601.536	112.69
601.745	97.69
601.953	104.69
602.162	106.69
602.371	98.69
602.58	99.69
602.789	99.69
602.997	100.69
603.206	93.69
603.415	96.69
603.623	104.69
603.832	106.69
604.041	101.69
604.249	97.69
604.458	90.69
604.666	104.69
604.875	100.69
605.084	87.69
605.292	97.69
605.501	97.69
605.709	92.69
605.918	117.69
606.126	100.69
606.334	98.69
606.543	105.69
606.751	100.69
606.96	93.69
607.168	100.69
607.376	104.69
607.585	96.69
607.793	109.69
608.001	99.69
608.21	111.69
608.418	116.69
608.626	94.69
608.834	104.69
609.043	104.69
609.251	94.69
609.459	103.69
609.667	108.69
609.875	118.69
610.083	104.69
610.291	109.69
610.499	112.69
610.707	102.69
610.916	110.69
611.124	105.69
611.332	99.69
611.54	108.69
611.748	120.69
611.955	124.69
612.163	112.69
612.371	100.69
612.579	102.69
612.787	92.69
612.995	102.69
613.203	115.69
613.411	112.69
613.618	88.69
613.826	94.69
614.034	108.69
614.242	108.69
614.449	100.69
614.657	107.69
614.865	97.69
615.072	94.69
615.28	93.69
615.488	105.69
615.695	104.69
615.903	106.69
616.111	113.69
616.318	97.69
616.526	88.69
616.733	96.69
616.941	90.69
617.148	102.69
617.356	107.69
617.563	106.69
617.771	97.69
617.978	95.69
618.185	97.69
618.393	99.69
618.6	108.69
618.807	95.69
619.015	107.69
619.222	105.69
619.429	108.69
619.637	120.69
619.844	88.69
620.051	102.69
620.258	114.69
620.466	90.69
620.673	102.69
620.88	84.69
621.087	113.69
621.294	101.69
621.501	106.69
621.708	88.69
621.915	93.69
622.122	108.69
622.329	91.69
622.536	112.69
622.743	100.69
622.95	93.69
623.157	97.69
623.364	88.69
623.571	92.69
623.778	96.69
623.985	81.69
624.192	100.69
624.399	115.69
624.606	100.69
624.812	112.69
625.019	98.69
625.226	82.69
625.433	86.69
625.639	100.69
625.846	107.69
626.053	88.69
626.259	98.69
626.466	97.69
626.673	107.69
626.879	88.69
627.086	99.69
627.293	100.69
627.499	100.69
627.706	99.69
627.912	99.69
628.119	100.69
628.325	91.69
628.532	101.69
628.738	98.69
628.945	85.69
629.151	109.69
629.357	85.69
629.564	86.69
629.77	90.69
629.976	91.69
630.183	87.69
630.389	83.69
630.595	95.69
630.802	89.69
631.008	93.69
631.214	96.69
631.42	100.69
631.627	101.69
631.833	93.69
632.039	104.69
632.245	88.69
632.451	81.69
632.657	103.69
632.863	87.69
633.069	94.69
633.275	92.69
633.481	99.69
633.688	100.69
633.893	102.69
634.099	102.69
634.305	87.69
634.511	88.69
634.717	103.69
634.923	90.69
635.129	99.69
635.335	98.69
635.541	104.69
635.747	100.69
635.952	96.69
636.158	97.69
636.364	92.69
636.57	101.69
636.775	105.69
636.981	104.69
637.187	82.69
637.392	100.69
637.598	89.69
637.804	82.69
638.009	96.69
638.215	104.69
638.421	94.69
638.626	103.69
638.832	88.69
639.037	97.69
639.243	90.69
639.448	97.69
639.654	108.69
639.859	106.69
640.065	98.69
640.27	103.69
640.475	101.69
640.681	80.69
640.886	84.69
641.091	102.69
641.297	107.69
641.502	92.69
641.707	95.69
641.913	92.69
642.118	94.69
642.323	100.69
642.528	85.69
642.733	101.69
642.939	88.69
643.144	90.69
643.349	95.69
643.554	73.69
643.759	80.69
643.964	96.69
644.169	85.69
644.374	78.69
644.579	76.69
644.784	87.69
644.989	93.69
645.194	101.69
645.399	89.69
645.604	97.69
645.809	88.69
646.014	96.69
646.219	100.69
646.423	93.69
646.628	99.69
646.833	89.69
647.038	104.69
647.243	80.69
647.447	96.69
647.652	93.69
647.857	82.69
648.062	89.69
648.266	89.69
648.471	99.69
648.676	93.69
648.88	90.69
649.085	85.69
649.289	72.69
649.494	97.69
649.698	103.69
649.903	101.69
650.107	106.69
650.312	103.69
650.516	92.69
650.721	91.69
650.925	96.69
651.13	104.69
651.334	93.69
651.539	92.69
651.743	104.69
651.947	96.69
652.152	95.69
652.356	74.69
652.56	88.69
652.764	79.69
652.969	82.69
653.173	90.69
653.377	83.69
653.581	99.69
653.785	80.69
653.99	83.69
654.194	100.69
654.398	96.69
654.602	93.69
654.806	78.69
655.01	88.69
655.214	109.69
655.418	91.69
655.622	86.69
655.826	75.69
656.03	100.69
656.234	88.69
656.438	81.69
656.642	93.69
656.846	85.69
657.049	77.69
657.253	77.69
657.457	74.69
657.661	84.69
657.865	86.69
658.068	89.69
658.272	73.69
658.476	74.69
658.68	86.69
658.883	101.69
659.087	88.69
659.291	94.69
659.494	78.69
659.698	85.69
659.901	77.69
660.105	73.69
660.309	84.69
660.512	80.69
660.716	86.69
660.919	88.69
661.123	93.69
661.326	83.69
661.53	87.69
661.733	90.69
661.936	85.69
662.14	89.69
662.343	66.69
662.546	61.69
662.75	86.69
662.953	81.69
663.156	82.69
663.36	73.69
663.563	91.69
663.766	85.69
663.969	82.69
664.173	84.69
664.376	84.69
664.579	89.69
664.782	84.69
664.985	78.69
665.188	84.69
665.391	89.69
665.594	89.69
665.797	84.69
666	81.69
666.203	88.69
666.406	77.69
666.609	79.69
666.812	89.69
667.015	97.69
667.218	81.69
667.421	84.69
667.624	69.69
667.827	97.69
668.03	88.69
668.232	80.69
668.435	104.69
668.638	78.69
668.841	89.69
669.043	83.69
669.246	74.69
669.449	83.69
669.651	85.69
669.854	70.69
670.057	84.69
670.259	88.69
670.462	90.69
670.665	77.69
670.867	78.69
671.07	82.69
671.272	82.69
671.475	73.69
671.677	92.69
671.88	80.69
672.082	92.69
672.284	79.69
672.487	92.69
672.689	89.69
672.892	73.69
