Data from 1968.PennyLincolnUp.Lamp.En5.5.200Scan.071719.P1._HRD10591_14-50-14-969.txt Node
Date: Thu Jul 18 14:50:14 EDT 2019
User: cochatt
Spectrometer: HR+D1059
Trigger mode: 1
Integration Time (sec): 1.000000E-1
Scans to average: 1
Electric dark correction enabled: true
Nonlinearity correction enabled: false
Boxcar width: 0
XAxis mode: Wavelengths
Number of Pixels in Spectrum: 2048
>>>>>Begin Spectral Data<<<<<
223.165	-18.25
223.4	-18.25
223.635	-18.25
223.869	-6.25
224.104	-25.25
224.338	-27.25
224.573	-15.25
224.808	-12.25
225.042	2.75
225.277	-15.25
225.511	-7.25
225.746	-2.25
225.98	13.75
226.215	19.75
226.449	15.75
226.683	22.75
226.918	16.75
227.152	37.75
227.387	41.75
227.621	29.75
227.856	34.75
228.09	58.75
228.324	42.75
228.559	58.75
228.793	41.75
229.027	47.75
229.262	60.75
229.496	58.75
229.73	79.75
229.964	56.75
230.199	80.75
230.433	74.75
230.667	89.75
230.901	72.75
231.136	77.75
231.37	79.75
231.604	79.75
231.838	55.75
232.072	75.75
232.306	86.75
232.541	84.75
232.775	84.75
233.009	84.75
233.243	87.75
233.477	81.75
233.711	81.75
233.945	94.75
234.179	85.75
234.413	81.75
234.647	87.75
234.881	77.75
235.115	68.75
235.349	81.75
235.583	84.75
235.817	93.75
236.051	80.75
236.285	74.75
236.519	81.75
236.753	81.75
236.987	99.75
237.221	94.75
237.455	80.75
237.689	67.75
237.922	88.75
238.156	92.75
238.39	82.75
238.624	74.75
238.858	85.75
239.091	84.75
239.325	84.75
239.559	75.75
239.793	85.75
240.027	80.75
240.26	88.75
240.494	83.75
240.728	86.75
240.961	78.75
241.195	85.75
241.429	62.75
241.662	84.75
241.896	79.75
242.13	78.75
242.363	78.75
242.597	83.75
242.83	70.75
243.064	79.75
243.298	80.75
243.531	72.75
243.765	79.75
243.998	81.75
244.232	81.75
244.465	83.75
244.699	85.75
244.932	88.75
245.166	80.75
245.399	86.75
245.633	87.75
245.866	79.75
246.099	80.75
246.333	79.75
246.566	81.75
246.8	72.75
247.033	62.75
247.266	77.75
247.5	86.75
247.733	78.75
247.966	78.75
248.2	74.75
248.433	83.75
248.666	72.75
248.899	89.75
249.133	83.75
249.366	88.75
249.599	84.75
249.832	86.75
250.066	93.75
250.299	86.75
250.532	90.75
250.765	86.75
250.998	76.75
251.231	78.75
251.465	79.75
251.698	96.75
251.931	78.75
252.164	85.75
252.397	90.75
252.63	96.75
252.863	90.75
253.096	93.75
253.329	95.75
253.562	79.75
253.795	83.75
254.028	99.75
254.261	72.75
254.494	86.75
254.727	99.75
254.96	89.75
255.193	84.75
255.426	90.75
255.659	68.75
255.892	93.75
256.124	90.75
256.357	77.75
256.59	102.75
256.823	83.75
257.056	99.75
257.289	93.75
257.521	88.75
257.754	90.75
257.987	89.75
258.22	89.75
258.452	83.75
258.685	68.75
258.918	93.75
259.151	95.75
259.383	90.75
259.616	77.75
259.849	80.75
260.081	96.75
260.314	79.75
260.547	86.75
260.779	90.75
261.012	93.75
261.244	81.75
261.477	73.75
261.71	96.75
261.942	103.75
262.175	90.75
262.407	87.75
262.64	93.75
262.872	111.75
263.105	96.75
263.337	84.75
263.57	94.75
263.802	87.75
264.035	89.75
264.267	84.75
264.499	99.75
264.732	81.75
264.964	81.75
265.197	99.75
265.429	91.75
265.661	93.75
265.894	96.75
266.126	82.75
266.358	88.75
266.591	102.75
266.823	86.75
267.055	101.75
267.287	90.75
267.52	94.75
267.752	86.75
267.984	93.75
268.216	84.75
268.448	79.75
268.681	94.75
268.913	82.75
269.145	91.75
269.377	89.75
269.609	84.75
269.841	102.75
270.073	102.75
270.306	84.75
270.538	92.75
270.77	91.75
271.002	90.75
271.234	98.75
271.466	87.75
271.698	105.75
271.93	110.75
272.162	102.75
272.394	91.75
272.626	90.75
272.858	110.75
273.09	96.75
273.322	84.75
273.553	93.75
273.785	90.75
274.017	100.75
274.249	101.75
274.481	90.75
274.713	83.75
274.945	92.75
275.176	98.75
275.408	98.75
275.64	105.75
275.872	99.75
276.104	105.75
276.335	87.75
276.567	99.75
276.799	104.75
277.031	116.75
277.262	116.75
277.494	91.75
277.726	92.75
277.957	91.75
278.189	94.75
278.421	101.75
278.652	98.75
278.884	106.75
279.115	113.75
279.347	94.75
279.579	102.75
279.81	90.75
280.042	91.75
280.273	86.75
280.505	96.75
280.736	86.75
280.968	90.75
281.199	101.75
281.431	96.75
281.662	105.75
281.894	110.75
282.125	103.75
282.356	94.75
282.588	101.75
282.819	85.75
283.051	99.75
283.282	106.75
283.513	97.75
283.745	102.75
283.976	110.75
284.207	114.75
284.439	112.75
284.67	97.75
284.901	98.75
285.132	95.75
285.364	85.75
285.595	84.75
285.826	91.75
286.057	103.75
286.288	98.75
286.52	108.75
286.751	99.75
286.982	103.75
287.213	91.75
287.444	105.75
287.675	108.75
287.906	106.75
288.138	100.75
288.369	99.75
288.6	104.75
288.831	95.75
289.062	104.75
289.293	110.75
289.524	100.75
289.755	100.75
289.986	80.75
290.217	106.75
290.448	113.75
290.679	106.75
290.91	99.75
291.141	94.75
291.371	100.75
291.602	108.75
291.833	114.75
292.064	87.75
292.295	112.75
292.526	93.75
292.757	100.75
292.987	116.75
293.218	106.75
293.449	103.75
293.68	93.75
293.91	100.75
294.141	107.75
294.372	109.75
294.603	91.75
294.833	103.75
295.064	99.75
295.295	97.75
295.525	93.75
295.756	94.75
295.987	96.75
296.217	103.75
296.448	96.75
296.679	92.75
296.909	101.75
297.14	112.75
297.37	104.75
297.601	105.75
297.831	97.75
298.062	91.75
298.292	118.75
298.523	89.75
298.753	98.75
298.984	96.75
299.214	114.75
299.445	90.75
299.675	102.75
299.905	85.75
300.136	103.75
300.366	102.75
300.597	92.75
300.827	93.75
301.057	107.75
301.288	107.75
301.518	106.75
301.748	93.75
301.979	108.75
302.209	97.75
302.439	105.75
302.669	110.75
302.9	110.75
303.13	91.75
303.36	102.75
303.59	102.75
303.82	108.75
304.051	101.75
304.281	124.75
304.511	128.75
304.741	100.75
304.971	96.75
305.201	111.75
305.431	93.75
305.661	74.75
305.891	97.75
306.121	115.75
306.352	103.75
306.582	92.75
306.812	98.75
307.042	118.75
307.272	115.75
307.502	105.75
307.731	105.75
307.961	105.75
308.191	100.75
308.421	121.75
308.651	105.75
308.881	112.75
309.111	95.75
309.341	108.75
309.571	97.75
309.8	96.75
310.03	96.75
310.26	101.75
310.49	87.75
310.72	105.75
310.949	102.75
311.179	119.75
311.409	101.75
311.639	102.75
311.868	96.75
312.098	112.75
312.328	100.75
312.557	95.75
312.787	121.75
313.017	106.75
313.246	99.75
313.476	109.75
313.706	102.75
313.935	98.75
314.165	122.75
314.394	103.75
314.624	113.75
314.853	94.75
315.083	105.75
315.312	105.75
315.542	106.75
315.771	97.75
316.001	100.75
316.23	101.75
316.46	103.75
316.689	97.75
316.919	97.75
317.148	91.75
317.377	113.75
317.607	101.75
317.836	97.75
318.065	109.75
318.295	100.75
318.524	110.75
318.753	107.75
318.983	90.75
319.212	89.75
319.441	97.75
319.67	109.75
319.9	112.75
320.129	101.75
320.358	97.75
320.587	97.75
320.816	107.75
321.046	116.75
321.275	97.75
321.504	119.75
321.733	104.75
321.962	112.75
322.191	101.75
322.42	107.75
322.649	120.75
322.878	128.75
323.108	107.75
323.337	108.75
323.566	105.75
323.795	105.75
324.024	113.75
324.253	116.75
324.482	128.75
324.71	152.75
324.939	167.75
325.168	145.75
325.397	109.75
325.626	114.75
325.855	100.75
326.084	102.75
326.313	92.75
326.542	108.75
326.77	118.75
326.999	125.75
327.228	135.75
327.457	148.75
327.686	155.75
327.914	121.75
328.143	116.75
328.372	106.75
328.6	124.75
328.829	118.75
329.058	106.75
329.287	128.75
329.515	112.75
329.744	117.75
329.972	120.75
330.201	107.75
330.43	116.75
330.658	106.75
330.887	115.75
331.115	112.75
331.344	116.75
331.572	125.75
331.801	110.75
332.03	126.75
332.258	120.75
332.486	123.75
332.715	112.75
332.943	112.75
333.172	124.75
333.4	124.75
333.629	120.75
333.857	118.75
334.085	100.75
334.314	97.75
334.542	115.75
334.771	109.75
334.999	113.75
335.227	126.75
335.455	107.75
335.684	120.75
335.912	112.75
336.14	112.75
336.369	99.75
336.597	102.75
336.825	116.75
337.053	108.75
337.281	98.75
337.51	112.75
337.738	118.75
337.966	98.75
338.194	107.75
338.422	115.75
338.65	126.75
338.878	118.75
339.106	104.75
339.334	101.75
339.562	104.75
339.79	122.75
340.018	121.75
340.246	112.75
340.474	110.75
340.702	105.75
340.93	116.75
341.158	110.75
341.386	124.75
341.614	131.75
341.842	108.75
342.07	88.75
342.298	104.75
342.526	107.75
342.754	119.75
342.981	108.75
343.209	118.75
343.437	123.75
343.665	115.75
343.893	113.75
344.12	124.75
344.348	105.75
344.576	116.75
344.804	109.75
345.031	118.75
345.259	96.75
345.487	110.75
345.714	121.75
345.942	122.75
346.17	108.75
346.397	109.75
346.625	108.75
346.853	117.75
347.08	103.75
347.308	105.75
347.535	108.75
347.763	118.75
347.99	112.75
348.218	118.75
348.445	99.75
348.673	100.75
348.9	103.75
349.128	120.75
349.355	112.75
349.583	114.75
349.81	115.75
350.037	97.75
350.265	107.75
350.492	90.75
350.72	120.75
350.947	107.75
351.174	103.75
351.402	105.75
351.629	128.75
351.856	117.75
352.083	97.75
352.311	105.75
352.538	106.75
352.765	98.75
352.992	105.75
353.22	114.75
353.447	112.75
353.674	108.75
353.901	109.75
354.128	109.75
354.355	106.75
354.583	120.75
354.81	101.75
355.037	95.75
355.264	110.75
355.491	97.75
355.718	107.75
355.945	116.75
356.172	110.75
356.399	116.75
356.626	111.75
356.853	125.75
357.08	112.75
357.307	116.75
357.534	124.75
357.761	101.75
357.988	107.75
358.215	94.75
358.441	109.75
358.668	108.75
358.895	108.75
359.122	94.75
359.349	105.75
359.576	107.75
359.802	105.75
360.029	118.75
360.256	107.75
360.483	106.75
360.709	96.75
360.936	119.75
361.163	102.75
361.39	110.75
361.616	109.75
361.843	109.75
362.07	113.75
362.296	107.75
362.523	112.75
362.749	118.75
362.976	112.75
363.203	130.75
363.429	93.75
363.656	109.75
363.882	125.75
364.109	117.75
364.335	102.75
364.562	114.75
364.788	105.75
365.015	112.75
365.241	114.75
365.468	106.75
365.694	112.75
365.92	120.75
366.147	115.75
366.373	89.75
366.599	112.75
366.826	100.75
367.052	100.75
367.278	112.75
367.505	108.75
367.731	118.75
367.957	102.75
368.184	109.75
368.41	105.75
368.636	104.75
368.862	115.75
369.089	116.75
369.315	120.75
369.541	92.75
369.767	117.75
369.993	108.75
370.219	96.75
370.445	117.75
370.672	108.75
370.898	95.75
371.124	100.75
371.35	110.75
371.576	105.75
371.802	108.75
372.028	109.75
372.254	106.75
372.48	103.75
372.706	99.75
372.932	108.75
373.158	122.75
373.384	132.75
373.61	108.75
373.835	103.75
374.061	110.75
374.287	113.75
374.513	105.75
374.739	116.75
374.965	131.75
375.191	119.75
375.416	113.75
375.642	106.75
375.868	108.75
376.094	99.75
376.319	116.75
376.545	103.75
376.771	108.75
376.997	115.75
377.222	106.75
377.448	116.75
377.674	107.75
377.899	104.75
378.125	119.75
378.35	114.75
378.576	113.75
378.802	125.75
379.027	108.75
379.253	109.75
379.478	107.75
379.704	97.75
379.929	119.75
380.155	126.75
380.38	102.75
380.606	121.75
380.831	109.75
381.057	124.75
381.282	104.75
381.507	122.75
381.733	112.75
381.958	122.75
382.184	98.75
382.409	92.75
382.634	121.75
382.86	117.75
383.085	112.75
383.31	119.75
383.535	114.75
383.761	88.75
383.986	121.75
384.211	114.75
384.436	109.75
384.662	110.75
384.887	104.75
385.112	118.75
385.337	110.75
385.562	115.75
385.787	117.75
386.013	120.75
386.238	125.75
386.463	110.75
386.688	123.75
386.913	119.75
387.138	128.75
387.363	124.75
387.588	114.75
387.813	130.75
388.038	117.75
388.263	100.75
388.488	108.75
388.713	107.75
388.938	105.75
389.163	107.75
389.387	116.75
389.612	107.75
389.837	128.75
390.062	112.75
390.287	116.75
390.512	121.75
390.736	117.75
390.961	118.75
391.186	113.75
391.411	117.75
391.636	128.75
391.86	131.75
392.085	116.75
392.31	126.75
392.534	121.75
392.759	107.75
392.984	129.75
393.208	105.75
393.433	115.75
393.658	120.75
393.882	113.75
394.107	117.75
394.331	121.75
394.556	123.75
394.78	130.75
395.005	122.75
395.229	118.75
395.454	118.75
395.678	130.75
395.903	116.75
396.127	121.75
396.352	113.75
396.576	124.75
396.801	109.75
397.025	118.75
397.249	112.75
397.474	127.75
397.698	126.75
397.922	134.75
398.147	115.75
398.371	123.75
398.595	116.75
398.82	116.75
399.044	122.75
399.268	124.75
399.492	146.75
399.717	154.75
399.941	126.75
400.165	149.75
400.389	131.75
400.613	120.75
400.837	134.75
401.062	136.75
401.286	121.75
401.51	118.75
401.734	123.75
401.958	124.75
402.182	125.75
402.406	140.75
402.63	132.75
402.854	125.75
403.078	132.75
403.302	122.75
403.526	133.75
403.75	125.75
403.974	144.75
404.198	123.75
404.422	134.75
404.645	138.75
404.869	131.75
405.093	140.75
405.317	122.75
405.541	134.75
405.765	129.75
405.988	120.75
406.212	129.75
406.436	139.75
406.66	143.75
406.883	133.75
407.107	128.75
407.331	130.75
407.555	139.75
407.778	152.75
408.002	147.75
408.226	142.75
408.449	125.75
408.673	140.75
408.896	147.75
409.12	119.75
409.344	138.75
409.567	137.75
409.791	132.75
410.014	142.75
410.238	123.75
410.461	121.75
410.685	141.75
410.908	133.75
411.132	127.75
411.355	131.75
411.578	125.75
411.802	137.75
412.025	124.75
412.249	152.75
412.472	127.75
412.695	139.75
412.919	146.75
413.142	126.75
413.365	128.75
413.589	130.75
413.812	113.75
414.035	136.75
414.258	134.75
414.482	121.75
414.705	117.75
414.928	125.75
415.151	134.75
415.374	118.75
415.597	120.75
415.821	106.75
416.044	127.75
416.267	118.75
416.49	116.75
416.713	131.75
416.936	125.75
417.159	117.75
417.382	116.75
417.605	129.75
417.828	124.75
418.051	132.75
418.274	110.75
418.497	134.75
418.72	129.75
418.943	126.75
419.166	134.75
419.389	137.75
419.611	129.75
419.834	130.75
420.057	126.75
420.28	124.75
420.503	126.75
420.726	129.75
420.948	129.75
421.171	135.75
421.394	133.75
421.617	132.75
421.839	116.75
422.062	125.75
422.285	122.75
422.507	132.75
422.73	124.75
422.953	124.75
423.175	126.75
423.398	131.75
423.621	116.75
423.843	129.75
424.066	144.75
424.288	116.75
424.511	116.75
424.733	126.75
424.956	125.75
425.178	135.75
425.401	141.75
425.623	139.75
425.846	128.75
426.068	140.75
426.291	126.75
426.513	132.75
426.735	118.75
426.958	123.75
427.18	128.75
427.402	148.75
427.625	124.75
427.847	128.75
428.069	122.75
428.292	130.75
428.514	125.75
428.736	107.75
428.958	113.75
429.181	131.75
429.403	119.75
429.625	128.75
429.847	129.75
430.069	131.75
430.292	135.75
430.514	126.75
430.736	119.75
430.958	120.75
431.18	101.75
431.402	110.75
431.624	132.75
431.846	122.75
432.068	132.75
432.29	122.75
432.512	124.75
432.734	116.75
432.956	127.75
433.178	136.75
433.4	133.75
433.622	109.75
433.844	116.75
434.066	120.75
434.287	130.75
434.509	114.75
434.731	125.75
434.953	128.75
435.175	124.75
435.397	128.75
435.618	122.75
435.84	116.75
436.062	144.75
436.284	120.75
436.505	134.75
436.727	126.75
436.949	128.75
437.17	118.75
437.392	117.75
437.614	127.75
437.835	117.75
438.057	123.75
438.278	123.75
438.5	144.75
438.721	118.75
438.943	130.75
439.165	129.75
439.386	121.75
439.608	135.75
439.829	111.75
440.05	94.75
440.272	142.75
440.493	131.75
440.715	128.75
440.936	132.75
441.158	116.75
441.379	122.75
441.6	132.75
441.822	124.75
442.043	136.75
442.264	142.75
442.486	114.75
442.707	123.75
442.928	122.75
443.149	130.75
443.371	132.75
443.592	136.75
443.813	140.75
444.034	142.75
444.255	132.75
444.476	140.75
444.698	138.75
444.919	142.75
445.14	264.75
445.361	189.75
445.582	132.75
445.803	125.75
446.024	140.75
446.245	145.75
446.466	127.75
446.687	150.75
446.908	121.75
447.129	145.75
447.35	122.75
447.571	125.75
447.792	120.75
448.013	116.75
448.234	126.75
448.455	121.75
448.675	126.75
448.896	128.75
449.117	128.75
449.338	114.75
449.559	120.75
449.779	137.75
450	117.75
450.221	122.75
450.442	118.75
450.662	121.75
450.883	109.75
451.104	117.75
451.324	120.75
451.545	117.75
451.766	111.75
451.986	108.75
452.207	125.75
452.428	118.75
452.648	119.75
452.869	126.75
453.089	118.75
453.31	113.75
453.53	124.75
453.751	126.75
453.971	117.75
454.192	116.75
454.412	117.75
454.633	116.75
454.853	122.75
455.073	114.75
455.294	117.75
455.514	124.75
455.734	115.75
455.955	114.75
456.175	112.75
456.395	115.75
456.616	116.75
456.836	119.75
457.056	115.75
457.276	115.75
457.497	114.75
457.717	95.75
457.937	108.75
458.157	118.75
458.377	118.75
458.598	105.75
458.818	125.75
459.038	124.75
459.258	113.75
459.478	116.75
459.698	110.75
459.918	119.75
460.138	125.75
460.358	123.75
460.578	128.75
460.798	122.75
461.018	126.75
461.238	129.75
461.458	104.75
461.678	120.75
461.898	121.75
462.118	135.75
462.338	124.75
462.558	140.75
462.777	125.75
462.997	139.75
463.217	128.75
463.437	132.75
463.657	133.75
463.876	116.75
464.096	140.75
464.316	124.75
464.536	139.75
464.755	124.75
464.975	120.75
465.195	128.75
465.414	137.75
465.634	130.75
465.854	121.75
466.073	131.75
466.293	112.75
466.512	122.75
466.732	121.75
466.951	122.75
467.171	120.75
467.391	114.75
467.61	128.75
467.829	121.75
468.049	124.75
468.268	130.75
468.488	114.75
468.707	138.75
468.927	116.75
469.146	119.75
469.365	115.75
469.585	130.75
469.804	133.75
470.023	126.75
470.243	116.75
470.462	130.75
470.681	116.75
470.901	129.75
471.12	128.75
471.339	124.75
471.558	129.75
471.777	117.75
471.997	110.75
472.216	120.75
472.435	110.75
472.654	121.75
472.873	113.75
473.092	117.75
473.311	116.75
473.53	118.75
473.749	115.75
473.968	133.75
474.187	114.75
474.406	124.75
474.625	117.75
474.844	130.75
475.063	125.75
475.282	117.75
475.501	89.75
475.72	112.75
475.939	126.75
476.158	112.75
476.377	122.75
476.596	114.75
476.814	117.75
477.033	114.75
477.252	118.75
477.471	106.75
477.69	124.75
477.908	128.75
478.127	126.75
478.346	133.75
478.564	122.75
478.783	127.75
479.002	117.75
479.22	109.75
479.439	127.75
479.658	125.75
479.876	119.75
480.095	132.75
480.313	132.75
480.532	136.75
480.751	150.75
480.969	144.75
481.188	133.75
481.406	116.75
481.624	139.75
481.843	136.75
482.061	109.75
482.28	132.75
482.498	119.75
482.717	122.75
482.935	118.75
483.153	135.75
483.372	135.75
483.59	129.75
483.808	134.75
484.027	132.75
484.245	124.75
484.463	137.75
484.681	144.75
484.9	136.75
485.118	118.75
485.336	135.75
485.554	128.75
485.772	143.75
485.99	128.75
486.209	133.75
486.427	120.75
486.645	122.75
486.863	130.75
487.081	146.75
487.299	110.75
487.517	138.75
487.735	134.75
487.953	127.75
488.171	134.75
488.389	123.75
488.607	140.75
488.825	131.75
489.043	141.75
489.261	128.75
489.479	124.75
489.696	138.75
489.914	133.75
490.132	138.75
490.35	123.75
490.568	125.75
490.786	140.75
491.003	149.75
491.221	147.75
491.439	124.75
491.657	136.75
491.874	146.75
492.092	140.75
492.31	142.75
492.527	156.75
492.745	128.75
492.963	144.75
493.18	140.75
493.398	156.75
493.615	147.75
493.833	149.75
494.05	134.75
494.268	137.75
494.485	142.75
494.703	147.75
494.92	146.75
495.138	148.75
495.355	140.75
495.573	144.75
495.79	144.75
496.008	132.75
496.225	141.75
496.442	131.75
496.66	132.75
496.877	149.75
497.094	150.75
497.312	131.75
497.529	157.75
497.746	137.75
497.963	156.75
498.181	140.75
498.398	155.75
498.615	158.75
498.832	168.75
499.049	142.75
499.267	150.75
499.484	162.75
499.701	178.75
499.918	183.75
500.135	188.75
500.352	204.75
500.569	207.75
500.786	209.75
501.003	195.75
501.22	183.75
501.437	188.75
501.654	176.75
501.871	190.75
502.088	167.75
502.305	164.75
502.522	164.75
502.739	153.75
502.956	146.75
503.172	160.75
503.389	138.75
503.606	154.75
503.823	146.75
504.04	141.75
504.256	141.75
504.473	143.75
504.69	132.75
504.907	125.75
505.123	136.75
505.34	138.75
505.557	133.75
505.773	135.75
505.99	152.75
506.207	124.75
506.423	118.75
506.64	139.75
506.856	118.75
507.073	126.75
507.289	134.75
507.506	134.75
507.722	140.75
507.939	131.75
508.155	127.75
508.372	141.75
508.588	143.75
508.805	128.75
509.021	121.75
509.238	130.75
509.454	132.75
509.67	133.75
509.887	125.75
510.103	128.75
510.319	126.75
510.536	131.75
510.752	162.75
510.968	138.75
511.184	128.75
511.401	118.75
511.617	121.75
511.833	138.75
512.049	115.75
512.265	112.75
512.481	135.75
512.698	123.75
512.914	136.75
513.13	118.75
513.346	128.75
513.562	135.75
513.778	118.75
513.994	117.75
514.21	131.75
514.426	124.75
514.642	121.75
514.858	126.75
515.074	142.75
515.29	130.75
515.506	158.75
515.721	144.75
515.937	118.75
516.153	122.75
516.369	136.75
516.585	125.75
516.801	136.75
517.016	148.75
517.232	140.75
517.448	148.75
517.664	137.75
517.879	143.75
518.095	144.75
518.311	141.75
518.527	130.75
518.742	126.75
518.958	128.75
519.173	125.75
519.389	134.75
519.605	125.75
519.82	116.75
520.036	132.75
520.251	121.75
520.467	121.75
520.682	109.75
520.898	134.75
521.113	132.75
521.329	131.75
521.544	126.75
521.76	132.75
521.975	156.75
522.19	165.75
522.406	123.75
522.621	124.75
522.836	128.75
523.052	128.75
523.267	134.75
523.482	126.75
523.698	127.75
523.913	119.75
524.128	125.75
524.343	134.75
524.559	136.75
524.774	130.75
524.989	136.75
525.204	114.75
525.419	125.75
525.634	125.75
525.849	113.75
526.064	120.75
526.28	123.75
526.495	129.75
526.71	127.75
526.925	128.75
527.14	125.75
527.355	108.75
527.57	99.75
527.785	111.75
527.999	138.75
528.214	118.75
528.429	113.75
528.644	117.75
528.859	99.75
529.074	128.75
529.289	120.75
529.503	141.75
529.718	117.75
529.933	126.75
530.148	117.75
530.363	110.75
530.577	102.75
530.792	110.75
531.007	126.75
531.221	124.75
531.436	122.75
531.651	122.75
531.865	117.75
532.08	114.75
532.295	132.75
532.509	114.75
532.724	126.75
532.938	115.75
533.153	114.75
533.367	114.75
533.582	122.75
533.796	126.75
534.011	110.75
534.225	123.75
534.44	124.75
534.654	127.75
534.868	124.75
535.083	117.75
535.297	106.75
535.511	114.75
535.726	115.75
535.94	119.75
536.154	122.75
536.369	124.75
536.583	110.75
536.797	113.75
537.011	120.75
537.225	109.75
537.44	120.75
537.654	110.75
537.868	116.75
538.082	122.75
538.296	118.75
538.51	123.75
538.724	123.75
538.938	129.75
539.153	117.75
539.367	122.75
539.581	125.75
539.795	112.75
540.009	121.75
540.222	123.75
540.436	126.75
540.65	122.75
540.864	108.75
541.078	120.75
541.292	121.75
541.506	118.75
541.72	122.75
541.934	123.75
542.147	138.75
542.361	137.75
542.575	133.75
542.789	151.75
543.002	120.75
543.216	123.75
543.43	122.75
543.644	124.75
543.857	121.75
544.071	114.75
544.285	140.75
544.498	146.75
544.712	134.75
544.925	133.75
545.139	133.75
545.352	128.75
545.566	118.75
545.779	125.75
545.993	139.75
546.206	146.75
546.42	150.75
546.633	141.75
546.847	132.75
547.06	125.75
547.274	126.75
547.487	130.75
547.7	116.75
547.914	140.75
548.127	142.75
548.34	130.75
548.554	115.75
548.767	119.75
548.98	131.75
549.193	118.75
549.407	127.75
549.62	119.75
549.833	125.75
550.046	120.75
550.259	119.75
550.473	130.75
550.686	122.75
550.899	110.75
551.112	114.75
551.325	124.75
551.538	136.75
551.751	122.75
551.964	135.75
552.177	96.75
552.39	110.75
552.603	117.75
552.816	131.75
553.029	138.75
553.242	120.75
553.455	119.75
553.667	139.75
553.88	121.75
554.093	115.75
554.306	114.75
554.519	130.75
554.732	117.75
554.944	119.75
555.157	128.75
555.37	113.75
555.583	108.75
555.795	116.75
556.008	105.75
556.221	109.75
556.433	108.75
556.646	116.75
556.859	132.75
557.071	117.75
557.284	125.75
557.496	117.75
557.709	122.75
557.921	123.75
558.134	102.75
558.346	109.75
558.559	117.75
558.771	112.75
558.984	114.75
559.196	128.75
559.409	119.75
559.621	116.75
559.833	108.75
560.046	103.75
560.258	117.75
560.47	116.75
560.683	116.75
560.895	120.75
561.107	109.75
561.32	123.75
561.532	128.75
561.744	114.75
561.956	105.75
562.168	117.75
562.381	114.75
562.593	114.75
562.805	128.75
563.017	120.75
563.229	120.75
563.441	113.75
563.653	116.75
563.865	123.75
564.077	110.75
564.289	122.75
564.501	110.75
564.713	124.75
564.925	100.75
565.137	110.75
565.349	118.75
565.561	102.75
565.773	126.75
565.985	123.75
566.197	127.75
566.408	124.75
566.62	126.75
566.832	125.75
567.044	129.75
567.255	148.75
567.467	140.75
567.679	139.75
567.891	137.75
568.102	124.75
568.314	124.75
568.526	123.75
568.737	125.75
568.949	133.75
569.161	114.75
569.372	125.75
569.584	128.75
569.795	124.75
570.007	113.75
570.218	132.75
570.43	116.75
570.641	125.75
570.853	116.75
571.064	112.75
571.276	119.75
571.487	117.75
571.698	122.75
571.91	105.75
572.121	117.75
572.333	99.75
572.544	114.75
572.755	112.75
572.966	122.75
573.178	100.75
573.389	117.75
573.6	101.75
573.811	108.75
574.023	114.75
574.234	103.75
574.445	100.75
574.656	122.75
574.867	101.75
575.078	120.75
575.289	120.75
575.501	116.75
575.712	108.75
575.923	122.75
576.134	106.75
576.345	107.75
576.556	96.75
576.767	100.75
576.978	116.75
577.188	113.75
577.399	112.75
577.61	98.75
577.821	94.75
578.032	106.75
578.243	103.75
578.454	126.75
578.665	110.75
578.875	103.75
579.086	117.75
579.297	98.75
579.508	94.75
579.718	97.75
579.929	107.75
580.14	116.75
580.35	110.75
580.561	105.75
580.772	118.75
580.982	92.75
581.193	109.75
581.403	95.75
581.614	98.75
581.825	110.75
582.035	93.75
582.246	103.75
582.456	92.75
582.667	101.75
582.877	90.75
583.087	114.75
583.298	98.75
583.508	110.75
583.719	96.75
583.929	116.75
584.139	112.75
584.35	102.75
584.56	114.75
584.77	110.75
584.981	106.75
585.191	93.75
585.401	89.75
585.611	103.75
585.821	112.75
586.032	99.75
586.242	102.75
586.452	101.75
586.662	114.75
586.872	116.75
587.082	109.75
587.292	123.75
587.502	103.75
587.713	101.75
587.923	106.75
588.133	104.75
588.343	102.75
588.553	102.75
588.762	92.75
588.972	105.75
589.182	106.75
589.392	97.75
589.602	96.75
589.812	94.75
590.022	104.75
590.232	108.75
590.441	92.75
590.651	96.75
590.861	103.75
591.071	93.75
591.281	106.75
591.49	110.75
591.7	105.75
591.91	100.75
592.119	106.75
592.329	97.75
592.539	104.75
592.748	106.75
592.958	106.75
593.167	114.75
593.377	102.75
593.587	114.75
593.796	118.75
594.006	110.75
594.215	105.75
594.424	101.75
594.634	105.75
594.843	110.75
595.053	108.75
595.262	115.75
595.472	116.75
595.681	108.75
595.89	116.75
596.1	98.75
596.309	113.75
596.518	105.75
596.727	107.75
596.937	95.75
597.146	98.75
597.355	112.75
597.564	112.75
597.774	102.75
597.983	91.75
598.192	101.75
598.401	89.75
598.61	98.75
598.819	107.75
599.028	93.75
599.237	98.75
599.446	93.75
599.655	92.75
599.864	104.75
600.073	99.75
600.282	112.75
600.491	93.75
600.7	112.75
600.909	100.75
601.118	100.75
601.327	114.75
601.536	115.75
601.745	99.75
601.953	98.75
602.162	106.75
602.371	105.75
602.58	106.75
602.789	99.75
602.997	88.75
603.206	104.75
603.415	99.75
603.623	98.75
603.832	84.75
604.041	104.75
604.249	112.75
604.458	105.75
604.666	103.75
604.875	84.75
605.084	100.75
605.292	93.75
605.501	106.75
605.709	102.75
605.918	111.75
606.126	95.75
606.334	104.75
606.543	99.75
606.751	104.75
606.96	103.75
607.168	90.75
607.376	109.75
607.585	108.75
607.793	99.75
608.001	93.75
608.21	103.75
608.418	94.75
608.626	97.75
608.834	98.75
609.043	92.75
609.251	100.75
609.459	100.75
609.667	105.75
609.875	105.75
610.083	105.75
610.291	101.75
610.499	99.75
610.707	89.75
610.916	118.75
611.124	102.75
611.332	96.75
611.54	101.75
611.748	97.75
611.955	104.75
612.163	125.75
612.371	104.75
612.579	88.75
612.787	109.75
612.995	101.75
613.203	97.75
613.411	102.75
613.618	115.75
613.826	87.75
614.034	94.75
614.242	100.75
614.449	97.75
614.657	91.75
614.865	102.75
615.072	107.75
615.28	100.75
615.488	89.75
615.695	106.75
615.903	93.75
616.111	100.75
616.318	116.75
616.526	107.75
616.733	101.75
616.941	100.75
617.148	104.75
617.356	105.75
617.563	100.75
617.771	113.75
617.978	91.75
618.185	109.75
618.393	96.75
618.6	80.75
618.807	98.75
619.015	92.75
619.222	90.75
619.429	103.75
619.637	99.75
619.844	105.75
620.051	106.75
620.258	97.75
620.466	105.75
620.673	112.75
620.88	73.75
621.087	92.75
621.294	104.75
621.501	93.75
621.708	104.75
621.915	103.75
622.122	100.75
622.329	98.75
622.536	96.75
622.743	95.75
622.95	105.75
623.157	102.75
623.364	95.75
623.571	115.75
623.778	89.75
623.985	106.75
624.192	95.75
624.399	98.75
624.606	99.75
624.812	96.75
625.019	101.75
625.226	88.75
625.433	97.75
625.639	83.75
625.846	106.75
626.053	94.75
626.259	101.75
626.466	95.75
626.673	89.75
626.879	85.75
627.086	97.75
627.293	87.75
627.499	102.75
627.706	91.75
627.912	92.75
628.119	95.75
628.325	94.75
628.532	103.75
628.738	74.75
628.945	94.75
629.151	104.75
629.357	91.75
629.564	104.75
629.77	79.75
629.976	96.75
630.183	97.75
630.389	92.75
630.595	104.75
630.802	85.75
631.008	90.75
631.214	72.75
631.42	92.75
631.627	100.75
631.833	89.75
632.039	95.75
632.245	93.75
632.451	98.75
632.657	88.75
632.863	87.75
633.069	88.75
633.275	100.75
633.481	93.75
633.688	112.75
633.893	97.75
634.099	86.75
634.305	86.75
634.511	94.75
634.717	95.75
634.923	83.75
635.129	92.75
635.335	95.75
635.541	108.75
635.747	107.75
635.952	99.75
636.158	99.75
636.364	102.75
636.57	101.75
636.775	97.75
636.981	94.75
637.187	94.75
637.392	104.75
637.598	91.75
637.804	87.75
638.009	105.75
638.215	99.75
638.421	103.75
638.626	86.75
638.832	98.75
639.037	84.75
639.243	102.75
639.448	83.75
639.654	88.75
639.859	102.75
640.065	90.75
640.27	95.75
640.475	98.75
640.681	90.75
640.886	94.75
641.091	88.75
641.297	109.75
641.502	98.75
641.707	89.75
641.913	95.75
642.118	88.75
642.323	94.75
642.528	105.75
642.733	95.75
642.939	88.75
643.144	102.75
643.349	84.75
643.554	114.75
643.759	93.75
643.964	80.75
644.169	100.75
644.374	97.75
644.579	103.75
644.784	92.75
644.989	88.75
645.194	94.75
645.399	105.75
645.604	83.75
645.809	96.75
646.014	73.75
646.219	94.75
646.423	85.75
646.628	93.75
646.833	92.75
647.038	89.75
647.243	80.75
647.447	86.75
647.652	90.75
647.857	93.75
648.062	92.75
648.266	93.75
648.471	97.75
648.676	96.75
648.88	85.75
649.085	93.75
649.289	89.75
649.494	99.75
649.698	96.75
649.903	84.75
650.107	92.75
650.312	94.75
650.516	78.75
650.721	98.75
650.925	77.75
651.13	76.75
651.334	89.75
651.539	89.75
651.743	85.75
651.947	96.75
652.152	88.75
652.356	91.75
652.56	88.75
652.764	89.75
652.969	96.75
653.173	90.75
653.377	92.75
653.581	94.75
653.785	98.75
653.99	97.75
654.194	99.75
654.398	78.75
654.602	84.75
654.806	93.75
655.01	79.75
655.214	102.75
655.418	98.75
655.622	87.75
655.826	83.75
656.03	94.75
656.234	87.75
656.438	84.75
656.642	92.75
656.846	86.75
657.049	70.75
657.253	85.75
657.457	73.75
657.661	79.75
657.865	88.75
658.068	89.75
658.272	82.75
658.476	79.75
658.68	93.75
658.883	93.75
659.087	94.75
659.291	72.75
659.494	88.75
659.698	73.75
659.901	76.75
660.105	83.75
660.309	75.75
660.512	81.75
660.716	88.75
660.919	88.75
661.123	96.75
661.326	75.75
661.53	93.75
661.733	85.75
661.936	76.75
662.14	76.75
662.343	82.75
662.546	82.75
662.75	85.75
662.953	89.75
663.156	72.75
663.36	80.75
663.563	79.75
663.766	86.75
663.969	84.75
664.173	81.75
664.376	87.75
664.579	82.75
664.782	75.75
664.985	91.75
665.188	82.75
665.391	79.75
665.594	70.75
665.797	71.75
666	85.75
666.203	73.75
666.406	83.75
666.609	90.75
666.812	81.75
667.015	72.75
667.218	68.75
667.421	85.75
667.624	82.75
667.827	77.75
668.03	70.75
668.232	75.75
668.435	89.75
668.638	75.75
668.841	88.75
669.043	78.75
669.246	90.75
669.449	85.75
669.651	62.75
669.854	91.75
670.057	94.75
670.259	70.75
670.462	80.75
670.665	80.75
670.867	86.75
671.07	84.75
671.272	84.75
671.475	76.75
671.677	77.75
671.88	73.75
672.082	78.75
672.284	82.75
672.487	82.75
672.689	84.75
672.892	72.75
