Data from 1968.PennyLincolnUp.Lamp.En5.5.200Scan.071719.P1._HRD10591_14-51-07-970.txt Node
Date: Thu Jul 18 14:51:07 EDT 2019
User: cochatt
Spectrometer: HR+D1059
Trigger mode: 1
Integration Time (sec): 1.000000E-1
Scans to average: 1
Electric dark correction enabled: true
Nonlinearity correction enabled: false
Boxcar width: 0
XAxis mode: Wavelengths
Number of Pixels in Spectrum: 2048
>>>>>Begin Spectral Data<<<<<
223.165	-11.94
223.4	-11.94
223.635	-11.94
223.869	-24.94
224.104	-19.94
224.338	-18.94
224.573	-12.94
224.808	-12.94
225.042	2.06
225.277	-11.94
225.511	0.06
225.746	1.06
225.98	1.06
226.215	15.06
226.449	19.06
226.683	15.06
226.918	31.06
227.152	29.06
227.387	31.06
227.621	41.06
227.856	50.06
228.09	42.06
228.324	63.06
228.559	56.06
228.793	58.06
229.027	61.06
229.262	77.06
229.496	68.06
229.73	67.06
229.964	83.06
230.199	82.06
230.433	85.06
230.667	77.06
230.901	88.06
231.136	89.06
231.37	77.06
231.604	92.06
231.838	77.06
232.072	94.06
232.306	113.06
232.541	80.06
232.775	92.06
233.009	103.06
233.243	86.06
233.477	94.06
233.711	97.06
233.945	86.06
234.179	109.06
234.413	88.06
234.647	80.06
234.881	81.06
235.115	86.06
235.349	89.06
235.583	75.06
235.817	71.06
236.051	82.06
236.285	77.06
236.519	82.06
236.753	91.06
236.987	97.06
237.221	70.06
237.455	88.06
237.689	71.06
237.922	85.06
238.156	92.06
238.39	91.06
238.624	82.06
238.858	101.06
239.091	88.06
239.325	93.06
239.559	81.06
239.793	81.06
240.027	79.06
240.26	97.06
240.494	80.06
240.728	83.06
240.961	87.06
241.195	90.06
241.429	93.06
241.662	100.06
241.896	100.06
242.13	97.06
242.363	87.06
242.597	83.06
242.83	92.06
243.064	91.06
243.298	90.06
243.531	84.06
243.765	83.06
243.998	93.06
244.232	88.06
244.465	96.06
244.699	91.06
244.932	92.06
245.166	87.06
245.399	83.06
245.633	81.06
245.866	83.06
246.099	90.06
246.333	91.06
246.566	89.06
246.8	91.06
247.033	90.06
247.266	89.06
247.5	96.06
247.733	91.06
247.966	76.06
248.2	91.06
248.433	77.06
248.666	80.06
248.899	97.06
249.133	104.06
249.366	110.06
249.599	96.06
249.832	80.06
250.066	99.06
250.299	93.06
250.532	106.06
250.765	107.06
250.998	91.06
251.231	102.06
251.465	106.06
251.698	101.06
251.931	89.06
252.164	84.06
252.397	90.06
252.63	92.06
252.863	95.06
253.096	81.06
253.329	84.06
253.562	93.06
253.795	104.06
254.028	84.06
254.261	110.06
254.494	91.06
254.727	96.06
254.96	115.06
255.193	94.06
255.426	93.06
255.659	97.06
255.892	97.06
256.124	98.06
256.357	104.06
256.59	96.06
256.823	95.06
257.056	100.06
257.289	107.06
257.521	87.06
257.754	80.06
257.987	105.06
258.22	104.06
258.452	99.06
258.685	109.06
258.918	91.06
259.151	91.06
259.383	101.06
259.616	77.06
259.849	111.06
260.081	107.06
260.314	95.06
260.547	91.06
260.779	84.06
261.012	105.06
261.244	96.06
261.477	93.06
261.71	100.06
261.942	106.06
262.175	88.06
262.407	98.06
262.64	89.06
262.872	93.06
263.105	101.06
263.337	85.06
263.57	100.06
263.802	88.06
264.035	99.06
264.267	103.06
264.499	97.06
264.732	106.06
264.964	95.06
265.197	98.06
265.429	96.06
265.661	101.06
265.894	98.06
266.126	108.06
266.358	99.06
266.591	109.06
266.823	100.06
267.055	99.06
267.287	99.06
267.52	92.06
267.752	106.06
267.984	93.06
268.216	95.06
268.448	106.06
268.681	101.06
268.913	94.06
269.145	96.06
269.377	94.06
269.609	93.06
269.841	112.06
270.073	103.06
270.306	104.06
270.538	98.06
270.77	99.06
271.002	96.06
271.234	99.06
271.466	98.06
271.698	96.06
271.93	115.06
272.162	92.06
272.394	115.06
272.626	103.06
272.858	82.06
273.09	103.06
273.322	107.06
273.553	102.06
273.785	109.06
274.017	107.06
274.249	98.06
274.481	99.06
274.713	99.06
274.945	117.06
275.176	104.06
275.408	108.06
275.64	94.06
275.872	97.06
276.104	95.06
276.335	96.06
276.567	116.06
276.799	95.06
277.031	105.06
277.262	116.06
277.494	109.06
277.726	99.06
277.957	100.06
278.189	94.06
278.421	99.06
278.652	98.06
278.884	106.06
279.115	107.06
279.347	107.06
279.579	117.06
279.81	112.06
280.042	106.06
280.273	111.06
280.505	106.06
280.736	105.06
280.968	100.06
281.199	110.06
281.431	101.06
281.662	111.06
281.894	101.06
282.125	106.06
282.356	111.06
282.588	120.06
282.819	97.06
283.051	105.06
283.282	102.06
283.513	98.06
283.745	96.06
283.976	104.06
284.207	104.06
284.439	114.06
284.67	104.06
284.901	99.06
285.132	107.06
285.364	97.06
285.595	100.06
285.826	95.06
286.057	98.06
286.288	105.06
286.52	110.06
286.751	99.06
286.982	91.06
287.213	107.06
287.444	125.06
287.675	112.06
287.906	109.06
288.138	108.06
288.369	116.06
288.6	98.06
288.831	99.06
289.062	114.06
289.293	103.06
289.524	119.06
289.755	106.06
289.986	108.06
290.217	110.06
290.448	112.06
290.679	109.06
290.91	123.06
291.141	114.06
291.371	118.06
291.602	102.06
291.833	105.06
292.064	100.06
292.295	110.06
292.526	92.06
292.757	122.06
292.987	111.06
293.218	105.06
293.449	116.06
293.68	107.06
293.91	107.06
294.141	98.06
294.372	119.06
294.603	107.06
294.833	114.06
295.064	105.06
295.295	106.06
295.525	116.06
295.756	119.06
295.987	117.06
296.217	110.06
296.448	116.06
296.679	115.06
296.909	111.06
297.14	106.06
297.37	122.06
297.601	99.06
297.831	102.06
298.062	116.06
298.292	110.06
298.523	118.06
298.753	97.06
298.984	112.06
299.214	95.06
299.445	110.06
299.675	103.06
299.905	103.06
300.136	111.06
300.366	115.06
300.597	86.06
300.827	116.06
301.057	110.06
301.288	114.06
301.518	104.06
301.748	109.06
301.979	121.06
302.209	108.06
302.439	114.06
302.669	116.06
302.9	107.06
303.13	107.06
303.36	104.06
303.59	88.06
303.82	123.06
304.051	114.06
304.281	129.06
304.511	115.06
304.741	114.06
304.971	109.06
305.201	103.06
305.431	99.06
305.661	106.06
305.891	116.06
306.121	112.06
306.352	103.06
306.582	103.06
306.812	105.06
307.042	108.06
307.272	116.06
307.502	89.06
307.731	127.06
307.961	104.06
308.191	103.06
308.421	111.06
308.651	124.06
308.881	113.06
309.111	99.06
309.341	112.06
309.571	111.06
309.8	116.06
310.03	108.06
310.26	99.06
310.49	112.06
310.72	105.06
310.949	122.06
311.179	116.06
311.409	108.06
311.639	101.06
311.868	117.06
312.098	112.06
312.328	123.06
312.557	119.06
312.787	122.06
313.017	117.06
313.246	104.06
313.476	125.06
313.706	117.06
313.935	113.06
314.165	125.06
314.394	122.06
314.624	111.06
314.853	127.06
315.083	113.06
315.312	108.06
315.542	110.06
315.771	116.06
316.001	104.06
316.23	113.06
316.46	92.06
316.689	113.06
316.919	110.06
317.148	99.06
317.377	117.06
317.607	109.06
317.836	118.06
318.065	107.06
318.295	104.06
318.524	123.06
318.753	114.06
318.983	122.06
319.212	111.06
319.441	117.06
319.67	98.06
319.9	106.06
320.129	117.06
320.358	112.06
320.587	114.06
320.816	117.06
321.046	113.06
321.275	103.06
321.504	133.06
321.733	112.06
321.962	121.06
322.191	123.06
322.42	96.06
322.649	103.06
322.878	113.06
323.108	135.06
323.337	120.06
323.566	115.06
323.795	125.06
324.024	139.06
324.253	136.06
324.482	143.06
324.71	159.06
324.939	189.06
325.168	181.06
325.397	135.06
325.626	123.06
325.855	114.06
326.084	108.06
326.313	126.06
326.542	111.06
326.77	111.06
326.999	128.06
327.228	138.06
327.457	176.06
327.686	164.06
327.914	135.06
328.143	132.06
328.372	125.06
328.6	131.06
328.829	124.06
329.058	120.06
329.287	121.06
329.515	134.06
329.744	127.06
329.972	116.06
330.201	113.06
330.43	120.06
330.658	106.06
330.887	119.06
331.115	130.06
331.344	136.06
331.572	116.06
331.801	129.06
332.03	118.06
332.258	132.06
332.486	129.06
332.715	133.06
332.943	127.06
333.172	116.06
333.4	132.06
333.629	125.06
333.857	124.06
334.085	117.06
334.314	126.06
334.542	133.06
334.771	139.06
334.999	132.06
335.227	132.06
335.455	126.06
335.684	122.06
335.912	111.06
336.14	110.06
336.369	116.06
336.597	114.06
336.825	109.06
337.053	111.06
337.281	115.06
337.51	126.06
337.738	123.06
337.966	124.06
338.194	120.06
338.422	124.06
338.65	129.06
338.878	130.06
339.106	117.06
339.334	123.06
339.562	119.06
339.79	117.06
340.018	114.06
340.246	116.06
340.474	123.06
340.702	115.06
340.93	126.06
341.158	120.06
341.386	132.06
341.614	118.06
341.842	121.06
342.07	116.06
342.298	110.06
342.526	131.06
342.754	123.06
342.981	123.06
343.209	119.06
343.437	132.06
343.665	112.06
343.893	107.06
344.12	114.06
344.348	119.06
344.576	127.06
344.804	122.06
345.031	121.06
345.259	117.06
345.487	124.06
345.714	125.06
345.942	129.06
346.17	114.06
346.397	127.06
346.625	121.06
346.853	129.06
347.08	131.06
347.308	118.06
347.535	114.06
347.763	112.06
347.99	113.06
348.218	138.06
348.445	130.06
348.673	111.06
348.9	102.06
349.128	108.06
349.355	107.06
349.583	130.06
349.81	116.06
350.037	121.06
350.265	108.06
350.492	99.06
350.72	110.06
350.947	121.06
351.174	111.06
351.402	114.06
351.629	122.06
351.856	120.06
352.083	124.06
352.311	129.06
352.538	113.06
352.765	130.06
352.992	118.06
353.22	124.06
353.447	123.06
353.674	99.06
353.901	119.06
354.128	123.06
354.355	112.06
354.583	104.06
354.81	117.06
355.037	117.06
355.264	110.06
355.491	120.06
355.718	112.06
355.945	124.06
356.172	111.06
356.399	105.06
356.626	121.06
356.853	113.06
357.08	111.06
357.307	107.06
357.534	124.06
357.761	108.06
357.988	119.06
358.215	119.06
358.441	114.06
358.668	123.06
358.895	123.06
359.122	128.06
359.349	120.06
359.576	111.06
359.802	109.06
360.029	124.06
360.256	129.06
360.483	121.06
360.709	121.06
360.936	132.06
361.163	129.06
361.39	111.06
361.616	110.06
361.843	111.06
362.07	95.06
362.296	113.06
362.523	116.06
362.749	127.06
362.976	122.06
363.203	123.06
363.429	122.06
363.656	124.06
363.882	124.06
364.109	117.06
364.335	107.06
364.562	114.06
364.788	129.06
365.015	119.06
365.241	128.06
365.468	115.06
365.694	108.06
365.92	116.06
366.147	113.06
366.373	126.06
366.599	105.06
366.826	130.06
367.052	119.06
367.278	116.06
367.505	133.06
367.731	123.06
367.957	108.06
368.184	119.06
368.41	133.06
368.636	111.06
368.862	121.06
369.089	125.06
369.315	117.06
369.541	113.06
369.767	123.06
369.993	125.06
370.219	121.06
370.445	111.06
370.672	131.06
370.898	127.06
371.124	126.06
371.35	129.06
371.576	124.06
371.802	111.06
372.028	110.06
372.254	127.06
372.48	114.06
372.706	120.06
372.932	132.06
373.158	108.06
373.384	114.06
373.61	125.06
373.835	127.06
374.061	111.06
374.287	128.06
374.513	107.06
374.739	119.06
374.965	122.06
375.191	139.06
375.416	129.06
375.642	113.06
375.868	115.06
376.094	119.06
376.319	113.06
376.545	117.06
376.771	125.06
376.997	127.06
377.222	93.06
377.448	122.06
377.674	121.06
377.899	120.06
378.125	119.06
378.35	127.06
378.576	121.06
378.802	116.06
379.027	108.06
379.253	131.06
379.478	130.06
379.704	122.06
379.929	112.06
380.155	125.06
380.38	127.06
380.606	131.06
380.831	121.06
381.057	114.06
381.282	108.06
381.507	112.06
381.733	120.06
381.958	105.06
382.184	122.06
382.409	118.06
382.634	129.06
382.86	123.06
383.085	124.06
383.31	124.06
383.535	127.06
383.761	111.06
383.986	128.06
384.211	129.06
384.436	134.06
384.662	131.06
384.887	109.06
385.112	125.06
385.337	120.06
385.562	120.06
385.787	128.06
386.013	119.06
386.238	142.06
386.463	126.06
386.688	132.06
386.913	120.06
387.138	123.06
387.363	127.06
387.588	125.06
387.813	128.06
388.038	126.06
388.263	128.06
388.488	132.06
388.713	140.06
388.938	124.06
389.163	137.06
389.387	126.06
389.612	132.06
389.837	127.06
390.062	135.06
390.287	119.06
390.512	132.06
390.736	127.06
390.961	121.06
391.186	116.06
391.411	129.06
391.636	124.06
391.86	138.06
392.085	127.06
392.31	136.06
392.534	133.06
392.759	120.06
392.984	118.06
393.208	137.06
393.433	123.06
393.658	130.06
393.882	119.06
394.107	129.06
394.331	130.06
394.556	121.06
394.78	121.06
395.005	128.06
395.229	140.06
395.454	128.06
395.678	138.06
395.903	128.06
396.127	141.06
396.352	129.06
396.576	109.06
396.801	125.06
397.025	129.06
397.249	136.06
397.474	133.06
397.698	135.06
397.922	125.06
398.147	133.06
398.371	143.06
398.595	131.06
398.82	140.06
399.044	119.06
399.268	135.06
399.492	136.06
399.717	157.06
399.941	160.06
400.165	149.06
400.389	152.06
400.613	148.06
400.837	140.06
401.062	121.06
401.286	126.06
401.51	150.06
401.734	136.06
401.958	137.06
402.182	142.06
402.406	132.06
402.63	138.06
402.854	136.06
403.078	141.06
403.302	133.06
403.526	140.06
403.75	132.06
403.974	146.06
404.198	148.06
404.422	134.06
404.645	143.06
404.869	126.06
405.093	141.06
405.317	137.06
405.541	155.06
405.765	141.06
405.988	140.06
406.212	160.06
406.436	129.06
406.66	153.06
406.883	125.06
407.107	145.06
407.331	152.06
407.555	144.06
407.778	148.06
408.002	141.06
408.226	154.06
408.449	141.06
408.673	132.06
408.896	142.06
409.12	141.06
409.344	149.06
409.567	133.06
409.791	130.06
410.014	131.06
410.238	138.06
410.461	133.06
410.685	139.06
410.908	148.06
411.132	148.06
411.355	150.06
411.578	137.06
411.802	150.06
412.025	139.06
412.249	139.06
412.472	146.06
412.695	136.06
412.919	143.06
413.142	146.06
413.365	138.06
413.589	129.06
413.812	141.06
414.035	140.06
414.258	140.06
414.482	145.06
414.705	135.06
414.928	135.06
415.151	127.06
415.374	133.06
415.597	117.06
415.821	137.06
416.044	124.06
416.267	149.06
416.49	137.06
416.713	142.06
416.936	132.06
417.159	140.06
417.382	130.06
417.605	127.06
417.828	146.06
418.051	146.06
418.274	131.06
418.497	127.06
418.72	134.06
418.943	131.06
419.166	128.06
419.389	142.06
419.611	142.06
419.834	137.06
420.057	143.06
420.28	130.06
420.503	140.06
420.726	135.06
420.948	115.06
421.171	132.06
421.394	137.06
421.617	150.06
421.839	145.06
422.062	138.06
422.285	135.06
422.507	152.06
422.73	148.06
422.953	143.06
423.175	138.06
423.398	127.06
423.621	133.06
423.843	140.06
424.066	143.06
424.288	131.06
424.511	144.06
424.733	144.06
424.956	138.06
425.178	151.06
425.401	155.06
425.623	151.06
425.846	129.06
426.068	130.06
426.291	136.06
426.513	137.06
426.735	124.06
426.958	143.06
427.18	143.06
427.402	150.06
427.625	143.06
427.847	148.06
428.069	132.06
428.292	136.06
428.514	133.06
428.736	128.06
428.958	131.06
429.181	132.06
429.403	122.06
429.625	124.06
429.847	135.06
430.069	133.06
430.292	158.06
430.514	132.06
430.736	125.06
430.958	125.06
431.18	132.06
431.402	136.06
431.624	139.06
431.846	131.06
432.068	123.06
432.29	136.06
432.512	138.06
432.734	129.06
432.956	121.06
433.178	142.06
433.4	143.06
433.622	130.06
433.844	125.06
434.066	132.06
434.287	142.06
434.509	137.06
434.731	140.06
434.953	133.06
435.175	125.06
435.397	147.06
435.618	147.06
435.84	135.06
436.062	148.06
436.284	155.06
436.505	151.06
436.727	130.06
436.949	125.06
437.17	133.06
437.392	127.06
437.614	128.06
437.835	123.06
438.057	133.06
438.278	132.06
438.5	148.06
438.721	159.06
438.943	140.06
439.165	139.06
439.386	143.06
439.608	130.06
439.829	131.06
440.05	130.06
440.272	136.06
440.493	129.06
440.715	137.06
440.936	126.06
441.158	139.06
441.379	132.06
441.6	144.06
441.822	129.06
442.043	154.06
442.264	146.06
442.486	168.06
442.707	127.06
442.928	141.06
443.149	121.06
443.371	147.06
443.592	155.06
443.813	142.06
444.034	137.06
444.255	148.06
444.476	135.06
444.698	145.06
444.919	161.06
445.14	213.06
445.361	193.06
445.582	155.06
445.803	151.06
446.024	149.06
446.245	143.06
446.466	135.06
446.687	140.06
446.908	139.06
447.129	132.06
447.35	133.06
447.571	130.06
447.792	135.06
448.013	136.06
448.234	131.06
448.455	131.06
448.675	133.06
448.896	136.06
449.117	133.06
449.338	155.06
449.559	140.06
449.779	144.06
450	147.06
450.221	141.06
450.442	133.06
450.662	129.06
450.883	130.06
451.104	121.06
451.324	128.06
451.545	114.06
451.766	116.06
451.986	139.06
452.207	126.06
452.428	123.06
452.648	126.06
452.869	123.06
453.089	132.06
453.31	129.06
453.53	129.06
453.751	132.06
453.971	124.06
454.192	127.06
454.412	128.06
454.633	135.06
454.853	110.06
455.073	128.06
455.294	120.06
455.514	140.06
455.734	140.06
455.955	129.06
456.175	131.06
456.395	128.06
456.616	128.06
456.836	124.06
457.056	116.06
457.276	121.06
457.497	129.06
457.717	112.06
457.937	123.06
458.157	124.06
458.377	123.06
458.598	110.06
458.818	135.06
459.038	143.06
459.258	129.06
459.478	133.06
459.698	129.06
459.918	132.06
460.138	125.06
460.358	124.06
460.578	128.06
460.798	120.06
461.018	137.06
461.238	138.06
461.458	131.06
461.678	137.06
461.898	131.06
462.118	133.06
462.338	145.06
462.558	136.06
462.777	131.06
462.997	130.06
463.217	137.06
463.437	153.06
463.657	139.06
463.876	134.06
464.096	135.06
464.316	127.06
464.536	144.06
464.755	154.06
464.975	117.06
465.195	143.06
465.414	128.06
465.634	152.06
465.854	129.06
466.073	133.06
466.293	144.06
466.512	138.06
466.732	137.06
466.951	119.06
467.171	122.06
467.391	127.06
467.61	136.06
467.829	126.06
468.049	132.06
468.268	129.06
468.488	147.06
468.707	131.06
468.927	123.06
469.146	119.06
469.365	129.06
469.585	129.06
469.804	139.06
470.023	135.06
470.243	151.06
470.462	138.06
470.681	144.06
470.901	143.06
471.12	132.06
471.339	130.06
471.558	121.06
471.777	121.06
471.997	125.06
472.216	130.06
472.435	136.06
472.654	136.06
472.873	128.06
473.092	128.06
473.311	145.06
473.53	115.06
473.749	119.06
473.968	149.06
474.187	131.06
474.406	136.06
474.625	143.06
474.844	133.06
475.063	122.06
475.282	129.06
475.501	131.06
475.72	129.06
475.939	131.06
476.158	127.06
476.377	138.06
476.596	117.06
476.814	124.06
477.033	136.06
477.252	132.06
477.471	134.06
477.69	130.06
477.908	127.06
478.127	137.06
478.346	132.06
478.564	135.06
478.783	139.06
479.002	147.06
479.22	128.06
479.439	131.06
479.658	134.06
479.876	139.06
480.095	137.06
480.313	145.06
480.532	143.06
480.751	130.06
480.969	149.06
481.188	138.06
481.406	133.06
481.624	141.06
481.843	140.06
482.061	140.06
482.28	140.06
482.498	146.06
482.717	132.06
482.935	140.06
483.153	139.06
483.372	141.06
483.59	143.06
483.808	140.06
484.027	142.06
484.245	123.06
484.463	138.06
484.681	144.06
484.9	133.06
485.118	143.06
485.336	140.06
485.554	123.06
485.772	148.06
485.99	132.06
486.209	135.06
486.427	137.06
486.645	146.06
486.863	143.06
487.081	131.06
487.299	131.06
487.517	151.06
487.735	153.06
487.953	148.06
488.171	142.06
488.389	124.06
488.607	148.06
488.825	145.06
489.043	125.06
489.261	150.06
489.479	144.06
489.696	144.06
489.914	140.06
490.132	141.06
490.35	146.06
490.568	137.06
490.786	134.06
491.003	142.06
491.221	148.06
491.439	153.06
491.657	156.06
491.874	154.06
492.092	149.06
492.31	163.06
492.527	166.06
492.745	164.06
492.963	125.06
493.18	152.06
493.398	161.06
493.615	150.06
493.833	152.06
494.05	148.06
494.268	154.06
494.485	171.06
494.703	143.06
494.92	149.06
495.138	148.06
495.355	161.06
495.573	157.06
495.79	157.06
496.008	157.06
496.225	150.06
496.442	161.06
496.66	142.06
496.877	144.06
497.094	147.06
497.312	155.06
497.529	146.06
497.746	151.06
497.963	161.06
498.181	157.06
498.398	157.06
498.615	173.06
498.832	171.06
499.049	165.06
499.267	176.06
499.484	168.06
499.701	175.06
499.918	201.06
500.135	200.06
500.352	212.06
500.569	221.06
500.786	220.06
501.003	221.06
501.22	210.06
501.437	191.06
501.654	187.06
501.871	183.06
502.088	179.06
502.305	168.06
502.522	155.06
502.739	169.06
502.956	150.06
503.172	152.06
503.389	160.06
503.606	133.06
503.823	155.06
504.04	163.06
504.256	160.06
504.473	156.06
504.69	155.06
504.907	169.06
505.123	136.06
505.34	143.06
505.557	138.06
505.773	143.06
505.99	135.06
506.207	136.06
506.423	137.06
506.64	137.06
506.856	131.06
507.073	151.06
507.289	138.06
507.506	145.06
507.722	129.06
507.939	119.06
508.155	155.06
508.372	148.06
508.588	135.06
508.805	129.06
509.021	143.06
509.238	148.06
509.454	152.06
509.67	137.06
509.887	133.06
510.103	133.06
510.319	135.06
510.536	130.06
510.752	157.06
510.968	162.06
511.184	132.06
511.401	136.06
511.617	127.06
511.833	146.06
512.049	130.06
512.265	139.06
512.481	141.06
512.698	126.06
512.914	132.06
513.13	113.06
513.346	144.06
513.562	141.06
513.778	139.06
513.994	122.06
514.21	128.06
514.426	126.06
514.642	109.06
514.858	126.06
515.074	143.06
515.29	148.06
515.506	157.06
515.721	151.06
515.937	133.06
516.153	122.06
516.369	139.06
516.585	134.06
516.801	133.06
517.016	140.06
517.232	156.06
517.448	133.06
517.664	148.06
517.879	157.06
518.095	135.06
518.311	133.06
518.527	145.06
518.742	138.06
518.958	130.06
519.173	145.06
519.389	143.06
519.605	133.06
519.82	133.06
520.036	122.06
520.251	130.06
520.467	137.06
520.682	132.06
520.898	139.06
521.113	134.06
521.329	128.06
521.544	135.06
521.76	160.06
521.975	193.06
522.19	200.06
522.406	157.06
522.621	133.06
522.836	135.06
523.052	135.06
523.267	130.06
523.482	138.06
523.698	123.06
523.913	145.06
524.128	131.06
524.343	124.06
524.559	130.06
524.774	131.06
524.989	126.06
525.204	137.06
525.419	117.06
525.634	121.06
525.849	129.06
526.064	139.06
526.28	126.06
526.495	121.06
526.71	129.06
526.925	135.06
527.14	124.06
527.355	121.06
527.57	115.06
527.785	134.06
527.999	124.06
528.214	148.06
528.429	131.06
528.644	128.06
528.859	125.06
529.074	135.06
529.289	135.06
529.503	135.06
529.718	142.06
529.933	135.06
530.148	121.06
530.363	141.06
530.577	120.06
530.792	122.06
531.007	126.06
531.221	121.06
531.436	121.06
531.651	109.06
531.865	125.06
532.08	124.06
532.295	131.06
532.509	128.06
532.724	108.06
532.938	112.06
533.153	114.06
533.367	119.06
533.582	131.06
533.796	130.06
534.011	128.06
534.225	127.06
534.44	121.06
534.654	129.06
534.868	129.06
535.083	143.06
535.297	131.06
535.511	122.06
535.726	128.06
535.94	124.06
536.154	111.06
536.369	130.06
536.583	116.06
536.797	126.06
537.011	125.06
537.225	133.06
537.44	137.06
537.654	119.06
537.868	114.06
538.082	141.06
538.296	128.06
538.51	130.06
538.724	116.06
538.938	132.06
539.153	133.06
539.367	138.06
539.581	124.06
539.795	112.06
540.009	114.06
540.222	122.06
540.436	131.06
540.65	125.06
540.864	127.06
541.078	133.06
541.292	129.06
541.506	140.06
541.72	128.06
541.934	147.06
542.147	135.06
542.361	142.06
542.575	138.06
542.789	155.06
543.002	141.06
543.216	148.06
543.43	136.06
543.644	129.06
543.857	153.06
544.071	140.06
544.285	137.06
544.498	129.06
544.712	148.06
544.925	146.06
545.139	145.06
545.352	133.06
545.566	141.06
545.779	130.06
545.993	131.06
546.206	128.06
546.42	138.06
546.633	135.06
546.847	132.06
547.06	139.06
547.274	130.06
547.487	143.06
547.7	155.06
547.914	143.06
548.127	132.06
548.34	128.06
548.554	125.06
548.767	131.06
548.98	128.06
549.193	129.06
549.407	146.06
549.62	137.06
549.833	121.06
550.046	137.06
550.259	148.06
550.473	112.06
550.686	135.06
550.899	135.06
551.112	120.06
551.325	127.06
551.538	128.06
551.751	119.06
551.964	140.06
552.177	130.06
552.39	137.06
552.603	139.06
552.816	130.06
553.029	139.06
553.242	129.06
553.455	137.06
553.667	141.06
553.88	132.06
554.093	124.06
554.306	129.06
554.519	124.06
554.732	131.06
554.944	129.06
555.157	124.06
555.37	130.06
555.583	143.06
555.795	125.06
556.008	127.06
556.221	124.06
556.433	119.06
556.646	135.06
556.859	130.06
557.071	128.06
557.284	131.06
557.496	121.06
557.709	129.06
557.921	119.06
558.134	126.06
558.346	130.06
558.559	115.06
558.771	121.06
558.984	115.06
559.196	113.06
559.409	114.06
559.621	107.06
559.833	119.06
560.046	134.06
560.258	125.06
560.47	121.06
560.683	132.06
560.895	124.06
561.107	128.06
561.32	128.06
561.532	127.06
561.744	126.06
561.956	135.06
562.168	120.06
562.381	122.06
562.593	127.06
562.805	121.06
563.017	125.06
563.229	131.06
563.441	128.06
563.653	119.06
563.865	111.06
564.077	116.06
564.289	129.06
564.501	130.06
564.713	123.06
564.925	116.06
565.137	123.06
565.349	130.06
565.561	135.06
565.773	138.06
565.985	125.06
566.197	137.06
566.408	133.06
566.62	131.06
566.832	146.06
567.044	147.06
567.255	144.06
567.467	147.06
567.679	144.06
567.891	137.06
568.102	132.06
568.314	135.06
568.526	139.06
568.737	151.06
568.949	121.06
569.161	139.06
569.372	130.06
569.584	132.06
569.795	122.06
570.007	124.06
570.218	132.06
570.43	116.06
570.641	123.06
570.853	122.06
571.064	109.06
571.276	119.06
571.487	114.06
571.698	128.06
571.91	118.06
572.121	114.06
572.333	125.06
572.544	112.06
572.755	114.06
572.966	108.06
573.178	110.06
573.389	124.06
573.6	114.06
573.811	116.06
574.023	119.06
574.234	103.06
574.445	109.06
574.656	134.06
574.867	109.06
575.078	125.06
575.289	122.06
575.501	115.06
575.712	110.06
575.923	125.06
576.134	98.06
576.345	122.06
576.556	121.06
576.767	120.06
576.978	115.06
577.188	121.06
577.399	112.06
577.61	108.06
577.821	90.06
578.032	120.06
578.243	124.06
578.454	125.06
578.665	130.06
578.875	127.06
579.086	103.06
579.297	112.06
579.508	112.06
579.718	116.06
579.929	111.06
580.14	114.06
580.35	108.06
580.561	107.06
580.772	120.06
580.982	122.06
581.193	121.06
581.403	118.06
581.614	128.06
581.825	109.06
582.035	112.06
582.246	108.06
582.456	107.06
582.667	102.06
582.877	130.06
583.087	108.06
583.298	125.06
583.508	108.06
583.719	112.06
583.929	119.06
584.139	113.06
584.35	103.06
584.56	114.06
584.77	105.06
584.981	119.06
585.191	105.06
585.401	117.06
585.611	113.06
585.821	122.06
586.032	107.06
586.242	125.06
586.452	107.06
586.662	115.06
586.872	105.06
587.082	113.06
587.292	131.06
587.502	123.06
587.713	122.06
587.923	114.06
588.133	111.06
588.343	100.06
588.553	108.06
588.762	113.06
588.972	131.06
589.182	128.06
589.392	100.06
589.602	108.06
589.812	116.06
590.022	113.06
590.232	113.06
590.441	111.06
590.651	117.06
590.861	123.06
591.071	127.06
591.281	116.06
591.49	116.06
591.7	116.06
591.91	110.06
592.119	120.06
592.329	124.06
592.539	116.06
592.748	108.06
592.958	113.06
593.167	119.06
593.377	119.06
593.587	120.06
593.796	123.06
594.006	121.06
594.215	124.06
594.424	109.06
594.634	123.06
594.843	106.06
595.053	110.06
595.262	109.06
595.472	110.06
595.681	123.06
595.89	110.06
596.1	108.06
596.309	120.06
596.518	104.06
596.727	108.06
596.937	105.06
597.146	114.06
597.355	121.06
597.564	115.06
597.774	116.06
597.983	123.06
598.192	110.06
598.401	120.06
598.61	107.06
598.819	115.06
599.028	99.06
599.237	111.06
599.446	115.06
599.655	112.06
599.864	112.06
600.073	104.06
600.282	105.06
600.491	107.06
600.7	97.06
600.909	116.06
601.118	115.06
601.327	109.06
601.536	120.06
601.745	101.06
601.953	101.06
602.162	110.06
602.371	108.06
602.58	106.06
602.789	106.06
602.997	109.06
603.206	112.06
603.415	113.06
603.623	111.06
603.832	106.06
604.041	117.06
604.249	114.06
604.458	100.06
604.666	96.06
604.875	105.06
605.084	105.06
605.292	107.06
605.501	108.06
605.709	114.06
605.918	107.06
606.126	130.06
606.334	110.06
606.543	124.06
606.751	101.06
606.96	99.06
607.168	114.06
607.376	110.06
607.585	115.06
607.793	103.06
608.001	102.06
608.21	120.06
608.418	103.06
608.626	99.06
608.834	95.06
609.043	111.06
609.251	108.06
609.459	102.06
609.667	119.06
609.875	101.06
610.083	91.06
610.291	128.06
610.499	118.06
610.707	108.06
610.916	110.06
611.124	108.06
611.332	111.06
611.54	129.06
611.748	127.06
611.955	122.06
612.163	107.06
612.371	115.06
612.579	112.06
612.787	107.06
612.995	118.06
613.203	106.06
613.411	107.06
613.618	101.06
613.826	102.06
614.034	119.06
614.242	100.06
614.449	109.06
614.657	106.06
614.865	109.06
615.072	99.06
615.28	100.06
615.488	111.06
615.695	105.06
615.903	108.06
616.111	94.06
616.318	109.06
616.526	109.06
616.733	108.06
616.941	107.06
617.148	112.06
617.356	104.06
617.563	106.06
617.771	98.06
617.978	106.06
618.185	96.06
618.393	124.06
618.6	107.06
618.807	115.06
619.015	107.06
619.222	101.06
619.429	100.06
619.637	99.06
619.844	103.06
620.051	98.06
620.258	109.06
620.466	108.06
620.673	106.06
620.88	98.06
621.087	101.06
621.294	113.06
621.501	120.06
621.708	123.06
621.915	98.06
622.122	106.06
622.329	98.06
622.536	115.06
622.743	114.06
622.95	110.06
623.157	116.06
623.364	109.06
623.571	107.06
623.778	103.06
623.985	107.06
624.192	114.06
624.399	110.06
624.606	101.06
624.812	106.06
625.019	107.06
625.226	107.06
625.433	108.06
625.639	104.06
625.846	105.06
626.053	112.06
626.259	114.06
626.466	100.06
626.673	104.06
626.879	106.06
627.086	97.06
627.293	99.06
627.499	107.06
627.706	101.06
627.912	97.06
628.119	100.06
628.325	110.06
628.532	97.06
628.738	121.06
628.945	110.06
629.151	109.06
629.357	83.06
629.564	90.06
629.77	96.06
629.976	112.06
630.183	94.06
630.389	100.06
630.595	103.06
630.802	100.06
631.008	98.06
631.214	117.06
631.42	107.06
631.627	101.06
631.833	89.06
632.039	96.06
632.245	96.06
632.451	101.06
632.657	94.06
632.863	105.06
633.069	88.06
633.275	109.06
633.481	92.06
633.688	105.06
633.893	107.06
634.099	98.06
634.305	100.06
634.511	99.06
634.717	88.06
634.923	93.06
635.129	100.06
635.335	91.06
635.541	88.06
635.747	98.06
635.952	98.06
636.158	106.06
636.364	100.06
636.57	102.06
636.775	98.06
636.981	91.06
637.187	95.06
637.392	104.06
637.598	99.06
637.804	88.06
638.009	110.06
638.215	97.06
638.421	95.06
638.626	103.06
638.832	111.06
639.037	110.06
639.243	112.06
639.448	90.06
639.654	105.06
639.859	105.06
640.065	102.06
640.27	116.06
640.475	115.06
640.681	88.06
640.886	108.06
641.091	98.06
641.297	93.06
641.502	92.06
641.707	98.06
641.913	106.06
642.118	96.06
642.323	96.06
642.528	107.06
642.733	93.06
642.939	90.06
643.144	106.06
643.349	84.06
643.554	102.06
643.759	100.06
643.964	105.06
644.169	97.06
644.374	100.06
644.579	95.06
644.784	92.06
644.989	112.06
645.194	99.06
645.399	107.06
645.604	99.06
645.809	98.06
646.014	74.06
646.219	104.06
646.423	105.06
646.628	106.06
646.833	108.06
647.038	99.06
647.243	103.06
647.447	107.06
647.652	106.06
647.857	84.06
648.062	103.06
648.266	88.06
648.471	108.06
648.676	107.06
648.88	106.06
649.085	112.06
649.289	96.06
649.494	97.06
649.698	104.06
649.903	87.06
650.107	94.06
650.312	105.06
650.516	95.06
650.721	97.06
650.925	83.06
651.13	110.06
651.334	102.06
651.539	104.06
651.743	87.06
651.947	103.06
652.152	101.06
652.356	98.06
652.56	92.06
652.764	103.06
652.969	72.06
653.173	97.06
653.377	105.06
653.581	90.06
653.785	95.06
653.99	111.06
654.194	94.06
654.398	92.06
654.602	84.06
654.806	100.06
655.01	104.06
655.214	86.06
655.418	87.06
655.622	103.06
655.826	84.06
656.03	92.06
656.234	104.06
656.438	90.06
656.642	103.06
656.846	101.06
657.049	105.06
657.253	101.06
657.457	105.06
657.661	80.06
657.865	97.06
658.068	84.06
658.272	95.06
658.476	88.06
658.68	95.06
658.883	95.06
659.087	96.06
659.291	105.06
659.494	91.06
659.698	93.06
659.901	85.06
660.105	101.06
660.309	97.06
660.512	95.06
660.716	92.06
660.919	93.06
661.123	97.06
661.326	89.06
661.53	97.06
661.733	87.06
661.936	88.06
662.14	83.06
662.343	84.06
662.546	97.06
662.75	100.06
662.953	98.06
663.156	91.06
663.36	91.06
663.563	92.06
663.766	99.06
663.969	88.06
664.173	88.06
664.376	97.06
664.579	85.06
664.782	95.06
664.985	87.06
665.188	84.06
665.391	88.06
665.594	83.06
665.797	74.06
666	83.06
666.203	90.06
666.406	93.06
666.609	97.06
666.812	79.06
667.015	85.06
667.218	107.06
667.421	88.06
667.624	87.06
667.827	91.06
668.03	75.06
668.232	96.06
668.435	75.06
668.638	83.06
668.841	86.06
669.043	93.06
669.246	101.06
669.449	76.06
669.651	82.06
669.854	76.06
670.057	91.06
670.259	86.06
670.462	94.06
670.665	96.06
670.867	85.06
671.07	93.06
671.272	103.06
671.475	98.06
671.677	85.06
671.88	94.06
672.082	83.06
672.284	82.06
672.487	82.06
672.689	79.06
672.892	83.06
