Data from 1968.PennyLincolnUp.Lamp.En5.5.200Scan.071719.P1._HRD10591_14-51-43-970.txt Node
Date: Thu Jul 18 14:51:43 EDT 2019
User: cochatt
Spectrometer: HR+D1059
Trigger mode: 1
Integration Time (sec): 1.000000E-1
Scans to average: 1
Electric dark correction enabled: true
Nonlinearity correction enabled: false
Boxcar width: 0
XAxis mode: Wavelengths
Number of Pixels in Spectrum: 2048
>>>>>Begin Spectral Data<<<<<
223.165	-16.94
223.4	-16.94
223.635	-16.94
223.869	-19.94
224.104	-29.94
224.338	-14.94
224.573	-17.94
224.808	-4.94
225.042	4.06
225.277	-10.94
225.511	7.06
225.746	4.06
225.98	13.06
226.215	12.06
226.449	12.06
226.683	23.06
226.918	24.06
227.152	16.06
227.387	32.06
227.621	28.06
227.856	48.06
228.09	44.06
228.324	55.06
228.559	61.06
228.793	48.06
229.027	52.06
229.262	55.06
229.496	67.06
229.73	71.06
229.964	69.06
230.199	74.06
230.433	67.06
230.667	79.06
230.901	85.06
231.136	80.06
231.37	80.06
231.604	86.06
231.838	88.06
232.072	85.06
232.306	84.06
232.541	79.06
232.775	87.06
233.009	80.06
233.243	78.06
233.477	73.06
233.711	83.06
233.945	74.06
234.179	88.06
234.413	82.06
234.647	82.06
234.881	74.06
235.115	73.06
235.349	84.06
235.583	85.06
235.817	83.06
236.051	74.06
236.285	72.06
236.519	72.06
236.753	88.06
236.987	83.06
237.221	84.06
237.455	92.06
237.689	88.06
237.922	70.06
238.156	71.06
238.39	83.06
238.624	79.06
238.858	77.06
239.091	87.06
239.325	83.06
239.559	81.06
239.793	78.06
240.027	77.06
240.26	84.06
240.494	97.06
240.728	88.06
240.961	82.06
241.195	83.06
241.429	93.06
241.662	80.06
241.896	78.06
242.13	71.06
242.363	91.06
242.597	80.06
242.83	86.06
243.064	77.06
243.298	79.06
243.531	88.06
243.765	77.06
243.998	87.06
244.232	85.06
244.465	85.06
244.699	73.06
244.932	83.06
245.166	84.06
245.399	92.06
245.633	83.06
245.866	88.06
246.099	86.06
246.333	89.06
246.566	78.06
246.8	80.06
247.033	92.06
247.266	72.06
247.5	72.06
247.733	97.06
247.966	86.06
248.2	86.06
248.433	90.06
248.666	90.06
248.899	87.06
249.133	74.06
249.366	88.06
249.599	86.06
249.832	86.06
250.066	82.06
250.299	81.06
250.532	90.06
250.765	75.06
250.998	84.06
251.231	91.06
251.465	87.06
251.698	80.06
251.931	79.06
252.164	72.06
252.397	88.06
252.63	89.06
252.863	88.06
253.096	88.06
253.329	91.06
253.562	80.06
253.795	99.06
254.028	89.06
254.261	93.06
254.494	102.06
254.727	85.06
254.96	104.06
255.193	88.06
255.426	92.06
255.659	87.06
255.892	83.06
256.124	78.06
256.357	105.06
256.59	83.06
256.823	92.06
257.056	89.06
257.289	75.06
257.521	85.06
257.754	78.06
257.987	81.06
258.22	87.06
258.452	82.06
258.685	89.06
258.918	89.06
259.151	97.06
259.383	85.06
259.616	94.06
259.849	87.06
260.081	97.06
260.314	95.06
260.547	94.06
260.779	93.06
261.012	83.06
261.244	69.06
261.477	101.06
261.71	98.06
261.942	98.06
262.175	88.06
262.407	80.06
262.64	91.06
262.872	102.06
263.105	88.06
263.337	91.06
263.57	79.06
263.802	85.06
264.035	87.06
264.267	96.06
264.499	101.06
264.732	84.06
264.964	86.06
265.197	88.06
265.429	94.06
265.661	86.06
265.894	99.06
266.126	103.06
266.358	112.06
266.591	91.06
266.823	99.06
267.055	97.06
267.287	95.06
267.52	90.06
267.752	101.06
267.984	78.06
268.216	85.06
268.448	93.06
268.681	94.06
268.913	90.06
269.145	97.06
269.377	95.06
269.609	91.06
269.841	97.06
270.073	91.06
270.306	103.06
270.538	90.06
270.77	89.06
271.002	92.06
271.234	104.06
271.466	97.06
271.698	115.06
271.93	98.06
272.162	83.06
272.394	111.06
272.626	96.06
272.858	111.06
273.09	103.06
273.322	95.06
273.553	108.06
273.785	97.06
274.017	92.06
274.249	104.06
274.481	87.06
274.713	91.06
274.945	95.06
275.176	89.06
275.408	99.06
275.64	103.06
275.872	100.06
276.104	86.06
276.335	89.06
276.567	92.06
276.799	102.06
277.031	90.06
277.262	98.06
277.494	103.06
277.726	96.06
277.957	103.06
278.189	105.06
278.421	96.06
278.652	98.06
278.884	95.06
279.115	107.06
279.347	91.06
279.579	96.06
279.81	98.06
280.042	81.06
280.273	97.06
280.505	104.06
280.736	101.06
280.968	99.06
281.199	108.06
281.431	103.06
281.662	113.06
281.894	85.06
282.125	102.06
282.356	96.06
282.588	93.06
282.819	101.06
283.051	88.06
283.282	95.06
283.513	104.06
283.745	88.06
283.976	86.06
284.207	100.06
284.439	94.06
284.67	114.06
284.901	87.06
285.132	95.06
285.364	99.06
285.595	104.06
285.826	98.06
286.057	89.06
286.288	98.06
286.52	87.06
286.751	107.06
286.982	101.06
287.213	99.06
287.444	88.06
287.675	99.06
287.906	104.06
288.138	107.06
288.369	97.06
288.6	91.06
288.831	88.06
289.062	95.06
289.293	98.06
289.524	93.06
289.755	91.06
289.986	86.06
290.217	108.06
290.448	102.06
290.679	100.06
290.91	95.06
291.141	112.06
291.371	113.06
291.602	96.06
291.833	102.06
292.064	95.06
292.295	102.06
292.526	102.06
292.757	89.06
292.987	100.06
293.218	104.06
293.449	115.06
293.68	99.06
293.91	106.06
294.141	104.06
294.372	87.06
294.603	101.06
294.833	106.06
295.064	103.06
295.295	106.06
295.525	95.06
295.756	89.06
295.987	91.06
296.217	96.06
296.448	89.06
296.679	92.06
296.909	108.06
297.14	111.06
297.37	105.06
297.601	94.06
297.831	91.06
298.062	93.06
298.292	98.06
298.523	86.06
298.753	106.06
298.984	95.06
299.214	89.06
299.445	105.06
299.675	98.06
299.905	97.06
300.136	112.06
300.366	90.06
300.597	107.06
300.827	110.06
301.057	97.06
301.288	111.06
301.518	110.06
301.748	103.06
301.979	122.06
302.209	111.06
302.439	93.06
302.669	107.06
302.9	93.06
303.13	90.06
303.36	111.06
303.59	107.06
303.82	103.06
304.051	100.06
304.281	103.06
304.511	90.06
304.741	102.06
304.971	103.06
305.201	97.06
305.431	97.06
305.661	112.06
305.891	91.06
306.121	102.06
306.352	103.06
306.582	84.06
306.812	100.06
307.042	94.06
307.272	113.06
307.502	91.06
307.731	88.06
307.961	109.06
308.191	94.06
308.421	108.06
308.651	94.06
308.881	111.06
309.111	116.06
309.341	103.06
309.571	89.06
309.8	106.06
310.03	110.06
310.26	102.06
310.49	101.06
310.72	103.06
310.949	98.06
311.179	106.06
311.409	116.06
311.639	87.06
311.868	102.06
312.098	98.06
312.328	118.06
312.557	100.06
312.787	113.06
313.017	112.06
313.246	112.06
313.476	107.06
313.706	113.06
313.935	107.06
314.165	85.06
314.394	119.06
314.624	102.06
314.853	105.06
315.083	100.06
315.312	118.06
315.542	101.06
315.771	111.06
316.001	108.06
316.23	107.06
316.46	107.06
316.689	100.06
316.919	97.06
317.148	117.06
317.377	113.06
317.607	96.06
317.836	102.06
318.065	116.06
318.295	101.06
318.524	103.06
318.753	107.06
318.983	105.06
319.212	107.06
319.441	118.06
319.67	113.06
319.9	114.06
320.129	114.06
320.358	114.06
320.587	112.06
320.816	74.06
321.046	105.06
321.275	107.06
321.504	108.06
321.733	112.06
321.962	105.06
322.191	107.06
322.42	94.06
322.649	104.06
322.878	93.06
323.108	104.06
323.337	112.06
323.566	102.06
323.795	95.06
324.024	115.06
324.253	131.06
324.482	132.06
324.71	153.06
324.939	184.06
325.168	148.06
325.397	120.06
325.626	123.06
325.855	118.06
326.084	109.06
326.313	99.06
326.542	106.06
326.77	129.06
326.999	113.06
327.228	116.06
327.457	170.06
327.686	136.06
327.914	129.06
328.143	124.06
328.372	112.06
328.6	107.06
328.829	97.06
329.058	116.06
329.287	119.06
329.515	113.06
329.744	121.06
329.972	106.06
330.201	109.06
330.43	108.06
330.658	118.06
330.887	120.06
331.115	111.06
331.344	104.06
331.572	123.06
331.801	114.06
332.03	117.06
332.258	109.06
332.486	108.06
332.715	118.06
332.943	120.06
333.172	114.06
333.4	109.06
333.629	116.06
333.857	107.06
334.085	106.06
334.314	109.06
334.542	121.06
334.771	125.06
334.999	125.06
335.227	109.06
335.455	108.06
335.684	122.06
335.912	113.06
336.14	124.06
336.369	101.06
336.597	113.06
336.825	123.06
337.053	107.06
337.281	127.06
337.51	119.06
337.738	114.06
337.966	103.06
338.194	111.06
338.422	104.06
338.65	105.06
338.878	125.06
339.106	122.06
339.334	111.06
339.562	105.06
339.79	112.06
340.018	105.06
340.246	103.06
340.474	101.06
340.702	116.06
340.93	111.06
341.158	114.06
341.386	124.06
341.614	112.06
341.842	101.06
342.07	118.06
342.298	100.06
342.526	114.06
342.754	122.06
342.981	113.06
343.209	111.06
343.437	114.06
343.665	120.06
343.893	100.06
344.12	108.06
344.348	106.06
344.576	120.06
344.804	123.06
345.031	111.06
345.259	118.06
345.487	116.06
345.714	101.06
345.942	117.06
346.17	116.06
346.397	124.06
346.625	116.06
346.853	109.06
347.08	104.06
347.308	94.06
347.535	104.06
347.763	117.06
347.99	115.06
348.218	105.06
348.445	105.06
348.673	105.06
348.9	116.06
349.128	109.06
349.355	111.06
349.583	117.06
349.81	115.06
350.037	112.06
350.265	108.06
350.492	106.06
350.72	99.06
350.947	84.06
351.174	103.06
351.402	103.06
351.629	108.06
351.856	117.06
352.083	111.06
352.311	102.06
352.538	111.06
352.765	101.06
352.992	104.06
353.22	108.06
353.447	87.06
353.674	107.06
353.901	109.06
354.128	114.06
354.355	117.06
354.583	128.06
354.81	97.06
355.037	99.06
355.264	112.06
355.491	106.06
355.718	110.06
355.945	117.06
356.172	97.06
356.399	103.06
356.626	102.06
356.853	103.06
357.08	111.06
357.307	102.06
357.534	111.06
357.761	106.06
357.988	109.06
358.215	98.06
358.441	117.06
358.668	105.06
358.895	108.06
359.122	113.06
359.349	106.06
359.576	98.06
359.802	101.06
360.029	103.06
360.256	105.06
360.483	103.06
360.709	113.06
360.936	102.06
361.163	96.06
361.39	97.06
361.616	101.06
361.843	120.06
362.07	121.06
362.296	108.06
362.523	109.06
362.749	103.06
362.976	95.06
363.203	117.06
363.429	115.06
363.656	104.06
363.882	101.06
364.109	102.06
364.335	115.06
364.562	104.06
364.788	97.06
365.015	109.06
365.241	115.06
365.468	115.06
365.694	114.06
365.92	106.06
366.147	106.06
366.373	98.06
366.599	94.06
366.826	108.06
367.052	111.06
367.278	106.06
367.505	107.06
367.731	111.06
367.957	103.06
368.184	110.06
368.41	98.06
368.636	115.06
368.862	100.06
369.089	105.06
369.315	108.06
369.541	108.06
369.767	116.06
369.993	117.06
370.219	111.06
370.445	97.06
370.672	105.06
370.898	102.06
371.124	112.06
371.35	111.06
371.576	114.06
371.802	118.06
372.028	121.06
372.254	104.06
372.48	105.06
372.706	111.06
372.932	117.06
373.158	102.06
373.384	111.06
373.61	116.06
373.835	121.06
374.061	106.06
374.287	113.06
374.513	111.06
374.739	106.06
374.965	111.06
375.191	107.06
375.416	96.06
375.642	108.06
375.868	116.06
376.094	104.06
376.319	110.06
376.545	98.06
376.771	118.06
376.997	107.06
377.222	111.06
377.448	97.06
377.674	115.06
377.899	106.06
378.125	112.06
378.35	108.06
378.576	104.06
378.802	105.06
379.027	110.06
379.253	109.06
379.478	107.06
379.704	104.06
379.929	102.06
380.155	119.06
380.38	115.06
380.606	97.06
380.831	103.06
381.057	112.06
381.282	119.06
381.507	120.06
381.733	123.06
381.958	124.06
382.184	96.06
382.409	114.06
382.634	111.06
382.86	107.06
383.085	115.06
383.31	100.06
383.535	111.06
383.761	111.06
383.986	115.06
384.211	116.06
384.436	110.06
384.662	123.06
384.887	106.06
385.112	122.06
385.337	113.06
385.562	119.06
385.787	96.06
386.013	108.06
386.238	123.06
386.463	113.06
386.688	117.06
386.913	108.06
387.138	107.06
387.363	120.06
387.588	121.06
387.813	106.06
388.038	120.06
388.263	115.06
388.488	101.06
388.713	112.06
388.938	106.06
389.163	119.06
389.387	119.06
389.612	101.06
389.837	107.06
390.062	124.06
390.287	113.06
390.512	115.06
390.736	116.06
390.961	118.06
391.186	110.06
391.411	123.06
391.636	125.06
391.86	127.06
392.085	129.06
392.31	117.06
392.534	111.06
392.759	113.06
392.984	112.06
393.208	125.06
393.433	121.06
393.658	110.06
393.882	99.06
394.107	118.06
394.331	122.06
394.556	112.06
394.78	118.06
395.005	107.06
395.229	121.06
395.454	107.06
395.678	117.06
395.903	116.06
396.127	127.06
396.352	121.06
396.576	120.06
396.801	123.06
397.025	132.06
397.249	120.06
397.474	127.06
397.698	99.06
397.922	111.06
398.147	133.06
398.371	152.06
398.595	113.06
398.82	132.06
399.044	127.06
399.268	131.06
399.492	139.06
399.717	134.06
399.941	143.06
400.165	146.06
400.389	131.06
400.613	130.06
400.837	130.06
401.062	117.06
401.286	124.06
401.51	137.06
401.734	123.06
401.958	127.06
402.182	120.06
402.406	120.06
402.63	141.06
402.854	121.06
403.078	136.06
403.302	121.06
403.526	132.06
403.75	131.06
403.974	132.06
404.198	150.06
404.422	126.06
404.645	127.06
404.869	127.06
405.093	139.06
405.317	137.06
405.541	134.06
405.765	130.06
405.988	127.06
406.212	131.06
406.436	135.06
406.66	139.06
406.883	132.06
407.107	129.06
407.331	127.06
407.555	149.06
407.778	125.06
408.002	141.06
408.226	131.06
408.449	129.06
408.673	127.06
408.896	138.06
409.12	127.06
409.344	137.06
409.567	133.06
409.791	138.06
410.014	142.06
410.238	134.06
410.461	119.06
410.685	124.06
410.908	115.06
411.132	117.06
411.355	134.06
411.578	141.06
411.802	120.06
412.025	128.06
412.249	136.06
412.472	140.06
412.695	135.06
412.919	134.06
413.142	123.06
413.365	124.06
413.589	129.06
413.812	125.06
414.035	128.06
414.258	130.06
414.482	130.06
414.705	126.06
414.928	121.06
415.151	119.06
415.374	120.06
415.597	128.06
415.821	134.06
416.044	128.06
416.267	122.06
416.49	123.06
416.713	130.06
416.936	122.06
417.159	113.06
417.382	127.06
417.605	134.06
417.828	125.06
418.051	123.06
418.274	124.06
418.497	129.06
418.72	133.06
418.943	124.06
419.166	120.06
419.389	132.06
419.611	123.06
419.834	118.06
420.057	121.06
420.28	117.06
420.503	136.06
420.726	132.06
420.948	119.06
421.171	120.06
421.394	138.06
421.617	124.06
421.839	125.06
422.062	124.06
422.285	135.06
422.507	127.06
422.73	129.06
422.953	125.06
423.175	131.06
423.398	125.06
423.621	131.06
423.843	132.06
424.066	140.06
424.288	125.06
424.511	134.06
424.733	140.06
424.956	132.06
425.178	124.06
425.401	139.06
425.623	141.06
425.846	129.06
426.068	132.06
426.291	112.06
426.513	129.06
426.735	126.06
426.958	122.06
427.18	146.06
427.402	129.06
427.625	137.06
427.847	144.06
428.069	127.06
428.292	125.06
428.514	134.06
428.736	139.06
428.958	119.06
429.181	120.06
429.403	122.06
429.625	128.06
429.847	112.06
430.069	133.06
430.292	124.06
430.514	124.06
430.736	122.06
430.958	132.06
431.18	131.06
431.402	111.06
431.624	117.06
431.846	130.06
432.068	144.06
432.29	121.06
432.512	127.06
432.734	117.06
432.956	140.06
433.178	126.06
433.4	126.06
433.622	105.06
433.844	135.06
434.066	129.06
434.287	106.06
434.509	125.06
434.731	117.06
434.953	123.06
435.175	116.06
435.397	127.06
435.618	130.06
435.84	136.06
436.062	147.06
436.284	137.06
436.505	142.06
436.727	129.06
436.949	128.06
437.17	128.06
437.392	125.06
437.614	99.06
437.835	111.06
438.057	115.06
438.278	143.06
438.5	113.06
438.721	145.06
438.943	136.06
439.165	134.06
439.386	131.06
439.608	130.06
439.829	134.06
440.05	113.06
440.272	121.06
440.493	136.06
440.715	135.06
440.936	131.06
441.158	139.06
441.379	124.06
441.6	120.06
441.822	125.06
442.043	113.06
442.264	127.06
442.486	132.06
442.707	139.06
442.928	120.06
443.149	123.06
443.371	130.06
443.592	117.06
443.813	126.06
444.034	143.06
444.255	133.06
444.476	131.06
444.698	128.06
444.919	115.06
445.14	253.06
445.361	196.06
445.582	140.06
445.803	134.06
446.024	134.06
446.245	139.06
446.466	118.06
446.687	126.06
446.908	109.06
447.129	127.06
447.35	127.06
447.571	120.06
447.792	121.06
448.013	118.06
448.234	109.06
448.455	115.06
448.675	127.06
448.896	124.06
449.117	133.06
449.338	131.06
449.559	140.06
449.779	140.06
450	138.06
450.221	123.06
450.442	129.06
450.662	120.06
450.883	121.06
451.104	127.06
451.324	120.06
451.545	139.06
451.766	121.06
451.986	129.06
452.207	123.06
452.428	110.06
452.648	113.06
452.869	122.06
453.089	123.06
453.31	125.06
453.53	120.06
453.751	121.06
453.971	120.06
454.192	125.06
454.412	117.06
454.633	104.06
454.853	115.06
455.073	121.06
455.294	116.06
455.514	126.06
455.734	136.06
455.955	117.06
456.175	112.06
456.395	111.06
456.616	105.06
456.836	110.06
457.056	117.06
457.276	103.06
457.497	114.06
457.717	129.06
457.937	109.06
458.157	114.06
458.377	117.06
458.598	106.06
458.818	140.06
459.038	129.06
459.258	129.06
459.478	134.06
459.698	136.06
459.918	128.06
460.138	124.06
460.358	120.06
460.578	134.06
460.798	132.06
461.018	130.06
461.238	117.06
461.458	113.06
461.678	119.06
461.898	143.06
462.118	143.06
462.338	141.06
462.558	129.06
462.777	127.06
462.997	128.06
463.217	128.06
463.437	139.06
463.657	127.06
463.876	133.06
464.096	116.06
464.316	136.06
464.536	130.06
464.755	147.06
464.975	128.06
465.195	132.06
465.414	121.06
465.634	117.06
465.854	123.06
466.073	126.06
466.293	128.06
466.512	117.06
466.732	120.06
466.951	132.06
467.171	118.06
467.391	108.06
467.61	112.06
467.829	129.06
468.049	129.06
468.268	109.06
468.488	105.06
468.707	105.06
468.927	125.06
469.146	119.06
469.365	131.06
469.585	131.06
469.804	130.06
470.023	129.06
470.243	132.06
470.462	115.06
470.681	135.06
470.901	127.06
471.12	118.06
471.339	127.06
471.558	119.06
471.777	122.06
471.997	124.06
472.216	126.06
472.435	127.06
472.654	111.06
472.873	120.06
473.092	120.06
473.311	112.06
473.53	124.06
473.749	119.06
473.968	139.06
474.187	123.06
474.406	146.06
474.625	131.06
474.844	133.06
475.063	121.06
475.282	129.06
475.501	131.06
475.72	135.06
475.939	132.06
476.158	135.06
476.377	125.06
476.596	126.06
476.814	117.06
477.033	114.06
477.252	121.06
477.471	115.06
477.69	124.06
477.908	134.06
478.127	127.06
478.346	124.06
478.564	123.06
478.783	133.06
479.002	128.06
479.22	129.06
479.439	128.06
479.658	144.06
479.876	136.06
480.095	150.06
480.313	129.06
480.532	145.06
480.751	139.06
480.969	136.06
481.188	127.06
481.406	121.06
481.624	127.06
481.843	137.06
482.061	121.06
482.28	136.06
482.498	120.06
482.717	136.06
482.935	130.06
483.153	128.06
483.372	126.06
483.59	128.06
483.808	114.06
484.027	139.06
484.245	133.06
484.463	128.06
484.681	143.06
484.9	131.06
485.118	130.06
485.336	124.06
485.554	127.06
485.772	126.06
485.99	120.06
486.209	136.06
486.427	121.06
486.645	129.06
486.863	125.06
487.081	141.06
487.299	135.06
487.517	122.06
487.735	133.06
487.953	147.06
488.171	127.06
488.389	148.06
488.607	132.06
488.825	125.06
489.043	124.06
489.261	131.06
489.479	125.06
489.696	125.06
489.914	129.06
490.132	138.06
490.35	127.06
490.568	139.06
490.786	142.06
491.003	146.06
491.221	147.06
491.439	138.06
491.657	141.06
491.874	155.06
492.092	160.06
492.31	149.06
492.527	137.06
492.745	129.06
492.963	152.06
493.18	142.06
493.398	131.06
493.615	136.06
493.833	143.06
494.05	144.06
494.268	144.06
494.485	155.06
494.703	141.06
494.92	146.06
495.138	134.06
495.355	153.06
495.573	138.06
495.79	143.06
496.008	147.06
496.225	147.06
496.442	141.06
496.66	137.06
496.877	137.06
497.094	142.06
497.312	146.06
497.529	148.06
497.746	149.06
497.963	146.06
498.181	146.06
498.398	137.06
498.615	144.06
498.832	150.06
499.049	173.06
499.267	168.06
499.484	168.06
499.701	183.06
499.918	171.06
500.135	183.06
500.352	213.06
500.569	208.06
500.786	215.06
501.003	201.06
501.22	194.06
501.437	177.06
501.654	161.06
501.871	175.06
502.088	159.06
502.305	150.06
502.522	159.06
502.739	158.06
502.956	149.06
503.172	161.06
503.389	172.06
503.606	164.06
503.823	144.06
504.04	164.06
504.256	153.06
504.473	136.06
504.69	152.06
504.907	143.06
505.123	141.06
505.34	144.06
505.557	148.06
505.773	140.06
505.99	137.06
506.207	140.06
506.423	136.06
506.64	128.06
506.856	120.06
507.073	128.06
507.289	137.06
507.506	133.06
507.722	128.06
507.939	133.06
508.155	125.06
508.372	124.06
508.588	125.06
508.805	112.06
509.021	132.06
509.238	130.06
509.454	135.06
509.67	129.06
509.887	134.06
510.103	128.06
510.319	127.06
510.536	138.06
510.752	176.06
510.968	151.06
511.184	114.06
511.401	127.06
511.617	125.06
511.833	125.06
512.049	121.06
512.265	129.06
512.481	135.06
512.698	122.06
512.914	145.06
513.13	135.06
513.346	114.06
513.562	131.06
513.778	137.06
513.994	127.06
514.21	117.06
514.426	137.06
514.642	127.06
514.858	140.06
515.074	144.06
515.29	151.06
515.506	170.06
515.721	141.06
515.937	145.06
516.153	135.06
516.369	130.06
516.585	133.06
516.801	132.06
517.016	132.06
517.232	142.06
517.448	118.06
517.664	131.06
517.879	139.06
518.095	137.06
518.311	125.06
518.527	133.06
518.742	130.06
518.958	126.06
519.173	143.06
519.389	132.06
519.605	122.06
519.82	117.06
520.036	127.06
520.251	139.06
520.467	139.06
520.682	120.06
520.898	128.06
521.113	118.06
521.329	128.06
521.544	122.06
521.76	138.06
521.975	169.06
522.19	178.06
522.406	133.06
522.621	132.06
522.836	119.06
523.052	130.06
523.267	117.06
523.482	107.06
523.698	107.06
523.913	125.06
524.128	123.06
524.343	121.06
524.559	125.06
524.774	128.06
524.989	119.06
525.204	123.06
525.419	112.06
525.634	121.06
525.849	147.06
526.064	124.06
526.28	120.06
526.495	122.06
526.71	129.06
526.925	131.06
527.14	126.06
527.355	123.06
527.57	119.06
527.785	122.06
527.999	121.06
528.214	127.06
528.429	131.06
528.644	104.06
528.859	124.06
529.074	115.06
529.289	121.06
529.503	132.06
529.718	132.06
529.933	113.06
530.148	124.06
530.363	116.06
530.577	120.06
530.792	117.06
531.007	112.06
531.221	127.06
531.436	105.06
531.651	116.06
531.865	118.06
532.08	108.06
532.295	92.06
532.509	113.06
532.724	111.06
532.938	99.06
533.153	125.06
533.367	103.06
533.582	116.06
533.796	113.06
534.011	127.06
534.225	120.06
534.44	126.06
534.654	113.06
534.868	120.06
535.083	129.06
535.297	106.06
535.511	121.06
535.726	120.06
535.94	113.06
536.154	116.06
536.369	117.06
536.583	108.06
536.797	129.06
537.011	115.06
537.225	123.06
537.44	114.06
537.654	123.06
537.868	120.06
538.082	125.06
538.296	106.06
538.51	124.06
538.724	119.06
538.938	124.06
539.153	128.06
539.367	120.06
539.581	124.06
539.795	117.06
540.009	124.06
540.222	133.06
540.436	114.06
540.65	117.06
540.864	112.06
541.078	116.06
541.292	125.06
541.506	132.06
541.72	136.06
541.934	134.06
542.147	127.06
542.361	122.06
542.575	135.06
542.789	124.06
543.002	138.06
543.216	133.06
543.43	117.06
543.644	129.06
543.857	133.06
544.071	132.06
544.285	140.06
544.498	139.06
544.712	146.06
544.925	146.06
545.139	128.06
545.352	118.06
545.566	129.06
545.779	120.06
545.993	133.06
546.206	140.06
546.42	144.06
546.633	135.06
546.847	130.06
547.06	117.06
547.274	129.06
547.487	138.06
547.7	118.06
547.914	140.06
548.127	124.06
548.34	143.06
548.554	135.06
548.767	137.06
548.98	119.06
549.193	131.06
549.407	122.06
549.62	131.06
549.833	116.06
550.046	131.06
550.259	123.06
550.473	127.06
550.686	123.06
550.899	139.06
551.112	129.06
551.325	122.06
551.538	122.06
551.751	132.06
551.964	127.06
552.177	127.06
552.39	128.06
552.603	121.06
552.816	137.06
553.029	128.06
553.242	126.06
553.455	130.06
553.667	143.06
553.88	127.06
554.093	132.06
554.306	136.06
554.519	119.06
554.732	115.06
554.944	109.06
555.157	125.06
555.37	121.06
555.583	127.06
555.795	107.06
556.008	112.06
556.221	125.06
556.433	116.06
556.646	108.06
556.859	100.06
557.071	121.06
557.284	120.06
557.496	123.06
557.709	109.06
557.921	114.06
558.134	114.06
558.346	130.06
558.559	115.06
558.771	109.06
558.984	119.06
559.196	132.06
559.409	115.06
559.621	125.06
559.833	119.06
560.046	130.06
560.258	127.06
560.47	123.06
560.683	124.06
560.895	127.06
561.107	99.06
561.32	103.06
561.532	118.06
561.744	133.06
561.956	127.06
562.168	98.06
562.381	116.06
562.593	125.06
562.805	116.06
563.017	124.06
563.229	118.06
563.441	118.06
563.653	121.06
563.865	108.06
564.077	101.06
564.289	127.06
564.501	106.06
564.713	99.06
564.925	134.06
565.137	105.06
565.349	101.06
565.561	128.06
565.773	127.06
565.985	105.06
566.197	123.06
566.408	137.06
566.62	116.06
566.832	135.06
567.044	141.06
567.255	136.06
567.467	131.06
567.679	133.06
567.891	139.06
568.102	130.06
568.314	135.06
568.526	139.06
568.737	133.06
568.949	119.06
569.161	120.06
569.372	116.06
569.584	117.06
569.795	108.06
570.007	115.06
570.218	121.06
570.43	113.06
570.641	99.06
570.853	127.06
571.064	117.06
571.276	110.06
571.487	113.06
571.698	106.06
571.91	115.06
572.121	108.06
572.333	120.06
572.544	95.06
572.755	99.06
572.966	115.06
573.178	108.06
573.389	117.06
573.6	115.06
573.811	106.06
574.023	100.06
574.234	120.06
574.445	99.06
574.656	106.06
574.867	104.06
575.078	105.06
575.289	104.06
575.501	102.06
575.712	108.06
575.923	103.06
576.134	106.06
576.345	107.06
576.556	109.06
576.767	111.06
576.978	108.06
577.188	125.06
577.399	121.06
577.61	95.06
577.821	103.06
578.032	114.06
578.243	111.06
578.454	114.06
578.665	102.06
578.875	102.06
579.086	94.06
579.297	92.06
579.508	107.06
579.718	103.06
579.929	101.06
580.14	115.06
580.35	98.06
580.561	113.06
580.772	102.06
580.982	106.06
581.193	99.06
581.403	94.06
581.614	92.06
581.825	103.06
582.035	80.06
582.246	102.06
582.456	114.06
582.667	100.06
582.877	101.06
583.087	113.06
583.298	105.06
583.508	96.06
583.719	102.06
583.929	112.06
584.139	102.06
584.35	99.06
584.56	106.06
584.77	119.06
584.981	111.06
585.191	105.06
585.401	105.06
585.611	112.06
585.821	103.06
586.032	109.06
586.242	117.06
586.452	113.06
586.662	104.06
586.872	107.06
587.082	90.06
587.292	100.06
587.502	114.06
587.713	103.06
587.923	107.06
588.133	121.06
588.343	113.06
588.553	100.06
588.762	120.06
588.972	95.06
589.182	113.06
589.392	103.06
589.602	109.06
589.812	105.06
590.022	123.06
590.232	102.06
590.441	95.06
590.651	113.06
590.861	108.06
591.071	89.06
591.281	113.06
591.49	107.06
591.7	100.06
591.91	114.06
592.119	84.06
592.329	116.06
592.539	98.06
592.748	109.06
592.958	107.06
593.167	105.06
593.377	117.06
593.587	106.06
593.796	111.06
594.006	123.06
594.215	101.06
594.424	104.06
594.634	105.06
594.843	121.06
595.053	116.06
595.262	104.06
595.472	123.06
595.681	112.06
595.89	112.06
596.1	96.06
596.309	100.06
596.518	105.06
596.727	98.06
596.937	111.06
597.146	109.06
597.355	92.06
597.564	112.06
597.774	101.06
597.983	106.06
598.192	104.06
598.401	98.06
598.61	87.06
598.819	100.06
599.028	103.06
599.237	102.06
599.446	96.06
599.655	109.06
599.864	94.06
600.073	104.06
600.282	104.06
600.491	107.06
600.7	111.06
600.909	99.06
601.118	97.06
601.327	98.06
601.536	113.06
601.745	107.06
601.953	97.06
602.162	109.06
602.371	101.06
602.58	94.06
602.789	92.06
602.997	99.06
603.206	108.06
603.415	101.06
603.623	93.06
603.832	108.06
604.041	111.06
604.249	91.06
604.458	103.06
604.666	95.06
604.875	80.06
605.084	98.06
605.292	89.06
605.501	95.06
605.709	96.06
605.918	107.06
606.126	101.06
606.334	111.06
606.543	95.06
606.751	103.06
606.96	94.06
607.168	88.06
607.376	100.06
607.585	93.06
607.793	98.06
608.001	94.06
608.21	114.06
608.418	95.06
608.626	105.06
608.834	96.06
609.043	95.06
609.251	101.06
609.459	105.06
609.667	99.06
609.875	99.06
610.083	97.06
610.291	86.06
610.499	87.06
610.707	97.06
610.916	108.06
611.124	108.06
611.332	111.06
611.54	107.06
611.748	107.06
611.955	118.06
612.163	107.06
612.371	101.06
612.579	103.06
612.787	92.06
612.995	112.06
613.203	95.06
613.411	100.06
613.618	105.06
613.826	116.06
614.034	96.06
614.242	95.06
614.449	99.06
614.657	92.06
614.865	91.06
615.072	109.06
615.28	111.06
615.488	98.06
615.695	94.06
615.903	93.06
616.111	102.06
616.318	109.06
616.526	96.06
616.733	108.06
616.941	96.06
617.148	104.06
617.356	88.06
617.563	114.06
617.771	92.06
617.978	86.06
618.185	85.06
618.393	90.06
618.6	99.06
618.807	91.06
619.015	98.06
619.222	104.06
619.429	95.06
619.637	99.06
619.844	104.06
620.051	95.06
620.258	109.06
620.466	94.06
620.673	92.06
620.88	97.06
621.087	99.06
621.294	89.06
621.501	103.06
621.708	97.06
621.915	95.06
622.122	109.06
622.329	96.06
622.536	95.06
622.743	100.06
622.95	92.06
623.157	100.06
623.364	87.06
623.571	101.06
623.778	103.06
623.985	99.06
624.192	99.06
624.399	89.06
624.606	101.06
624.812	101.06
625.019	79.06
625.226	89.06
625.433	94.06
625.639	90.06
625.846	97.06
626.053	92.06
626.259	95.06
626.466	79.06
626.673	91.06
626.879	96.06
627.086	80.06
627.293	90.06
627.499	89.06
627.706	99.06
627.912	114.06
628.119	95.06
628.325	90.06
628.532	104.06
628.738	104.06
628.945	89.06
629.151	93.06
629.357	90.06
629.564	97.06
629.77	113.06
629.976	95.06
630.183	93.06
630.389	90.06
630.595	81.06
630.802	81.06
631.008	89.06
631.214	98.06
631.42	92.06
631.627	91.06
631.833	100.06
632.039	92.06
632.245	84.06
632.451	81.06
632.657	97.06
632.863	101.06
633.069	93.06
633.275	97.06
633.481	109.06
633.688	98.06
633.893	89.06
634.099	83.06
634.305	85.06
634.511	90.06
634.717	101.06
634.923	83.06
635.129	108.06
635.335	76.06
635.541	77.06
635.747	100.06
635.952	90.06
636.158	92.06
636.364	99.06
636.57	95.06
636.775	84.06
636.981	90.06
637.187	106.06
637.392	90.06
637.598	99.06
637.804	75.06
638.009	103.06
638.215	90.06
638.421	96.06
638.626	82.06
638.832	86.06
639.037	83.06
639.243	92.06
639.448	96.06
639.654	93.06
639.859	97.06
640.065	92.06
640.27	79.06
640.475	93.06
640.681	88.06
640.886	80.06
641.091	87.06
641.297	104.06
641.502	73.06
641.707	95.06
641.913	78.06
642.118	84.06
642.323	92.06
642.528	88.06
642.733	95.06
642.939	90.06
643.144	90.06
643.349	77.06
643.554	97.06
643.759	96.06
643.964	96.06
644.169	83.06
644.374	87.06
644.579	101.06
644.784	99.06
644.989	82.06
645.194	81.06
645.399	85.06
645.604	100.06
645.809	100.06
646.014	85.06
646.219	104.06
646.423	93.06
646.628	86.06
646.833	90.06
647.038	91.06
647.243	86.06
647.447	86.06
647.652	76.06
647.857	82.06
648.062	85.06
648.266	89.06
648.471	98.06
648.676	91.06
648.88	92.06
649.085	97.06
649.289	96.06
649.494	91.06
649.698	89.06
649.903	97.06
650.107	90.06
650.312	95.06
650.516	100.06
650.721	88.06
650.925	81.06
651.13	90.06
651.334	80.06
651.539	86.06
651.743	100.06
651.947	102.06
652.152	101.06
652.356	89.06
652.56	78.06
652.764	89.06
652.969	94.06
653.173	97.06
653.377	90.06
653.581	81.06
653.785	75.06
653.99	83.06
654.194	84.06
654.398	83.06
654.602	80.06
654.806	79.06
655.01	85.06
655.214	77.06
655.418	100.06
655.622	87.06
655.826	94.06
656.03	73.06
656.234	97.06
656.438	86.06
656.642	91.06
656.846	92.06
657.049	79.06
657.253	93.06
657.457	96.06
657.661	88.06
657.865	85.06
658.068	92.06
658.272	75.06
658.476	80.06
658.68	78.06
658.883	78.06
659.087	102.06
659.291	82.06
659.494	89.06
659.698	86.06
659.901	83.06
660.105	74.06
660.309	87.06
660.512	82.06
660.716	71.06
660.919	73.06
661.123	92.06
661.326	69.06
661.53	74.06
661.733	71.06
661.936	75.06
662.14	73.06
662.343	75.06
662.546	81.06
662.75	88.06
662.953	67.06
663.156	97.06
663.36	83.06
663.563	69.06
663.766	80.06
663.969	77.06
664.173	85.06
664.376	74.06
664.579	76.06
664.782	69.06
664.985	82.06
665.188	76.06
665.391	69.06
665.594	78.06
665.797	77.06
666	78.06
666.203	79.06
666.406	80.06
666.609	96.06
666.812	85.06
667.015	81.06
667.218	76.06
667.421	75.06
667.624	76.06
667.827	81.06
668.03	69.06
668.232	72.06
668.435	75.06
668.638	77.06
668.841	83.06
669.043	73.06
669.246	61.06
669.449	90.06
669.651	85.06
669.854	75.06
670.057	89.06
670.259	71.06
670.462	81.06
670.665	79.06
670.867	80.06
671.07	65.06
671.272	80.06
671.475	82.06
671.677	80.06
671.88	80.06
672.082	96.06
672.284	74.06
672.487	87.06
672.689	90.06
672.892	78.06
