Data from 1968.PennyLincolnUp.Lamp.En5.5.200Scan.071719.P1._HRD10591_14-49-38-969.txt Node
Date: Thu Jul 18 14:49:38 EDT 2019
User: cochatt
Spectrometer: HR+D1059
Trigger mode: 1
Integration Time (sec): 1.000000E-1
Scans to average: 1
Electric dark correction enabled: true
Nonlinearity correction enabled: false
Boxcar width: 0
XAxis mode: Wavelengths
Number of Pixels in Spectrum: 2048
>>>>>Begin Spectral Data<<<<<
223.165	-8.62
223.4	-8.62
223.635	-8.62
223.869	-26.62
224.104	-14.62
224.338	-21.62
224.573	-25.62
224.808	1.38
225.042	-11.62
225.277	-6.62
225.511	9.38
225.746	22.38
225.98	9.38
226.215	13.38
226.449	8.38
226.683	6.38
226.918	21.38
227.152	23.38
227.387	41.38
227.621	33.38
227.856	41.38
228.09	44.38
228.324	54.38
228.559	61.38
228.793	67.38
229.027	71.38
229.262	69.38
229.496	65.38
229.73	68.38
229.964	78.38
230.199	77.38
230.433	79.38
230.667	76.38
230.901	76.38
231.136	88.38
231.37	85.38
231.604	80.38
231.838	91.38
232.072	85.38
232.306	87.38
232.541	74.38
232.775	77.38
233.009	87.38
233.243	80.38
233.477	84.38
233.711	86.38
233.945	92.38
234.179	84.38
234.413	90.38
234.647	75.38
234.881	82.38
235.115	84.38
235.349	86.38
235.583	87.38
235.817	100.38
236.051	83.38
236.285	74.38
236.519	80.38
236.753	79.38
236.987	76.38
237.221	92.38
237.455	79.38
237.689	70.38
237.922	69.38
238.156	74.38
238.39	74.38
238.624	97.38
238.858	64.38
239.091	78.38
239.325	71.38
239.559	87.38
239.793	84.38
240.027	95.38
240.26	81.38
240.494	93.38
240.728	84.38
240.961	80.38
241.195	92.38
241.429	93.38
241.662	88.38
241.896	92.38
242.13	76.38
242.363	85.38
242.597	74.38
242.83	82.38
243.064	82.38
243.298	84.38
243.531	83.38
243.765	86.38
243.998	92.38
244.232	79.38
244.465	85.38
244.699	82.38
244.932	89.38
245.166	94.38
245.399	80.38
245.633	87.38
245.866	91.38
246.099	89.38
246.333	85.38
246.566	78.38
246.8	93.38
247.033	71.38
247.266	102.38
247.5	96.38
247.733	81.38
247.966	82.38
248.2	82.38
248.433	75.38
248.666	83.38
248.899	84.38
249.133	93.38
249.366	101.38
249.599	89.38
249.832	89.38
250.066	91.38
250.299	94.38
250.532	92.38
250.765	87.38
250.998	79.38
251.231	79.38
251.465	80.38
251.698	86.38
251.931	91.38
252.164	86.38
252.397	91.38
252.63	91.38
252.863	89.38
253.096	75.38
253.329	92.38
253.562	73.38
253.795	89.38
254.028	104.38
254.261	97.38
254.494	87.38
254.727	102.38
254.96	113.38
255.193	86.38
255.426	89.38
255.659	91.38
255.892	99.38
256.124	86.38
256.357	101.38
256.59	93.38
256.823	91.38
257.056	99.38
257.289	88.38
257.521	94.38
257.754	93.38
257.987	84.38
258.22	81.38
258.452	89.38
258.685	90.38
258.918	84.38
259.151	92.38
259.383	88.38
259.616	84.38
259.849	79.38
260.081	86.38
260.314	87.38
260.547	88.38
260.779	93.38
261.012	94.38
261.244	96.38
261.477	87.38
261.71	85.38
261.942	90.38
262.175	98.38
262.407	73.38
262.64	84.38
262.872	93.38
263.105	96.38
263.337	89.38
263.57	87.38
263.802	90.38
264.035	93.38
264.267	84.38
264.499	96.38
264.732	77.38
264.964	96.38
265.197	89.38
265.429	95.38
265.661	89.38
265.894	96.38
266.126	96.38
266.358	98.38
266.591	102.38
266.823	108.38
267.055	90.38
267.287	99.38
267.52	78.38
267.752	102.38
267.984	92.38
268.216	104.38
268.448	111.38
268.681	100.38
268.913	92.38
269.145	106.38
269.377	110.38
269.609	107.38
269.841	100.38
270.073	90.38
270.306	101.38
270.538	92.38
270.77	101.38
271.002	88.38
271.234	108.38
271.466	94.38
271.698	106.38
271.93	101.38
272.162	101.38
272.394	106.38
272.626	107.38
272.858	97.38
273.09	86.38
273.322	104.38
273.553	94.38
273.785	81.38
274.017	94.38
274.249	98.38
274.481	101.38
274.713	98.38
274.945	95.38
275.176	96.38
275.408	93.38
275.64	95.38
275.872	94.38
276.104	94.38
276.335	84.38
276.567	89.38
276.799	90.38
277.031	95.38
277.262	96.38
277.494	103.38
277.726	104.38
277.957	99.38
278.189	93.38
278.421	89.38
278.652	96.38
278.884	95.38
279.115	109.38
279.347	93.38
279.579	101.38
279.81	94.38
280.042	100.38
280.273	92.38
280.505	92.38
280.736	103.38
280.968	80.38
281.199	96.38
281.431	100.38
281.662	99.38
281.894	101.38
282.125	105.38
282.356	113.38
282.588	108.38
282.819	103.38
283.051	111.38
283.282	103.38
283.513	110.38
283.745	95.38
283.976	106.38
284.207	114.38
284.439	120.38
284.67	108.38
284.901	103.38
285.132	111.38
285.364	106.38
285.595	111.38
285.826	91.38
286.057	96.38
286.288	94.38
286.52	105.38
286.751	94.38
286.982	92.38
287.213	108.38
287.444	96.38
287.675	96.38
287.906	107.38
288.138	96.38
288.369	105.38
288.6	113.38
288.831	114.38
289.062	98.38
289.293	98.38
289.524	96.38
289.755	110.38
289.986	103.38
290.217	87.38
290.448	113.38
290.679	111.38
290.91	105.38
291.141	112.38
291.371	105.38
291.602	104.38
291.833	114.38
292.064	117.38
292.295	96.38
292.526	102.38
292.757	105.38
292.987	106.38
293.218	95.38
293.449	104.38
293.68	110.38
293.91	111.38
294.141	104.38
294.372	95.38
294.603	104.38
294.833	98.38
295.064	109.38
295.295	107.38
295.525	98.38
295.756	114.38
295.987	105.38
296.217	104.38
296.448	96.38
296.679	114.38
296.909	107.38
297.14	97.38
297.37	119.38
297.601	119.38
297.831	103.38
298.062	118.38
298.292	111.38
298.523	107.38
298.753	106.38
298.984	110.38
299.214	122.38
299.445	111.38
299.675	112.38
299.905	121.38
300.136	102.38
300.366	108.38
300.597	115.38
300.827	96.38
301.057	106.38
301.288	109.38
301.518	101.38
301.748	117.38
301.979	108.38
302.209	120.38
302.439	94.38
302.669	103.38
302.9	108.38
303.13	113.38
303.36	101.38
303.59	106.38
303.82	102.38
304.051	113.38
304.281	113.38
304.511	110.38
304.741	101.38
304.971	110.38
305.201	104.38
305.431	106.38
305.661	104.38
305.891	112.38
306.121	125.38
306.352	110.38
306.582	116.38
306.812	114.38
307.042	126.38
307.272	111.38
307.502	100.38
307.731	113.38
307.961	107.38
308.191	96.38
308.421	104.38
308.651	106.38
308.881	110.38
309.111	116.38
309.341	120.38
309.571	106.38
309.8	118.38
310.03	99.38
310.26	91.38
310.49	107.38
310.72	100.38
310.949	116.38
311.179	108.38
311.409	112.38
311.639	105.38
311.868	99.38
312.098	100.38
312.328	111.38
312.557	118.38
312.787	105.38
313.017	108.38
313.246	112.38
313.476	114.38
313.706	109.38
313.935	118.38
314.165	118.38
314.394	120.38
314.624	105.38
314.853	110.38
315.083	102.38
315.312	111.38
315.542	104.38
315.771	107.38
316.001	112.38
316.23	114.38
316.46	121.38
316.689	92.38
316.919	111.38
317.148	102.38
317.377	120.38
317.607	101.38
317.836	95.38
318.065	107.38
318.295	110.38
318.524	112.38
318.753	97.38
318.983	119.38
319.212	117.38
319.441	116.38
319.67	113.38
319.9	94.38
320.129	111.38
320.358	125.38
320.587	115.38
320.816	118.38
321.046	108.38
321.275	113.38
321.504	98.38
321.733	108.38
321.962	108.38
322.191	125.38
322.42	104.38
322.649	116.38
322.878	111.38
323.108	110.38
323.337	112.38
323.566	112.38
323.795	120.38
324.024	101.38
324.253	120.38
324.482	134.38
324.71	131.38
324.939	175.38
325.168	169.38
325.397	125.38
325.626	106.38
325.855	109.38
326.084	117.38
326.313	124.38
326.542	97.38
326.77	126.38
326.999	126.38
327.228	136.38
327.457	142.38
327.686	156.38
327.914	133.38
328.143	126.38
328.372	124.38
328.6	120.38
328.829	112.38
329.058	102.38
329.287	110.38
329.515	121.38
329.744	119.38
329.972	125.38
330.201	111.38
330.43	113.38
330.658	111.38
330.887	126.38
331.115	112.38
331.344	120.38
331.572	122.38
331.801	116.38
332.03	134.38
332.258	119.38
332.486	120.38
332.715	119.38
332.943	128.38
333.172	124.38
333.4	116.38
333.629	128.38
333.857	121.38
334.085	127.38
334.314	123.38
334.542	123.38
334.771	125.38
334.999	128.38
335.227	125.38
335.455	123.38
335.684	107.38
335.912	128.38
336.14	112.38
336.369	114.38
336.597	130.38
336.825	113.38
337.053	121.38
337.281	115.38
337.51	113.38
337.738	140.38
337.966	113.38
338.194	105.38
338.422	120.38
338.65	118.38
338.878	113.38
339.106	115.38
339.334	124.38
339.562	111.38
339.79	125.38
340.018	110.38
340.246	109.38
340.474	135.38
340.702	128.38
340.93	101.38
341.158	106.38
341.386	123.38
341.614	109.38
341.842	110.38
342.07	112.38
342.298	126.38
342.526	120.38
342.754	119.38
342.981	132.38
343.209	109.38
343.437	112.38
343.665	129.38
343.893	129.38
344.12	147.38
344.348	112.38
344.576	127.38
344.804	115.38
345.031	119.38
345.259	124.38
345.487	122.38
345.714	112.38
345.942	121.38
346.17	116.38
346.397	112.38
346.625	104.38
346.853	108.38
347.08	116.38
347.308	116.38
347.535	117.38
347.763	118.38
347.99	103.38
348.218	125.38
348.445	120.38
348.673	126.38
348.9	113.38
349.128	116.38
349.355	104.38
349.583	118.38
349.81	106.38
350.037	114.38
350.265	101.38
350.492	110.38
350.72	116.38
350.947	108.38
351.174	122.38
351.402	112.38
351.629	97.38
351.856	120.38
352.083	122.38
352.311	116.38
352.538	107.38
352.765	113.38
352.992	109.38
353.22	122.38
353.447	106.38
353.674	128.38
353.901	121.38
354.128	108.38
354.355	111.38
354.583	101.38
354.81	111.38
355.037	120.38
355.264	110.38
355.491	115.38
355.718	134.38
355.945	111.38
356.172	105.38
356.399	118.38
356.626	108.38
356.853	117.38
357.08	107.38
357.307	111.38
357.534	121.38
357.761	103.38
357.988	125.38
358.215	112.38
358.441	108.38
358.668	118.38
358.895	112.38
359.122	108.38
359.349	110.38
359.576	102.38
359.802	111.38
360.029	101.38
360.256	115.38
360.483	88.38
360.709	112.38
360.936	127.38
361.163	120.38
361.39	106.38
361.616	132.38
361.843	122.38
362.07	109.38
362.296	125.38
362.523	122.38
362.749	103.38
362.976	113.38
363.203	123.38
363.429	116.38
363.656	124.38
363.882	105.38
364.109	112.38
364.335	117.38
364.562	124.38
364.788	111.38
365.015	119.38
365.241	124.38
365.468	122.38
365.694	117.38
365.92	116.38
366.147	114.38
366.373	113.38
366.599	113.38
366.826	114.38
367.052	107.38
367.278	120.38
367.505	106.38
367.731	116.38
367.957	125.38
368.184	100.38
368.41	122.38
368.636	123.38
368.862	121.38
369.089	106.38
369.315	98.38
369.541	128.38
369.767	122.38
369.993	113.38
370.219	100.38
370.445	108.38
370.672	94.38
370.898	108.38
371.124	108.38
371.35	116.38
371.576	120.38
371.802	116.38
372.028	124.38
372.254	104.38
372.48	124.38
372.706	108.38
372.932	120.38
373.158	120.38
373.384	116.38
373.61	104.38
373.835	118.38
374.061	105.38
374.287	129.38
374.513	126.38
374.739	107.38
374.965	106.38
375.191	111.38
375.416	121.38
375.642	118.38
375.868	114.38
376.094	123.38
376.319	116.38
376.545	125.38
376.771	119.38
376.997	111.38
377.222	114.38
377.448	116.38
377.674	122.38
377.899	117.38
378.125	96.38
378.35	128.38
378.576	108.38
378.802	114.38
379.027	129.38
379.253	118.38
379.478	108.38
379.704	104.38
379.929	119.38
380.155	122.38
380.38	107.38
380.606	104.38
380.831	118.38
381.057	108.38
381.282	106.38
381.507	121.38
381.733	123.38
381.958	113.38
382.184	112.38
382.409	113.38
382.634	110.38
382.86	118.38
383.085	109.38
383.31	123.38
383.535	104.38
383.761	114.38
383.986	127.38
384.211	120.38
384.436	121.38
384.662	109.38
384.887	120.38
385.112	115.38
385.337	109.38
385.562	113.38
385.787	137.38
386.013	146.38
386.238	127.38
386.463	124.38
386.688	137.38
386.913	111.38
387.138	124.38
387.363	116.38
387.588	121.38
387.813	119.38
388.038	136.38
388.263	110.38
388.488	125.38
388.713	120.38
388.938	99.38
389.163	131.38
389.387	138.38
389.612	117.38
389.837	114.38
390.062	108.38
390.287	115.38
390.512	120.38
390.736	124.38
390.961	134.38
391.186	111.38
391.411	127.38
391.636	113.38
391.86	113.38
392.085	105.38
392.31	122.38
392.534	132.38
392.759	112.38
392.984	127.38
393.208	126.38
393.433	128.38
393.658	113.38
393.882	118.38
394.107	116.38
394.331	128.38
394.556	129.38
394.78	120.38
395.005	125.38
395.229	122.38
395.454	123.38
395.678	107.38
395.903	120.38
396.127	115.38
396.352	127.38
396.576	114.38
396.801	124.38
397.025	133.38
397.249	129.38
397.474	120.38
397.698	114.38
397.922	117.38
398.147	122.38
398.371	121.38
398.595	127.38
398.82	128.38
399.044	127.38
399.268	136.38
399.492	136.38
399.717	148.38
399.941	150.38
400.165	141.38
400.389	131.38
400.613	141.38
400.837	145.38
401.062	141.38
401.286	130.38
401.51	121.38
401.734	126.38
401.958	128.38
402.182	124.38
402.406	141.38
402.63	129.38
402.854	122.38
403.078	137.38
403.302	134.38
403.526	124.38
403.75	130.38
403.974	121.38
404.198	131.38
404.422	122.38
404.645	144.38
404.869	141.38
405.093	139.38
405.317	129.38
405.541	134.38
405.765	132.38
405.988	125.38
406.212	149.38
406.436	134.38
406.66	144.38
406.883	147.38
407.107	148.38
407.331	132.38
407.555	141.38
407.778	131.38
408.002	160.38
408.226	134.38
408.449	141.38
408.673	142.38
408.896	140.38
409.12	143.38
409.344	140.38
409.567	138.38
409.791	133.38
410.014	136.38
410.238	135.38
410.461	141.38
410.685	136.38
410.908	132.38
411.132	127.38
411.355	142.38
411.578	144.38
411.802	139.38
412.025	130.38
412.249	136.38
412.472	143.38
412.695	133.38
412.919	118.38
413.142	139.38
413.365	135.38
413.589	127.38
413.812	129.38
414.035	132.38
414.258	126.38
414.482	132.38
414.705	128.38
414.928	130.38
415.151	126.38
415.374	137.38
415.597	126.38
415.821	136.38
416.044	144.38
416.267	138.38
416.49	134.38
416.713	146.38
416.936	130.38
417.159	131.38
417.382	130.38
417.605	135.38
417.828	120.38
418.051	127.38
418.274	128.38
418.497	120.38
418.72	138.38
418.943	158.38
419.166	141.38
419.389	133.38
419.611	134.38
419.834	124.38
420.057	134.38
420.28	138.38
420.503	121.38
420.726	130.38
420.948	125.38
421.171	120.38
421.394	125.38
421.617	138.38
421.839	121.38
422.062	138.38
422.285	125.38
422.507	136.38
422.73	134.38
422.953	134.38
423.175	130.38
423.398	147.38
423.621	139.38
423.843	131.38
424.066	136.38
424.288	132.38
424.511	140.38
424.733	138.38
424.956	128.38
425.178	148.38
425.401	128.38
425.623	145.38
425.846	140.38
426.068	132.38
426.291	141.38
426.513	116.38
426.735	128.38
426.958	126.38
427.18	138.38
427.402	142.38
427.625	140.38
427.847	131.38
428.069	125.38
428.292	136.38
428.514	134.38
428.736	124.38
428.958	128.38
429.181	116.38
429.403	131.38
429.625	127.38
429.847	136.38
430.069	136.38
430.292	134.38
430.514	146.38
430.736	121.38
430.958	137.38
431.18	122.38
431.402	130.38
431.624	124.38
431.846	127.38
432.068	122.38
432.29	126.38
432.512	130.38
432.734	125.38
432.956	136.38
433.178	118.38
433.4	134.38
433.622	131.38
433.844	120.38
434.066	112.38
434.287	124.38
434.509	138.38
434.731	143.38
434.953	130.38
435.175	124.38
435.397	145.38
435.618	136.38
435.84	131.38
436.062	155.38
436.284	150.38
436.505	134.38
436.727	137.38
436.949	120.38
437.17	146.38
437.392	125.38
437.614	135.38
437.835	122.38
438.057	132.38
438.278	132.38
438.5	126.38
438.721	150.38
438.943	130.38
439.165	147.38
439.386	128.38
439.608	130.38
439.829	136.38
440.05	120.38
440.272	121.38
440.493	128.38
440.715	136.38
440.936	133.38
441.158	140.38
441.379	116.38
441.6	114.38
441.822	124.38
442.043	113.38
442.264	136.38
442.486	149.38
442.707	138.38
442.928	134.38
443.149	135.38
443.371	131.38
443.592	135.38
443.813	134.38
444.034	146.38
444.255	131.38
444.476	132.38
444.698	139.38
444.919	144.38
445.14	264.38
445.361	198.38
445.582	144.38
445.803	147.38
446.024	139.38
446.245	139.38
446.466	124.38
446.687	132.38
446.908	143.38
447.129	125.38
447.35	119.38
447.571	124.38
447.792	121.38
448.013	136.38
448.234	140.38
448.455	142.38
448.675	131.38
448.896	122.38
449.117	123.38
449.338	140.38
449.559	140.38
449.779	141.38
450	128.38
450.221	133.38
450.442	106.38
450.662	134.38
450.883	123.38
451.104	112.38
451.324	138.38
451.545	126.38
451.766	129.38
451.986	140.38
452.207	118.38
452.428	111.38
452.648	128.38
452.869	108.38
453.089	116.38
453.31	110.38
453.53	126.38
453.751	125.38
453.971	121.38
454.192	111.38
454.412	109.38
454.633	120.38
454.853	126.38
455.073	114.38
455.294	109.38
455.514	119.38
455.734	120.38
455.955	132.38
456.175	121.38
456.395	125.38
456.616	116.38
456.836	104.38
457.056	124.38
457.276	133.38
457.497	117.38
457.717	105.38
457.937	111.38
458.157	128.38
458.377	111.38
458.598	129.38
458.818	134.38
459.038	139.38
459.258	116.38
459.478	134.38
459.698	110.38
459.918	120.38
460.138	128.38
460.358	120.38
460.578	136.38
460.798	125.38
461.018	145.38
461.238	128.38
461.458	141.38
461.678	127.38
461.898	140.38
462.118	130.38
462.338	142.38
462.558	137.38
462.777	136.38
462.997	141.38
463.217	141.38
463.437	154.38
463.657	146.38
463.876	142.38
464.096	141.38
464.316	136.38
464.536	145.38
464.755	140.38
464.975	130.38
465.195	138.38
465.414	142.38
465.634	132.38
465.854	122.38
466.073	131.38
466.293	120.38
466.512	124.38
466.732	121.38
466.951	122.38
467.171	106.38
467.391	107.38
467.61	133.38
467.829	116.38
468.049	114.38
468.268	132.38
468.488	130.38
468.707	119.38
468.927	128.38
469.146	134.38
469.365	132.38
469.585	127.38
469.804	132.38
470.023	130.38
470.243	121.38
470.462	127.38
470.681	111.38
470.901	143.38
471.12	139.38
471.339	133.38
471.558	127.38
471.777	142.38
471.997	120.38
472.216	121.38
472.435	112.38
472.654	114.38
472.873	125.38
473.092	107.38
473.311	128.38
473.53	115.38
473.749	124.38
473.968	134.38
474.187	142.38
474.406	127.38
474.625	132.38
474.844	120.38
475.063	115.38
475.282	118.38
475.501	113.38
475.72	124.38
475.939	126.38
476.158	132.38
476.377	128.38
476.596	125.38
476.814	127.38
477.033	125.38
477.252	126.38
477.471	121.38
477.69	124.38
477.908	124.38
478.127	135.38
478.346	128.38
478.564	144.38
478.783	133.38
479.002	132.38
479.22	128.38
479.439	128.38
479.658	111.38
479.876	132.38
480.095	132.38
480.313	160.38
480.532	140.38
480.751	132.38
480.969	135.38
481.188	144.38
481.406	133.38
481.624	140.38
481.843	129.38
482.061	129.38
482.28	135.38
482.498	131.38
482.717	122.38
482.935	117.38
483.153	120.38
483.372	144.38
483.59	125.38
483.808	132.38
484.027	130.38
484.245	148.38
484.463	133.38
484.681	138.38
484.9	136.38
485.118	135.38
485.336	128.38
485.554	143.38
485.772	129.38
485.99	130.38
486.209	129.38
486.427	121.38
486.645	131.38
486.863	132.38
487.081	140.38
487.299	126.38
487.517	132.38
487.735	138.38
487.953	134.38
488.171	139.38
488.389	130.38
488.607	124.38
488.825	124.38
489.043	131.38
489.261	134.38
489.479	130.38
489.696	140.38
489.914	146.38
490.132	134.38
490.35	146.38
490.568	142.38
490.786	140.38
491.003	143.38
491.221	144.38
491.439	136.38
491.657	138.38
491.874	132.38
492.092	153.38
492.31	141.38
492.527	140.38
492.745	161.38
492.963	148.38
493.18	145.38
493.398	145.38
493.615	151.38
493.833	152.38
494.05	145.38
494.268	145.38
494.485	137.38
494.703	150.38
494.92	150.38
495.138	141.38
495.355	151.38
495.573	158.38
495.79	148.38
496.008	151.38
496.225	161.38
496.442	140.38
496.66	143.38
496.877	122.38
497.094	160.38
497.312	145.38
497.529	152.38
497.746	156.38
497.963	150.38
498.181	157.38
498.398	155.38
498.615	157.38
498.832	141.38
499.049	160.38
499.267	160.38
499.484	180.38
499.701	202.38
499.918	204.38
500.135	199.38
500.352	221.38
500.569	237.38
500.786	218.38
501.003	186.38
501.22	201.38
501.437	186.38
501.654	190.38
501.871	160.38
502.088	170.38
502.305	164.38
502.522	159.38
502.739	146.38
502.956	159.38
503.172	170.38
503.389	154.38
503.606	144.38
503.823	140.38
504.04	154.38
504.256	155.38
504.473	143.38
504.69	149.38
504.907	148.38
505.123	151.38
505.34	146.38
505.557	137.38
505.773	138.38
505.99	141.38
506.207	138.38
506.423	156.38
506.64	129.38
506.856	146.38
507.073	155.38
507.289	143.38
507.506	127.38
507.722	134.38
507.939	128.38
508.155	139.38
508.372	156.38
508.588	148.38
508.805	148.38
509.021	137.38
509.238	119.38
509.454	136.38
509.67	135.38
509.887	121.38
510.103	137.38
510.319	133.38
510.536	127.38
510.752	153.38
510.968	150.38
511.184	119.38
511.401	130.38
511.617	123.38
511.833	116.38
512.049	124.38
512.265	128.38
512.481	133.38
512.698	124.38
512.914	135.38
513.13	130.38
513.346	128.38
513.562	107.38
513.778	118.38
513.994	126.38
514.21	129.38
514.426	122.38
514.642	124.38
514.858	132.38
515.074	127.38
515.29	136.38
515.506	157.38
515.721	144.38
515.937	138.38
516.153	133.38
516.369	140.38
516.585	134.38
516.801	123.38
517.016	129.38
517.232	136.38
517.448	159.38
517.664	148.38
517.879	142.38
518.095	156.38
518.311	129.38
518.527	122.38
518.742	141.38
518.958	127.38
519.173	138.38
519.389	136.38
519.605	139.38
519.82	136.38
520.036	141.38
520.251	123.38
520.467	129.38
520.682	117.38
520.898	121.38
521.113	134.38
521.329	138.38
521.544	130.38
521.76	122.38
521.975	165.38
522.19	158.38
522.406	136.38
522.621	132.38
522.836	134.38
523.052	134.38
523.267	128.38
523.482	134.38
523.698	135.38
523.913	129.38
524.128	119.38
524.343	119.38
524.559	134.38
524.774	125.38
524.989	134.38
525.204	140.38
525.419	120.38
525.634	147.38
525.849	130.38
526.064	134.38
526.28	138.38
526.495	126.38
526.71	122.38
526.925	114.38
527.14	116.38
527.355	118.38
527.57	133.38
527.785	132.38
527.999	114.38
528.214	112.38
528.429	127.38
528.644	135.38
528.859	135.38
529.074	135.38
529.289	139.38
529.503	146.38
529.718	119.38
529.933	124.38
530.148	110.38
530.363	111.38
530.577	128.38
530.792	120.38
531.007	123.38
531.221	125.38
531.436	123.38
531.651	111.38
531.865	142.38
532.08	127.38
532.295	129.38
532.509	116.38
532.724	123.38
532.938	130.38
533.153	114.38
533.367	118.38
533.582	129.38
533.796	120.38
534.011	134.38
534.225	125.38
534.44	128.38
534.654	120.38
534.868	112.38
535.083	130.38
535.297	126.38
535.511	138.38
535.726	121.38
535.94	118.38
536.154	126.38
536.369	115.38
536.583	121.38
536.797	122.38
537.011	110.38
537.225	129.38
537.44	124.38
537.654	113.38
537.868	128.38
538.082	132.38
538.296	120.38
538.51	110.38
538.724	128.38
538.938	138.38
539.153	111.38
539.367	123.38
539.581	111.38
539.795	119.38
540.009	125.38
540.222	119.38
540.436	114.38
540.65	112.38
540.864	122.38
541.078	134.38
541.292	130.38
541.506	132.38
541.72	132.38
541.934	124.38
542.147	130.38
542.361	147.38
542.575	132.38
542.789	145.38
543.002	142.38
543.216	154.38
543.43	135.38
543.644	137.38
543.857	129.38
544.071	129.38
544.285	129.38
544.498	143.38
544.712	125.38
544.925	124.38
545.139	148.38
545.352	128.38
545.566	131.38
545.779	140.38
545.993	140.38
546.206	142.38
546.42	157.38
546.633	164.38
546.847	131.38
547.06	112.38
547.274	133.38
547.487	125.38
547.7	121.38
547.914	133.38
548.127	132.38
548.34	118.38
548.554	140.38
548.767	140.38
548.98	116.38
549.193	125.38
549.407	118.38
549.62	132.38
549.833	134.38
550.046	125.38
550.259	126.38
550.473	134.38
550.686	127.38
550.899	117.38
551.112	135.38
551.325	116.38
551.538	126.38
551.751	128.38
551.964	124.38
552.177	129.38
552.39	117.38
552.603	128.38
552.816	108.38
553.029	124.38
553.242	117.38
553.455	128.38
553.667	128.38
553.88	134.38
554.093	148.38
554.306	126.38
554.519	128.38
554.732	129.38
554.944	132.38
555.157	132.38
555.37	114.38
555.583	127.38
555.795	124.38
556.008	120.38
556.221	123.38
556.433	124.38
556.646	118.38
556.859	129.38
557.071	130.38
557.284	134.38
557.496	106.38
557.709	135.38
557.921	121.38
558.134	118.38
558.346	120.38
558.559	122.38
558.771	122.38
558.984	110.38
559.196	102.38
559.409	106.38
559.621	108.38
559.833	107.38
560.046	112.38
560.258	109.38
560.47	116.38
560.683	119.38
560.895	119.38
561.107	123.38
561.32	113.38
561.532	116.38
561.744	115.38
561.956	121.38
562.168	116.38
562.381	118.38
562.593	129.38
562.805	123.38
563.017	118.38
563.229	110.38
563.441	110.38
563.653	108.38
563.865	125.38
564.077	119.38
564.289	142.38
564.501	113.38
564.713	105.38
564.925	127.38
565.137	105.38
565.349	110.38
565.561	111.38
565.773	102.38
565.985	138.38
566.197	147.38
566.408	124.38
566.62	131.38
566.832	131.38
567.044	144.38
567.255	156.38
567.467	131.38
567.679	141.38
567.891	153.38
568.102	146.38
568.314	128.38
568.526	141.38
568.737	128.38
568.949	119.38
569.161	117.38
569.372	124.38
569.584	121.38
569.795	127.38
570.007	128.38
570.218	121.38
570.43	126.38
570.641	116.38
570.853	112.38
571.064	116.38
571.276	104.38
571.487	121.38
571.698	118.38
571.91	114.38
572.121	109.38
572.333	116.38
572.544	100.38
572.755	125.38
572.966	107.38
573.178	102.38
573.389	107.38
573.6	95.38
573.811	106.38
574.023	108.38
574.234	117.38
574.445	108.38
574.656	124.38
574.867	106.38
575.078	114.38
575.289	123.38
575.501	120.38
575.712	97.38
575.923	122.38
576.134	107.38
576.345	114.38
576.556	104.38
576.767	111.38
576.978	114.38
577.188	110.38
577.399	122.38
577.61	99.38
577.821	111.38
578.032	94.38
578.243	104.38
578.454	131.38
578.665	116.38
578.875	113.38
579.086	98.38
579.297	129.38
579.508	113.38
579.718	113.38
579.929	122.38
580.14	113.38
580.35	98.38
580.561	109.38
580.772	101.38
580.982	119.38
581.193	120.38
581.403	100.38
581.614	100.38
581.825	107.38
582.035	108.38
582.246	99.38
582.456	103.38
582.667	100.38
582.877	123.38
583.087	107.38
583.298	118.38
583.508	109.38
583.719	107.38
583.929	117.38
584.139	120.38
584.35	108.38
584.56	94.38
584.77	119.38
584.981	122.38
585.191	109.38
585.401	110.38
585.611	104.38
585.821	94.38
586.032	102.38
586.242	98.38
586.452	116.38
586.662	120.38
586.872	109.38
587.082	121.38
587.292	101.38
587.502	119.38
587.713	120.38
587.923	104.38
588.133	100.38
588.343	92.38
588.553	105.38
588.762	104.38
588.972	96.38
589.182	112.38
589.392	109.38
589.602	109.38
589.812	113.38
590.022	111.38
590.232	109.38
590.441	116.38
590.651	107.38
590.861	117.38
591.071	97.38
591.281	113.38
591.49	95.38
591.7	107.38
591.91	122.38
592.119	110.38
592.329	100.38
592.539	96.38
592.748	128.38
592.958	118.38
593.167	102.38
593.377	120.38
593.587	118.38
593.796	98.38
594.006	113.38
594.215	113.38
594.424	118.38
594.634	124.38
594.843	108.38
595.053	120.38
595.262	111.38
595.472	110.38
595.681	107.38
595.89	109.38
596.1	105.38
596.309	112.38
596.518	109.38
596.727	110.38
596.937	109.38
597.146	112.38
597.355	84.38
597.564	102.38
597.774	106.38
597.983	107.38
598.192	123.38
598.401	99.38
598.61	88.38
598.819	114.38
599.028	93.38
599.237	123.38
599.446	118.38
599.655	103.38
599.864	98.38
600.073	108.38
600.282	104.38
600.491	99.38
600.7	106.38
600.909	100.38
601.118	108.38
601.327	95.38
601.536	98.38
601.745	101.38
601.953	106.38
602.162	108.38
602.371	105.38
602.58	100.38
602.789	110.38
602.997	119.38
603.206	119.38
603.415	106.38
603.623	103.38
603.832	108.38
604.041	103.38
604.249	104.38
604.458	78.38
604.666	106.38
604.875	108.38
605.084	98.38
605.292	124.38
605.501	111.38
605.709	108.38
605.918	114.38
606.126	102.38
606.334	102.38
606.543	115.38
606.751	108.38
606.96	101.38
607.168	105.38
607.376	114.38
607.585	113.38
607.793	97.38
608.001	112.38
608.21	94.38
608.418	112.38
608.626	89.38
608.834	108.38
609.043	111.38
609.251	108.38
609.459	100.38
609.667	102.38
609.875	121.38
610.083	104.38
610.291	100.38
610.499	101.38
610.707	119.38
610.916	108.38
611.124	115.38
611.332	109.38
611.54	118.38
611.748	104.38
611.955	96.38
612.163	116.38
612.371	104.38
612.579	100.38
612.787	109.38
612.995	111.38
613.203	104.38
613.411	96.38
613.618	121.38
613.826	108.38
614.034	100.38
614.242	103.38
614.449	91.38
614.657	111.38
614.865	110.38
615.072	108.38
615.28	104.38
615.488	112.38
615.695	106.38
615.903	102.38
616.111	112.38
616.318	104.38
616.526	110.38
616.733	116.38
616.941	100.38
617.148	105.38
617.356	112.38
617.563	107.38
617.771	101.38
617.978	101.38
618.185	89.38
618.393	113.38
618.6	101.38
618.807	101.38
619.015	107.38
619.222	93.38
619.429	108.38
619.637	92.38
619.844	107.38
620.051	98.38
620.258	91.38
620.466	100.38
620.673	102.38
620.88	93.38
621.087	81.38
621.294	92.38
621.501	100.38
621.708	100.38
621.915	106.38
622.122	104.38
622.329	100.38
622.536	97.38
622.743	96.38
622.95	107.38
623.157	112.38
623.364	96.38
623.571	107.38
623.778	109.38
623.985	105.38
624.192	105.38
624.399	93.38
624.606	113.38
624.812	109.38
625.019	103.38
625.226	86.38
625.433	103.38
625.639	93.38
625.846	93.38
626.053	101.38
626.259	97.38
626.466	102.38
626.673	83.38
626.879	101.38
627.086	92.38
627.293	103.38
627.499	91.38
627.706	104.38
627.912	100.38
628.119	103.38
628.325	102.38
628.532	104.38
628.738	95.38
628.945	102.38
629.151	106.38
629.357	106.38
629.564	99.38
629.77	106.38
629.976	108.38
630.183	101.38
630.389	100.38
630.595	97.38
630.802	114.38
631.008	95.38
631.214	95.38
631.42	106.38
631.627	100.38
631.833	100.38
632.039	98.38
632.245	90.38
632.451	100.38
632.657	105.38
632.863	95.38
633.069	113.38
633.275	95.38
633.481	91.38
633.688	84.38
633.893	91.38
634.099	90.38
634.305	103.38
634.511	106.38
634.717	108.38
634.923	95.38
635.129	100.38
635.335	87.38
635.541	83.38
635.747	93.38
635.952	99.38
636.158	97.38
636.364	98.38
636.57	105.38
636.775	83.38
636.981	83.38
637.187	99.38
637.392	101.38
637.598	90.38
637.804	107.38
638.009	100.38
638.215	95.38
638.421	94.38
638.626	104.38
638.832	108.38
639.037	95.38
639.243	89.38
639.448	87.38
639.654	116.38
639.859	90.38
640.065	90.38
640.27	90.38
640.475	109.38
640.681	92.38
640.886	98.38
641.091	95.38
641.297	95.38
641.502	85.38
641.707	98.38
641.913	108.38
642.118	81.38
642.323	89.38
642.528	109.38
642.733	104.38
642.939	100.38
643.144	95.38
643.349	102.38
643.554	102.38
643.759	93.38
643.964	100.38
644.169	117.38
644.374	86.38
644.579	88.38
644.784	105.38
644.989	93.38
645.194	85.38
645.399	89.38
645.604	101.38
645.809	104.38
646.014	98.38
646.219	91.38
646.423	98.38
646.628	96.38
646.833	108.38
647.038	95.38
647.243	98.38
647.447	92.38
647.652	89.38
647.857	105.38
648.062	94.38
648.266	94.38
648.471	82.38
648.676	106.38
648.88	104.38
649.085	99.38
649.289	93.38
649.494	97.38
649.698	104.38
649.903	104.38
650.107	106.38
650.312	102.38
650.516	97.38
650.721	89.38
650.925	89.38
651.13	96.38
651.334	97.38
651.539	97.38
651.743	83.38
651.947	93.38
652.152	100.38
652.356	94.38
652.56	91.38
652.764	88.38
652.969	82.38
653.173	81.38
653.377	92.38
653.581	88.38
653.785	108.38
653.99	92.38
654.194	86.38
654.398	81.38
654.602	96.38
654.806	92.38
655.01	95.38
655.214	81.38
655.418	81.38
655.622	98.38
655.826	72.38
656.03	106.38
656.234	100.38
656.438	95.38
656.642	97.38
656.846	90.38
657.049	100.38
657.253	94.38
657.457	103.38
657.661	96.38
657.865	98.38
658.068	105.38
658.272	89.38
658.476	97.38
658.68	97.38
658.883	92.38
659.087	91.38
659.291	64.38
659.494	73.38
659.698	81.38
659.901	84.38
660.105	78.38
660.309	81.38
660.512	93.38
660.716	97.38
660.919	80.38
661.123	79.38
661.326	93.38
661.53	81.38
661.733	86.38
661.936	81.38
662.14	88.38
662.343	82.38
662.546	75.38
662.75	79.38
662.953	88.38
663.156	81.38
663.36	80.38
663.563	81.38
663.766	90.38
663.969	76.38
664.173	98.38
664.376	90.38
664.579	89.38
664.782	76.38
664.985	84.38
665.188	81.38
665.391	81.38
665.594	91.38
665.797	90.38
666	78.38
666.203	89.38
666.406	93.38
666.609	81.38
666.812	96.38
667.015	68.38
667.218	77.38
667.421	94.38
667.624	95.38
667.827	85.38
668.03	91.38
668.232	81.38
668.435	89.38
668.638	91.38
668.841	95.38
669.043	97.38
669.246	86.38
669.449	69.38
669.651	80.38
669.854	84.38
670.057	90.38
670.259	90.38
670.462	85.38
670.665	84.38
670.867	80.38
671.07	82.38
671.272	90.38
671.475	81.38
671.677	81.38
671.88	87.38
672.082	90.38
672.284	82.38
672.487	92.38
672.689	95.38
672.892	91.38
