Data from 1968.PennyLincolnUp.Lamp.En5.5.200Scan.071719.P1._HRD10591_14-49-55-969.txt Node
Date: Thu Jul 18 14:49:55 EDT 2019
User: cochatt
Spectrometer: HR+D1059
Trigger mode: 1
Integration Time (sec): 1.000000E-1
Scans to average: 1
Electric dark correction enabled: true
Nonlinearity correction enabled: false
Boxcar width: 0
XAxis mode: Wavelengths
Number of Pixels in Spectrum: 2048
>>>>>Begin Spectral Data<<<<<
223.165	-11.25
223.4	-11.25
223.635	-11.25
223.869	-19.25
224.104	-14.25
224.338	-3.25
224.573	-10.25
224.808	-17.25
225.042	-5.25
225.277	-5.25
225.511	-3.25
225.746	-11.25
225.98	-8.25
226.215	7.75
226.449	17.75
226.683	21.75
226.918	28.75
227.152	32.75
227.387	32.75
227.621	40.75
227.856	50.75
228.09	39.75
228.324	53.75
228.559	64.75
228.793	58.75
229.027	62.75
229.262	70.75
229.496	65.75
229.73	70.75
229.964	75.75
230.199	66.75
230.433	82.75
230.667	78.75
230.901	81.75
231.136	84.75
231.37	77.75
231.604	74.75
231.838	85.75
232.072	87.75
232.306	78.75
232.541	79.75
232.775	95.75
233.009	87.75
233.243	84.75
233.477	82.75
233.711	90.75
233.945	87.75
234.179	88.75
234.413	78.75
234.647	80.75
234.881	80.75
235.115	79.75
235.349	96.75
235.583	95.75
235.817	77.75
236.051	101.75
236.285	102.75
236.519	79.75
236.753	74.75
236.987	84.75
237.221	89.75
237.455	91.75
237.689	79.75
237.922	95.75
238.156	85.75
238.39	80.75
238.624	73.75
238.858	79.75
239.091	85.75
239.325	79.75
239.559	86.75
239.793	89.75
240.027	83.75
240.26	75.75
240.494	88.75
240.728	80.75
240.961	94.75
241.195	82.75
241.429	68.75
241.662	83.75
241.896	91.75
242.13	70.75
242.363	73.75
242.597	86.75
242.83	80.75
243.064	83.75
243.298	86.75
243.531	88.75
243.765	85.75
243.998	80.75
244.232	87.75
244.465	82.75
244.699	78.75
244.932	86.75
245.166	89.75
245.399	92.75
245.633	81.75
245.866	91.75
246.099	81.75
246.333	76.75
246.566	78.75
246.8	81.75
247.033	86.75
247.266	97.75
247.5	85.75
247.733	84.75
247.966	78.75
248.2	83.75
248.433	96.75
248.666	96.75
248.899	88.75
249.133	83.75
249.366	88.75
249.599	81.75
249.832	99.75
250.066	96.75
250.299	90.75
250.532	95.75
250.765	84.75
250.998	87.75
251.231	89.75
251.465	94.75
251.698	85.75
251.931	74.75
252.164	99.75
252.397	96.75
252.63	94.75
252.863	84.75
253.096	91.75
253.329	116.75
253.562	111.75
253.795	87.75
254.028	95.75
254.261	96.75
254.494	93.75
254.727	94.75
254.96	107.75
255.193	97.75
255.426	106.75
255.659	95.75
255.892	86.75
256.124	95.75
256.357	86.75
256.59	90.75
256.823	99.75
257.056	101.75
257.289	87.75
257.521	92.75
257.754	96.75
257.987	99.75
258.22	84.75
258.452	88.75
258.685	94.75
258.918	70.75
259.151	94.75
259.383	95.75
259.616	95.75
259.849	95.75
260.081	85.75
260.314	95.75
260.547	102.75
260.779	96.75
261.012	81.75
261.244	88.75
261.477	99.75
261.71	102.75
261.942	113.75
262.175	100.75
262.407	91.75
262.64	83.75
262.872	91.75
263.105	75.75
263.337	86.75
263.57	91.75
263.802	104.75
264.035	75.75
264.267	90.75
264.499	109.75
264.732	84.75
264.964	103.75
265.197	89.75
265.429	88.75
265.661	84.75
265.894	92.75
266.126	92.75
266.358	87.75
266.591	87.75
266.823	91.75
267.055	99.75
267.287	86.75
267.52	102.75
267.752	92.75
267.984	99.75
268.216	102.75
268.448	106.75
268.681	93.75
268.913	98.75
269.145	82.75
269.377	112.75
269.609	96.75
269.841	95.75
270.073	94.75
270.306	101.75
270.538	103.75
270.77	92.75
271.002	96.75
271.234	112.75
271.466	83.75
271.698	109.75
271.93	93.75
272.162	109.75
272.394	99.75
272.626	100.75
272.858	91.75
273.09	96.75
273.322	82.75
273.553	110.75
273.785	100.75
274.017	89.75
274.249	102.75
274.481	93.75
274.713	94.75
274.945	96.75
275.176	105.75
275.408	107.75
275.64	119.75
275.872	93.75
276.104	100.75
276.335	100.75
276.567	94.75
276.799	111.75
277.031	102.75
277.262	112.75
277.494	99.75
277.726	104.75
277.957	103.75
278.189	101.75
278.421	102.75
278.652	114.75
278.884	127.75
279.115	108.75
279.347	106.75
279.579	108.75
279.81	113.75
280.042	79.75
280.273	85.75
280.505	96.75
280.736	113.75
280.968	119.75
281.199	98.75
281.431	103.75
281.662	103.75
281.894	86.75
282.125	103.75
282.356	106.75
282.588	101.75
282.819	99.75
283.051	91.75
283.282	96.75
283.513	107.75
283.745	103.75
283.976	110.75
284.207	91.75
284.439	103.75
284.67	103.75
284.901	95.75
285.132	102.75
285.364	119.75
285.595	122.75
285.826	93.75
286.057	108.75
286.288	104.75
286.52	99.75
286.751	118.75
286.982	99.75
287.213	95.75
287.444	103.75
287.675	110.75
287.906	109.75
288.138	115.75
288.369	105.75
288.6	113.75
288.831	96.75
289.062	114.75
289.293	95.75
289.524	97.75
289.755	102.75
289.986	101.75
290.217	98.75
290.448	95.75
290.679	99.75
290.91	116.75
291.141	95.75
291.371	106.75
291.602	105.75
291.833	105.75
292.064	111.75
292.295	101.75
292.526	107.75
292.757	119.75
292.987	90.75
293.218	102.75
293.449	101.75
293.68	101.75
293.91	96.75
294.141	105.75
294.372	113.75
294.603	115.75
294.833	115.75
295.064	100.75
295.295	109.75
295.525	111.75
295.756	101.75
295.987	110.75
296.217	110.75
296.448	120.75
296.679	108.75
296.909	110.75
297.14	98.75
297.37	117.75
297.601	107.75
297.831	107.75
298.062	119.75
298.292	102.75
298.523	103.75
298.753	116.75
298.984	105.75
299.214	103.75
299.445	102.75
299.675	97.75
299.905	110.75
300.136	112.75
300.366	117.75
300.597	115.75
300.827	90.75
301.057	106.75
301.288	103.75
301.518	99.75
301.748	98.75
301.979	101.75
302.209	117.75
302.439	104.75
302.669	99.75
302.9	110.75
303.13	103.75
303.36	110.75
303.59	90.75
303.82	105.75
304.051	111.75
304.281	103.75
304.511	115.75
304.741	102.75
304.971	102.75
305.201	112.75
305.431	106.75
305.661	104.75
305.891	100.75
306.121	104.75
306.352	100.75
306.582	88.75
306.812	104.75
307.042	119.75
307.272	124.75
307.502	111.75
307.731	112.75
307.961	121.75
308.191	108.75
308.421	109.75
308.651	102.75
308.881	95.75
309.111	109.75
309.341	104.75
309.571	107.75
309.8	112.75
310.03	118.75
310.26	110.75
310.49	118.75
310.72	92.75
310.949	117.75
311.179	104.75
311.409	101.75
311.639	99.75
311.868	97.75
312.098	117.75
312.328	104.75
312.557	110.75
312.787	89.75
313.017	112.75
313.246	105.75
313.476	112.75
313.706	109.75
313.935	122.75
314.165	107.75
314.394	92.75
314.624	117.75
314.853	99.75
315.083	106.75
315.312	91.75
315.542	110.75
315.771	118.75
316.001	117.75
316.23	102.75
316.46	104.75
316.689	111.75
316.919	117.75
317.148	112.75
317.377	105.75
317.607	110.75
317.836	107.75
318.065	115.75
318.295	128.75
318.524	109.75
318.753	115.75
318.983	109.75
319.212	121.75
319.441	118.75
319.67	119.75
319.9	112.75
320.129	112.75
320.358	131.75
320.587	103.75
320.816	118.75
321.046	110.75
321.275	129.75
321.504	104.75
321.733	106.75
321.962	117.75
322.191	103.75
322.42	113.75
322.649	112.75
322.878	108.75
323.108	109.75
323.337	113.75
323.566	116.75
323.795	104.75
324.024	133.75
324.253	118.75
324.482	149.75
324.71	164.75
324.939	179.75
325.168	168.75
325.397	126.75
325.626	119.75
325.855	113.75
326.084	116.75
326.313	120.75
326.542	102.75
326.77	127.75
326.999	119.75
327.228	127.75
327.457	131.75
327.686	155.75
327.914	133.75
328.143	126.75
328.372	110.75
328.6	126.75
328.829	122.75
329.058	115.75
329.287	111.75
329.515	125.75
329.744	111.75
329.972	126.75
330.201	107.75
330.43	121.75
330.658	126.75
330.887	125.75
331.115	120.75
331.344	115.75
331.572	119.75
331.801	115.75
332.03	102.75
332.258	123.75
332.486	112.75
332.715	125.75
332.943	110.75
333.172	115.75
333.4	113.75
333.629	104.75
333.857	129.75
334.085	122.75
334.314	120.75
334.542	118.75
334.771	117.75
334.999	119.75
335.227	124.75
335.455	125.75
335.684	126.75
335.912	126.75
336.14	116.75
336.369	119.75
336.597	117.75
336.825	137.75
337.053	120.75
337.281	118.75
337.51	117.75
337.738	119.75
337.966	116.75
338.194	112.75
338.422	102.75
338.65	117.75
338.878	108.75
339.106	117.75
339.334	129.75
339.562	116.75
339.79	116.75
340.018	106.75
340.246	121.75
340.474	114.75
340.702	117.75
340.93	101.75
341.158	108.75
341.386	102.75
341.614	103.75
341.842	110.75
342.07	117.75
342.298	118.75
342.526	108.75
342.754	119.75
342.981	101.75
343.209	128.75
343.437	117.75
343.665	131.75
343.893	107.75
344.12	123.75
344.348	123.75
344.576	109.75
344.804	120.75
345.031	126.75
345.259	109.75
345.487	111.75
345.714	119.75
345.942	120.75
346.17	128.75
346.397	117.75
346.625	117.75
346.853	118.75
347.08	115.75
347.308	122.75
347.535	125.75
347.763	130.75
347.99	123.75
348.218	109.75
348.445	115.75
348.673	110.75
348.9	115.75
349.128	131.75
349.355	127.75
349.583	106.75
349.81	96.75
350.037	107.75
350.265	100.75
350.492	108.75
350.72	107.75
350.947	120.75
351.174	110.75
351.402	112.75
351.629	124.75
351.856	120.75
352.083	117.75
352.311	111.75
352.538	116.75
352.765	103.75
352.992	115.75
353.22	115.75
353.447	112.75
353.674	131.75
353.901	111.75
354.128	126.75
354.355	115.75
354.583	102.75
354.81	111.75
355.037	118.75
355.264	119.75
355.491	112.75
355.718	118.75
355.945	117.75
356.172	105.75
356.399	108.75
356.626	113.75
356.853	113.75
357.08	106.75
357.307	113.75
357.534	117.75
357.761	103.75
357.988	123.75
358.215	98.75
358.441	105.75
358.668	108.75
358.895	109.75
359.122	104.75
359.349	118.75
359.576	118.75
359.802	104.75
360.029	119.75
360.256	119.75
360.483	112.75
360.709	115.75
360.936	117.75
361.163	120.75
361.39	105.75
361.616	133.75
361.843	104.75
362.07	96.75
362.296	119.75
362.523	109.75
362.749	104.75
362.976	101.75
363.203	108.75
363.429	111.75
363.656	113.75
363.882	123.75
364.109	111.75
364.335	107.75
364.562	113.75
364.788	115.75
365.015	107.75
365.241	99.75
365.468	105.75
365.694	96.75
365.92	112.75
366.147	103.75
366.373	100.75
366.599	98.75
366.826	120.75
367.052	116.75
367.278	116.75
367.505	108.75
367.731	100.75
367.957	102.75
368.184	117.75
368.41	106.75
368.636	114.75
368.862	123.75
369.089	109.75
369.315	108.75
369.541	128.75
369.767	105.75
369.993	123.75
370.219	115.75
370.445	108.75
370.672	104.75
370.898	100.75
371.124	104.75
371.35	122.75
371.576	123.75
371.802	124.75
372.028	105.75
372.254	112.75
372.48	119.75
372.706	104.75
372.932	109.75
373.158	119.75
373.384	123.75
373.61	116.75
373.835	127.75
374.061	113.75
374.287	104.75
374.513	115.75
374.739	99.75
374.965	102.75
375.191	115.75
375.416	116.75
375.642	120.75
375.868	126.75
376.094	108.75
376.319	107.75
376.545	116.75
376.771	119.75
376.997	119.75
377.222	111.75
377.448	125.75
377.674	111.75
377.899	115.75
378.125	114.75
378.35	109.75
378.576	108.75
378.802	110.75
379.027	103.75
379.253	115.75
379.478	112.75
379.704	113.75
379.929	110.75
380.155	102.75
380.38	113.75
380.606	115.75
380.831	114.75
381.057	127.75
381.282	121.75
381.507	122.75
381.733	114.75
381.958	109.75
382.184	108.75
382.409	124.75
382.634	125.75
382.86	118.75
383.085	119.75
383.31	111.75
383.535	125.75
383.761	122.75
383.986	116.75
384.211	127.75
384.436	117.75
384.662	116.75
384.887	127.75
385.112	129.75
385.337	112.75
385.562	128.75
385.787	121.75
386.013	131.75
386.238	120.75
386.463	125.75
386.688	111.75
386.913	117.75
387.138	127.75
387.363	119.75
387.588	128.75
387.813	116.75
388.038	119.75
388.263	120.75
388.488	119.75
388.713	129.75
388.938	115.75
389.163	103.75
389.387	128.75
389.612	121.75
389.837	124.75
390.062	117.75
390.287	121.75
390.512	119.75
390.736	123.75
390.961	123.75
391.186	118.75
391.411	127.75
391.636	122.75
391.86	133.75
392.085	139.75
392.31	130.75
392.534	127.75
392.759	123.75
392.984	100.75
393.208	123.75
393.433	125.75
393.658	129.75
393.882	126.75
394.107	104.75
394.331	122.75
394.556	123.75
394.78	125.75
395.005	112.75
395.229	108.75
395.454	111.75
395.678	121.75
395.903	120.75
396.127	129.75
396.352	129.75
396.576	125.75
396.801	127.75
397.025	114.75
397.249	121.75
397.474	131.75
397.698	123.75
397.922	118.75
398.147	129.75
398.371	122.75
398.595	118.75
398.82	133.75
399.044	131.75
399.268	123.75
399.492	133.75
399.717	146.75
399.941	140.75
400.165	133.75
400.389	141.75
400.613	147.75
400.837	126.75
401.062	135.75
401.286	128.75
401.51	140.75
401.734	122.75
401.958	117.75
402.182	134.75
402.406	143.75
402.63	120.75
402.854	139.75
403.078	147.75
403.302	136.75
403.526	128.75
403.75	142.75
403.974	123.75
404.198	143.75
404.422	136.75
404.645	143.75
404.869	143.75
405.093	123.75
405.317	147.75
405.541	133.75
405.765	139.75
405.988	130.75
406.212	129.75
406.436	122.75
406.66	136.75
406.883	127.75
407.107	132.75
407.331	129.75
407.555	135.75
407.778	153.75
408.002	127.75
408.226	138.75
408.449	127.75
408.673	129.75
408.896	132.75
409.12	127.75
409.344	123.75
409.567	130.75
409.791	136.75
410.014	140.75
410.238	131.75
410.461	138.75
410.685	126.75
410.908	127.75
411.132	130.75
411.355	137.75
411.578	130.75
411.802	138.75
412.025	150.75
412.249	121.75
412.472	127.75
412.695	139.75
412.919	126.75
413.142	122.75
413.365	132.75
413.589	141.75
413.812	128.75
414.035	125.75
414.258	127.75
414.482	139.75
414.705	120.75
414.928	134.75
415.151	122.75
415.374	124.75
415.597	125.75
415.821	136.75
416.044	139.75
416.267	125.75
416.49	128.75
416.713	121.75
416.936	126.75
417.159	129.75
417.382	131.75
417.605	121.75
417.828	132.75
418.051	126.75
418.274	127.75
418.497	141.75
418.72	132.75
418.943	123.75
419.166	137.75
419.389	122.75
419.611	131.75
419.834	122.75
420.057	128.75
420.28	133.75
420.503	130.75
420.726	143.75
420.948	137.75
421.171	127.75
421.394	142.75
421.617	156.75
421.839	131.75
422.062	129.75
422.285	132.75
422.507	130.75
422.73	134.75
422.953	135.75
423.175	138.75
423.398	127.75
423.621	129.75
423.843	132.75
424.066	127.75
424.288	131.75
424.511	138.75
424.733	142.75
424.956	132.75
425.178	127.75
425.401	142.75
425.623	119.75
425.846	133.75
426.068	143.75
426.291	127.75
426.513	123.75
426.735	140.75
426.958	147.75
427.18	127.75
427.402	128.75
427.625	133.75
427.847	131.75
428.069	132.75
428.292	122.75
428.514	128.75
428.736	122.75
428.958	124.75
429.181	126.75
429.403	133.75
429.625	134.75
429.847	119.75
430.069	130.75
430.292	127.75
430.514	126.75
430.736	131.75
430.958	112.75
431.18	133.75
431.402	119.75
431.624	117.75
431.846	115.75
432.068	134.75
432.29	123.75
432.512	133.75
432.734	116.75
432.956	125.75
433.178	129.75
433.4	128.75
433.622	125.75
433.844	133.75
434.066	128.75
434.287	134.75
434.509	126.75
434.731	129.75
434.953	128.75
435.175	121.75
435.397	131.75
435.618	127.75
435.84	127.75
436.062	139.75
436.284	142.75
436.505	136.75
436.727	133.75
436.949	134.75
437.17	128.75
437.392	131.75
437.614	128.75
437.835	126.75
438.057	121.75
438.278	133.75
438.5	118.75
438.721	124.75
438.943	141.75
439.165	120.75
439.386	126.75
439.608	126.75
439.829	125.75
440.05	118.75
440.272	128.75
440.493	117.75
440.715	134.75
440.936	148.75
441.158	142.75
441.379	129.75
441.6	133.75
441.822	130.75
442.043	145.75
442.264	124.75
442.486	135.75
442.707	135.75
442.928	122.75
443.149	118.75
443.371	134.75
443.592	127.75
443.813	151.75
444.034	143.75
444.255	148.75
444.476	139.75
444.698	135.75
444.919	131.75
445.14	267.75
445.361	181.75
445.582	135.75
445.803	130.75
446.024	126.75
446.245	144.75
446.466	138.75
446.687	131.75
446.908	141.75
447.129	124.75
447.35	116.75
447.571	140.75
447.792	133.75
448.013	121.75
448.234	139.75
448.455	135.75
448.675	125.75
448.896	131.75
449.117	142.75
449.338	117.75
449.559	121.75
449.779	131.75
450	133.75
450.221	126.75
450.442	131.75
450.662	127.75
450.883	134.75
451.104	115.75
451.324	124.75
451.545	124.75
451.766	138.75
451.986	123.75
452.207	136.75
452.428	118.75
452.648	128.75
452.869	118.75
453.089	132.75
453.31	123.75
453.53	113.75
453.751	119.75
453.971	102.75
454.192	121.75
454.412	131.75
454.633	117.75
454.853	118.75
455.073	120.75
455.294	123.75
455.514	123.75
455.734	117.75
455.955	112.75
456.175	112.75
456.395	117.75
456.616	111.75
456.836	121.75
457.056	108.75
457.276	103.75
457.497	127.75
457.717	119.75
457.937	122.75
458.157	117.75
458.377	113.75
458.598	111.75
458.818	125.75
459.038	140.75
459.258	149.75
459.478	123.75
459.698	121.75
459.918	117.75
460.138	138.75
460.358	126.75
460.578	134.75
460.798	136.75
461.018	134.75
461.238	123.75
461.458	125.75
461.678	130.75
461.898	137.75
462.118	143.75
462.338	129.75
462.558	120.75
462.777	141.75
462.997	149.75
463.217	135.75
463.437	131.75
463.657	136.75
463.876	131.75
464.096	131.75
464.316	136.75
464.536	145.75
464.755	141.75
464.975	132.75
465.195	140.75
465.414	138.75
465.634	146.75
465.854	129.75
466.073	124.75
466.293	126.75
466.512	127.75
466.732	112.75
466.951	121.75
467.171	128.75
467.391	123.75
467.61	134.75
467.829	119.75
468.049	143.75
468.268	128.75
468.488	124.75
468.707	125.75
468.927	123.75
469.146	136.75
469.365	120.75
469.585	132.75
469.804	118.75
470.023	121.75
470.243	118.75
470.462	132.75
470.681	120.75
470.901	127.75
471.12	126.75
471.339	122.75
471.558	126.75
471.777	136.75
471.997	131.75
472.216	127.75
472.435	117.75
472.654	115.75
472.873	114.75
473.092	115.75
473.311	127.75
473.53	125.75
473.749	124.75
473.968	131.75
474.187	129.75
474.406	136.75
474.625	127.75
474.844	120.75
475.063	122.75
475.282	133.75
475.501	124.75
475.72	123.75
475.939	129.75
476.158	104.75
476.377	110.75
476.596	110.75
476.814	124.75
477.033	116.75
477.252	139.75
477.471	119.75
477.69	124.75
477.908	135.75
478.127	137.75
478.346	125.75
478.564	119.75
478.783	133.75
479.002	141.75
479.22	137.75
479.439	140.75
479.658	132.75
479.876	128.75
480.095	139.75
480.313	143.75
480.532	150.75
480.751	128.75
480.969	136.75
481.188	140.75
481.406	128.75
481.624	124.75
481.843	136.75
482.061	127.75
482.28	130.75
482.498	129.75
482.717	121.75
482.935	131.75
483.153	131.75
483.372	132.75
483.59	145.75
483.808	136.75
484.027	135.75
484.245	132.75
484.463	135.75
484.681	135.75
484.9	139.75
485.118	130.75
485.336	129.75
485.554	133.75
485.772	151.75
485.99	140.75
486.209	142.75
486.427	129.75
486.645	142.75
486.863	135.75
487.081	136.75
487.299	117.75
487.517	140.75
487.735	151.75
487.953	139.75
488.171	141.75
488.389	149.75
488.607	141.75
488.825	129.75
489.043	136.75
489.261	146.75
489.479	138.75
489.696	138.75
489.914	144.75
490.132	152.75
490.35	129.75
490.568	134.75
490.786	147.75
491.003	148.75
491.221	143.75
491.439	137.75
491.657	151.75
491.874	143.75
492.092	147.75
492.31	156.75
492.527	146.75
492.745	152.75
492.963	134.75
493.18	148.75
493.398	139.75
493.615	139.75
493.833	140.75
494.05	138.75
494.268	157.75
494.485	134.75
494.703	154.75
494.92	152.75
495.138	137.75
495.355	151.75
495.573	149.75
495.79	136.75
496.008	131.75
496.225	138.75
496.442	147.75
496.66	145.75
496.877	153.75
497.094	147.75
497.312	148.75
497.529	145.75
497.746	134.75
497.963	141.75
498.181	152.75
498.398	157.75
498.615	161.75
498.832	147.75
499.049	165.75
499.267	183.75
499.484	177.75
499.701	194.75
499.918	191.75
500.135	207.75
500.352	210.75
500.569	219.75
500.786	209.75
501.003	203.75
501.22	185.75
501.437	180.75
501.654	184.75
501.871	185.75
502.088	167.75
502.305	167.75
502.522	166.75
502.739	153.75
502.956	169.75
503.172	157.75
503.389	154.75
503.606	138.75
503.823	148.75
504.04	149.75
504.256	160.75
504.473	134.75
504.69	164.75
504.907	141.75
505.123	134.75
505.34	139.75
505.557	144.75
505.773	137.75
505.99	140.75
506.207	134.75
506.423	139.75
506.64	142.75
506.856	135.75
507.073	134.75
507.289	137.75
507.506	135.75
507.722	135.75
507.939	134.75
508.155	127.75
508.372	124.75
508.588	148.75
508.805	135.75
509.021	142.75
509.238	131.75
509.454	134.75
509.67	126.75
509.887	138.75
510.103	119.75
510.319	115.75
510.536	136.75
510.752	173.75
510.968	154.75
511.184	129.75
511.401	119.75
511.617	128.75
511.833	130.75
512.049	145.75
512.265	137.75
512.481	121.75
512.698	127.75
512.914	136.75
513.13	133.75
513.346	129.75
513.562	135.75
513.778	135.75
513.994	115.75
514.21	129.75
514.426	138.75
514.642	131.75
514.858	123.75
515.074	136.75
515.29	147.75
515.506	160.75
515.721	159.75
515.937	125.75
516.153	121.75
516.369	125.75
516.585	124.75
516.801	125.75
517.016	131.75
517.232	135.75
517.448	144.75
517.664	133.75
517.879	156.75
518.095	139.75
518.311	138.75
518.527	148.75
518.742	123.75
518.958	131.75
519.173	136.75
519.389	131.75
519.605	120.75
519.82	131.75
520.036	124.75
520.251	129.75
520.467	141.75
520.682	126.75
520.898	131.75
521.113	134.75
521.329	123.75
521.544	135.75
521.76	145.75
521.975	190.75
522.19	171.75
522.406	136.75
522.621	131.75
522.836	128.75
523.052	129.75
523.267	117.75
523.482	115.75
523.698	127.75
523.913	127.75
524.128	135.75
524.343	121.75
524.559	116.75
524.774	123.75
524.989	128.75
525.204	123.75
525.419	139.75
525.634	127.75
525.849	117.75
526.064	139.75
526.28	122.75
526.495	112.75
526.71	121.75
526.925	123.75
527.14	139.75
527.355	123.75
527.57	114.75
527.785	120.75
527.999	121.75
528.214	122.75
528.429	127.75
528.644	124.75
528.859	128.75
529.074	123.75
529.289	131.75
529.503	131.75
529.718	129.75
529.933	118.75
530.148	120.75
530.363	135.75
530.577	117.75
530.792	133.75
531.007	115.75
531.221	113.75
531.436	113.75
531.651	115.75
531.865	123.75
532.08	114.75
532.295	127.75
532.509	121.75
532.724	117.75
532.938	123.75
533.153	120.75
533.367	127.75
533.582	123.75
533.796	117.75
534.011	119.75
534.225	121.75
534.44	107.75
534.654	115.75
534.868	120.75
535.083	121.75
535.297	131.75
535.511	125.75
535.726	135.75
535.94	118.75
536.154	123.75
536.369	110.75
536.583	118.75
536.797	123.75
537.011	108.75
537.225	124.75
537.44	117.75
537.654	124.75
537.868	126.75
538.082	115.75
538.296	125.75
538.51	126.75
538.724	113.75
538.938	143.75
539.153	123.75
539.367	117.75
539.581	122.75
539.795	112.75
540.009	109.75
540.222	123.75
540.436	134.75
540.65	125.75
540.864	122.75
541.078	119.75
541.292	136.75
541.506	127.75
541.72	124.75
541.934	118.75
542.147	134.75
542.361	140.75
542.575	131.75
542.789	142.75
543.002	124.75
543.216	135.75
543.43	137.75
543.644	128.75
543.857	135.75
544.071	137.75
544.285	144.75
544.498	137.75
544.712	125.75
544.925	137.75
545.139	124.75
545.352	131.75
545.566	135.75
545.779	132.75
545.993	145.75
546.206	147.75
546.42	157.75
546.633	128.75
546.847	149.75
547.06	119.75
547.274	129.75
547.487	127.75
547.7	107.75
547.914	132.75
548.127	120.75
548.34	132.75
548.554	127.75
548.767	142.75
548.98	137.75
549.193	131.75
549.407	130.75
549.62	143.75
549.833	144.75
550.046	128.75
550.259	131.75
550.473	125.75
550.686	128.75
550.899	118.75
551.112	128.75
551.325	124.75
551.538	125.75
551.751	124.75
551.964	110.75
552.177	111.75
552.39	117.75
552.603	139.75
552.816	126.75
553.029	122.75
553.242	124.75
553.455	137.75
553.667	139.75
553.88	129.75
554.093	127.75
554.306	134.75
554.519	134.75
554.732	127.75
554.944	129.75
555.157	143.75
555.37	128.75
555.583	128.75
555.795	126.75
556.008	112.75
556.221	127.75
556.433	109.75
556.646	130.75
556.859	122.75
557.071	128.75
557.284	124.75
557.496	122.75
557.709	108.75
557.921	119.75
558.134	112.75
558.346	115.75
558.559	124.75
558.771	116.75
558.984	117.75
559.196	127.75
559.409	118.75
559.621	126.75
559.833	126.75
560.046	120.75
560.258	127.75
560.47	124.75
560.683	106.75
560.895	127.75
561.107	131.75
561.32	109.75
561.532	126.75
561.744	125.75
561.956	107.75
562.168	105.75
562.381	129.75
562.593	142.75
562.805	139.75
563.017	119.75
563.229	132.75
563.441	104.75
563.653	128.75
563.865	116.75
564.077	125.75
564.289	117.75
564.501	129.75
564.713	125.75
564.925	127.75
565.137	132.75
565.349	119.75
565.561	120.75
565.773	122.75
565.985	128.75
566.197	130.75
566.408	140.75
566.62	126.75
566.832	156.75
567.044	151.75
567.255	129.75
567.467	136.75
567.679	148.75
567.891	146.75
568.102	145.75
568.314	135.75
568.526	134.75
568.737	145.75
568.949	135.75
569.161	123.75
569.372	102.75
569.584	123.75
569.795	110.75
570.007	121.75
570.218	110.75
570.43	130.75
570.641	104.75
570.853	111.75
571.064	116.75
571.276	100.75
571.487	133.75
571.698	119.75
571.91	105.75
572.121	123.75
572.333	120.75
572.544	131.75
572.755	105.75
572.966	121.75
573.178	116.75
573.389	119.75
573.6	94.75
573.811	104.75
574.023	116.75
574.234	105.75
574.445	116.75
574.656	115.75
574.867	119.75
575.078	101.75
575.289	99.75
575.501	107.75
575.712	114.75
575.923	123.75
576.134	120.75
576.345	98.75
576.556	102.75
576.767	112.75
576.978	121.75
577.188	122.75
577.399	108.75
577.61	97.75
577.821	120.75
578.032	113.75
578.243	109.75
578.454	146.75
578.665	103.75
578.875	100.75
579.086	109.75
579.297	109.75
579.508	112.75
579.718	106.75
579.929	105.75
580.14	112.75
580.35	115.75
580.561	122.75
580.772	104.75
580.982	98.75
581.193	106.75
581.403	107.75
581.614	114.75
581.825	114.75
582.035	103.75
582.246	103.75
582.456	100.75
582.667	107.75
582.877	117.75
583.087	100.75
583.298	113.75
583.508	102.75
583.719	108.75
583.929	104.75
584.139	108.75
584.35	116.75
584.56	124.75
584.77	112.75
584.981	102.75
585.191	111.75
585.401	116.75
585.611	119.75
585.821	117.75
586.032	103.75
586.242	112.75
586.452	93.75
586.662	116.75
586.872	103.75
587.082	102.75
587.292	108.75
587.502	120.75
587.713	104.75
587.923	119.75
588.133	104.75
588.343	110.75
588.553	117.75
588.762	110.75
588.972	120.75
589.182	117.75
589.392	118.75
589.602	112.75
589.812	120.75
590.022	115.75
590.232	111.75
590.441	123.75
590.651	112.75
590.861	124.75
591.071	112.75
591.281	106.75
591.49	100.75
591.7	108.75
591.91	111.75
592.119	112.75
592.329	109.75
592.539	110.75
592.748	117.75
592.958	121.75
593.167	109.75
593.377	116.75
593.587	117.75
593.796	125.75
594.006	125.75
594.215	108.75
594.424	105.75
594.634	110.75
594.843	121.75
595.053	125.75
595.262	117.75
595.472	118.75
595.681	120.75
595.89	111.75
596.1	116.75
596.309	102.75
596.518	97.75
596.727	102.75
596.937	91.75
597.146	109.75
597.355	109.75
597.564	115.75
597.774	102.75
597.983	98.75
598.192	99.75
598.401	99.75
598.61	111.75
598.819	102.75
599.028	105.75
599.237	90.75
599.446	109.75
599.655	101.75
599.864	96.75
600.073	105.75
600.282	96.75
600.491	80.75
600.7	102.75
600.909	112.75
601.118	114.75
601.327	97.75
601.536	91.75
601.745	95.75
601.953	117.75
602.162	99.75
602.371	106.75
602.58	107.75
602.789	95.75
602.997	103.75
603.206	102.75
603.415	103.75
603.623	110.75
603.832	109.75
604.041	106.75
604.249	111.75
604.458	115.75
604.666	104.75
604.875	103.75
605.084	92.75
605.292	104.75
605.501	101.75
605.709	105.75
605.918	107.75
606.126	108.75
606.334	98.75
606.543	101.75
606.751	95.75
606.96	118.75
607.168	108.75
607.376	98.75
607.585	102.75
607.793	86.75
608.001	92.75
608.21	93.75
608.418	111.75
608.626	111.75
608.834	98.75
609.043	98.75
609.251	103.75
609.459	103.75
609.667	108.75
609.875	87.75
610.083	104.75
610.291	108.75
610.499	111.75
610.707	104.75
610.916	101.75
611.124	111.75
611.332	105.75
611.54	132.75
611.748	120.75
611.955	125.75
612.163	116.75
612.371	107.75
612.579	117.75
612.787	103.75
612.995	113.75
613.203	120.75
613.411	107.75
613.618	105.75
613.826	118.75
614.034	101.75
614.242	111.75
614.449	106.75
614.657	99.75
614.865	116.75
615.072	110.75
615.28	89.75
615.488	95.75
615.695	108.75
615.903	115.75
616.111	105.75
616.318	110.75
616.526	110.75
616.733	102.75
616.941	96.75
617.148	80.75
617.356	112.75
617.563	120.75
617.771	97.75
617.978	107.75
618.185	97.75
618.393	92.75
618.6	104.75
618.807	102.75
619.015	101.75
619.222	89.75
619.429	99.75
619.637	102.75
619.844	105.75
620.051	107.75
620.258	103.75
620.466	88.75
620.673	101.75
620.88	99.75
621.087	95.75
621.294	92.75
621.501	101.75
621.708	111.75
621.915	102.75
622.122	94.75
622.329	93.75
622.536	93.75
622.743	109.75
622.95	94.75
623.157	115.75
623.364	107.75
623.571	93.75
623.778	116.75
623.985	109.75
624.192	98.75
624.399	111.75
624.606	125.75
624.812	93.75
625.019	81.75
625.226	101.75
625.433	82.75
625.639	94.75
625.846	107.75
626.053	102.75
626.259	90.75
626.466	88.75
626.673	96.75
626.879	115.75
627.086	97.75
627.293	118.75
627.499	94.75
627.706	96.75
627.912	97.75
628.119	89.75
628.325	98.75
628.532	107.75
628.738	95.75
628.945	91.75
629.151	91.75
629.357	107.75
629.564	107.75
629.77	115.75
629.976	102.75
630.183	109.75
630.389	96.75
630.595	103.75
630.802	118.75
631.008	119.75
631.214	90.75
631.42	109.75
631.627	105.75
631.833	94.75
632.039	107.75
632.245	101.75
632.451	81.75
632.657	88.75
632.863	100.75
633.069	109.75
633.275	109.75
633.481	93.75
633.688	100.75
633.893	95.75
634.099	104.75
634.305	94.75
634.511	99.75
634.717	89.75
634.923	102.75
635.129	87.75
635.335	98.75
635.541	91.75
635.747	85.75
635.952	100.75
636.158	100.75
636.364	103.75
636.57	94.75
636.775	97.75
636.981	87.75
637.187	102.75
637.392	93.75
637.598	100.75
637.804	93.75
638.009	108.75
638.215	104.75
638.421	96.75
638.626	99.75
638.832	89.75
639.037	96.75
639.243	93.75
639.448	88.75
639.654	104.75
639.859	86.75
640.065	105.75
640.27	104.75
640.475	97.75
640.681	92.75
640.886	91.75
641.091	92.75
641.297	97.75
641.502	95.75
641.707	94.75
641.913	89.75
642.118	92.75
642.323	90.75
642.528	106.75
642.733	90.75
642.939	112.75
643.144	96.75
643.349	85.75
643.554	98.75
643.759	96.75
643.964	92.75
644.169	101.75
644.374	89.75
644.579	91.75
644.784	92.75
644.989	103.75
645.194	93.75
645.399	97.75
645.604	93.75
645.809	96.75
646.014	80.75
646.219	94.75
646.423	85.75
646.628	102.75
646.833	95.75
647.038	94.75
647.243	91.75
647.447	93.75
647.652	102.75
647.857	91.75
648.062	93.75
648.266	89.75
648.471	108.75
648.676	103.75
648.88	100.75
649.085	100.75
649.289	97.75
649.494	96.75
649.698	96.75
649.903	103.75
650.107	97.75
650.312	95.75
650.516	90.75
650.721	99.75
650.925	91.75
651.13	95.75
651.334	97.75
651.539	90.75
651.743	99.75
651.947	93.75
652.152	90.75
652.356	97.75
652.56	91.75
652.764	81.75
652.969	93.75
653.173	100.75
653.377	90.75
653.581	87.75
653.785	93.75
653.99	72.75
654.194	87.75
654.398	85.75
654.602	92.75
654.806	92.75
655.01	95.75
655.214	99.75
655.418	81.75
655.622	80.75
655.826	88.75
656.03	94.75
656.234	101.75
656.438	89.75
656.642	103.75
656.846	96.75
657.049	85.75
657.253	86.75
657.457	102.75
657.661	97.75
657.865	108.75
658.068	84.75
658.272	95.75
658.476	91.75
658.68	99.75
658.883	95.75
659.087	80.75
659.291	92.75
659.494	89.75
659.698	71.75
659.901	83.75
660.105	92.75
660.309	92.75
660.512	86.75
660.716	83.75
660.919	79.75
661.123	86.75
661.326	81.75
661.53	68.75
661.733	84.75
661.936	86.75
662.14	76.75
662.343	90.75
662.546	84.75
662.75	88.75
662.953	80.75
663.156	103.75
663.36	85.75
663.563	86.75
663.766	91.75
663.969	80.75
664.173	95.75
664.376	86.75
664.579	86.75
664.782	88.75
664.985	85.75
665.188	84.75
665.391	72.75
665.594	71.75
665.797	78.75
666	75.75
666.203	82.75
666.406	88.75
666.609	81.75
666.812	88.75
667.015	90.75
667.218	89.75
667.421	71.75
667.624	84.75
667.827	75.75
668.03	93.75
668.232	82.75
668.435	89.75
668.638	83.75
668.841	99.75
669.043	95.75
669.246	86.75
669.449	83.75
669.651	80.75
669.854	87.75
670.057	78.75
670.259	84.75
670.462	72.75
670.665	80.75
670.867	77.75
671.07	83.75
671.272	86.75
671.475	83.75
671.677	78.75
671.88	96.75
672.082	79.75
672.284	80.75
672.487	97.75
672.689	84.75
672.892	72.75
