Data from 1968.PennyLincolnUp.Lamp.En5.5.200Scan.071719.P1._HRD10591_14-51-46-970.txt Node
Date: Thu Jul 18 14:51:46 EDT 2019
User: cochatt
Spectrometer: HR+D1059
Trigger mode: 1
Integration Time (sec): 1.000000E-1
Scans to average: 1
Electric dark correction enabled: true
Nonlinearity correction enabled: false
Boxcar width: 0
XAxis mode: Wavelengths
Number of Pixels in Spectrum: 2048
>>>>>Begin Spectral Data<<<<<
223.165	-25.94
223.4	-25.94
223.635	-25.94
223.869	-2.94
224.104	-10.94
224.338	-14.94
224.573	-9.94
224.808	-16.94
225.042	-21.94
225.277	7.06
225.511	5.06
225.746	-7.94
225.98	-6.94
226.215	5.06
226.449	8.06
226.683	27.06
226.918	30.06
227.152	36.06
227.387	38.06
227.621	40.06
227.856	49.06
228.09	43.06
228.324	38.06
228.559	59.06
228.793	68.06
229.027	58.06
229.262	72.06
229.496	58.06
229.73	67.06
229.964	74.06
230.199	81.06
230.433	98.06
230.667	70.06
230.901	83.06
231.136	83.06
231.37	84.06
231.604	94.06
231.838	83.06
232.072	89.06
232.306	87.06
232.541	91.06
232.775	87.06
233.009	86.06
233.243	77.06
233.477	79.06
233.711	82.06
233.945	91.06
234.179	84.06
234.413	76.06
234.647	96.06
234.881	99.06
235.115	72.06
235.349	84.06
235.583	72.06
235.817	85.06
236.051	68.06
236.285	85.06
236.519	79.06
236.753	87.06
236.987	91.06
237.221	89.06
237.455	91.06
237.689	100.06
237.922	71.06
238.156	85.06
238.39	86.06
238.624	78.06
238.858	78.06
239.091	77.06
239.325	83.06
239.559	81.06
239.793	78.06
240.027	90.06
240.26	73.06
240.494	73.06
240.728	85.06
240.961	89.06
241.195	76.06
241.429	87.06
241.662	87.06
241.896	66.06
242.13	75.06
242.363	96.06
242.597	91.06
242.83	83.06
243.064	76.06
243.298	87.06
243.531	87.06
243.765	79.06
243.998	94.06
244.232	88.06
244.465	83.06
244.699	84.06
244.932	101.06
245.166	81.06
245.399	87.06
245.633	80.06
245.866	100.06
246.099	96.06
246.333	82.06
246.566	81.06
246.8	71.06
247.033	88.06
247.266	80.06
247.5	91.06
247.733	88.06
247.966	91.06
248.2	95.06
248.433	94.06
248.666	80.06
248.899	86.06
249.133	89.06
249.366	86.06
249.599	94.06
249.832	73.06
250.066	79.06
250.299	89.06
250.532	78.06
250.765	94.06
250.998	98.06
251.231	80.06
251.465	81.06
251.698	83.06
251.931	88.06
252.164	96.06
252.397	84.06
252.63	96.06
252.863	83.06
253.096	90.06
253.329	79.06
253.562	89.06
253.795	99.06
254.028	80.06
254.261	72.06
254.494	87.06
254.727	77.06
254.96	93.06
255.193	97.06
255.426	96.06
255.659	93.06
255.892	94.06
256.124	84.06
256.357	96.06
256.59	101.06
256.823	86.06
257.056	87.06
257.289	95.06
257.521	90.06
257.754	93.06
257.987	92.06
258.22	91.06
258.452	92.06
258.685	80.06
258.918	88.06
259.151	78.06
259.383	87.06
259.616	83.06
259.849	94.06
260.081	81.06
260.314	89.06
260.547	94.06
260.779	94.06
261.012	97.06
261.244	82.06
261.477	111.06
261.71	94.06
261.942	93.06
262.175	94.06
262.407	86.06
262.64	88.06
262.872	83.06
263.105	97.06
263.337	96.06
263.57	95.06
263.802	99.06
264.035	89.06
264.267	95.06
264.499	72.06
264.732	86.06
264.964	101.06
265.197	93.06
265.429	97.06
265.661	90.06
265.894	95.06
266.126	114.06
266.358	96.06
266.591	89.06
266.823	85.06
267.055	86.06
267.287	91.06
267.52	88.06
267.752	85.06
267.984	78.06
268.216	92.06
268.448	93.06
268.681	90.06
268.913	81.06
269.145	85.06
269.377	89.06
269.609	82.06
269.841	103.06
270.073	91.06
270.306	93.06
270.538	90.06
270.77	99.06
271.002	96.06
271.234	88.06
271.466	103.06
271.698	110.06
271.93	89.06
272.162	95.06
272.394	98.06
272.626	92.06
272.858	105.06
273.09	80.06
273.322	93.06
273.553	97.06
273.785	87.06
274.017	97.06
274.249	97.06
274.481	106.06
274.713	91.06
274.945	92.06
275.176	104.06
275.408	83.06
275.64	99.06
275.872	100.06
276.104	92.06
276.335	107.06
276.567	101.06
276.799	89.06
277.031	104.06
277.262	99.06
277.494	106.06
277.726	95.06
277.957	99.06
278.189	99.06
278.421	89.06
278.652	91.06
278.884	102.06
279.115	100.06
279.347	103.06
279.579	117.06
279.81	97.06
280.042	108.06
280.273	112.06
280.505	100.06
280.736	99.06
280.968	96.06
281.199	83.06
281.431	108.06
281.662	100.06
281.894	95.06
282.125	87.06
282.356	92.06
282.588	99.06
282.819	88.06
283.051	78.06
283.282	81.06
283.513	91.06
283.745	98.06
283.976	104.06
284.207	96.06
284.439	89.06
284.67	86.06
284.901	99.06
285.132	98.06
285.364	97.06
285.595	105.06
285.826	94.06
286.057	115.06
286.288	97.06
286.52	111.06
286.751	83.06
286.982	93.06
287.213	97.06
287.444	107.06
287.675	120.06
287.906	110.06
288.138	110.06
288.369	97.06
288.6	89.06
288.831	88.06
289.062	93.06
289.293	109.06
289.524	101.06
289.755	108.06
289.986	103.06
290.217	120.06
290.448	107.06
290.679	107.06
290.91	101.06
291.141	91.06
291.371	101.06
291.602	105.06
291.833	103.06
292.064	95.06
292.295	108.06
292.526	100.06
292.757	116.06
292.987	104.06
293.218	102.06
293.449	96.06
293.68	111.06
293.91	117.06
294.141	103.06
294.372	104.06
294.603	108.06
294.833	102.06
295.064	109.06
295.295	99.06
295.525	100.06
295.756	99.06
295.987	102.06
296.217	100.06
296.448	103.06
296.679	108.06
296.909	96.06
297.14	115.06
297.37	108.06
297.601	107.06
297.831	96.06
298.062	109.06
298.292	104.06
298.523	95.06
298.753	121.06
298.984	108.06
299.214	105.06
299.445	107.06
299.675	102.06
299.905	100.06
300.136	97.06
300.366	111.06
300.597	108.06
300.827	104.06
301.057	94.06
301.288	115.06
301.518	113.06
301.748	99.06
301.979	117.06
302.209	118.06
302.439	113.06
302.669	102.06
302.9	105.06
303.13	97.06
303.36	114.06
303.59	111.06
303.82	113.06
304.051	119.06
304.281	103.06
304.511	95.06
304.741	100.06
304.971	101.06
305.201	105.06
305.431	121.06
305.661	103.06
305.891	100.06
306.121	112.06
306.352	120.06
306.582	114.06
306.812	102.06
307.042	87.06
307.272	99.06
307.502	121.06
307.731	118.06
307.961	107.06
308.191	96.06
308.421	97.06
308.651	119.06
308.881	111.06
309.111	102.06
309.341	119.06
309.571	95.06
309.8	100.06
310.03	122.06
310.26	114.06
310.49	112.06
310.72	120.06
310.949	97.06
311.179	102.06
311.409	109.06
311.639	99.06
311.868	108.06
312.098	122.06
312.328	120.06
312.557	115.06
312.787	114.06
313.017	108.06
313.246	110.06
313.476	109.06
313.706	100.06
313.935	117.06
314.165	109.06
314.394	121.06
314.624	113.06
314.853	125.06
315.083	104.06
315.312	107.06
315.542	91.06
315.771	104.06
316.001	107.06
316.23	97.06
316.46	121.06
316.689	110.06
316.919	117.06
317.148	105.06
317.377	103.06
317.607	107.06
317.836	109.06
318.065	102.06
318.295	109.06
318.524	101.06
318.753	110.06
318.983	109.06
319.212	95.06
319.441	115.06
319.67	119.06
319.9	118.06
320.129	107.06
320.358	116.06
320.587	118.06
320.816	112.06
321.046	115.06
321.275	103.06
321.504	101.06
321.733	110.06
321.962	107.06
322.191	108.06
322.42	126.06
322.649	125.06
322.878	103.06
323.108	109.06
323.337	109.06
323.566	121.06
323.795	135.06
324.024	134.06
324.253	124.06
324.482	137.06
324.71	157.06
324.939	187.06
325.168	153.06
325.397	119.06
325.626	126.06
325.855	129.06
326.084	121.06
326.313	127.06
326.542	123.06
326.77	103.06
326.999	141.06
327.228	137.06
327.457	160.06
327.686	167.06
327.914	141.06
328.143	125.06
328.372	115.06
328.6	113.06
328.829	129.06
329.058	125.06
329.287	106.06
329.515	108.06
329.744	116.06
329.972	127.06
330.201	119.06
330.43	112.06
330.658	120.06
330.887	109.06
331.115	125.06
331.344	117.06
331.572	121.06
331.801	120.06
332.03	108.06
332.258	120.06
332.486	123.06
332.715	131.06
332.943	113.06
333.172	115.06
333.4	95.06
333.629	131.06
333.857	119.06
334.085	132.06
334.314	121.06
334.542	113.06
334.771	119.06
334.999	129.06
335.227	119.06
335.455	120.06
335.684	119.06
335.912	123.06
336.14	110.06
336.369	125.06
336.597	125.06
336.825	118.06
337.053	112.06
337.281	115.06
337.51	121.06
337.738	114.06
337.966	108.06
338.194	113.06
338.422	97.06
338.65	120.06
338.878	116.06
339.106	117.06
339.334	114.06
339.562	97.06
339.79	122.06
340.018	106.06
340.246	122.06
340.474	131.06
340.702	126.06
340.93	108.06
341.158	107.06
341.386	93.06
341.614	122.06
341.842	112.06
342.07	112.06
342.298	97.06
342.526	115.06
342.754	122.06
342.981	115.06
343.209	112.06
343.437	110.06
343.665	107.06
343.893	113.06
344.12	112.06
344.348	116.06
344.576	120.06
344.804	127.06
345.031	105.06
345.259	105.06
345.487	110.06
345.714	115.06
345.942	109.06
346.17	120.06
346.397	106.06
346.625	127.06
346.853	115.06
347.08	118.06
347.308	109.06
347.535	96.06
347.763	104.06
347.99	113.06
348.218	109.06
348.445	120.06
348.673	114.06
348.9	124.06
349.128	121.06
349.355	113.06
349.583	103.06
349.81	116.06
350.037	123.06
350.265	123.06
350.492	137.06
350.72	113.06
350.947	119.06
351.174	123.06
351.402	117.06
351.629	108.06
351.856	101.06
352.083	121.06
352.311	113.06
352.538	114.06
352.765	110.06
352.992	112.06
353.22	111.06
353.447	113.06
353.674	107.06
353.901	111.06
354.128	118.06
354.355	118.06
354.583	112.06
354.81	106.06
355.037	98.06
355.264	110.06
355.491	122.06
355.718	114.06
355.945	111.06
356.172	111.06
356.399	134.06
356.626	112.06
356.853	96.06
357.08	97.06
357.307	124.06
357.534	101.06
357.761	113.06
357.988	96.06
358.215	96.06
358.441	110.06
358.668	103.06
358.895	95.06
359.122	108.06
359.349	116.06
359.576	109.06
359.802	109.06
360.029	119.06
360.256	115.06
360.483	103.06
360.709	103.06
360.936	132.06
361.163	110.06
361.39	106.06
361.616	115.06
361.843	113.06
362.07	117.06
362.296	103.06
362.523	109.06
362.749	108.06
362.976	110.06
363.203	115.06
363.429	115.06
363.656	115.06
363.882	108.06
364.109	110.06
364.335	120.06
364.562	108.06
364.788	106.06
365.015	110.06
365.241	126.06
365.468	115.06
365.694	112.06
365.92	99.06
366.147	120.06
366.373	108.06
366.599	117.06
366.826	113.06
367.052	116.06
367.278	109.06
367.505	123.06
367.731	118.06
367.957	105.06
368.184	110.06
368.41	108.06
368.636	115.06
368.862	125.06
369.089	112.06
369.315	138.06
369.541	102.06
369.767	103.06
369.993	117.06
370.219	117.06
370.445	108.06
370.672	112.06
370.898	118.06
371.124	115.06
371.35	123.06
371.576	99.06
371.802	120.06
372.028	104.06
372.254	111.06
372.48	106.06
372.706	116.06
372.932	105.06
373.158	106.06
373.384	125.06
373.61	99.06
373.835	98.06
374.061	117.06
374.287	111.06
374.513	116.06
374.739	108.06
374.965	119.06
375.191	127.06
375.416	112.06
375.642	101.06
375.868	115.06
376.094	109.06
376.319	101.06
376.545	119.06
376.771	123.06
376.997	123.06
377.222	128.06
377.448	119.06
377.674	120.06
377.899	125.06
378.125	106.06
378.35	115.06
378.576	122.06
378.802	104.06
379.027	111.06
379.253	111.06
379.478	106.06
379.704	129.06
379.929	115.06
380.155	108.06
380.38	105.06
380.606	120.06
380.831	121.06
381.057	127.06
381.282	101.06
381.507	122.06
381.733	116.06
381.958	101.06
382.184	112.06
382.409	104.06
382.634	129.06
382.86	112.06
383.085	113.06
383.31	127.06
383.535	122.06
383.761	105.06
383.986	118.06
384.211	126.06
384.436	115.06
384.662	119.06
384.887	121.06
385.112	125.06
385.337	123.06
385.562	117.06
385.787	112.06
386.013	135.06
386.238	127.06
386.463	113.06
386.688	117.06
386.913	118.06
387.138	105.06
387.363	125.06
387.588	113.06
387.813	121.06
388.038	122.06
388.263	103.06
388.488	108.06
388.713	111.06
388.938	124.06
389.163	110.06
389.387	110.06
389.612	127.06
389.837	118.06
390.062	104.06
390.287	124.06
390.512	117.06
390.736	122.06
390.961	127.06
391.186	123.06
391.411	138.06
391.636	118.06
391.86	103.06
392.085	119.06
392.31	110.06
392.534	112.06
392.759	127.06
392.984	122.06
393.208	128.06
393.433	124.06
393.658	132.06
393.882	128.06
394.107	127.06
394.331	125.06
394.556	116.06
394.78	117.06
395.005	129.06
395.229	120.06
395.454	127.06
395.678	126.06
395.903	120.06
396.127	137.06
396.352	119.06
396.576	126.06
396.801	119.06
397.025	122.06
397.249	118.06
397.474	143.06
397.698	126.06
397.922	135.06
398.147	121.06
398.371	126.06
398.595	132.06
398.82	131.06
399.044	137.06
399.268	142.06
399.492	137.06
399.717	124.06
399.941	137.06
400.165	152.06
400.389	143.06
400.613	131.06
400.837	120.06
401.062	117.06
401.286	126.06
401.51	129.06
401.734	147.06
401.958	124.06
402.182	127.06
402.406	131.06
402.63	119.06
402.854	137.06
403.078	137.06
403.302	117.06
403.526	126.06
403.75	134.06
403.974	151.06
404.198	131.06
404.422	127.06
404.645	129.06
404.869	145.06
405.093	133.06
405.317	136.06
405.541	143.06
405.765	136.06
405.988	112.06
406.212	120.06
406.436	128.06
406.66	148.06
406.883	147.06
407.107	140.06
407.331	132.06
407.555	153.06
407.778	157.06
408.002	126.06
408.226	135.06
408.449	152.06
408.673	134.06
408.896	135.06
409.12	133.06
409.344	136.06
409.567	139.06
409.791	126.06
410.014	129.06
410.238	134.06
410.461	133.06
410.685	145.06
410.908	137.06
411.132	133.06
411.355	133.06
411.578	151.06
411.802	152.06
412.025	139.06
412.249	130.06
412.472	117.06
412.695	133.06
412.919	122.06
413.142	133.06
413.365	131.06
413.589	127.06
413.812	129.06
414.035	134.06
414.258	123.06
414.482	125.06
414.705	123.06
414.928	124.06
415.151	127.06
415.374	131.06
415.597	137.06
415.821	121.06
416.044	125.06
416.267	127.06
416.49	132.06
416.713	139.06
416.936	152.06
417.159	131.06
417.382	131.06
417.605	131.06
417.828	132.06
418.051	137.06
418.274	132.06
418.497	135.06
418.72	133.06
418.943	131.06
419.166	127.06
419.389	141.06
419.611	131.06
419.834	119.06
420.057	144.06
420.28	134.06
420.503	133.06
420.726	128.06
420.948	142.06
421.171	141.06
421.394	139.06
421.617	129.06
421.839	141.06
422.062	131.06
422.285	134.06
422.507	126.06
422.73	146.06
422.953	125.06
423.175	141.06
423.398	141.06
423.621	135.06
423.843	134.06
424.066	135.06
424.288	145.06
424.511	148.06
424.733	137.06
424.956	140.06
425.178	136.06
425.401	159.06
425.623	124.06
425.846	118.06
426.068	137.06
426.291	141.06
426.513	128.06
426.735	143.06
426.958	129.06
427.18	146.06
427.402	152.06
427.625	160.06
427.847	139.06
428.069	128.06
428.292	139.06
428.514	119.06
428.736	125.06
428.958	128.06
429.181	125.06
429.403	129.06
429.625	123.06
429.847	141.06
430.069	131.06
430.292	126.06
430.514	116.06
430.736	120.06
430.958	116.06
431.18	120.06
431.402	130.06
431.624	125.06
431.846	133.06
432.068	122.06
432.29	111.06
432.512	122.06
432.734	145.06
432.956	135.06
433.178	135.06
433.4	125.06
433.622	121.06
433.844	129.06
434.066	131.06
434.287	116.06
434.509	119.06
434.731	133.06
434.953	131.06
435.175	121.06
435.397	139.06
435.618	117.06
435.84	130.06
436.062	141.06
436.284	140.06
436.505	127.06
436.727	135.06
436.949	132.06
437.17	135.06
437.392	125.06
437.614	123.06
437.835	123.06
438.057	124.06
438.278	145.06
438.5	131.06
438.721	155.06
438.943	136.06
439.165	128.06
439.386	141.06
439.608	129.06
439.829	136.06
440.05	131.06
440.272	125.06
440.493	137.06
440.715	133.06
440.936	113.06
441.158	121.06
441.379	145.06
441.6	144.06
441.822	134.06
442.043	142.06
442.264	139.06
442.486	129.06
442.707	131.06
442.928	131.06
443.149	129.06
443.371	128.06
443.592	125.06
443.813	141.06
444.034	137.06
444.255	128.06
444.476	138.06
444.698	140.06
444.919	151.06
445.14	260.06
445.361	192.06
445.582	140.06
445.803	130.06
446.024	135.06
446.245	137.06
446.466	130.06
446.687	133.06
446.908	142.06
447.129	137.06
447.35	124.06
447.571	126.06
447.792	113.06
448.013	120.06
448.234	119.06
448.455	137.06
448.675	157.06
448.896	141.06
449.117	140.06
449.338	124.06
449.559	163.06
449.779	137.06
450	137.06
450.221	133.06
450.442	131.06
450.662	126.06
450.883	118.06
451.104	127.06
451.324	125.06
451.545	128.06
451.766	137.06
451.986	106.06
452.207	118.06
452.428	117.06
452.648	137.06
452.869	136.06
453.089	128.06
453.31	108.06
453.53	115.06
453.751	125.06
453.971	118.06
454.192	129.06
454.412	125.06
454.633	126.06
454.853	110.06
455.073	119.06
455.294	121.06
455.514	123.06
455.734	112.06
455.955	135.06
456.175	119.06
456.395	127.06
456.616	122.06
456.836	113.06
457.056	123.06
457.276	127.06
457.497	97.06
457.717	121.06
457.937	129.06
458.157	120.06
458.377	127.06
458.598	127.06
458.818	116.06
459.038	115.06
459.258	137.06
459.478	112.06
459.698	115.06
459.918	121.06
460.138	131.06
460.358	138.06
460.578	120.06
460.798	143.06
461.018	142.06
461.238	144.06
461.458	131.06
461.678	112.06
461.898	131.06
462.118	133.06
462.338	138.06
462.558	141.06
462.777	138.06
462.997	133.06
463.217	143.06
463.437	147.06
463.657	131.06
463.876	131.06
464.096	137.06
464.316	135.06
464.536	138.06
464.755	129.06
464.975	129.06
465.195	137.06
465.414	143.06
465.634	135.06
465.854	127.06
466.073	133.06
466.293	129.06
466.512	128.06
466.732	122.06
466.951	123.06
467.171	138.06
467.391	115.06
467.61	118.06
467.829	138.06
468.049	126.06
468.268	127.06
468.488	104.06
468.707	130.06
468.927	133.06
469.146	120.06
469.365	127.06
469.585	128.06
469.804	133.06
470.023	116.06
470.243	131.06
470.462	123.06
470.681	136.06
470.901	123.06
471.12	124.06
471.339	127.06
471.558	122.06
471.777	131.06
471.997	129.06
472.216	115.06
472.435	126.06
472.654	123.06
472.873	133.06
473.092	125.06
473.311	129.06
473.53	127.06
473.749	117.06
473.968	124.06
474.187	139.06
474.406	119.06
474.625	127.06
474.844	145.06
475.063	119.06
475.282	132.06
475.501	125.06
475.72	127.06
475.939	119.06
476.158	128.06
476.377	120.06
476.596	100.06
476.814	131.06
477.033	122.06
477.252	121.06
477.471	118.06
477.69	126.06
477.908	131.06
478.127	127.06
478.346	133.06
478.564	131.06
478.783	141.06
479.002	126.06
479.22	130.06
479.439	141.06
479.658	133.06
479.876	132.06
480.095	140.06
480.313	136.06
480.532	142.06
480.751	129.06
480.969	147.06
481.188	155.06
481.406	132.06
481.624	128.06
481.843	135.06
482.061	129.06
482.28	123.06
482.498	135.06
482.717	146.06
482.935	129.06
483.153	131.06
483.372	129.06
483.59	133.06
483.808	142.06
484.027	142.06
484.245	132.06
484.463	130.06
484.681	125.06
484.9	123.06
485.118	127.06
485.336	131.06
485.554	139.06
485.772	126.06
485.99	126.06
486.209	141.06
486.427	122.06
486.645	124.06
486.863	110.06
487.081	148.06
487.299	134.06
487.517	139.06
487.735	155.06
487.953	153.06
488.171	144.06
488.389	162.06
488.607	139.06
488.825	135.06
489.043	142.06
489.261	153.06
489.479	121.06
489.696	144.06
489.914	143.06
490.132	144.06
490.35	139.06
490.568	128.06
490.786	145.06
491.003	146.06
491.221	139.06
491.439	127.06
491.657	157.06
491.874	146.06
492.092	159.06
492.31	138.06
492.527	143.06
492.745	137.06
492.963	142.06
493.18	150.06
493.398	128.06
493.615	140.06
493.833	135.06
494.05	143.06
494.268	143.06
494.485	150.06
494.703	147.06
494.92	149.06
495.138	155.06
495.355	155.06
495.573	151.06
495.79	131.06
496.008	147.06
496.225	141.06
496.442	144.06
496.66	163.06
496.877	153.06
497.094	153.06
497.312	145.06
497.529	153.06
497.746	153.06
497.963	140.06
498.181	159.06
498.398	142.06
498.615	165.06
498.832	145.06
499.049	159.06
499.267	171.06
499.484	168.06
499.701	179.06
499.918	209.06
500.135	220.06
500.352	214.06
500.569	209.06
500.786	234.06
501.003	210.06
501.22	209.06
501.437	191.06
501.654	181.06
501.871	183.06
502.088	166.06
502.305	168.06
502.522	151.06
502.739	159.06
502.956	171.06
503.172	158.06
503.389	153.06
503.606	140.06
503.823	136.06
504.04	152.06
504.256	156.06
504.473	157.06
504.69	150.06
504.907	152.06
505.123	142.06
505.34	149.06
505.557	135.06
505.773	161.06
505.99	142.06
506.207	143.06
506.423	127.06
506.64	139.06
506.856	137.06
507.073	141.06
507.289	136.06
507.506	133.06
507.722	143.06
507.939	147.06
508.155	130.06
508.372	129.06
508.588	125.06
508.805	130.06
509.021	138.06
509.238	137.06
509.454	127.06
509.67	131.06
509.887	136.06
510.103	138.06
510.319	125.06
510.536	135.06
510.752	150.06
510.968	130.06
511.184	135.06
511.401	135.06
511.617	132.06
511.833	137.06
512.049	108.06
512.265	139.06
512.481	135.06
512.698	134.06
512.914	137.06
513.13	126.06
513.346	138.06
513.562	132.06
513.778	125.06
513.994	126.06
514.21	156.06
514.426	124.06
514.642	147.06
514.858	139.06
515.074	130.06
515.29	148.06
515.506	160.06
515.721	142.06
515.937	154.06
516.153	154.06
516.369	129.06
516.585	133.06
516.801	128.06
517.016	137.06
517.232	137.06
517.448	143.06
517.664	148.06
517.879	133.06
518.095	149.06
518.311	147.06
518.527	143.06
518.742	133.06
518.958	136.06
519.173	135.06
519.389	144.06
519.605	133.06
519.82	126.06
520.036	141.06
520.251	122.06
520.467	131.06
520.682	130.06
520.898	140.06
521.113	134.06
521.329	140.06
521.544	127.06
521.76	145.06
521.975	191.06
522.19	197.06
522.406	141.06
522.621	125.06
522.836	128.06
523.052	126.06
523.267	119.06
523.482	126.06
523.698	139.06
523.913	124.06
524.128	128.06
524.343	116.06
524.559	117.06
524.774	119.06
524.989	121.06
525.204	114.06
525.419	144.06
525.634	128.06
525.849	130.06
526.064	121.06
526.28	139.06
526.495	124.06
526.71	123.06
526.925	114.06
527.14	112.06
527.355	123.06
527.57	120.06
527.785	126.06
527.999	117.06
528.214	125.06
528.429	121.06
528.644	127.06
528.859	115.06
529.074	124.06
529.289	104.06
529.503	135.06
529.718	127.06
529.933	124.06
530.148	128.06
530.363	125.06
530.577	117.06
530.792	132.06
531.007	130.06
531.221	116.06
531.436	122.06
531.651	112.06
531.865	119.06
532.08	126.06
532.295	121.06
532.509	140.06
532.724	107.06
532.938	131.06
533.153	120.06
533.367	121.06
533.582	133.06
533.796	129.06
534.011	128.06
534.225	111.06
534.44	133.06
534.654	120.06
534.868	117.06
535.083	135.06
535.297	117.06
535.511	130.06
535.726	139.06
535.94	120.06
536.154	137.06
536.369	123.06
536.583	120.06
536.797	115.06
537.011	129.06
537.225	121.06
537.44	135.06
537.654	118.06
537.868	115.06
538.082	133.06
538.296	127.06
538.51	121.06
538.724	115.06
538.938	120.06
539.153	112.06
539.367	122.06
539.581	127.06
539.795	117.06
540.009	128.06
540.222	131.06
540.436	118.06
540.65	133.06
540.864	129.06
541.078	120.06
541.292	137.06
541.506	134.06
541.72	121.06
541.934	134.06
542.147	123.06
542.361	137.06
542.575	117.06
542.789	130.06
543.002	131.06
543.216	148.06
543.43	143.06
543.644	123.06
543.857	134.06
544.071	141.06
544.285	135.06
544.498	132.06
544.712	128.06
544.925	136.06
545.139	149.06
545.352	135.06
545.566	139.06
545.779	145.06
545.993	137.06
546.206	141.06
546.42	150.06
546.633	141.06
546.847	133.06
547.06	116.06
547.274	130.06
547.487	126.06
547.7	125.06
547.914	115.06
548.127	132.06
548.34	131.06
548.554	130.06
548.767	145.06
548.98	138.06
549.193	122.06
549.407	134.06
549.62	118.06
549.833	137.06
550.046	125.06
550.259	129.06
550.473	134.06
550.686	127.06
550.899	124.06
551.112	139.06
551.325	131.06
551.538	126.06
551.751	126.06
551.964	125.06
552.177	124.06
552.39	121.06
552.603	121.06
552.816	126.06
553.029	130.06
553.242	133.06
553.455	116.06
553.667	135.06
553.88	125.06
554.093	127.06
554.306	143.06
554.519	135.06
554.732	126.06
554.944	124.06
555.157	112.06
555.37	122.06
555.583	119.06
555.795	121.06
556.008	118.06
556.221	125.06
556.433	132.06
556.646	131.06
556.859	125.06
557.071	139.06
557.284	125.06
557.496	109.06
557.709	124.06
557.921	127.06
558.134	118.06
558.346	117.06
558.559	111.06
558.771	121.06
558.984	118.06
559.196	122.06
559.409	101.06
559.621	113.06
559.833	105.06
560.046	124.06
560.258	115.06
560.47	120.06
560.683	102.06
560.895	122.06
561.107	121.06
561.32	116.06
561.532	116.06
561.744	121.06
561.956	115.06
562.168	121.06
562.381	115.06
562.593	131.06
562.805	126.06
563.017	111.06
563.229	107.06
563.441	112.06
563.653	129.06
563.865	125.06
564.077	116.06
564.289	118.06
564.501	107.06
564.713	131.06
564.925	129.06
565.137	107.06
565.349	124.06
565.561	129.06
565.773	122.06
565.985	133.06
566.197	136.06
566.408	143.06
566.62	133.06
566.832	131.06
567.044	139.06
567.255	139.06
567.467	147.06
567.679	145.06
567.891	136.06
568.102	142.06
568.314	155.06
568.526	137.06
568.737	133.06
568.949	124.06
569.161	131.06
569.372	116.06
569.584	116.06
569.795	116.06
570.007	116.06
570.218	126.06
570.43	112.06
570.641	123.06
570.853	115.06
571.064	106.06
571.276	125.06
571.487	132.06
571.698	117.06
571.91	124.06
572.121	126.06
572.333	117.06
572.544	108.06
572.755	95.06
572.966	100.06
573.178	117.06
573.389	113.06
573.6	103.06
573.811	120.06
574.023	108.06
574.234	111.06
574.445	120.06
574.656	126.06
574.867	107.06
575.078	111.06
575.289	114.06
575.501	105.06
575.712	114.06
575.923	117.06
576.134	104.06
576.345	95.06
576.556	100.06
576.767	108.06
576.978	103.06
577.188	105.06
577.399	101.06
577.61	99.06
577.821	106.06
578.032	95.06
578.243	117.06
578.454	129.06
578.665	129.06
578.875	124.06
579.086	116.06
579.297	106.06
579.508	105.06
579.718	106.06
579.929	112.06
580.14	109.06
580.35	108.06
580.561	108.06
580.772	103.06
580.982	99.06
581.193	115.06
581.403	122.06
581.614	102.06
581.825	115.06
582.035	109.06
582.246	102.06
582.456	106.06
582.667	102.06
582.877	109.06
583.087	96.06
583.298	98.06
583.508	113.06
583.719	107.06
583.929	111.06
584.139	95.06
584.35	94.06
584.56	100.06
584.77	116.06
584.981	107.06
585.191	105.06
585.401	115.06
585.611	94.06
585.821	96.06
586.032	117.06
586.242	108.06
586.452	107.06
586.662	106.06
586.872	108.06
587.082	94.06
587.292	109.06
587.502	111.06
587.713	107.06
587.923	106.06
588.133	111.06
588.343	115.06
588.553	107.06
588.762	123.06
588.972	106.06
589.182	107.06
589.392	108.06
589.602	122.06
589.812	106.06
590.022	112.06
590.232	119.06
590.441	115.06
590.651	103.06
590.861	108.06
591.071	105.06
591.281	121.06
591.49	110.06
591.7	115.06
591.91	105.06
592.119	109.06
592.329	119.06
592.539	116.06
592.748	106.06
592.958	115.06
593.167	112.06
593.377	107.06
593.587	119.06
593.796	125.06
594.006	119.06
594.215	107.06
594.424	111.06
594.634	100.06
594.843	115.06
595.053	125.06
595.262	110.06
595.472	110.06
595.681	115.06
595.89	120.06
596.1	104.06
596.309	115.06
596.518	117.06
596.727	119.06
596.937	107.06
597.146	110.06
597.355	121.06
597.564	115.06
597.774	102.06
597.983	98.06
598.192	95.06
598.401	108.06
598.61	104.06
598.819	105.06
599.028	110.06
599.237	101.06
599.446	112.06
599.655	121.06
599.864	102.06
600.073	88.06
600.282	99.06
600.491	105.06
600.7	104.06
600.909	109.06
601.118	116.06
601.327	111.06
601.536	98.06
601.745	104.06
601.953	104.06
602.162	108.06
602.371	91.06
602.58	101.06
602.789	107.06
602.997	104.06
603.206	105.06
603.415	108.06
603.623	111.06
603.832	95.06
604.041	102.06
604.249	115.06
604.458	103.06
604.666	115.06
604.875	115.06
605.084	105.06
605.292	111.06
605.501	111.06
605.709	107.06
605.918	107.06
606.126	108.06
606.334	110.06
606.543	102.06
606.751	103.06
606.96	107.06
607.168	94.06
607.376	112.06
607.585	109.06
607.793	103.06
608.001	92.06
608.21	107.06
608.418	104.06
608.626	107.06
608.834	109.06
609.043	96.06
609.251	94.06
609.459	88.06
609.667	100.06
609.875	115.06
610.083	100.06
610.291	99.06
610.499	99.06
610.707	106.06
610.916	105.06
611.124	119.06
611.332	116.06
611.54	123.06
611.748	116.06
611.955	105.06
612.163	116.06
612.371	96.06
612.579	115.06
612.787	103.06
612.995	108.06
613.203	124.06
613.411	104.06
613.618	112.06
613.826	103.06
614.034	107.06
614.242	115.06
614.449	98.06
614.657	110.06
614.865	110.06
615.072	112.06
615.28	104.06
615.488	91.06
615.695	103.06
615.903	83.06
616.111	97.06
616.318	107.06
616.526	99.06
616.733	101.06
616.941	91.06
617.148	115.06
617.356	103.06
617.563	112.06
617.771	111.06
617.978	108.06
618.185	101.06
618.393	95.06
618.6	108.06
618.807	92.06
619.015	87.06
619.222	99.06
619.429	110.06
619.637	111.06
619.844	119.06
620.051	102.06
620.258	104.06
620.466	95.06
620.673	101.06
620.88	117.06
621.087	94.06
621.294	102.06
621.501	111.06
621.708	105.06
621.915	108.06
622.122	105.06
622.329	115.06
622.536	99.06
622.743	90.06
622.95	91.06
623.157	100.06
623.364	108.06
623.571	112.06
623.778	101.06
623.985	105.06
624.192	103.06
624.399	99.06
624.606	105.06
624.812	117.06
625.019	105.06
625.226	103.06
625.433	104.06
625.639	99.06
625.846	84.06
626.053	108.06
626.259	99.06
626.466	110.06
626.673	98.06
626.879	102.06
627.086	107.06
627.293	89.06
627.499	92.06
627.706	93.06
627.912	95.06
628.119	94.06
628.325	104.06
628.532	99.06
628.738	113.06
628.945	100.06
629.151	93.06
629.357	88.06
629.564	93.06
629.77	96.06
629.976	113.06
630.183	97.06
630.389	92.06
630.595	103.06
630.802	95.06
631.008	97.06
631.214	88.06
631.42	93.06
631.627	102.06
631.833	84.06
632.039	87.06
632.245	88.06
632.451	100.06
632.657	101.06
632.863	112.06
633.069	80.06
633.275	101.06
633.481	90.06
633.688	93.06
633.893	84.06
634.099	87.06
634.305	89.06
634.511	94.06
634.717	94.06
634.923	88.06
635.129	98.06
635.335	94.06
635.541	91.06
635.747	84.06
635.952	103.06
636.158	86.06
636.364	89.06
636.57	110.06
636.775	97.06
636.981	96.06
637.187	111.06
637.392	93.06
637.598	92.06
637.804	88.06
638.009	89.06
638.215	108.06
638.421	97.06
638.626	95.06
638.832	101.06
639.037	85.06
639.243	100.06
639.448	93.06
639.654	84.06
639.859	90.06
640.065	93.06
640.27	97.06
640.475	88.06
640.681	97.06
640.886	89.06
641.091	92.06
641.297	104.06
641.502	99.06
641.707	86.06
641.913	102.06
642.118	100.06
642.323	99.06
642.528	103.06
642.733	73.06
642.939	91.06
643.144	96.06
643.349	98.06
643.554	103.06
643.759	97.06
643.964	82.06
644.169	83.06
644.374	100.06
644.579	96.06
644.784	108.06
644.989	94.06
645.194	83.06
645.399	114.06
645.604	99.06
645.809	101.06
646.014	88.06
646.219	78.06
646.423	95.06
646.628	86.06
646.833	109.06
647.038	99.06
647.243	92.06
647.447	94.06
647.652	104.06
647.857	103.06
648.062	99.06
648.266	100.06
648.471	95.06
648.676	91.06
648.88	101.06
649.085	100.06
649.289	90.06
649.494	89.06
649.698	102.06
649.903	96.06
650.107	101.06
650.312	83.06
650.516	85.06
650.721	104.06
650.925	107.06
651.13	84.06
651.334	94.06
651.539	91.06
651.743	90.06
651.947	92.06
652.152	94.06
652.356	95.06
652.56	104.06
652.764	94.06
652.969	108.06
653.173	90.06
653.377	87.06
653.581	88.06
653.785	102.06
653.99	91.06
654.194	93.06
654.398	92.06
654.602	81.06
654.806	96.06
655.01	101.06
655.214	96.06
655.418	98.06
655.622	80.06
655.826	102.06
656.03	90.06
656.234	97.06
656.438	103.06
656.642	88.06
656.846	76.06
657.049	95.06
657.253	96.06
657.457	90.06
657.661	89.06
657.865	89.06
658.068	91.06
658.272	87.06
658.476	84.06
658.68	89.06
658.883	84.06
659.087	80.06
659.291	90.06
659.494	72.06
659.698	94.06
659.901	75.06
660.105	71.06
660.309	76.06
660.512	94.06
660.716	73.06
660.919	73.06
661.123	86.06
661.326	91.06
661.53	95.06
661.733	81.06
661.936	92.06
662.14	80.06
662.343	74.06
662.546	90.06
662.75	71.06
662.953	98.06
663.156	84.06
663.36	93.06
663.563	98.06
663.766	81.06
663.969	82.06
664.173	78.06
664.376	77.06
664.579	72.06
664.782	84.06
664.985	81.06
665.188	90.06
665.391	85.06
665.594	79.06
665.797	89.06
666	94.06
666.203	59.06
666.406	87.06
666.609	80.06
666.812	102.06
667.015	80.06
667.218	75.06
667.421	79.06
667.624	88.06
667.827	88.06
668.03	81.06
668.232	75.06
668.435	84.06
668.638	80.06
668.841	77.06
669.043	71.06
669.246	78.06
669.449	78.06
669.651	97.06
669.854	91.06
670.057	90.06
670.259	77.06
670.462	79.06
670.665	84.06
670.867	72.06
671.07	87.06
671.272	98.06
671.475	84.06
671.677	90.06
671.88	85.06
672.082	88.06
672.284	78.06
672.487	87.06
672.689	89.06
672.892	82.06
