Data from 1968.PennyLincolnUp.Lamp.En5.5.200Scan.071719.P1._HRD10591_14-51-01-969.txt Node
Date: Thu Jul 18 14:51:01 EDT 2019
User: cochatt
Spectrometer: HR+D1059
Trigger mode: 1
Integration Time (sec): 1.000000E-1
Scans to average: 1
Electric dark correction enabled: true
Nonlinearity correction enabled: false
Boxcar width: 0
XAxis mode: Wavelengths
Number of Pixels in Spectrum: 2048
>>>>>Begin Spectral Data<<<<<
223.165	-27.94
223.4	-27.94
223.635	-27.94
223.869	-26.94
224.104	-23.94
224.338	-9.94
224.573	0.06
224.808	-7.94
225.042	3.06
225.277	5.06
225.511	-7.94
225.746	5.06
225.98	-1.94
226.215	10.06
226.449	23.06
226.683	16.06
226.918	9.06
227.152	35.06
227.387	44.06
227.621	42.06
227.856	37.06
228.09	28.06
228.324	34.06
228.559	50.06
228.793	49.06
229.027	53.06
229.262	77.06
229.496	69.06
229.73	66.06
229.964	77.06
230.199	70.06
230.433	80.06
230.667	84.06
230.901	78.06
231.136	90.06
231.37	85.06
231.604	77.06
231.838	78.06
232.072	93.06
232.306	85.06
232.541	94.06
232.775	94.06
233.009	82.06
233.243	92.06
233.477	95.06
233.711	93.06
233.945	84.06
234.179	75.06
234.413	87.06
234.647	86.06
234.881	82.06
235.115	104.06
235.349	78.06
235.583	88.06
235.817	80.06
236.051	94.06
236.285	74.06
236.519	86.06
236.753	94.06
236.987	87.06
237.221	90.06
237.455	78.06
237.689	85.06
237.922	88.06
238.156	80.06
238.39	81.06
238.624	86.06
238.858	95.06
239.091	62.06
239.325	88.06
239.559	72.06
239.793	74.06
240.027	78.06
240.26	88.06
240.494	95.06
240.728	80.06
240.961	72.06
241.195	84.06
241.429	78.06
241.662	87.06
241.896	92.06
242.13	85.06
242.363	93.06
242.597	84.06
242.83	81.06
243.064	94.06
243.298	89.06
243.531	78.06
243.765	85.06
243.998	89.06
244.232	81.06
244.465	67.06
244.699	83.06
244.932	84.06
245.166	77.06
245.399	78.06
245.633	91.06
245.866	101.06
246.099	85.06
246.333	83.06
246.566	84.06
246.8	87.06
247.033	88.06
247.266	90.06
247.5	89.06
247.733	82.06
247.966	75.06
248.2	87.06
248.433	85.06
248.666	103.06
248.899	96.06
249.133	76.06
249.366	92.06
249.599	72.06
249.832	90.06
250.066	91.06
250.299	91.06
250.532	84.06
250.765	100.06
250.998	91.06
251.231	83.06
251.465	93.06
251.698	80.06
251.931	80.06
252.164	89.06
252.397	80.06
252.63	80.06
252.863	85.06
253.096	89.06
253.329	87.06
253.562	81.06
253.795	83.06
254.028	82.06
254.261	92.06
254.494	88.06
254.727	78.06
254.96	91.06
255.193	99.06
255.426	102.06
255.659	93.06
255.892	82.06
256.124	85.06
256.357	84.06
256.59	88.06
256.823	86.06
257.056	81.06
257.289	89.06
257.521	106.06
257.754	91.06
257.987	100.06
258.22	86.06
258.452	95.06
258.685	86.06
258.918	94.06
259.151	93.06
259.383	88.06
259.616	84.06
259.849	104.06
260.081	99.06
260.314	89.06
260.547	103.06
260.779	94.06
261.012	83.06
261.244	105.06
261.477	93.06
261.71	84.06
261.942	96.06
262.175	90.06
262.407	95.06
262.64	99.06
262.872	94.06
263.105	90.06
263.337	105.06
263.57	84.06
263.802	106.06
264.035	103.06
264.267	87.06
264.499	88.06
264.732	102.06
264.964	103.06
265.197	94.06
265.429	97.06
265.661	98.06
265.894	96.06
266.126	90.06
266.358	91.06
266.591	91.06
266.823	89.06
267.055	89.06
267.287	94.06
267.52	95.06
267.752	84.06
267.984	84.06
268.216	104.06
268.448	101.06
268.681	84.06
268.913	96.06
269.145	104.06
269.377	106.06
269.609	98.06
269.841	98.06
270.073	88.06
270.306	94.06
270.538	105.06
270.77	81.06
271.002	85.06
271.234	92.06
271.466	105.06
271.698	97.06
271.93	98.06
272.162	107.06
272.394	97.06
272.626	98.06
272.858	98.06
273.09	95.06
273.322	99.06
273.553	113.06
273.785	91.06
274.017	97.06
274.249	112.06
274.481	105.06
274.713	100.06
274.945	85.06
275.176	84.06
275.408	89.06
275.64	94.06
275.872	110.06
276.104	93.06
276.335	85.06
276.567	85.06
276.799	98.06
277.031	102.06
277.262	119.06
277.494	97.06
277.726	102.06
277.957	103.06
278.189	102.06
278.421	103.06
278.652	88.06
278.884	98.06
279.115	82.06
279.347	88.06
279.579	88.06
279.81	98.06
280.042	102.06
280.273	94.06
280.505	108.06
280.736	103.06
280.968	106.06
281.199	92.06
281.431	92.06
281.662	90.06
281.894	93.06
282.125	90.06
282.356	98.06
282.588	107.06
282.819	93.06
283.051	106.06
283.282	87.06
283.513	98.06
283.745	86.06
283.976	90.06
284.207	106.06
284.439	92.06
284.67	96.06
284.901	107.06
285.132	76.06
285.364	112.06
285.595	100.06
285.826	99.06
286.057	99.06
286.288	99.06
286.52	105.06
286.751	90.06
286.982	101.06
287.213	110.06
287.444	115.06
287.675	112.06
287.906	102.06
288.138	97.06
288.369	96.06
288.6	108.06
288.831	94.06
289.062	105.06
289.293	107.06
289.524	109.06
289.755	109.06
289.986	110.06
290.217	104.06
290.448	96.06
290.679	96.06
290.91	101.06
291.141	98.06
291.371	117.06
291.602	113.06
291.833	99.06
292.064	109.06
292.295	104.06
292.526	102.06
292.757	106.06
292.987	102.06
293.218	86.06
293.449	105.06
293.68	113.06
293.91	96.06
294.141	97.06
294.372	101.06
294.603	101.06
294.833	115.06
295.064	108.06
295.295	103.06
295.525	95.06
295.756	107.06
295.987	108.06
296.217	101.06
296.448	101.06
296.679	100.06
296.909	105.06
297.14	110.06
297.37	104.06
297.601	105.06
297.831	109.06
298.062	107.06
298.292	100.06
298.523	89.06
298.753	105.06
298.984	94.06
299.214	85.06
299.445	94.06
299.675	102.06
299.905	101.06
300.136	97.06
300.366	96.06
300.597	109.06
300.827	109.06
301.057	102.06
301.288	96.06
301.518	101.06
301.748	97.06
301.979	94.06
302.209	95.06
302.439	92.06
302.669	103.06
302.9	110.06
303.13	99.06
303.36	105.06
303.59	90.06
303.82	105.06
304.051	113.06
304.281	104.06
304.511	108.06
304.741	108.06
304.971	109.06
305.201	98.06
305.431	107.06
305.661	98.06
305.891	99.06
306.121	103.06
306.352	100.06
306.582	98.06
306.812	101.06
307.042	96.06
307.272	108.06
307.502	110.06
307.731	112.06
307.961	108.06
308.191	103.06
308.421	109.06
308.651	120.06
308.881	92.06
309.111	100.06
309.341	104.06
309.571	109.06
309.8	106.06
310.03	109.06
310.26	108.06
310.49	103.06
310.72	110.06
310.949	95.06
311.179	109.06
311.409	113.06
311.639	96.06
311.868	120.06
312.098	128.06
312.328	96.06
312.557	116.06
312.787	115.06
313.017	108.06
313.246	108.06
313.476	108.06
313.706	116.06
313.935	111.06
314.165	120.06
314.394	112.06
314.624	107.06
314.853	110.06
315.083	117.06
315.312	114.06
315.542	114.06
315.771	112.06
316.001	116.06
316.23	96.06
316.46	101.06
316.689	117.06
316.919	109.06
317.148	122.06
317.377	106.06
317.607	114.06
317.836	116.06
318.065	110.06
318.295	109.06
318.524	119.06
318.753	113.06
318.983	106.06
319.212	106.06
319.441	113.06
319.67	126.06
319.9	110.06
320.129	116.06
320.358	119.06
320.587	103.06
320.816	110.06
321.046	104.06
321.275	116.06
321.504	115.06
321.733	102.06
321.962	100.06
322.191	112.06
322.42	101.06
322.649	117.06
322.878	117.06
323.108	103.06
323.337	121.06
323.566	114.06
323.795	126.06
324.024	114.06
324.253	127.06
324.482	128.06
324.71	150.06
324.939	174.06
325.168	169.06
325.397	121.06
325.626	104.06
325.855	116.06
326.084	112.06
326.313	97.06
326.542	110.06
326.77	127.06
326.999	118.06
327.228	107.06
327.457	154.06
327.686	160.06
327.914	148.06
328.143	124.06
328.372	113.06
328.6	110.06
328.829	132.06
329.058	112.06
329.287	112.06
329.515	116.06
329.744	115.06
329.972	97.06
330.201	121.06
330.43	116.06
330.658	124.06
330.887	124.06
331.115	121.06
331.344	120.06
331.572	128.06
331.801	116.06
332.03	123.06
332.258	109.06
332.486	116.06
332.715	118.06
332.943	114.06
333.172	122.06
333.4	121.06
333.629	119.06
333.857	123.06
334.085	114.06
334.314	112.06
334.542	105.06
334.771	107.06
334.999	133.06
335.227	108.06
335.455	106.06
335.684	119.06
335.912	115.06
336.14	121.06
336.369	106.06
336.597	119.06
336.825	104.06
337.053	105.06
337.281	113.06
337.51	114.06
337.738	120.06
337.966	100.06
338.194	124.06
338.422	107.06
338.65	103.06
338.878	119.06
339.106	114.06
339.334	118.06
339.562	118.06
339.79	117.06
340.018	113.06
340.246	110.06
340.474	106.06
340.702	111.06
340.93	114.06
341.158	110.06
341.386	112.06
341.614	112.06
341.842	114.06
342.07	120.06
342.298	102.06
342.526	109.06
342.754	112.06
342.981	130.06
343.209	116.06
343.437	116.06
343.665	123.06
343.893	121.06
344.12	108.06
344.348	125.06
344.576	115.06
344.804	106.06
345.031	112.06
345.259	101.06
345.487	118.06
345.714	108.06
345.942	115.06
346.17	106.06
346.397	102.06
346.625	104.06
346.853	93.06
347.08	92.06
347.308	101.06
347.535	109.06
347.763	110.06
347.99	109.06
348.218	134.06
348.445	110.06
348.673	124.06
348.9	104.06
349.128	107.06
349.355	103.06
349.583	115.06
349.81	120.06
350.037	122.06
350.265	110.06
350.492	105.06
350.72	90.06
350.947	124.06
351.174	133.06
351.402	117.06
351.629	107.06
351.856	116.06
352.083	98.06
352.311	112.06
352.538	107.06
352.765	103.06
352.992	120.06
353.22	96.06
353.447	103.06
353.674	114.06
353.901	115.06
354.128	100.06
354.355	104.06
354.583	102.06
354.81	99.06
355.037	115.06
355.264	116.06
355.491	110.06
355.718	112.06
355.945	113.06
356.172	105.06
356.399	103.06
356.626	92.06
356.853	111.06
357.08	121.06
357.307	113.06
357.534	104.06
357.761	114.06
357.988	117.06
358.215	108.06
358.441	101.06
358.668	108.06
358.895	103.06
359.122	107.06
359.349	112.06
359.576	102.06
359.802	112.06
360.029	116.06
360.256	113.06
360.483	107.06
360.709	98.06
360.936	109.06
361.163	110.06
361.39	112.06
361.616	118.06
361.843	108.06
362.07	108.06
362.296	108.06
362.523	101.06
362.749	102.06
362.976	108.06
363.203	126.06
363.429	120.06
363.656	103.06
363.882	112.06
364.109	110.06
364.335	108.06
364.562	110.06
364.788	111.06
365.015	104.06
365.241	107.06
365.468	129.06
365.694	108.06
365.92	101.06
366.147	118.06
366.373	106.06
366.599	107.06
366.826	124.06
367.052	106.06
367.278	104.06
367.505	103.06
367.731	109.06
367.957	96.06
368.184	110.06
368.41	109.06
368.636	114.06
368.862	118.06
369.089	113.06
369.315	104.06
369.541	105.06
369.767	90.06
369.993	101.06
370.219	112.06
370.445	101.06
370.672	100.06
370.898	97.06
371.124	114.06
371.35	122.06
371.576	108.06
371.802	105.06
372.028	108.06
372.254	99.06
372.48	116.06
372.706	106.06
372.932	112.06
373.158	114.06
373.384	103.06
373.61	102.06
373.835	118.06
374.061	106.06
374.287	123.06
374.513	112.06
374.739	114.06
374.965	105.06
375.191	127.06
375.416	115.06
375.642	104.06
375.868	108.06
376.094	109.06
376.319	124.06
376.545	113.06
376.771	116.06
376.997	110.06
377.222	112.06
377.448	115.06
377.674	120.06
377.899	127.06
378.125	120.06
378.35	117.06
378.576	113.06
378.802	109.06
379.027	92.06
379.253	117.06
379.478	108.06
379.704	112.06
379.929	118.06
380.155	103.06
380.38	122.06
380.606	118.06
380.831	129.06
381.057	126.06
381.282	101.06
381.507	110.06
381.733	110.06
381.958	112.06
382.184	108.06
382.409	119.06
382.634	119.06
382.86	117.06
383.085	122.06
383.31	108.06
383.535	119.06
383.761	98.06
383.986	116.06
384.211	108.06
384.436	114.06
384.662	116.06
384.887	117.06
385.112	105.06
385.337	108.06
385.562	109.06
385.787	109.06
386.013	113.06
386.238	110.06
386.463	114.06
386.688	105.06
386.913	114.06
387.138	107.06
387.363	104.06
387.588	123.06
387.813	122.06
388.038	118.06
388.263	108.06
388.488	122.06
388.713	119.06
388.938	128.06
389.163	112.06
389.387	115.06
389.612	112.06
389.837	113.06
390.062	114.06
390.287	106.06
390.512	116.06
390.736	134.06
390.961	128.06
391.186	117.06
391.411	118.06
391.636	100.06
391.86	114.06
392.085	114.06
392.31	120.06
392.534	133.06
392.759	133.06
392.984	124.06
393.208	97.06
393.433	113.06
393.658	108.06
393.882	106.06
394.107	120.06
394.331	110.06
394.556	102.06
394.78	127.06
395.005	101.06
395.229	118.06
395.454	124.06
395.678	104.06
395.903	132.06
396.127	120.06
396.352	119.06
396.576	120.06
396.801	119.06
397.025	117.06
397.249	116.06
397.474	119.06
397.698	125.06
397.922	151.06
398.147	122.06
398.371	123.06
398.595	119.06
398.82	129.06
399.044	131.06
399.268	140.06
399.492	143.06
399.717	148.06
399.941	141.06
400.165	129.06
400.389	137.06
400.613	128.06
400.837	130.06
401.062	122.06
401.286	116.06
401.51	124.06
401.734	123.06
401.958	132.06
402.182	140.06
402.406	122.06
402.63	118.06
402.854	128.06
403.078	123.06
403.302	126.06
403.526	121.06
403.75	128.06
403.974	122.06
404.198	132.06
404.422	116.06
404.645	133.06
404.869	127.06
405.093	143.06
405.317	136.06
405.541	132.06
405.765	141.06
405.988	122.06
406.212	125.06
406.436	131.06
406.66	138.06
406.883	126.06
407.107	134.06
407.331	142.06
407.555	130.06
407.778	151.06
408.002	141.06
408.226	128.06
408.449	144.06
408.673	144.06
408.896	153.06
409.12	151.06
409.344	133.06
409.567	132.06
409.791	123.06
410.014	124.06
410.238	122.06
410.461	123.06
410.685	136.06
410.908	148.06
411.132	145.06
411.355	123.06
411.578	138.06
411.802	133.06
412.025	126.06
412.249	129.06
412.472	132.06
412.695	128.06
412.919	129.06
413.142	124.06
413.365	132.06
413.589	130.06
413.812	129.06
414.035	130.06
414.258	133.06
414.482	116.06
414.705	133.06
414.928	122.06
415.151	123.06
415.374	115.06
415.597	130.06
415.821	119.06
416.044	124.06
416.267	122.06
416.49	136.06
416.713	128.06
416.936	129.06
417.159	135.06
417.382	128.06
417.605	139.06
417.828	141.06
418.051	126.06
418.274	137.06
418.497	127.06
418.72	119.06
418.943	134.06
419.166	123.06
419.389	132.06
419.611	140.06
419.834	139.06
420.057	136.06
420.28	123.06
420.503	132.06
420.726	119.06
420.948	134.06
421.171	140.06
421.394	121.06
421.617	125.06
421.839	120.06
422.062	131.06
422.285	124.06
422.507	128.06
422.73	138.06
422.953	118.06
423.175	126.06
423.398	133.06
423.621	131.06
423.843	124.06
424.066	140.06
424.288	132.06
424.511	136.06
424.733	138.06
424.956	132.06
425.178	143.06
425.401	152.06
425.623	152.06
425.846	139.06
426.068	137.06
426.291	134.06
426.513	128.06
426.735	122.06
426.958	126.06
427.18	133.06
427.402	144.06
427.625	145.06
427.847	134.06
428.069	122.06
428.292	134.06
428.514	136.06
428.736	123.06
428.958	130.06
429.181	136.06
429.403	134.06
429.625	113.06
429.847	126.06
430.069	128.06
430.292	121.06
430.514	119.06
430.736	129.06
430.958	126.06
431.18	136.06
431.402	119.06
431.624	124.06
431.846	114.06
432.068	120.06
432.29	116.06
432.512	113.06
432.734	108.06
432.956	140.06
433.178	138.06
433.4	120.06
433.622	122.06
433.844	116.06
434.066	95.06
434.287	120.06
434.509	112.06
434.731	123.06
434.953	120.06
435.175	124.06
435.397	136.06
435.618	124.06
435.84	120.06
436.062	128.06
436.284	136.06
436.505	130.06
436.727	125.06
436.949	124.06
437.17	122.06
437.392	119.06
437.614	130.06
437.835	123.06
438.057	120.06
438.278	129.06
438.5	122.06
438.721	131.06
438.943	133.06
439.165	125.06
439.386	118.06
439.608	124.06
439.829	134.06
440.05	132.06
440.272	115.06
440.493	128.06
440.715	133.06
440.936	124.06
441.158	120.06
441.379	108.06
441.6	133.06
441.822	121.06
442.043	139.06
442.264	132.06
442.486	143.06
442.707	132.06
442.928	136.06
443.149	141.06
443.371	140.06
443.592	140.06
443.813	157.06
444.034	149.06
444.255	137.06
444.476	136.06
444.698	124.06
444.919	140.06
445.14	233.06
445.361	186.06
445.582	124.06
445.803	141.06
446.024	147.06
446.245	151.06
446.466	144.06
446.687	126.06
446.908	128.06
447.129	128.06
447.35	133.06
447.571	124.06
447.792	124.06
448.013	130.06
448.234	117.06
448.455	134.06
448.675	130.06
448.896	151.06
449.117	139.06
449.338	129.06
449.559	137.06
449.779	131.06
450	123.06
450.221	138.06
450.442	125.06
450.662	115.06
450.883	120.06
451.104	128.06
451.324	120.06
451.545	120.06
451.766	117.06
451.986	124.06
452.207	121.06
452.428	118.06
452.648	110.06
452.869	120.06
453.089	122.06
453.31	132.06
453.53	118.06
453.751	119.06
453.971	117.06
454.192	114.06
454.412	116.06
454.633	125.06
454.853	116.06
455.073	118.06
455.294	126.06
455.514	121.06
455.734	116.06
455.955	117.06
456.175	122.06
456.395	115.06
456.616	123.06
456.836	97.06
457.056	112.06
457.276	120.06
457.497	106.06
457.717	105.06
457.937	113.06
458.157	106.06
458.377	110.06
458.598	125.06
458.818	123.06
459.038	126.06
459.258	128.06
459.478	117.06
459.698	124.06
459.918	132.06
460.138	122.06
460.358	118.06
460.578	140.06
460.798	127.06
461.018	109.06
461.238	122.06
461.458	122.06
461.678	124.06
461.898	134.06
462.118	122.06
462.338	130.06
462.558	137.06
462.777	128.06
462.997	138.06
463.217	148.06
463.437	137.06
463.657	134.06
463.876	140.06
464.096	137.06
464.316	137.06
464.536	144.06
464.755	134.06
464.975	139.06
465.195	123.06
465.414	140.06
465.634	143.06
465.854	137.06
466.073	125.06
466.293	124.06
466.512	125.06
466.732	118.06
466.951	117.06
467.171	113.06
467.391	131.06
467.61	128.06
467.829	122.06
468.049	126.06
468.268	113.06
468.488	122.06
468.707	125.06
468.927	104.06
469.146	107.06
469.365	119.06
469.585	120.06
469.804	121.06
470.023	122.06
470.243	115.06
470.462	125.06
470.681	121.06
470.901	142.06
471.12	115.06
471.339	114.06
471.558	117.06
471.777	115.06
471.997	126.06
472.216	112.06
472.435	114.06
472.654	123.06
472.873	124.06
473.092	126.06
473.311	122.06
473.53	114.06
473.749	124.06
473.968	128.06
474.187	130.06
474.406	129.06
474.625	124.06
474.844	122.06
475.063	122.06
475.282	126.06
475.501	121.06
475.72	117.06
475.939	109.06
476.158	122.06
476.377	122.06
476.596	126.06
476.814	122.06
477.033	127.06
477.252	119.06
477.471	128.06
477.69	128.06
477.908	129.06
478.127	128.06
478.346	127.06
478.564	139.06
478.783	129.06
479.002	117.06
479.22	141.06
479.439	127.06
479.658	130.06
479.876	129.06
480.095	121.06
480.313	137.06
480.532	125.06
480.751	142.06
480.969	129.06
481.188	128.06
481.406	136.06
481.624	133.06
481.843	131.06
482.061	105.06
482.28	124.06
482.498	122.06
482.717	127.06
482.935	116.06
483.153	134.06
483.372	125.06
483.59	135.06
483.808	147.06
484.027	129.06
484.245	130.06
484.463	142.06
484.681	149.06
484.9	133.06
485.118	134.06
485.336	136.06
485.554	131.06
485.772	126.06
485.99	146.06
486.209	135.06
486.427	130.06
486.645	132.06
486.863	140.06
487.081	139.06
487.299	129.06
487.517	134.06
487.735	135.06
487.953	125.06
488.171	135.06
488.389	143.06
488.607	132.06
488.825	125.06
489.043	127.06
489.261	129.06
489.479	136.06
489.696	133.06
489.914	132.06
490.132	126.06
490.35	148.06
490.568	129.06
490.786	124.06
491.003	133.06
491.221	152.06
491.439	142.06
491.657	140.06
491.874	147.06
492.092	155.06
492.31	155.06
492.527	155.06
492.745	134.06
492.963	140.06
493.18	141.06
493.398	156.06
493.615	143.06
493.833	149.06
494.05	140.06
494.268	154.06
494.485	156.06
494.703	140.06
494.92	146.06
495.138	142.06
495.355	133.06
495.573	147.06
495.79	152.06
496.008	147.06
496.225	150.06
496.442	157.06
496.66	160.06
496.877	148.06
497.094	146.06
497.312	141.06
497.529	134.06
497.746	153.06
497.963	156.06
498.181	160.06
498.398	147.06
498.615	156.06
498.832	159.06
499.049	156.06
499.267	163.06
499.484	162.06
499.701	169.06
499.918	199.06
500.135	199.06
500.352	205.06
500.569	208.06
500.786	209.06
501.003	207.06
501.22	214.06
501.437	198.06
501.654	177.06
501.871	171.06
502.088	170.06
502.305	160.06
502.522	163.06
502.739	147.06
502.956	171.06
503.172	142.06
503.389	138.06
503.606	142.06
503.823	135.06
504.04	137.06
504.256	161.06
504.473	144.06
504.69	146.06
504.907	152.06
505.123	141.06
505.34	134.06
505.557	145.06
505.773	118.06
505.99	131.06
506.207	137.06
506.423	132.06
506.64	138.06
506.856	133.06
507.073	128.06
507.289	137.06
507.506	133.06
507.722	132.06
507.939	146.06
508.155	148.06
508.372	125.06
508.588	135.06
508.805	137.06
509.021	141.06
509.238	125.06
509.454	120.06
509.67	129.06
509.887	124.06
510.103	125.06
510.319	115.06
510.536	125.06
510.752	143.06
510.968	135.06
511.184	142.06
511.401	133.06
511.617	123.06
511.833	117.06
512.049	148.06
512.265	134.06
512.481	131.06
512.698	125.06
512.914	124.06
513.13	123.06
513.346	117.06
513.562	132.06
513.778	129.06
513.994	126.06
514.21	128.06
514.426	120.06
514.642	125.06
514.858	128.06
515.074	130.06
515.29	151.06
515.506	161.06
515.721	147.06
515.937	136.06
516.153	141.06
516.369	131.06
516.585	134.06
516.801	136.06
517.016	121.06
517.232	121.06
517.448	132.06
517.664	130.06
517.879	149.06
518.095	150.06
518.311	133.06
518.527	136.06
518.742	144.06
518.958	131.06
519.173	146.06
519.389	121.06
519.605	126.06
519.82	137.06
520.036	125.06
520.251	118.06
520.467	124.06
520.682	140.06
520.898	123.06
521.113	121.06
521.329	119.06
521.544	136.06
521.76	135.06
521.975	184.06
522.19	172.06
522.406	140.06
522.621	138.06
522.836	130.06
523.052	115.06
523.267	128.06
523.482	122.06
523.698	124.06
523.913	128.06
524.128	126.06
524.343	128.06
524.559	117.06
524.774	134.06
524.989	124.06
525.204	133.06
525.419	122.06
525.634	122.06
525.849	125.06
526.064	129.06
526.28	135.06
526.495	133.06
526.71	122.06
526.925	133.06
527.14	124.06
527.355	117.06
527.57	106.06
527.785	121.06
527.999	124.06
528.214	129.06
528.429	122.06
528.644	132.06
528.859	118.06
529.074	125.06
529.289	129.06
529.503	122.06
529.718	119.06
529.933	121.06
530.148	116.06
530.363	116.06
530.577	113.06
530.792	129.06
531.007	123.06
531.221	102.06
531.436	113.06
531.651	114.06
531.865	127.06
532.08	115.06
532.295	122.06
532.509	110.06
532.724	128.06
532.938	114.06
533.153	124.06
533.367	117.06
533.582	122.06
533.796	118.06
534.011	126.06
534.225	127.06
534.44	108.06
534.654	122.06
534.868	100.06
535.083	112.06
535.297	125.06
535.511	122.06
535.726	123.06
535.94	119.06
536.154	118.06
536.369	116.06
536.583	112.06
536.797	117.06
537.011	123.06
537.225	117.06
537.44	126.06
537.654	113.06
537.868	122.06
538.082	117.06
538.296	112.06
538.51	125.06
538.724	121.06
538.938	121.06
539.153	110.06
539.367	116.06
539.581	128.06
539.795	116.06
540.009	111.06
540.222	119.06
540.436	135.06
540.65	117.06
540.864	125.06
541.078	135.06
541.292	112.06
541.506	128.06
541.72	129.06
541.934	132.06
542.147	123.06
542.361	127.06
542.575	141.06
542.789	135.06
543.002	116.06
543.216	117.06
543.43	129.06
543.644	124.06
543.857	127.06
544.071	143.06
544.285	145.06
544.498	142.06
544.712	124.06
544.925	126.06
545.139	130.06
545.352	131.06
545.566	130.06
545.779	134.06
545.993	126.06
546.206	161.06
546.42	146.06
546.633	129.06
546.847	121.06
547.06	122.06
547.274	127.06
547.487	126.06
547.7	117.06
547.914	128.06
548.127	126.06
548.34	108.06
548.554	126.06
548.767	131.06
548.98	124.06
549.193	128.06
549.407	142.06
549.62	132.06
549.833	135.06
550.046	122.06
550.259	122.06
550.473	131.06
550.686	123.06
550.899	120.06
551.112	116.06
551.325	140.06
551.538	122.06
551.751	132.06
551.964	124.06
552.177	121.06
552.39	126.06
552.603	120.06
552.816	130.06
553.029	121.06
553.242	126.06
553.455	149.06
553.667	136.06
553.88	115.06
554.093	129.06
554.306	135.06
554.519	118.06
554.732	119.06
554.944	122.06
555.157	116.06
555.37	120.06
555.583	130.06
555.795	116.06
556.008	121.06
556.221	118.06
556.433	106.06
556.646	120.06
556.859	102.06
557.071	111.06
557.284	121.06
557.496	120.06
557.709	116.06
557.921	130.06
558.134	114.06
558.346	124.06
558.559	130.06
558.771	122.06
558.984	102.06
559.196	119.06
559.409	116.06
559.621	122.06
559.833	105.06
560.046	119.06
560.258	133.06
560.47	108.06
560.683	120.06
560.895	121.06
561.107	115.06
561.32	127.06
561.532	109.06
561.744	115.06
561.956	104.06
562.168	119.06
562.381	110.06
562.593	121.06
562.805	106.06
563.017	112.06
563.229	98.06
563.441	118.06
563.653	123.06
563.865	118.06
564.077	105.06
564.289	130.06
564.501	108.06
564.713	116.06
564.925	119.06
565.137	114.06
565.349	113.06
565.561	126.06
565.773	135.06
565.985	120.06
566.197	130.06
566.408	123.06
566.62	131.06
566.832	121.06
567.044	133.06
567.255	127.06
567.467	140.06
567.679	126.06
567.891	123.06
568.102	136.06
568.314	146.06
568.526	116.06
568.737	119.06
568.949	133.06
569.161	124.06
569.372	123.06
569.584	128.06
569.795	117.06
570.007	106.06
570.218	119.06
570.43	107.06
570.641	120.06
570.853	109.06
571.064	110.06
571.276	121.06
571.487	112.06
571.698	138.06
571.91	114.06
572.121	111.06
572.333	119.06
572.544	94.06
572.755	105.06
572.966	116.06
573.178	105.06
573.389	121.06
573.6	106.06
573.811	112.06
574.023	114.06
574.234	97.06
574.445	113.06
574.656	102.06
574.867	99.06
575.078	109.06
575.289	107.06
575.501	111.06
575.712	105.06
575.923	100.06
576.134	104.06
576.345	102.06
576.556	117.06
576.767	108.06
576.978	104.06
577.188	112.06
577.399	121.06
577.61	85.06
577.821	107.06
578.032	95.06
578.243	109.06
578.454	111.06
578.665	112.06
578.875	93.06
579.086	99.06
579.297	92.06
579.508	103.06
579.718	109.06
579.929	110.06
580.14	105.06
580.35	107.06
580.561	115.06
580.772	113.06
580.982	102.06
581.193	109.06
581.403	102.06
581.614	113.06
581.825	99.06
582.035	90.06
582.246	122.06
582.456	113.06
582.667	100.06
582.877	111.06
583.087	96.06
583.298	97.06
583.508	99.06
583.719	107.06
583.929	112.06
584.139	91.06
584.35	105.06
584.56	100.06
584.77	94.06
584.981	119.06
585.191	110.06
585.401	89.06
585.611	104.06
585.821	103.06
586.032	103.06
586.242	115.06
586.452	124.06
586.662	107.06
586.872	115.06
587.082	117.06
587.292	108.06
587.502	109.06
587.713	100.06
587.923	110.06
588.133	90.06
588.343	110.06
588.553	106.06
588.762	111.06
588.972	109.06
589.182	101.06
589.392	109.06
589.602	102.06
589.812	98.06
590.022	115.06
590.232	93.06
590.441	104.06
590.651	108.06
590.861	102.06
591.071	109.06
591.281	120.06
591.49	98.06
591.7	100.06
591.91	110.06
592.119	93.06
592.329	113.06
592.539	110.06
592.748	104.06
592.958	110.06
593.167	104.06
593.377	113.06
593.587	116.06
593.796	114.06
594.006	117.06
594.215	118.06
594.424	102.06
594.634	102.06
594.843	101.06
595.053	114.06
595.262	115.06
595.472	95.06
595.681	98.06
595.89	103.06
596.1	112.06
596.309	100.06
596.518	115.06
596.727	105.06
596.937	108.06
597.146	107.06
597.355	105.06
597.564	95.06
597.774	102.06
597.983	101.06
598.192	98.06
598.401	105.06
598.61	81.06
598.819	108.06
599.028	85.06
599.237	105.06
599.446	100.06
599.655	118.06
599.864	117.06
600.073	96.06
600.282	98.06
600.491	106.06
600.7	108.06
600.909	116.06
601.118	86.06
601.327	108.06
601.536	92.06
601.745	86.06
601.953	91.06
602.162	96.06
602.371	110.06
602.58	103.06
602.789	99.06
602.997	101.06
603.206	101.06
603.415	84.06
603.623	91.06
603.832	109.06
604.041	103.06
604.249	88.06
604.458	91.06
604.666	99.06
604.875	86.06
605.084	102.06
605.292	100.06
605.501	95.06
605.709	99.06
605.918	109.06
606.126	108.06
606.334	107.06
606.543	94.06
606.751	106.06
606.96	105.06
607.168	105.06
607.376	103.06
607.585	108.06
607.793	83.06
608.001	92.06
608.21	95.06
608.418	107.06
608.626	100.06
608.834	96.06
609.043	89.06
609.251	104.06
609.459	77.06
609.667	96.06
609.875	105.06
610.083	108.06
610.291	96.06
610.499	113.06
610.707	125.06
610.916	121.06
611.124	105.06
611.332	100.06
611.54	97.06
611.748	103.06
611.955	115.06
612.163	108.06
612.371	119.06
612.579	97.06
612.787	111.06
612.995	101.06
613.203	115.06
613.411	96.06
613.618	107.06
613.826	101.06
614.034	106.06
614.242	93.06
614.449	92.06
614.657	99.06
614.865	95.06
615.072	90.06
615.28	100.06
615.488	109.06
615.695	101.06
615.903	107.06
616.111	110.06
616.318	102.06
616.526	107.06
616.733	107.06
616.941	104.06
617.148	89.06
617.356	95.06
617.563	118.06
617.771	98.06
617.978	94.06
618.185	105.06
618.393	110.06
618.6	91.06
618.807	102.06
619.015	89.06
619.222	113.06
619.429	100.06
619.637	112.06
619.844	110.06
620.051	113.06
620.258	109.06
620.466	118.06
620.673	97.06
620.88	104.06
621.087	105.06
621.294	106.06
621.501	92.06
621.708	101.06
621.915	101.06
622.122	93.06
622.329	114.06
622.536	93.06
622.743	93.06
622.95	99.06
623.157	92.06
623.364	104.06
623.571	102.06
623.778	89.06
623.985	105.06
624.192	104.06
624.399	101.06
624.606	109.06
624.812	77.06
625.019	96.06
625.226	94.06
625.433	88.06
625.639	93.06
625.846	112.06
626.053	105.06
626.259	102.06
626.466	98.06
626.673	93.06
626.879	90.06
627.086	91.06
627.293	105.06
627.499	88.06
627.706	88.06
627.912	103.06
628.119	100.06
628.325	101.06
628.532	100.06
628.738	82.06
628.945	93.06
629.151	93.06
629.357	91.06
629.564	100.06
629.77	100.06
629.976	83.06
630.183	100.06
630.389	101.06
630.595	96.06
630.802	100.06
631.008	93.06
631.214	107.06
631.42	105.06
631.627	104.06
631.833	96.06
632.039	92.06
632.245	97.06
632.451	90.06
632.657	96.06
632.863	95.06
633.069	103.06
633.275	103.06
633.481	91.06
633.688	88.06
633.893	98.06
634.099	77.06
634.305	90.06
634.511	79.06
634.717	98.06
634.923	94.06
635.129	75.06
635.335	93.06
635.541	82.06
635.747	86.06
635.952	89.06
636.158	89.06
636.364	115.06
636.57	104.06
636.775	97.06
636.981	98.06
637.187	104.06
637.392	92.06
637.598	101.06
637.804	85.06
638.009	84.06
638.215	86.06
638.421	93.06
638.626	88.06
638.832	100.06
639.037	96.06
639.243	92.06
639.448	93.06
639.654	107.06
639.859	96.06
640.065	94.06
640.27	98.06
640.475	100.06
640.681	100.06
640.886	80.06
641.091	100.06
641.297	100.06
641.502	86.06
641.707	88.06
641.913	90.06
642.118	97.06
642.323	107.06
642.528	109.06
642.733	88.06
642.939	99.06
643.144	85.06
643.349	89.06
643.554	97.06
643.759	76.06
643.964	98.06
644.169	105.06
644.374	99.06
644.579	93.06
644.784	92.06
644.989	94.06
645.194	98.06
645.399	93.06
645.604	96.06
645.809	82.06
646.014	97.06
646.219	67.06
646.423	101.06
646.628	87.06
646.833	98.06
647.038	99.06
647.243	86.06
647.447	102.06
647.652	97.06
647.857	90.06
648.062	91.06
648.266	93.06
648.471	90.06
648.676	104.06
648.88	104.06
649.085	97.06
649.289	91.06
649.494	87.06
649.698	82.06
649.903	88.06
650.107	92.06
650.312	95.06
650.516	100.06
650.721	90.06
650.925	93.06
651.13	91.06
651.334	92.06
651.539	108.06
651.743	87.06
651.947	74.06
652.152	93.06
652.356	88.06
652.56	94.06
652.764	90.06
652.969	92.06
653.173	104.06
653.377	89.06
653.581	84.06
653.785	84.06
653.99	94.06
654.194	96.06
654.398	75.06
654.602	99.06
654.806	85.06
655.01	100.06
655.214	82.06
655.418	96.06
655.622	81.06
655.826	101.06
656.03	79.06
656.234	85.06
656.438	89.06
656.642	96.06
656.846	86.06
657.049	88.06
657.253	97.06
657.457	91.06
657.661	78.06
657.865	88.06
658.068	82.06
658.272	84.06
658.476	89.06
658.68	84.06
658.883	94.06
659.087	88.06
659.291	83.06
659.494	84.06
659.698	78.06
659.901	88.06
660.105	86.06
660.309	90.06
660.512	84.06
660.716	79.06
660.919	84.06
661.123	96.06
661.326	81.06
661.53	86.06
661.733	76.06
661.936	86.06
662.14	98.06
662.343	89.06
662.546	88.06
662.75	89.06
662.953	96.06
663.156	70.06
663.36	85.06
663.563	78.06
663.766	73.06
663.969	73.06
664.173	80.06
664.376	73.06
664.579	84.06
664.782	76.06
664.985	73.06
665.188	86.06
665.391	76.06
665.594	88.06
665.797	75.06
666	89.06
666.203	80.06
666.406	88.06
666.609	73.06
666.812	86.06
667.015	86.06
667.218	76.06
667.421	90.06
667.624	73.06
667.827	70.06
668.03	73.06
668.232	81.06
668.435	92.06
668.638	80.06
668.841	86.06
669.043	90.06
669.246	93.06
669.449	80.06
669.651	70.06
669.854	75.06
670.057	80.06
670.259	90.06
670.462	76.06
670.665	82.06
670.867	85.06
671.07	98.06
671.272	86.06
671.475	73.06
671.677	73.06
671.88	61.06
672.082	64.06
672.284	84.06
672.487	76.06
672.689	74.06
672.892	77.06
