Data from 1968.PennyLincolnUp.Lamp.En5.5.200Scan.071719.P1._HRD10591_14-49-17-968.txt Node
Date: Thu Jul 18 14:49:17 EDT 2019
User: cochatt
Spectrometer: HR+D1059
Trigger mode: 1
Integration Time (sec): 1.000000E-1
Scans to average: 1
Electric dark correction enabled: true
Nonlinearity correction enabled: false
Boxcar width: 0
XAxis mode: Wavelengths
Number of Pixels in Spectrum: 2048
>>>>>Begin Spectral Data<<<<<
223.165	-19.31
223.4	-19.31
223.635	-19.31
223.869	-22.31
224.104	-19.31
224.338	-21.31
224.573	-14.31
224.808	-0.31
225.042	-2.31
225.277	-13.31
225.511	6.69
225.746	-2.31
225.98	7.69
226.215	18.69
226.449	16.69
226.683	18.69
226.918	25.69
227.152	20.69
227.387	30.69
227.621	40.69
227.856	54.69
228.09	54.69
228.324	46.69
228.559	61.69
228.793	61.69
229.027	52.69
229.262	61.69
229.496	64.69
229.73	69.69
229.964	66.69
230.199	82.69
230.433	65.69
230.667	79.69
230.901	74.69
231.136	78.69
231.37	84.69
231.604	86.69
231.838	81.69
232.072	89.69
232.306	90.69
232.541	91.69
232.775	79.69
233.009	92.69
233.243	89.69
233.477	77.69
233.711	70.69
233.945	85.69
234.179	80.69
234.413	78.69
234.647	82.69
234.881	84.69
235.115	82.69
235.349	83.69
235.583	86.69
235.817	92.69
236.051	79.69
236.285	64.69
236.519	75.69
236.753	77.69
236.987	76.69
237.221	69.69
237.455	80.69
237.689	84.69
237.922	82.69
238.156	79.69
238.39	85.69
238.624	79.69
238.858	86.69
239.091	93.69
239.325	84.69
239.559	76.69
239.793	103.69
240.027	83.69
240.26	72.69
240.494	78.69
240.728	80.69
240.961	73.69
241.195	70.69
241.429	70.69
241.662	59.69
241.896	66.69
242.13	90.69
242.363	76.69
242.597	91.69
242.83	77.69
243.064	73.69
243.298	88.69
243.531	83.69
243.765	79.69
243.998	90.69
244.232	83.69
244.465	91.69
244.699	76.69
244.932	97.69
245.166	87.69
245.399	86.69
245.633	68.69
245.866	102.69
246.099	89.69
246.333	86.69
246.566	90.69
246.8	92.69
247.033	71.69
247.266	91.69
247.5	77.69
247.733	94.69
247.966	84.69
248.2	89.69
248.433	79.69
248.666	76.69
248.899	96.69
249.133	90.69
249.366	93.69
249.599	87.69
249.832	73.69
250.066	88.69
250.299	85.69
250.532	79.69
250.765	82.69
250.998	91.69
251.231	73.69
251.465	96.69
251.698	94.69
251.931	88.69
252.164	84.69
252.397	89.69
252.63	79.69
252.863	80.69
253.096	81.69
253.329	98.69
253.562	87.69
253.795	84.69
254.028	89.69
254.261	83.69
254.494	86.69
254.727	102.69
254.96	87.69
255.193	91.69
255.426	86.69
255.659	87.69
255.892	81.69
256.124	86.69
256.357	82.69
256.59	83.69
256.823	78.69
257.056	90.69
257.289	88.69
257.521	89.69
257.754	87.69
257.987	92.69
258.22	99.69
258.452	99.69
258.685	79.69
258.918	95.69
259.151	82.69
259.383	108.69
259.616	103.69
259.849	96.69
260.081	95.69
260.314	89.69
260.547	101.69
260.779	85.69
261.012	83.69
261.244	96.69
261.477	96.69
261.71	96.69
261.942	82.69
262.175	101.69
262.407	88.69
262.64	97.69
262.872	100.69
263.105	90.69
263.337	94.69
263.57	91.69
263.802	91.69
264.035	86.69
264.267	106.69
264.499	93.69
264.732	91.69
264.964	96.69
265.197	102.69
265.429	87.69
265.661	87.69
265.894	100.69
266.126	97.69
266.358	91.69
266.591	89.69
266.823	95.69
267.055	96.69
267.287	91.69
267.52	99.69
267.752	100.69
267.984	89.69
268.216	94.69
268.448	96.69
268.681	92.69
268.913	99.69
269.145	90.69
269.377	92.69
269.609	90.69
269.841	105.69
270.073	118.69
270.306	90.69
270.538	89.69
270.77	99.69
271.002	87.69
271.234	84.69
271.466	117.69
271.698	103.69
271.93	108.69
272.162	79.69
272.394	88.69
272.626	88.69
272.858	95.69
273.09	97.69
273.322	87.69
273.553	91.69
273.785	92.69
274.017	93.69
274.249	90.69
274.481	88.69
274.713	80.69
274.945	88.69
275.176	94.69
275.408	94.69
275.64	88.69
275.872	105.69
276.104	93.69
276.335	104.69
276.567	97.69
276.799	95.69
277.031	113.69
277.262	99.69
277.494	104.69
277.726	103.69
277.957	105.69
278.189	79.69
278.421	101.69
278.652	100.69
278.884	103.69
279.115	89.69
279.347	105.69
279.579	90.69
279.81	119.69
280.042	96.69
280.273	79.69
280.505	100.69
280.736	88.69
280.968	97.69
281.199	90.69
281.431	111.69
281.662	89.69
281.894	85.69
282.125	98.69
282.356	93.69
282.588	106.69
282.819	111.69
283.051	104.69
283.282	96.69
283.513	98.69
283.745	103.69
283.976	109.69
284.207	106.69
284.439	100.69
284.67	88.69
284.901	99.69
285.132	117.69
285.364	102.69
285.595	91.69
285.826	93.69
286.057	88.69
286.288	107.69
286.52	106.69
286.751	97.69
286.982	98.69
287.213	102.69
287.444	105.69
287.675	109.69
287.906	100.69
288.138	107.69
288.369	102.69
288.6	110.69
288.831	100.69
289.062	99.69
289.293	112.69
289.524	107.69
289.755	109.69
289.986	97.69
290.217	110.69
290.448	110.69
290.679	104.69
290.91	118.69
291.141	104.69
291.371	104.69
291.602	105.69
291.833	103.69
292.064	109.69
292.295	100.69
292.526	115.69
292.757	94.69
292.987	105.69
293.218	102.69
293.449	98.69
293.68	92.69
293.91	101.69
294.141	111.69
294.372	121.69
294.603	98.69
294.833	89.69
295.064	97.69
295.295	109.69
295.525	116.69
295.756	103.69
295.987	108.69
296.217	101.69
296.448	98.69
296.679	102.69
296.909	101.69
297.14	115.69
297.37	99.69
297.601	101.69
297.831	90.69
298.062	97.69
298.292	94.69
298.523	106.69
298.753	106.69
298.984	103.69
299.214	93.69
299.445	105.69
299.675	102.69
299.905	117.69
300.136	92.69
300.366	95.69
300.597	96.69
300.827	101.69
301.057	92.69
301.288	107.69
301.518	109.69
301.748	112.69
301.979	87.69
302.209	117.69
302.439	113.69
302.669	93.69
302.9	101.69
303.13	109.69
303.36	98.69
303.59	110.69
303.82	100.69
304.051	110.69
304.281	115.69
304.511	103.69
304.741	107.69
304.971	100.69
305.201	116.69
305.431	99.69
305.661	97.69
305.891	109.69
306.121	114.69
306.352	121.69
306.582	113.69
306.812	109.69
307.042	103.69
307.272	117.69
307.502	110.69
307.731	97.69
307.961	102.69
308.191	104.69
308.421	109.69
308.651	92.69
308.881	109.69
309.111	107.69
309.341	111.69
309.571	114.69
309.8	113.69
310.03	108.69
310.26	97.69
310.49	115.69
310.72	105.69
310.949	105.69
311.179	114.69
311.409	108.69
311.639	107.69
311.868	95.69
312.098	103.69
312.328	109.69
312.557	106.69
312.787	116.69
313.017	97.69
313.246	110.69
313.476	116.69
313.706	123.69
313.935	106.69
314.165	94.69
314.394	93.69
314.624	99.69
314.853	113.69
315.083	124.69
315.312	122.69
315.542	101.69
315.771	109.69
316.001	103.69
316.23	109.69
316.46	100.69
316.689	98.69
316.919	122.69
317.148	108.69
317.377	106.69
317.607	115.69
317.836	108.69
318.065	125.69
318.295	116.69
318.524	85.69
318.753	99.69
318.983	121.69
319.212	107.69
319.441	109.69
319.67	115.69
319.9	108.69
320.129	114.69
320.358	110.69
320.587	108.69
320.816	113.69
321.046	115.69
321.275	105.69
321.504	100.69
321.733	103.69
321.962	99.69
322.191	127.69
322.42	119.69
322.649	119.69
322.878	114.69
323.108	114.69
323.337	122.69
323.566	118.69
323.795	109.69
324.024	107.69
324.253	119.69
324.482	117.69
324.71	135.69
324.939	148.69
325.168	133.69
325.397	119.69
325.626	101.69
325.855	109.69
326.084	115.69
326.313	107.69
326.542	95.69
326.77	114.69
326.999	115.69
327.228	124.69
327.457	131.69
327.686	138.69
327.914	113.69
328.143	106.69
328.372	116.69
328.6	99.69
328.829	105.69
329.058	116.69
329.287	113.69
329.515	107.69
329.744	126.69
329.972	126.69
330.201	123.69
330.43	108.69
330.658	117.69
330.887	115.69
331.115	106.69
331.344	113.69
331.572	101.69
331.801	105.69
332.03	112.69
332.258	121.69
332.486	111.69
332.715	120.69
332.943	122.69
333.172	121.69
333.4	113.69
333.629	122.69
333.857	128.69
334.085	124.69
334.314	137.69
334.542	129.69
334.771	115.69
334.999	111.69
335.227	124.69
335.455	117.69
335.684	109.69
335.912	117.69
336.14	113.69
336.369	115.69
336.597	113.69
336.825	124.69
337.053	117.69
337.281	111.69
337.51	116.69
337.738	123.69
337.966	109.69
338.194	106.69
338.422	116.69
338.65	126.69
338.878	121.69
339.106	133.69
339.334	122.69
339.562	109.69
339.79	114.69
340.018	115.69
340.246	111.69
340.474	125.69
340.702	101.69
340.93	115.69
341.158	123.69
341.386	119.69
341.614	115.69
341.842	123.69
342.07	125.69
342.298	101.69
342.526	113.69
342.754	109.69
342.981	102.69
343.209	114.69
343.437	120.69
343.665	114.69
343.893	138.69
344.12	124.69
344.348	122.69
344.576	114.69
344.804	110.69
345.031	104.69
345.259	108.69
345.487	96.69
345.714	111.69
345.942	96.69
346.17	115.69
346.397	102.69
346.625	121.69
346.853	107.69
347.08	115.69
347.308	111.69
347.535	98.69
347.763	112.69
347.99	114.69
348.218	117.69
348.445	122.69
348.673	116.69
348.9	118.69
349.128	122.69
349.355	106.69
349.583	110.69
349.81	119.69
350.037	106.69
350.265	117.69
350.492	101.69
350.72	123.69
350.947	108.69
351.174	114.69
351.402	116.69
351.629	109.69
351.856	117.69
352.083	110.69
352.311	119.69
352.538	119.69
352.765	126.69
352.992	104.69
353.22	110.69
353.447	95.69
353.674	108.69
353.901	114.69
354.128	109.69
354.355	99.69
354.583	117.69
354.81	103.69
355.037	111.69
355.264	106.69
355.491	118.69
355.718	101.69
355.945	120.69
356.172	108.69
356.399	127.69
356.626	123.69
356.853	106.69
357.08	125.69
357.307	101.69
357.534	111.69
357.761	122.69
357.988	125.69
358.215	121.69
358.441	114.69
358.668	114.69
358.895	113.69
359.122	102.69
359.349	129.69
359.576	105.69
359.802	117.69
360.029	120.69
360.256	117.69
360.483	120.69
360.709	107.69
360.936	117.69
361.163	113.69
361.39	118.69
361.616	111.69
361.843	121.69
362.07	113.69
362.296	111.69
362.523	106.69
362.749	107.69
362.976	124.69
363.203	127.69
363.429	109.69
363.656	123.69
363.882	109.69
364.109	117.69
364.335	109.69
364.562	104.69
364.788	109.69
365.015	116.69
365.241	112.69
365.468	109.69
365.694	98.69
365.92	109.69
366.147	105.69
366.373	119.69
366.599	106.69
366.826	111.69
367.052	115.69
367.278	129.69
367.505	103.69
367.731	129.69
367.957	115.69
368.184	117.69
368.41	102.69
368.636	105.69
368.862	99.69
369.089	126.69
369.315	111.69
369.541	105.69
369.767	103.69
369.993	125.69
370.219	121.69
370.445	101.69
370.672	105.69
370.898	114.69
371.124	112.69
371.35	103.69
371.576	110.69
371.802	114.69
372.028	103.69
372.254	119.69
372.48	126.69
372.706	114.69
372.932	122.69
373.158	117.69
373.384	104.69
373.61	111.69
373.835	94.69
374.061	117.69
374.287	118.69
374.513	120.69
374.739	108.69
374.965	107.69
375.191	118.69
375.416	123.69
375.642	126.69
375.868	115.69
376.094	117.69
376.319	118.69
376.545	123.69
376.771	125.69
376.997	104.69
377.222	106.69
377.448	109.69
377.674	104.69
377.899	114.69
378.125	114.69
378.35	122.69
378.576	109.69
378.802	106.69
379.027	119.69
379.253	115.69
379.478	101.69
379.704	122.69
379.929	115.69
380.155	122.69
380.38	118.69
380.606	122.69
380.831	104.69
381.057	111.69
381.282	110.69
381.507	105.69
381.733	107.69
381.958	114.69
382.184	105.69
382.409	105.69
382.634	99.69
382.86	109.69
383.085	109.69
383.31	127.69
383.535	118.69
383.761	110.69
383.986	103.69
384.211	107.69
384.436	110.69
384.662	120.69
384.887	119.69
385.112	128.69
385.337	118.69
385.562	117.69
385.787	120.69
386.013	118.69
386.238	120.69
386.463	127.69
386.688	115.69
386.913	116.69
387.138	115.69
387.363	119.69
387.588	119.69
387.813	121.69
388.038	124.69
388.263	121.69
388.488	109.69
388.713	124.69
388.938	121.69
389.163	107.69
389.387	109.69
389.612	100.69
389.837	121.69
390.062	117.69
390.287	116.69
390.512	107.69
390.736	122.69
390.961	115.69
391.186	118.69
391.411	125.69
391.636	119.69
391.86	126.69
392.085	136.69
392.31	141.69
392.534	128.69
392.759	127.69
392.984	117.69
393.208	117.69
393.433	118.69
393.658	126.69
393.882	126.69
394.107	116.69
394.331	101.69
394.556	123.69
394.78	112.69
395.005	110.69
395.229	127.69
395.454	116.69
395.678	107.69
395.903	121.69
396.127	122.69
396.352	133.69
396.576	120.69
396.801	132.69
397.025	118.69
397.249	126.69
397.474	122.69
397.698	109.69
397.922	121.69
398.147	122.69
398.371	122.69
398.595	131.69
398.82	136.69
399.044	127.69
399.268	124.69
399.492	151.69
399.717	149.69
399.941	139.69
400.165	139.69
400.389	134.69
400.613	133.69
400.837	125.69
401.062	129.69
401.286	135.69
401.51	130.69
401.734	122.69
401.958	122.69
402.182	123.69
402.406	127.69
402.63	130.69
402.854	143.69
403.078	137.69
403.302	129.69
403.526	146.69
403.75	138.69
403.974	128.69
404.198	138.69
404.422	130.69
404.645	131.69
404.869	137.69
405.093	150.69
405.317	153.69
405.541	151.69
405.765	110.69
405.988	141.69
406.212	134.69
406.436	142.69
406.66	155.69
406.883	136.69
407.107	139.69
407.331	140.69
407.555	149.69
407.778	153.69
408.002	131.69
408.226	147.69
408.449	148.69
408.673	138.69
408.896	145.69
409.12	138.69
409.344	141.69
409.567	150.69
409.791	139.69
410.014	138.69
410.238	142.69
410.461	146.69
410.685	140.69
410.908	120.69
411.132	138.69
411.355	130.69
411.578	144.69
411.802	139.69
412.025	132.69
412.249	140.69
412.472	132.69
412.695	126.69
412.919	135.69
413.142	122.69
413.365	113.69
413.589	131.69
413.812	133.69
414.035	130.69
414.258	129.69
414.482	134.69
414.705	116.69
414.928	119.69
415.151	140.69
415.374	136.69
415.597	135.69
415.821	123.69
416.044	129.69
416.267	122.69
416.49	133.69
416.713	136.69
416.936	139.69
417.159	114.69
417.382	107.69
417.605	127.69
417.828	124.69
418.051	128.69
418.274	127.69
418.497	137.69
418.72	114.69
418.943	118.69
419.166	130.69
419.389	135.69
419.611	126.69
419.834	133.69
420.057	120.69
420.28	121.69
420.503	127.69
420.726	123.69
420.948	121.69
421.171	136.69
421.394	121.69
421.617	136.69
421.839	135.69
422.062	122.69
422.285	131.69
422.507	133.69
422.73	146.69
422.953	133.69
423.175	129.69
423.398	132.69
423.621	123.69
423.843	124.69
424.066	128.69
424.288	121.69
424.511	134.69
424.733	149.69
424.956	131.69
425.178	139.69
425.401	133.69
425.623	141.69
425.846	130.69
426.068	120.69
426.291	131.69
426.513	119.69
426.735	129.69
426.958	143.69
427.18	147.69
427.402	150.69
427.625	126.69
427.847	134.69
428.069	135.69
428.292	138.69
428.514	133.69
428.736	108.69
428.958	124.69
429.181	127.69
429.403	119.69
429.625	125.69
429.847	126.69
430.069	123.69
430.292	133.69
430.514	129.69
430.736	126.69
430.958	123.69
431.18	120.69
431.402	114.69
431.624	123.69
431.846	110.69
432.068	121.69
432.29	122.69
432.512	110.69
432.734	126.69
432.956	133.69
433.178	129.69
433.4	128.69
433.622	124.69
433.844	124.69
434.066	137.69
434.287	126.69
434.509	120.69
434.731	131.69
434.953	133.69
435.175	130.69
435.397	129.69
435.618	135.69
435.84	137.69
436.062	147.69
436.284	124.69
436.505	129.69
436.727	117.69
436.949	120.69
437.17	121.69
437.392	119.69
437.614	127.69
437.835	124.69
438.057	129.69
438.278	128.69
438.5	133.69
438.721	132.69
438.943	126.69
439.165	127.69
439.386	114.69
439.608	124.69
439.829	135.69
440.05	134.69
440.272	132.69
440.493	132.69
440.715	141.69
440.936	122.69
441.158	134.69
441.379	134.69
441.6	149.69
441.822	130.69
442.043	133.69
442.264	146.69
442.486	136.69
442.707	142.69
442.928	122.69
443.149	130.69
443.371	140.69
443.592	135.69
443.813	143.69
444.034	139.69
444.255	136.69
444.476	137.69
444.698	142.69
444.919	113.69
445.14	274.69
445.361	185.69
445.582	156.69
445.803	129.69
446.024	122.69
446.245	121.69
446.466	129.69
446.687	126.69
446.908	118.69
447.129	134.69
447.35	140.69
447.571	137.69
447.792	113.69
448.013	122.69
448.234	126.69
448.455	134.69
448.675	124.69
448.896	145.69
449.117	122.69
449.338	119.69
449.559	132.69
449.779	128.69
450	134.69
450.221	133.69
450.442	110.69
450.662	122.69
450.883	121.69
451.104	120.69
451.324	117.69
451.545	122.69
451.766	114.69
451.986	111.69
452.207	121.69
452.428	122.69
452.648	118.69
452.869	117.69
453.089	125.69
453.31	106.69
453.53	108.69
453.751	118.69
453.971	125.69
454.192	109.69
454.412	119.69
454.633	104.69
454.853	118.69
455.073	110.69
455.294	132.69
455.514	130.69
455.734	127.69
455.955	116.69
456.175	127.69
456.395	119.69
456.616	117.69
456.836	114.69
457.056	122.69
457.276	103.69
457.497	127.69
457.717	108.69
457.937	110.69
458.157	110.69
458.377	122.69
458.598	105.69
458.818	124.69
459.038	127.69
459.258	129.69
459.478	125.69
459.698	131.69
459.918	126.69
460.138	122.69
460.358	124.69
460.578	130.69
460.798	133.69
461.018	135.69
461.238	118.69
461.458	134.69
461.678	121.69
461.898	116.69
462.118	131.69
462.338	129.69
462.558	134.69
462.777	133.69
462.997	150.69
463.217	147.69
463.437	144.69
463.657	137.69
463.876	132.69
464.096	137.69
464.316	128.69
464.536	134.69
464.755	139.69
464.975	142.69
465.195	147.69
465.414	125.69
465.634	135.69
465.854	120.69
466.073	141.69
466.293	129.69
466.512	130.69
466.732	117.69
466.951	118.69
467.171	114.69
467.391	131.69
467.61	126.69
467.829	126.69
468.049	108.69
468.268	121.69
468.488	123.69
468.707	135.69
468.927	112.69
469.146	131.69
469.365	128.69
469.585	128.69
469.804	129.69
470.023	116.69
470.243	116.69
470.462	118.69
470.681	126.69
470.901	126.69
471.12	113.69
471.339	129.69
471.558	127.69
471.777	114.69
471.997	123.69
472.216	121.69
472.435	121.69
472.654	131.69
472.873	137.69
473.092	107.69
473.311	128.69
473.53	107.69
473.749	120.69
473.968	126.69
474.187	118.69
474.406	118.69
474.625	105.69
474.844	111.69
475.063	124.69
475.282	125.69
475.501	116.69
475.72	109.69
475.939	125.69
476.158	110.69
476.377	127.69
476.596	119.69
476.814	125.69
477.033	118.69
477.252	109.69
477.471	122.69
477.69	128.69
477.908	125.69
478.127	131.69
478.346	124.69
478.564	125.69
478.783	129.69
479.002	155.69
479.22	127.69
479.439	137.69
479.658	127.69
479.876	133.69
480.095	132.69
480.313	135.69
480.532	142.69
480.751	128.69
480.969	145.69
481.188	135.69
481.406	137.69
481.624	128.69
481.843	126.69
482.061	148.69
482.28	136.69
482.498	125.69
482.717	125.69
482.935	138.69
483.153	130.69
483.372	130.69
483.59	125.69
483.808	137.69
484.027	149.69
484.245	140.69
484.463	134.69
484.681	136.69
484.9	141.69
485.118	121.69
485.336	120.69
485.554	121.69
485.772	143.69
485.99	139.69
486.209	147.69
486.427	132.69
486.645	119.69
486.863	126.69
487.081	139.69
487.299	129.69
487.517	152.69
487.735	132.69
487.953	139.69
488.171	137.69
488.389	135.69
488.607	131.69
488.825	125.69
489.043	133.69
489.261	135.69
489.479	139.69
489.696	150.69
489.914	119.69
490.132	133.69
490.35	138.69
490.568	156.69
490.786	138.69
491.003	147.69
491.221	124.69
491.439	137.69
491.657	129.69
491.874	137.69
492.092	156.69
492.31	156.69
492.527	143.69
492.745	154.69
492.963	135.69
493.18	147.69
493.398	130.69
493.615	149.69
493.833	147.69
494.05	141.69
494.268	141.69
494.485	136.69
494.703	139.69
494.92	137.69
495.138	142.69
495.355	141.69
495.573	129.69
495.79	139.69
496.008	148.69
496.225	153.69
496.442	137.69
496.66	159.69
496.877	150.69
497.094	163.69
497.312	168.69
497.529	146.69
497.746	162.69
497.963	142.69
498.181	142.69
498.398	158.69
498.615	138.69
498.832	157.69
499.049	167.69
499.267	162.69
499.484	178.69
499.701	172.69
499.918	185.69
500.135	200.69
500.352	225.69
500.569	229.69
500.786	226.69
501.003	198.69
501.22	197.69
501.437	188.69
501.654	189.69
501.871	179.69
502.088	172.69
502.305	153.69
502.522	160.69
502.739	136.69
502.956	146.69
503.172	165.69
503.389	161.69
503.606	138.69
503.823	148.69
504.04	141.69
504.256	147.69
504.473	145.69
504.69	161.69
504.907	146.69
505.123	157.69
505.34	155.69
505.557	133.69
505.773	145.69
505.99	130.69
506.207	133.69
506.423	131.69
506.64	149.69
506.856	121.69
507.073	141.69
507.289	149.69
507.506	128.69
507.722	120.69
507.939	114.69
508.155	139.69
508.372	133.69
508.588	126.69
508.805	129.69
509.021	122.69
509.238	115.69
509.454	120.69
509.67	131.69
509.887	139.69
510.103	116.69
510.319	126.69
510.536	123.69
510.752	141.69
510.968	131.69
511.184	126.69
511.401	114.69
511.617	123.69
511.833	124.69
512.049	116.69
512.265	125.69
512.481	121.69
512.698	144.69
512.914	122.69
513.13	140.69
513.346	131.69
513.562	121.69
513.778	131.69
513.994	127.69
514.21	125.69
514.426	123.69
514.642	133.69
514.858	134.69
515.074	121.69
515.29	118.69
515.506	133.69
515.721	128.69
515.937	132.69
516.153	132.69
516.369	134.69
516.585	150.69
516.801	131.69
517.016	136.69
517.232	132.69
517.448	144.69
517.664	157.69
517.879	134.69
518.095	152.69
518.311	137.69
518.527	133.69
518.742	133.69
518.958	120.69
519.173	135.69
519.389	139.69
519.605	117.69
519.82	133.69
520.036	123.69
520.251	139.69
520.467	122.69
520.682	129.69
520.898	120.69
521.113	124.69
521.329	128.69
521.544	129.69
521.76	132.69
521.975	157.69
522.19	156.69
522.406	122.69
522.621	110.69
522.836	126.69
523.052	123.69
523.267	122.69
523.482	108.69
523.698	119.69
523.913	135.69
524.128	127.69
524.343	129.69
524.559	118.69
524.774	127.69
524.989	137.69
525.204	132.69
525.419	113.69
525.634	114.69
525.849	129.69
526.064	128.69
526.28	129.69
526.495	114.69
526.71	143.69
526.925	121.69
527.14	116.69
527.355	107.69
527.57	109.69
527.785	114.69
527.999	122.69
528.214	118.69
528.429	132.69
528.644	130.69
528.859	136.69
529.074	134.69
529.289	122.69
529.503	126.69
529.718	119.69
529.933	121.69
530.148	122.69
530.363	121.69
530.577	118.69
530.792	121.69
531.007	116.69
531.221	131.69
531.436	133.69
531.651	137.69
531.865	115.69
532.08	124.69
532.295	130.69
532.509	109.69
532.724	117.69
532.938	117.69
533.153	114.69
533.367	136.69
533.582	110.69
533.796	131.69
534.011	112.69
534.225	133.69
534.44	131.69
534.654	123.69
534.868	122.69
535.083	108.69
535.297	125.69
535.511	116.69
535.726	134.69
535.94	120.69
536.154	120.69
536.369	113.69
536.583	110.69
536.797	108.69
537.011	126.69
537.225	115.69
537.44	110.69
537.654	121.69
537.868	116.69
538.082	123.69
538.296	118.69
538.51	115.69
538.724	117.69
538.938	123.69
539.153	118.69
539.367	138.69
539.581	134.69
539.795	111.69
540.009	129.69
540.222	136.69
540.436	109.69
540.65	103.69
540.864	122.69
541.078	125.69
541.292	129.69
541.506	124.69
541.72	128.69
541.934	138.69
542.147	137.69
542.361	143.69
542.575	148.69
542.789	133.69
543.002	130.69
543.216	123.69
543.43	138.69
543.644	135.69
543.857	141.69
544.071	131.69
544.285	142.69
544.498	129.69
544.712	143.69
544.925	124.69
545.139	131.69
545.352	124.69
545.566	123.69
545.779	137.69
545.993	140.69
546.206	139.69
546.42	144.69
546.633	141.69
546.847	126.69
547.06	137.69
547.274	127.69
547.487	128.69
547.7	125.69
547.914	128.69
548.127	129.69
548.34	124.69
548.554	119.69
548.767	126.69
548.98	135.69
549.193	134.69
549.407	127.69
549.62	124.69
549.833	118.69
550.046	123.69
550.259	135.69
550.473	131.69
550.686	132.69
550.899	129.69
551.112	115.69
551.325	120.69
551.538	113.69
551.751	133.69
551.964	123.69
552.177	130.69
552.39	123.69
552.603	132.69
552.816	125.69
553.029	122.69
553.242	135.69
553.455	125.69
553.667	126.69
553.88	139.69
554.093	113.69
554.306	139.69
554.519	123.69
554.732	138.69
554.944	129.69
555.157	120.69
555.37	131.69
555.583	121.69
555.795	117.69
556.008	122.69
556.221	116.69
556.433	117.69
556.646	123.69
556.859	126.69
557.071	127.69
557.284	115.69
557.496	112.69
557.709	123.69
557.921	109.69
558.134	122.69
558.346	108.69
558.559	102.69
558.771	130.69
558.984	128.69
559.196	110.69
559.409	116.69
559.621	127.69
559.833	118.69
560.046	117.69
560.258	122.69
560.47	119.69
560.683	123.69
560.895	120.69
561.107	110.69
561.32	115.69
561.532	118.69
561.744	125.69
561.956	119.69
562.168	117.69
562.381	123.69
562.593	115.69
562.805	114.69
563.017	110.69
563.229	104.69
563.441	121.69
563.653	115.69
563.865	119.69
564.077	116.69
564.289	112.69
564.501	107.69
564.713	127.69
564.925	129.69
565.137	100.69
565.349	125.69
565.561	118.69
565.773	111.69
565.985	125.69
566.197	129.69
566.408	121.69
566.62	121.69
566.832	135.69
567.044	148.69
567.255	147.69
567.467	130.69
567.679	142.69
567.891	149.69
568.102	150.69
568.314	147.69
568.526	129.69
568.737	127.69
568.949	122.69
569.161	124.69
569.372	121.69
569.584	117.69
569.795	122.69
570.007	133.69
570.218	105.69
570.43	121.69
570.641	102.69
570.853	105.69
571.064	115.69
571.276	112.69
571.487	122.69
571.698	116.69
571.91	114.69
572.121	133.69
572.333	107.69
572.544	107.69
572.755	129.69
572.966	102.69
573.178	106.69
573.389	112.69
573.6	110.69
573.811	98.69
574.023	124.69
574.234	121.69
574.445	107.69
574.656	106.69
574.867	114.69
575.078	107.69
575.289	106.69
575.501	116.69
575.712	115.69
575.923	116.69
576.134	107.69
576.345	117.69
576.556	112.69
576.767	111.69
576.978	118.69
577.188	106.69
577.399	119.69
577.61	120.69
577.821	109.69
578.032	117.69
578.243	107.69
578.454	110.69
578.665	107.69
578.875	98.69
579.086	106.69
579.297	106.69
579.508	115.69
579.718	114.69
579.929	102.69
580.14	111.69
580.35	96.69
580.561	114.69
580.772	101.69
580.982	103.69
581.193	91.69
581.403	114.69
581.614	105.69
581.825	108.69
582.035	99.69
582.246	115.69
582.456	98.69
582.667	102.69
582.877	102.69
583.087	106.69
583.298	101.69
583.508	100.69
583.719	108.69
583.929	117.69
584.139	117.69
584.35	105.69
584.56	113.69
584.77	115.69
584.981	89.69
585.191	98.69
585.401	109.69
585.611	113.69
585.821	105.69
586.032	113.69
586.242	97.69
586.452	101.69
586.662	111.69
586.872	117.69
587.082	109.69
587.292	113.69
587.502	97.69
587.713	111.69
587.923	106.69
588.133	95.69
588.343	106.69
588.553	119.69
588.762	110.69
588.972	117.69
589.182	113.69
589.392	109.69
589.602	95.69
589.812	101.69
590.022	107.69
590.232	105.69
590.441	99.69
590.651	115.69
590.861	117.69
591.071	121.69
591.281	107.69
591.49	100.69
591.7	107.69
591.91	125.69
592.119	109.69
592.329	110.69
592.539	126.69
592.748	112.69
592.958	114.69
593.167	118.69
593.377	116.69
593.587	122.69
593.796	111.69
594.006	126.69
594.215	110.69
594.424	109.69
594.634	113.69
594.843	95.69
595.053	114.69
595.262	128.69
595.472	112.69
595.681	111.69
595.89	98.69
596.1	105.69
596.309	102.69
596.518	108.69
596.727	100.69
596.937	96.69
597.146	111.69
597.355	93.69
597.564	118.69
597.774	127.69
597.983	105.69
598.192	104.69
598.401	123.69
598.61	104.69
598.819	83.69
599.028	117.69
599.237	101.69
599.446	117.69
599.655	109.69
599.864	100.69
600.073	105.69
600.282	95.69
600.491	102.69
600.7	109.69
600.909	116.69
601.118	97.69
601.327	85.69
601.536	107.69
601.745	104.69
601.953	102.69
602.162	102.69
602.371	106.69
602.58	108.69
602.789	117.69
602.997	109.69
603.206	85.69
603.415	115.69
603.623	107.69
603.832	104.69
604.041	103.69
604.249	118.69
604.458	116.69
604.666	112.69
604.875	111.69
605.084	100.69
605.292	108.69
605.501	100.69
605.709	105.69
605.918	117.69
606.126	117.69
606.334	110.69
606.543	116.69
606.751	96.69
606.96	107.69
607.168	109.69
607.376	103.69
607.585	119.69
607.793	101.69
608.001	115.69
608.21	92.69
608.418	97.69
608.626	110.69
608.834	115.69
609.043	97.69
609.251	115.69
609.459	98.69
609.667	107.69
609.875	102.69
610.083	105.69
610.291	86.69
610.499	91.69
610.707	106.69
610.916	111.69
611.124	118.69
611.332	121.69
611.54	99.69
611.748	126.69
611.955	104.69
612.163	113.69
612.371	108.69
612.579	117.69
612.787	115.69
612.995	95.69
613.203	110.69
613.411	107.69
613.618	97.69
613.826	116.69
614.034	112.69
614.242	100.69
614.449	97.69
614.657	100.69
614.865	92.69
615.072	108.69
615.28	108.69
615.488	104.69
615.695	110.69
615.903	102.69
616.111	104.69
616.318	85.69
616.526	97.69
616.733	108.69
616.941	94.69
617.148	102.69
617.356	108.69
617.563	102.69
617.771	104.69
617.978	101.69
618.185	107.69
618.393	106.69
618.6	107.69
618.807	97.69
619.015	102.69
619.222	98.69
619.429	102.69
619.637	102.69
619.844	105.69
620.051	95.69
620.258	94.69
620.466	96.69
620.673	97.69
620.88	110.69
621.087	113.69
621.294	91.69
621.501	95.69
621.708	105.69
621.915	111.69
622.122	100.69
622.329	106.69
622.536	101.69
622.743	94.69
622.95	114.69
623.157	118.69
623.364	93.69
623.571	105.69
623.778	98.69
623.985	94.69
624.192	114.69
624.399	95.69
624.606	106.69
624.812	96.69
625.019	108.69
625.226	105.69
625.433	103.69
625.639	99.69
625.846	98.69
626.053	105.69
626.259	105.69
626.466	113.69
626.673	110.69
626.879	94.69
627.086	96.69
627.293	101.69
627.499	100.69
627.706	95.69
627.912	87.69
628.119	102.69
628.325	102.69
628.532	98.69
628.738	82.69
628.945	98.69
629.151	95.69
629.357	94.69
629.564	101.69
629.77	90.69
629.976	98.69
630.183	101.69
630.389	106.69
630.595	112.69
630.802	121.69
631.008	98.69
631.214	104.69
631.42	98.69
631.627	106.69
631.833	94.69
632.039	94.69
632.245	109.69
632.451	116.69
632.657	95.69
632.863	97.69
633.069	104.69
633.275	84.69
633.481	85.69
633.688	94.69
633.893	99.69
634.099	102.69
634.305	86.69
634.511	84.69
634.717	95.69
634.923	108.69
635.129	94.69
635.335	96.69
635.541	94.69
635.747	92.69
635.952	108.69
636.158	97.69
636.364	93.69
636.57	100.69
636.775	93.69
636.981	83.69
637.187	98.69
637.392	94.69
637.598	95.69
637.804	97.69
638.009	101.69
638.215	110.69
638.421	91.69
638.626	90.69
638.832	106.69
639.037	91.69
639.243	94.69
639.448	87.69
639.654	90.69
639.859	85.69
640.065	83.69
640.27	106.69
640.475	102.69
640.681	100.69
640.886	92.69
641.091	73.69
641.297	95.69
641.502	115.69
641.707	100.69
641.913	98.69
642.118	94.69
642.323	113.69
642.528	99.69
642.733	100.69
642.939	98.69
643.144	103.69
643.349	94.69
643.554	102.69
643.759	99.69
643.964	97.69
644.169	99.69
644.374	107.69
644.579	93.69
644.784	79.69
644.989	99.69
645.194	85.69
645.399	102.69
645.604	105.69
645.809	97.69
646.014	104.69
646.219	89.69
646.423	86.69
646.628	93.69
646.833	103.69
647.038	94.69
647.243	99.69
647.447	102.69
647.652	96.69
647.857	101.69
648.062	103.69
648.266	84.69
648.471	89.69
648.676	95.69
648.88	105.69
649.085	88.69
649.289	86.69
649.494	80.69
649.698	94.69
649.903	93.69
650.107	102.69
650.312	102.69
650.516	93.69
650.721	93.69
650.925	88.69
651.13	90.69
651.334	88.69
651.539	94.69
651.743	81.69
651.947	94.69
652.152	96.69
652.356	92.69
652.56	96.69
652.764	79.69
652.969	77.69
653.173	88.69
653.377	91.69
653.581	93.69
653.785	96.69
653.99	93.69
654.194	91.69
654.398	94.69
654.602	95.69
654.806	97.69
655.01	85.69
655.214	89.69
655.418	89.69
655.622	86.69
655.826	74.69
656.03	105.69
656.234	86.69
656.438	94.69
656.642	108.69
656.846	78.69
657.049	85.69
657.253	89.69
657.457	100.69
657.661	83.69
657.865	92.69
658.068	89.69
658.272	91.69
658.476	86.69
658.68	84.69
658.883	82.69
659.087	83.69
659.291	98.69
659.494	102.69
659.698	91.69
659.901	84.69
660.105	94.69
660.309	86.69
660.512	91.69
660.716	100.69
660.919	88.69
661.123	90.69
661.326	75.69
661.53	93.69
661.733	86.69
661.936	81.69
662.14	88.69
662.343	83.69
662.546	90.69
662.75	100.69
662.953	91.69
663.156	97.69
663.36	59.69
663.563	84.69
663.766	95.69
663.969	87.69
664.173	88.69
664.376	90.69
664.579	86.69
664.782	96.69
664.985	84.69
665.188	88.69
665.391	84.69
665.594	83.69
665.797	82.69
666	84.69
666.203	90.69
666.406	75.69
666.609	91.69
666.812	89.69
667.015	85.69
667.218	74.69
667.421	74.69
667.624	86.69
667.827	91.69
668.03	92.69
668.232	82.69
668.435	77.69
668.638	92.69
668.841	86.69
669.043	78.69
669.246	76.69
669.449	85.69
669.651	86.69
669.854	75.69
670.057	67.69
670.259	87.69
670.462	79.69
670.665	88.69
670.867	86.69
671.07	91.69
671.272	87.69
671.475	71.69
671.677	72.69
671.88	66.69
672.082	82.69
672.284	90.69
672.487	78.69
672.689	66.69
672.892	82.69
