Data from 1968.PennyLincolnUp.Lamp.En5.5.200Scan.071719.P1._HRD10591_14-51-29-969.txt Node
Date: Thu Jul 18 14:51:29 EDT 2019
User: cochatt
Spectrometer: HR+D1059
Trigger mode: 1
Integration Time (sec): 1.000000E-1
Scans to average: 1
Electric dark correction enabled: true
Nonlinearity correction enabled: false
Boxcar width: 0
XAxis mode: Wavelengths
Number of Pixels in Spectrum: 2048
>>>>>Begin Spectral Data<<<<<
223.165	-22.62
223.4	-22.62
223.635	-22.62
223.869	-6.62
224.104	-14.62
224.338	-3.62
224.573	-10.62
224.808	-25.62
225.042	-17.62
225.277	3.38
225.511	-2.62
225.746	4.38
225.98	12.38
226.215	7.38
226.449	9.38
226.683	17.38
226.918	10.38
227.152	39.38
227.387	34.38
227.621	31.38
227.856	46.38
228.09	54.38
228.324	35.38
228.559	55.38
228.793	47.38
229.027	66.38
229.262	68.38
229.496	77.38
229.73	79.38
229.964	79.38
230.199	80.38
230.433	73.38
230.667	78.38
230.901	83.38
231.136	79.38
231.37	79.38
231.604	70.38
231.838	76.38
232.072	98.38
232.306	81.38
232.541	88.38
232.775	86.38
233.009	91.38
233.243	85.38
233.477	86.38
233.711	99.38
233.945	87.38
234.179	83.38
234.413	84.38
234.647	74.38
234.881	85.38
235.115	91.38
235.349	86.38
235.583	79.38
235.817	84.38
236.051	85.38
236.285	92.38
236.519	87.38
236.753	79.38
236.987	91.38
237.221	93.38
237.455	97.38
237.689	86.38
237.922	82.38
238.156	71.38
238.39	81.38
238.624	61.38
238.858	90.38
239.091	74.38
239.325	85.38
239.559	86.38
239.793	83.38
240.027	86.38
240.26	87.38
240.494	94.38
240.728	75.38
240.961	87.38
241.195	77.38
241.429	85.38
241.662	80.38
241.896	92.38
242.13	71.38
242.363	83.38
242.597	72.38
242.83	89.38
243.064	73.38
243.298	71.38
243.531	84.38
243.765	94.38
243.998	78.38
244.232	76.38
244.465	90.38
244.699	82.38
244.932	81.38
245.166	84.38
245.399	85.38
245.633	80.38
245.866	87.38
246.099	87.38
246.333	88.38
246.566	92.38
246.8	85.38
247.033	88.38
247.266	86.38
247.5	74.38
247.733	83.38
247.966	81.38
248.2	83.38
248.433	79.38
248.666	88.38
248.899	81.38
249.133	92.38
249.366	87.38
249.599	95.38
249.832	83.38
250.066	84.38
250.299	95.38
250.532	90.38
250.765	79.38
250.998	81.38
251.231	92.38
251.465	97.38
251.698	81.38
251.931	73.38
252.164	74.38
252.397	87.38
252.63	86.38
252.863	101.38
253.096	90.38
253.329	94.38
253.562	86.38
253.795	86.38
254.028	89.38
254.261	88.38
254.494	83.38
254.727	87.38
254.96	95.38
255.193	85.38
255.426	83.38
255.659	85.38
255.892	86.38
256.124	92.38
256.357	87.38
256.59	85.38
256.823	89.38
257.056	93.38
257.289	100.38
257.521	90.38
257.754	78.38
257.987	98.38
258.22	85.38
258.452	80.38
258.685	90.38
258.918	80.38
259.151	82.38
259.383	91.38
259.616	98.38
259.849	94.38
260.081	80.38
260.314	90.38
260.547	98.38
260.779	97.38
261.012	101.38
261.244	76.38
261.477	103.38
261.71	106.38
261.942	96.38
262.175	82.38
262.407	94.38
262.64	82.38
262.872	96.38
263.105	94.38
263.337	92.38
263.57	85.38
263.802	82.38
264.035	93.38
264.267	95.38
264.499	103.38
264.732	92.38
264.964	82.38
265.197	99.38
265.429	89.38
265.661	89.38
265.894	105.38
266.126	97.38
266.358	99.38
266.591	100.38
266.823	87.38
267.055	93.38
267.287	90.38
267.52	93.38
267.752	92.38
267.984	91.38
268.216	104.38
268.448	103.38
268.681	97.38
268.913	92.38
269.145	94.38
269.377	97.38
269.609	89.38
269.841	89.38
270.073	106.38
270.306	97.38
270.538	98.38
270.77	101.38
271.002	114.38
271.234	102.38
271.466	104.38
271.698	90.38
271.93	85.38
272.162	99.38
272.394	93.38
272.626	90.38
272.858	99.38
273.09	105.38
273.322	113.38
273.553	99.38
273.785	89.38
274.017	106.38
274.249	110.38
274.481	95.38
274.713	90.38
274.945	85.38
275.176	89.38
275.408	92.38
275.64	101.38
275.872	114.38
276.104	104.38
276.335	99.38
276.567	101.38
276.799	93.38
277.031	89.38
277.262	126.38
277.494	105.38
277.726	89.38
277.957	93.38
278.189	100.38
278.421	91.38
278.652	99.38
278.884	83.38
279.115	97.38
279.347	109.38
279.579	91.38
279.81	90.38
280.042	100.38
280.273	113.38
280.505	108.38
280.736	97.38
280.968	94.38
281.199	86.38
281.431	94.38
281.662	92.38
281.894	87.38
282.125	89.38
282.356	92.38
282.588	101.38
282.819	99.38
283.051	92.38
283.282	101.38
283.513	100.38
283.745	101.38
283.976	98.38
284.207	107.38
284.439	88.38
284.67	104.38
284.901	91.38
285.132	107.38
285.364	102.38
285.595	102.38
285.826	97.38
286.057	106.38
286.288	85.38
286.52	101.38
286.751	97.38
286.982	108.38
287.213	95.38
287.444	83.38
287.675	88.38
287.906	110.38
288.138	88.38
288.369	101.38
288.6	100.38
288.831	93.38
289.062	103.38
289.293	105.38
289.524	101.38
289.755	110.38
289.986	89.38
290.217	92.38
290.448	106.38
290.679	97.38
290.91	107.38
291.141	92.38
291.371	110.38
291.602	99.38
291.833	98.38
292.064	114.38
292.295	96.38
292.526	109.38
292.757	101.38
292.987	87.38
293.218	98.38
293.449	101.38
293.68	117.38
293.91	98.38
294.141	89.38
294.372	115.38
294.603	94.38
294.833	106.38
295.064	110.38
295.295	108.38
295.525	88.38
295.756	109.38
295.987	115.38
296.217	99.38
296.448	101.38
296.679	104.38
296.909	92.38
297.14	87.38
297.37	116.38
297.601	102.38
297.831	109.38
298.062	105.38
298.292	95.38
298.523	108.38
298.753	94.38
298.984	98.38
299.214	91.38
299.445	106.38
299.675	101.38
299.905	99.38
300.136	99.38
300.366	102.38
300.597	100.38
300.827	102.38
301.057	96.38
301.288	110.38
301.518	110.38
301.748	121.38
301.979	86.38
302.209	113.38
302.439	104.38
302.669	89.38
302.9	109.38
303.13	110.38
303.36	113.38
303.59	100.38
303.82	113.38
304.051	119.38
304.281	106.38
304.511	99.38
304.741	98.38
304.971	105.38
305.201	113.38
305.431	102.38
305.661	117.38
305.891	102.38
306.121	108.38
306.352	105.38
306.582	100.38
306.812	106.38
307.042	115.38
307.272	106.38
307.502	121.38
307.731	102.38
307.961	106.38
308.191	107.38
308.421	95.38
308.651	106.38
308.881	92.38
309.111	108.38
309.341	115.38
309.571	107.38
309.8	99.38
310.03	108.38
310.26	115.38
310.49	100.38
310.72	96.38
310.949	102.38
311.179	116.38
311.409	119.38
311.639	107.38
311.868	112.38
312.098	107.38
312.328	104.38
312.557	106.38
312.787	92.38
313.017	101.38
313.246	111.38
313.476	113.38
313.706	109.38
313.935	109.38
314.165	110.38
314.394	109.38
314.624	123.38
314.853	104.38
315.083	111.38
315.312	104.38
315.542	94.38
315.771	106.38
316.001	92.38
316.23	105.38
316.46	111.38
316.689	93.38
316.919	119.38
317.148	105.38
317.377	107.38
317.607	114.38
317.836	99.38
318.065	103.38
318.295	118.38
318.524	94.38
318.753	94.38
318.983	102.38
319.212	106.38
319.441	117.38
319.67	103.38
319.9	103.38
320.129	125.38
320.358	113.38
320.587	117.38
320.816	114.38
321.046	120.38
321.275	117.38
321.504	111.38
321.733	115.38
321.962	113.38
322.191	97.38
322.42	113.38
322.649	103.38
322.878	104.38
323.108	96.38
323.337	110.38
323.566	115.38
323.795	102.38
324.024	123.38
324.253	124.38
324.482	156.38
324.71	162.38
324.939	167.38
325.168	160.38
325.397	126.38
325.626	127.38
325.855	114.38
326.084	95.38
326.313	108.38
326.542	110.38
326.77	125.38
326.999	119.38
327.228	149.38
327.457	158.38
327.686	159.38
327.914	129.38
328.143	128.38
328.372	125.38
328.6	115.38
328.829	119.38
329.058	108.38
329.287	117.38
329.515	115.38
329.744	112.38
329.972	124.38
330.201	110.38
330.43	119.38
330.658	121.38
330.887	121.38
331.115	115.38
331.344	120.38
331.572	123.38
331.801	108.38
332.03	125.38
332.258	121.38
332.486	125.38
332.715	133.38
332.943	121.38
333.172	117.38
333.4	107.38
333.629	118.38
333.857	112.38
334.085	104.38
334.314	127.38
334.542	110.38
334.771	125.38
334.999	127.38
335.227	111.38
335.455	119.38
335.684	109.38
335.912	119.38
336.14	118.38
336.369	129.38
336.597	117.38
336.825	102.38
337.053	107.38
337.281	117.38
337.51	107.38
337.738	123.38
337.966	108.38
338.194	114.38
338.422	110.38
338.65	112.38
338.878	101.38
339.106	95.38
339.334	121.38
339.562	109.38
339.79	121.38
340.018	114.38
340.246	110.38
340.474	121.38
340.702	117.38
340.93	120.38
341.158	129.38
341.386	120.38
341.614	108.38
341.842	122.38
342.07	108.38
342.298	113.38
342.526	122.38
342.754	122.38
342.981	114.38
343.209	122.38
343.437	108.38
343.665	120.38
343.893	120.38
344.12	103.38
344.348	122.38
344.576	107.38
344.804	108.38
345.031	122.38
345.259	117.38
345.487	119.38
345.714	125.38
345.942	105.38
346.17	117.38
346.397	116.38
346.625	98.38
346.853	111.38
347.08	113.38
347.308	125.38
347.535	120.38
347.763	133.38
347.99	121.38
348.218	116.38
348.445	115.38
348.673	98.38
348.9	120.38
349.128	125.38
349.355	108.38
349.583	104.38
349.81	110.38
350.037	101.38
350.265	121.38
350.492	105.38
350.72	99.38
350.947	114.38
351.174	115.38
351.402	100.38
351.629	98.38
351.856	94.38
352.083	105.38
352.311	109.38
352.538	105.38
352.765	122.38
352.992	102.38
353.22	108.38
353.447	115.38
353.674	133.38
353.901	119.38
354.128	100.38
354.355	115.38
354.583	102.38
354.81	101.38
355.037	102.38
355.264	111.38
355.491	101.38
355.718	106.38
355.945	110.38
356.172	114.38
356.399	119.38
356.626	125.38
356.853	100.38
357.08	115.38
357.307	124.38
357.534	116.38
357.761	123.38
357.988	106.38
358.215	108.38
358.441	119.38
358.668	105.38
358.895	115.38
359.122	115.38
359.349	93.38
359.576	109.38
359.802	132.38
360.029	125.38
360.256	120.38
360.483	121.38
360.709	107.38
360.936	116.38
361.163	105.38
361.39	129.38
361.616	104.38
361.843	117.38
362.07	129.38
362.296	114.38
362.523	105.38
362.749	118.38
362.976	110.38
363.203	117.38
363.429	114.38
363.656	110.38
363.882	120.38
364.109	126.38
364.335	111.38
364.562	114.38
364.788	105.38
365.015	105.38
365.241	113.38
365.468	127.38
365.694	106.38
365.92	113.38
366.147	99.38
366.373	105.38
366.599	104.38
366.826	109.38
367.052	105.38
367.278	117.38
367.505	117.38
367.731	99.38
367.957	103.38
368.184	118.38
368.41	100.38
368.636	118.38
368.862	98.38
369.089	98.38
369.315	105.38
369.541	115.38
369.767	116.38
369.993	111.38
370.219	115.38
370.445	113.38
370.672	98.38
370.898	119.38
371.124	115.38
371.35	116.38
371.576	109.38
371.802	115.38
372.028	98.38
372.254	123.38
372.48	118.38
372.706	106.38
372.932	106.38
373.158	107.38
373.384	119.38
373.61	109.38
373.835	123.38
374.061	119.38
374.287	128.38
374.513	122.38
374.739	109.38
374.965	108.38
375.191	110.38
375.416	118.38
375.642	121.38
375.868	111.38
376.094	125.38
376.319	117.38
376.545	110.38
376.771	117.38
376.997	120.38
377.222	91.38
377.448	113.38
377.674	111.38
377.899	116.38
378.125	103.38
378.35	117.38
378.576	115.38
378.802	111.38
379.027	113.38
379.253	101.38
379.478	102.38
379.704	102.38
379.929	122.38
380.155	121.38
380.38	126.38
380.606	111.38
380.831	126.38
381.057	101.38
381.282	110.38
381.507	114.38
381.733	93.38
381.958	107.38
382.184	101.38
382.409	109.38
382.634	99.38
382.86	118.38
383.085	115.38
383.31	115.38
383.535	121.38
383.761	123.38
383.986	118.38
384.211	113.38
384.436	104.38
384.662	106.38
384.887	110.38
385.112	123.38
385.337	129.38
385.562	122.38
385.787	127.38
386.013	126.38
386.238	116.38
386.463	115.38
386.688	128.38
386.913	124.38
387.138	112.38
387.363	133.38
387.588	125.38
387.813	123.38
388.038	114.38
388.263	106.38
388.488	104.38
388.713	114.38
388.938	113.38
389.163	115.38
389.387	117.38
389.612	120.38
389.837	126.38
390.062	124.38
390.287	122.38
390.512	125.38
390.736	121.38
390.961	121.38
391.186	115.38
391.411	141.38
391.636	123.38
391.86	117.38
392.085	117.38
392.31	124.38
392.534	126.38
392.759	132.38
392.984	120.38
393.208	132.38
393.433	119.38
393.658	115.38
393.882	129.38
394.107	139.38
394.331	138.38
394.556	116.38
394.78	108.38
395.005	121.38
395.229	105.38
395.454	137.38
395.678	129.38
395.903	130.38
396.127	139.38
396.352	130.38
396.576	123.38
396.801	121.38
397.025	121.38
397.249	117.38
397.474	128.38
397.698	125.38
397.922	123.38
398.147	124.38
398.371	123.38
398.595	129.38
398.82	131.38
399.044	133.38
399.268	132.38
399.492	139.38
399.717	147.38
399.941	141.38
400.165	143.38
400.389	137.38
400.613	133.38
400.837	135.38
401.062	108.38
401.286	122.38
401.51	126.38
401.734	131.38
401.958	139.38
402.182	127.38
402.406	133.38
402.63	118.38
402.854	125.38
403.078	138.38
403.302	118.38
403.526	133.38
403.75	127.38
403.974	135.38
404.198	153.38
404.422	130.38
404.645	116.38
404.869	137.38
405.093	137.38
405.317	127.38
405.541	138.38
405.765	142.38
405.988	132.38
406.212	137.38
406.436	125.38
406.66	135.38
406.883	131.38
407.107	134.38
407.331	136.38
407.555	147.38
407.778	135.38
408.002	148.38
408.226	129.38
408.449	142.38
408.673	144.38
408.896	137.38
409.12	139.38
409.344	130.38
409.567	124.38
409.791	125.38
410.014	131.38
410.238	141.38
410.461	135.38
410.685	149.38
410.908	138.38
411.132	130.38
411.355	129.38
411.578	133.38
411.802	122.38
412.025	132.38
412.249	128.38
412.472	125.38
412.695	110.38
412.919	135.38
413.142	135.38
413.365	143.38
413.589	140.38
413.812	120.38
414.035	113.38
414.258	133.38
414.482	124.38
414.705	136.38
414.928	131.38
415.151	107.38
415.374	129.38
415.597	125.38
415.821	124.38
416.044	142.38
416.267	128.38
416.49	133.38
416.713	124.38
416.936	118.38
417.159	126.38
417.382	128.38
417.605	135.38
417.828	136.38
418.051	123.38
418.274	141.38
418.497	142.38
418.72	132.38
418.943	131.38
419.166	116.38
419.389	133.38
419.611	133.38
419.834	135.38
420.057	128.38
420.28	116.38
420.503	129.38
420.726	133.38
420.948	136.38
421.171	134.38
421.394	138.38
421.617	123.38
421.839	124.38
422.062	129.38
422.285	133.38
422.507	141.38
422.73	140.38
422.953	145.38
423.175	129.38
423.398	121.38
423.621	132.38
423.843	142.38
424.066	139.38
424.288	137.38
424.511	142.38
424.733	137.38
424.956	137.38
425.178	130.38
425.401	142.38
425.623	136.38
425.846	136.38
426.068	137.38
426.291	121.38
426.513	125.38
426.735	122.38
426.958	140.38
427.18	145.38
427.402	145.38
427.625	156.38
427.847	130.38
428.069	125.38
428.292	129.38
428.514	120.38
428.736	123.38
428.958	129.38
429.181	133.38
429.403	128.38
429.625	130.38
429.847	124.38
430.069	131.38
430.292	137.38
430.514	108.38
430.736	124.38
430.958	129.38
431.18	113.38
431.402	129.38
431.624	127.38
431.846	116.38
432.068	133.38
432.29	126.38
432.512	111.38
432.734	119.38
432.956	135.38
433.178	107.38
433.4	134.38
433.622	138.38
433.844	124.38
434.066	130.38
434.287	115.38
434.509	111.38
434.731	123.38
434.953	120.38
435.175	121.38
435.397	135.38
435.618	130.38
435.84	155.38
436.062	149.38
436.284	152.38
436.505	153.38
436.727	129.38
436.949	133.38
437.17	124.38
437.392	121.38
437.614	134.38
437.835	133.38
438.057	151.38
438.278	126.38
438.5	133.38
438.721	139.38
438.943	149.38
439.165	129.38
439.386	124.38
439.608	123.38
439.829	127.38
440.05	125.38
440.272	117.38
440.493	125.38
440.715	127.38
440.936	125.38
441.158	109.38
441.379	111.38
441.6	115.38
441.822	131.38
442.043	147.38
442.264	142.38
442.486	147.38
442.707	135.38
442.928	127.38
443.149	124.38
443.371	142.38
443.592	137.38
443.813	138.38
444.034	151.38
444.255	131.38
444.476	126.38
444.698	143.38
444.919	146.38
445.14	256.38
445.361	191.38
445.582	133.38
445.803	123.38
446.024	149.38
446.245	131.38
446.466	137.38
446.687	142.38
446.908	135.38
447.129	133.38
447.35	117.38
447.571	121.38
447.792	111.38
448.013	123.38
448.234	129.38
448.455	131.38
448.675	153.38
448.896	135.38
449.117	149.38
449.338	129.38
449.559	135.38
449.779	154.38
450	135.38
450.221	111.38
450.442	135.38
450.662	120.38
450.883	120.38
451.104	123.38
451.324	135.38
451.545	116.38
451.766	121.38
451.986	115.38
452.207	104.38
452.428	111.38
452.648	116.38
452.869	123.38
453.089	98.38
453.31	123.38
453.53	129.38
453.751	115.38
453.971	117.38
454.192	120.38
454.412	111.38
454.633	119.38
454.853	111.38
455.073	121.38
455.294	133.38
455.514	126.38
455.734	119.38
455.955	131.38
456.175	107.38
456.395	100.38
456.616	111.38
456.836	114.38
457.056	115.38
457.276	106.38
457.497	121.38
457.717	112.38
457.937	121.38
458.157	108.38
458.377	119.38
458.598	124.38
458.818	134.38
459.038	129.38
459.258	139.38
459.478	125.38
459.698	125.38
459.918	130.38
460.138	129.38
460.358	126.38
460.578	134.38
460.798	127.38
461.018	129.38
461.238	143.38
461.458	135.38
461.678	134.38
461.898	124.38
462.118	151.38
462.338	110.38
462.558	123.38
462.777	123.38
462.997	128.38
463.217	147.38
463.437	132.38
463.657	149.38
463.876	127.38
464.096	137.38
464.316	133.38
464.536	129.38
464.755	129.38
464.975	130.38
465.195	130.38
465.414	132.38
465.634	129.38
465.854	115.38
466.073	123.38
466.293	130.38
466.512	115.38
466.732	128.38
466.951	131.38
467.171	117.38
467.391	127.38
467.61	110.38
467.829	123.38
468.049	122.38
468.268	141.38
468.488	121.38
468.707	138.38
468.927	125.38
469.146	132.38
469.365	120.38
469.585	133.38
469.804	125.38
470.023	130.38
470.243	127.38
470.462	127.38
470.681	125.38
470.901	135.38
471.12	138.38
471.339	110.38
471.558	130.38
471.777	129.38
471.997	132.38
472.216	133.38
472.435	117.38
472.654	133.38
472.873	125.38
473.092	118.38
473.311	136.38
473.53	134.38
473.749	135.38
473.968	111.38
474.187	116.38
474.406	105.38
474.625	127.38
474.844	120.38
475.063	136.38
475.282	121.38
475.501	119.38
475.72	128.38
475.939	126.38
476.158	120.38
476.377	121.38
476.596	114.38
476.814	102.38
477.033	131.38
477.252	123.38
477.471	131.38
477.69	128.38
477.908	125.38
478.127	119.38
478.346	136.38
478.564	129.38
478.783	131.38
479.002	131.38
479.22	139.38
479.439	126.38
479.658	128.38
479.876	137.38
480.095	127.38
480.313	138.38
480.532	135.38
480.751	146.38
480.969	122.38
481.188	141.38
481.406	146.38
481.624	150.38
481.843	136.38
482.061	115.38
482.28	130.38
482.498	131.38
482.717	123.38
482.935	126.38
483.153	132.38
483.372	128.38
483.59	131.38
483.808	120.38
484.027	110.38
484.245	135.38
484.463	126.38
484.681	143.38
484.9	134.38
485.118	138.38
485.336	133.38
485.554	135.38
485.772	147.38
485.99	123.38
486.209	133.38
486.427	141.38
486.645	122.38
486.863	131.38
487.081	136.38
487.299	126.38
487.517	120.38
487.735	133.38
487.953	145.38
488.171	149.38
488.389	129.38
488.607	138.38
488.825	129.38
489.043	143.38
489.261	125.38
489.479	139.38
489.696	139.38
489.914	126.38
490.132	145.38
490.35	144.38
490.568	138.38
490.786	142.38
491.003	131.38
491.221	141.38
491.439	126.38
491.657	134.38
491.874	153.38
492.092	140.38
492.31	153.38
492.527	138.38
492.745	151.38
492.963	149.38
493.18	137.38
493.398	142.38
493.615	151.38
493.833	149.38
494.05	150.38
494.268	146.38
494.485	170.38
494.703	139.38
494.92	137.38
495.138	125.38
495.355	126.38
495.573	147.38
495.79	134.38
496.008	140.38
496.225	127.38
496.442	133.38
496.66	133.38
496.877	142.38
497.094	148.38
497.312	149.38
497.529	153.38
497.746	147.38
497.963	137.38
498.181	154.38
498.398	148.38
498.615	152.38
498.832	162.38
499.049	159.38
499.267	175.38
499.484	161.38
499.701	193.38
499.918	183.38
500.135	199.38
500.352	208.38
500.569	211.38
500.786	205.38
501.003	194.38
501.22	191.38
501.437	205.38
501.654	189.38
501.871	168.38
502.088	158.38
502.305	142.38
502.522	156.38
502.739	139.38
502.956	151.38
503.172	162.38
503.389	155.38
503.606	155.38
503.823	150.38
504.04	151.38
504.256	137.38
504.473	154.38
504.69	152.38
504.907	143.38
505.123	141.38
505.34	137.38
505.557	138.38
505.773	142.38
505.99	149.38
506.207	137.38
506.423	144.38
506.64	129.38
506.856	153.38
507.073	132.38
507.289	113.38
507.506	140.38
507.722	133.38
507.939	125.38
508.155	143.38
508.372	139.38
508.588	131.38
508.805	150.38
509.021	118.38
509.238	119.38
509.454	126.38
509.67	127.38
509.887	120.38
510.103	121.38
510.319	117.38
510.536	144.38
510.752	182.38
510.968	146.38
511.184	125.38
511.401	127.38
511.617	123.38
511.833	133.38
512.049	121.38
512.265	115.38
512.481	130.38
512.698	133.38
512.914	138.38
513.13	155.38
513.346	131.38
513.562	134.38
513.778	121.38
513.994	137.38
514.21	121.38
514.426	138.38
514.642	139.38
514.858	154.38
515.074	135.38
515.29	154.38
515.506	173.38
515.721	157.38
515.937	140.38
516.153	129.38
516.369	144.38
516.585	151.38
516.801	135.38
517.016	135.38
517.232	129.38
517.448	143.38
517.664	137.38
517.879	132.38
518.095	143.38
518.311	146.38
518.527	147.38
518.742	148.38
518.958	146.38
519.173	135.38
519.389	124.38
519.605	124.38
519.82	122.38
520.036	120.38
520.251	140.38
520.467	147.38
520.682	130.38
520.898	121.38
521.113	133.38
521.329	140.38
521.544	132.38
521.76	141.38
521.975	182.38
522.19	187.38
522.406	132.38
522.621	125.38
522.836	123.38
523.052	126.38
523.267	130.38
523.482	140.38
523.698	143.38
523.913	129.38
524.128	128.38
524.343	122.38
524.559	120.38
524.774	114.38
524.989	137.38
525.204	121.38
525.419	117.38
525.634	113.38
525.849	123.38
526.064	116.38
526.28	124.38
526.495	124.38
526.71	124.38
526.925	108.38
527.14	115.38
527.355	129.38
527.57	119.38
527.785	110.38
527.999	121.38
528.214	120.38
528.429	129.38
528.644	95.38
528.859	114.38
529.074	126.38
529.289	118.38
529.503	142.38
529.718	117.38
529.933	127.38
530.148	128.38
530.363	113.38
530.577	135.38
530.792	120.38
531.007	109.38
531.221	114.38
531.436	133.38
531.651	132.38
531.865	123.38
532.08	121.38
532.295	123.38
532.509	110.38
532.724	106.38
532.938	133.38
533.153	113.38
533.367	117.38
533.582	120.38
533.796	121.38
534.011	111.38
534.225	133.38
534.44	121.38
534.654	117.38
534.868	125.38
535.083	122.38
535.297	126.38
535.511	134.38
535.726	118.38
535.94	132.38
536.154	110.38
536.369	124.38
536.583	109.38
536.797	104.38
537.011	117.38
537.225	123.38
537.44	129.38
537.654	125.38
537.868	117.38
538.082	113.38
538.296	115.38
538.51	127.38
538.724	126.38
538.938	132.38
539.153	131.38
539.367	133.38
539.581	117.38
539.795	122.38
540.009	125.38
540.222	117.38
540.436	103.38
540.65	100.38
540.864	115.38
541.078	129.38
541.292	139.38
541.506	138.38
541.72	137.38
541.934	131.38
542.147	153.38
542.361	128.38
542.575	130.38
542.789	140.38
543.002	134.38
543.216	144.38
543.43	143.38
543.644	131.38
543.857	147.38
544.071	125.38
544.285	136.38
544.498	136.38
544.712	150.38
544.925	125.38
545.139	131.38
545.352	124.38
545.566	129.38
545.779	149.38
545.993	143.38
546.206	146.38
546.42	161.38
546.633	146.38
546.847	123.38
547.06	128.38
547.274	132.38
547.487	134.38
547.7	123.38
547.914	126.38
548.127	132.38
548.34	124.38
548.554	138.38
548.767	143.38
548.98	137.38
549.193	120.38
549.407	126.38
549.62	141.38
549.833	142.38
550.046	132.38
550.259	141.38
550.473	115.38
550.686	138.38
550.899	118.38
551.112	120.38
551.325	126.38
551.538	115.38
551.751	109.38
551.964	109.38
552.177	115.38
552.39	127.38
552.603	142.38
552.816	133.38
553.029	134.38
553.242	123.38
553.455	128.38
553.667	137.38
553.88	124.38
554.093	133.38
554.306	125.38
554.519	124.38
554.732	119.38
554.944	128.38
555.157	114.38
555.37	115.38
555.583	115.38
555.795	117.38
556.008	125.38
556.221	124.38
556.433	100.38
556.646	100.38
556.859	109.38
557.071	122.38
557.284	123.38
557.496	114.38
557.709	103.38
557.921	114.38
558.134	115.38
558.346	126.38
558.559	117.38
558.771	120.38
558.984	125.38
559.196	120.38
559.409	120.38
559.621	114.38
559.833	117.38
560.046	130.38
560.258	129.38
560.47	127.38
560.683	138.38
560.895	113.38
561.107	134.38
561.32	129.38
561.532	129.38
561.744	123.38
561.956	113.38
562.168	122.38
562.381	123.38
562.593	126.38
562.805	107.38
563.017	114.38
563.229	113.38
563.441	122.38
563.653	119.38
563.865	125.38
564.077	125.38
564.289	113.38
564.501	128.38
564.713	121.38
564.925	129.38
565.137	93.38
565.349	129.38
565.561	121.38
565.773	126.38
565.985	134.38
566.197	133.38
566.408	136.38
566.62	133.38
566.832	127.38
567.044	134.38
567.255	132.38
567.467	132.38
567.679	141.38
567.891	150.38
568.102	129.38
568.314	124.38
568.526	128.38
568.737	128.38
568.949	116.38
569.161	108.38
569.372	117.38
569.584	112.38
569.795	117.38
570.007	99.38
570.218	123.38
570.43	118.38
570.641	119.38
570.853	109.38
571.064	109.38
571.276	104.38
571.487	127.38
571.698	113.38
571.91	118.38
572.121	115.38
572.333	106.38
572.544	111.38
572.755	116.38
572.966	126.38
573.178	115.38
573.389	117.38
573.6	113.38
573.811	103.38
574.023	101.38
574.234	102.38
574.445	109.38
574.656	114.38
574.867	105.38
575.078	106.38
575.289	111.38
575.501	124.38
575.712	102.38
575.923	104.38
576.134	96.38
576.345	105.38
576.556	105.38
576.767	97.38
576.978	123.38
577.188	110.38
577.399	118.38
577.61	109.38
577.821	118.38
578.032	105.38
578.243	106.38
578.454	130.38
578.665	124.38
578.875	108.38
579.086	100.38
579.297	123.38
579.508	97.38
579.718	104.38
579.929	116.38
580.14	110.38
580.35	101.38
580.561	125.38
580.772	102.38
580.982	105.38
581.193	107.38
581.403	100.38
581.614	105.38
581.825	102.38
582.035	108.38
582.246	95.38
582.456	102.38
582.667	109.38
582.877	110.38
583.087	115.38
583.298	114.38
583.508	126.38
583.719	103.38
583.929	109.38
584.139	104.38
584.35	103.38
584.56	107.38
584.77	113.38
584.981	116.38
585.191	117.38
585.401	110.38
585.611	94.38
585.821	91.38
586.032	101.38
586.242	97.38
586.452	119.38
586.662	110.38
586.872	85.38
587.082	95.38
587.292	113.38
587.502	105.38
587.713	99.38
587.923	111.38
588.133	90.38
588.343	99.38
588.553	110.38
588.762	94.38
588.972	100.38
589.182	105.38
589.392	102.38
589.602	110.38
589.812	106.38
590.022	113.38
590.232	110.38
590.441	110.38
590.651	121.38
590.861	107.38
591.071	105.38
591.281	115.38
591.49	107.38
591.7	113.38
591.91	119.38
592.119	100.38
592.329	123.38
592.539	113.38
592.748	123.38
592.958	118.38
593.167	122.38
593.377	140.38
593.587	137.38
593.796	126.38
594.006	101.38
594.215	108.38
594.424	107.38
594.634	120.38
594.843	119.38
595.053	130.38
595.262	119.38
595.472	118.38
595.681	115.38
595.89	95.38
596.1	101.38
596.309	106.38
596.518	105.38
596.727	117.38
596.937	121.38
597.146	103.38
597.355	109.38
597.564	108.38
597.774	100.38
597.983	104.38
598.192	97.38
598.401	95.38
598.61	102.38
598.819	103.38
599.028	112.38
599.237	110.38
599.446	102.38
599.655	117.38
599.864	101.38
600.073	95.38
600.282	100.38
600.491	100.38
600.7	115.38
600.909	121.38
601.118	110.38
601.327	102.38
601.536	97.38
601.745	100.38
601.953	106.38
602.162	122.38
602.371	99.38
602.58	98.38
602.789	98.38
602.997	118.38
603.206	100.38
603.415	93.38
603.623	109.38
603.832	91.38
604.041	95.38
604.249	91.38
604.458	100.38
604.666	100.38
604.875	94.38
605.084	102.38
605.292	106.38
605.501	103.38
605.709	112.38
605.918	119.38
606.126	103.38
606.334	118.38
606.543	87.38
606.751	111.38
606.96	108.38
607.168	106.38
607.376	103.38
607.585	106.38
607.793	101.38
608.001	96.38
608.21	94.38
608.418	82.38
608.626	97.38
608.834	105.38
609.043	87.38
609.251	106.38
609.459	97.38
609.667	107.38
609.875	94.38
610.083	107.38
610.291	100.38
610.499	95.38
610.707	94.38
610.916	98.38
611.124	113.38
611.332	118.38
611.54	114.38
611.748	122.38
611.955	110.38
612.163	109.38
612.371	116.38
612.579	106.38
612.787	109.38
612.995	105.38
613.203	113.38
613.411	99.38
613.618	115.38
613.826	100.38
614.034	102.38
614.242	109.38
614.449	111.38
614.657	123.38
614.865	113.38
615.072	87.38
615.28	88.38
615.488	97.38
615.695	98.38
615.903	117.38
616.111	114.38
616.318	105.38
616.526	115.38
616.733	104.38
616.941	102.38
617.148	106.38
617.356	99.38
617.563	116.38
617.771	102.38
617.978	90.38
618.185	90.38
618.393	110.38
618.6	109.38
618.807	103.38
619.015	109.38
619.222	98.38
619.429	106.38
619.637	117.38
619.844	99.38
620.051	115.38
620.258	102.38
620.466	97.38
620.673	113.38
620.88	105.38
621.087	114.38
621.294	104.38
621.501	105.38
621.708	94.38
621.915	101.38
622.122	116.38
622.329	110.38
622.536	97.38
622.743	111.38
622.95	98.38
623.157	103.38
623.364	102.38
623.571	115.38
623.778	103.38
623.985	103.38
624.192	102.38
624.399	97.38
624.606	91.38
624.812	92.38
625.019	94.38
625.226	95.38
625.433	107.38
625.639	104.38
625.846	107.38
626.053	108.38
626.259	88.38
626.466	92.38
626.673	103.38
626.879	103.38
627.086	100.38
627.293	95.38
627.499	90.38
627.706	95.38
627.912	100.38
628.119	93.38
628.325	98.38
628.532	94.38
628.738	106.38
628.945	100.38
629.151	89.38
629.357	106.38
629.564	98.38
629.77	94.38
629.976	79.38
630.183	109.38
630.389	106.38
630.595	99.38
630.802	103.38
631.008	95.38
631.214	99.38
631.42	98.38
631.627	107.38
631.833	97.38
632.039	109.38
632.245	85.38
632.451	87.38
632.657	111.38
632.863	92.38
633.069	92.38
633.275	84.38
633.481	98.38
633.688	104.38
633.893	106.38
634.099	116.38
634.305	98.38
634.511	106.38
634.717	94.38
634.923	99.38
635.129	94.38
635.335	93.38
635.541	87.38
635.747	99.38
635.952	90.38
636.158	98.38
636.364	102.38
636.57	98.38
636.775	91.38
636.981	86.38
637.187	99.38
637.392	102.38
637.598	94.38
637.804	97.38
638.009	101.38
638.215	99.38
638.421	88.38
638.626	83.38
638.832	89.38
639.037	99.38
639.243	98.38
639.448	102.38
639.654	104.38
639.859	92.38
640.065	102.38
640.27	112.38
640.475	86.38
640.681	92.38
640.886	85.38
641.091	86.38
641.297	88.38
641.502	93.38
641.707	93.38
641.913	97.38
642.118	85.38
642.323	98.38
642.528	95.38
642.733	100.38
642.939	93.38
643.144	84.38
643.349	98.38
643.554	108.38
643.759	95.38
643.964	94.38
644.169	97.38
644.374	101.38
644.579	86.38
644.784	90.38
644.989	89.38
645.194	89.38
645.399	91.38
645.604	114.38
645.809	89.38
646.014	100.38
646.219	89.38
646.423	106.38
646.628	90.38
646.833	96.38
647.038	101.38
647.243	96.38
647.447	85.38
647.652	91.38
647.857	91.38
648.062	94.38
648.266	90.38
648.471	79.38
648.676	97.38
648.88	87.38
649.085	88.38
649.289	91.38
649.494	89.38
649.698	93.38
649.903	85.38
650.107	96.38
650.312	102.38
650.516	81.38
650.721	91.38
650.925	97.38
651.13	88.38
651.334	91.38
651.539	101.38
651.743	86.38
651.947	100.38
652.152	90.38
652.356	108.38
652.56	100.38
652.764	91.38
652.969	85.38
653.173	78.38
653.377	95.38
653.581	102.38
653.785	85.38
653.99	81.38
654.194	88.38
654.398	85.38
654.602	87.38
654.806	100.38
655.01	83.38
655.214	88.38
655.418	85.38
655.622	91.38
655.826	94.38
656.03	98.38
656.234	91.38
656.438	70.38
656.642	98.38
656.846	85.38
657.049	94.38
657.253	90.38
657.457	81.38
657.661	97.38
657.865	98.38
658.068	87.38
658.272	97.38
658.476	85.38
658.68	97.38
658.883	98.38
659.087	88.38
659.291	93.38
659.494	94.38
659.698	85.38
659.901	88.38
660.105	85.38
660.309	85.38
660.512	81.38
660.716	99.38
660.919	82.38
661.123	92.38
661.326	93.38
661.53	86.38
661.733	86.38
661.936	89.38
662.14	87.38
662.343	70.38
662.546	87.38
662.75	61.38
662.953	83.38
663.156	90.38
663.36	82.38
663.563	93.38
663.766	86.38
663.969	79.38
664.173	83.38
664.376	88.38
664.579	83.38
664.782	80.38
664.985	85.38
665.188	73.38
665.391	88.38
665.594	79.38
665.797	91.38
666	82.38
666.203	94.38
666.406	75.38
666.609	89.38
666.812	102.38
667.015	88.38
667.218	87.38
667.421	82.38
667.624	91.38
667.827	84.38
668.03	81.38
668.232	84.38
668.435	98.38
668.638	86.38
668.841	90.38
669.043	92.38
669.246	74.38
669.449	92.38
669.651	85.38
669.854	75.38
670.057	88.38
670.259	84.38
670.462	81.38
670.665	92.38
670.867	67.38
671.07	86.38
671.272	71.38
671.475	89.38
671.677	87.38
671.88	98.38
672.082	87.38
672.284	90.38
672.487	72.38
672.689	78.38
672.892	88.38
