Data from 1968.PennyLincolnUp.Lamp.En5.5.200Scan.071719.P1._HRD10591_14-50-41-970.txt Node
Date: Thu Jul 18 14:50:41 EDT 2019
User: cochatt
Spectrometer: HR+D1059
Trigger mode: 1
Integration Time (sec): 1.000000E-1
Scans to average: 1
Electric dark correction enabled: true
Nonlinearity correction enabled: false
Boxcar width: 0
XAxis mode: Wavelengths
Number of Pixels in Spectrum: 2048
>>>>>Begin Spectral Data<<<<<
223.165	-16.94
223.4	-16.94
223.635	-16.94
223.869	-17.94
224.104	-2.94
224.338	-18.94
224.573	-7.94
224.808	0.06
225.042	-1.94
225.277	-15.94
225.511	-1.94
225.746	-1.94
225.98	9.06
226.215	14.06
226.449	12.06
226.683	10.06
226.918	15.06
227.152	26.06
227.387	39.06
227.621	44.06
227.856	21.06
228.09	55.06
228.324	37.06
228.559	67.06
228.793	63.06
229.027	68.06
229.262	64.06
229.496	69.06
229.73	81.06
229.964	86.06
230.199	85.06
230.433	80.06
230.667	82.06
230.901	93.06
231.136	92.06
231.37	91.06
231.604	84.06
231.838	77.06
232.072	83.06
232.306	110.06
232.541	92.06
232.775	94.06
233.009	93.06
233.243	95.06
233.477	83.06
233.711	94.06
233.945	88.06
234.179	94.06
234.413	93.06
234.647	93.06
234.881	93.06
235.115	85.06
235.349	80.06
235.583	80.06
235.817	72.06
236.051	75.06
236.285	76.06
236.519	99.06
236.753	94.06
236.987	85.06
237.221	78.06
237.455	85.06
237.689	85.06
237.922	88.06
238.156	75.06
238.39	80.06
238.624	85.06
238.858	79.06
239.091	83.06
239.325	75.06
239.559	93.06
239.793	82.06
240.027	81.06
240.26	96.06
240.494	85.06
240.728	88.06
240.961	81.06
241.195	88.06
241.429	87.06
241.662	76.06
241.896	91.06
242.13	83.06
242.363	88.06
242.597	73.06
242.83	79.06
243.064	89.06
243.298	86.06
243.531	87.06
243.765	86.06
243.998	83.06
244.232	83.06
244.465	85.06
244.699	89.06
244.932	84.06
245.166	81.06
245.399	85.06
245.633	87.06
245.866	86.06
246.099	90.06
246.333	93.06
246.566	85.06
246.8	80.06
247.033	88.06
247.266	92.06
247.5	91.06
247.733	73.06
247.966	82.06
248.2	102.06
248.433	85.06
248.666	87.06
248.899	86.06
249.133	85.06
249.366	93.06
249.599	93.06
249.832	105.06
250.066	113.06
250.299	88.06
250.532	83.06
250.765	102.06
250.998	91.06
251.231	77.06
251.465	97.06
251.698	82.06
251.931	87.06
252.164	89.06
252.397	80.06
252.63	85.06
252.863	81.06
253.096	87.06
253.329	90.06
253.562	79.06
253.795	81.06
254.028	88.06
254.261	85.06
254.494	76.06
254.727	99.06
254.96	105.06
255.193	107.06
255.426	92.06
255.659	95.06
255.892	84.06
256.124	94.06
256.357	90.06
256.59	93.06
256.823	85.06
257.056	91.06
257.289	90.06
257.521	90.06
257.754	91.06
257.987	87.06
258.22	88.06
258.452	87.06
258.685	101.06
258.918	85.06
259.151	71.06
259.383	87.06
259.616	94.06
259.849	86.06
260.081	76.06
260.314	92.06
260.547	104.06
260.779	98.06
261.012	101.06
261.244	95.06
261.477	94.06
261.71	85.06
261.942	92.06
262.175	96.06
262.407	93.06
262.64	112.06
262.872	92.06
263.105	103.06
263.337	91.06
263.57	102.06
263.802	91.06
264.035	100.06
264.267	105.06
264.499	96.06
264.732	101.06
264.964	87.06
265.197	97.06
265.429	89.06
265.661	101.06
265.894	97.06
266.126	103.06
266.358	99.06
266.591	93.06
266.823	87.06
267.055	98.06
267.287	88.06
267.52	89.06
267.752	86.06
267.984	88.06
268.216	90.06
268.448	92.06
268.681	99.06
268.913	91.06
269.145	93.06
269.377	93.06
269.609	102.06
269.841	85.06
270.073	93.06
270.306	81.06
270.538	107.06
270.77	93.06
271.002	101.06
271.234	96.06
271.466	89.06
271.698	89.06
271.93	101.06
272.162	98.06
272.394	88.06
272.626	120.06
272.858	100.06
273.09	87.06
273.322	91.06
273.553	100.06
273.785	90.06
274.017	95.06
274.249	106.06
274.481	100.06
274.713	93.06
274.945	91.06
275.176	99.06
275.408	106.06
275.64	101.06
275.872	97.06
276.104	87.06
276.335	90.06
276.567	110.06
276.799	104.06
277.031	99.06
277.262	99.06
277.494	93.06
277.726	99.06
277.957	81.06
278.189	101.06
278.421	103.06
278.652	98.06
278.884	99.06
279.115	99.06
279.347	104.06
279.579	105.06
279.81	96.06
280.042	97.06
280.273	104.06
280.505	93.06
280.736	96.06
280.968	105.06
281.199	101.06
281.431	89.06
281.662	105.06
281.894	92.06
282.125	105.06
282.356	84.06
282.588	111.06
282.819	110.06
283.051	88.06
283.282	111.06
283.513	101.06
283.745	100.06
283.976	93.06
284.207	96.06
284.439	118.06
284.67	97.06
284.901	95.06
285.132	97.06
285.364	98.06
285.595	106.06
285.826	98.06
286.057	100.06
286.288	97.06
286.52	101.06
286.751	115.06
286.982	107.06
287.213	101.06
287.444	106.06
287.675	92.06
287.906	87.06
288.138	105.06
288.369	96.06
288.6	112.06
288.831	104.06
289.062	111.06
289.293	97.06
289.524	111.06
289.755	95.06
289.986	105.06
290.217	110.06
290.448	105.06
290.679	111.06
290.91	115.06
291.141	106.06
291.371	99.06
291.602	110.06
291.833	100.06
292.064	108.06
292.295	105.06
292.526	87.06
292.757	109.06
292.987	91.06
293.218	97.06
293.449	110.06
293.68	104.06
293.91	123.06
294.141	100.06
294.372	104.06
294.603	97.06
294.833	101.06
295.064	110.06
295.295	103.06
295.525	100.06
295.756	97.06
295.987	112.06
296.217	111.06
296.448	121.06
296.679	110.06
296.909	115.06
297.14	103.06
297.37	113.06
297.601	98.06
297.831	100.06
298.062	110.06
298.292	101.06
298.523	111.06
298.753	110.06
298.984	105.06
299.214	112.06
299.445	102.06
299.675	111.06
299.905	104.06
300.136	118.06
300.366	116.06
300.597	96.06
300.827	113.06
301.057	99.06
301.288	96.06
301.518	109.06
301.748	108.06
301.979	111.06
302.209	101.06
302.439	95.06
302.669	98.06
302.9	111.06
303.13	107.06
303.36	96.06
303.59	106.06
303.82	97.06
304.051	105.06
304.281	113.06
304.511	112.06
304.741	105.06
304.971	113.06
305.201	99.06
305.431	115.06
305.661	111.06
305.891	107.06
306.121	112.06
306.352	103.06
306.582	97.06
306.812	111.06
307.042	92.06
307.272	101.06
307.502	105.06
307.731	110.06
307.961	103.06
308.191	110.06
308.421	98.06
308.651	105.06
308.881	93.06
309.111	116.06
309.341	92.06
309.571	116.06
309.8	105.06
310.03	109.06
310.26	108.06
310.49	103.06
310.72	106.06
310.949	98.06
311.179	103.06
311.409	101.06
311.639	118.06
311.868	104.06
312.098	131.06
312.328	134.06
312.557	120.06
312.787	119.06
313.017	115.06
313.246	117.06
313.476	118.06
313.706	128.06
313.935	115.06
314.165	115.06
314.394	120.06
314.624	110.06
314.853	110.06
315.083	109.06
315.312	116.06
315.542	121.06
315.771	102.06
316.001	106.06
316.23	117.06
316.46	100.06
316.689	117.06
316.919	101.06
317.148	107.06
317.377	104.06
317.607	123.06
317.836	117.06
318.065	112.06
318.295	111.06
318.524	110.06
318.753	110.06
318.983	111.06
319.212	109.06
319.441	117.06
319.67	87.06
319.9	121.06
320.129	110.06
320.358	105.06
320.587	118.06
320.816	105.06
321.046	105.06
321.275	116.06
321.504	110.06
321.733	113.06
321.962	111.06
322.191	98.06
322.42	124.06
322.649	124.06
322.878	107.06
323.108	113.06
323.337	116.06
323.566	113.06
323.795	115.06
324.024	110.06
324.253	134.06
324.482	141.06
324.71	161.06
324.939	184.06
325.168	165.06
325.397	116.06
325.626	125.06
325.855	106.06
326.084	117.06
326.313	123.06
326.542	110.06
326.77	115.06
326.999	127.06
327.228	131.06
327.457	126.06
327.686	146.06
327.914	134.06
328.143	126.06
328.372	123.06
328.6	119.06
328.829	108.06
329.058	122.06
329.287	118.06
329.515	111.06
329.744	103.06
329.972	112.06
330.201	113.06
330.43	120.06
330.658	116.06
330.887	114.06
331.115	110.06
331.344	111.06
331.572	117.06
331.801	118.06
332.03	111.06
332.258	117.06
332.486	119.06
332.715	125.06
332.943	117.06
333.172	105.06
333.4	131.06
333.629	119.06
333.857	129.06
334.085	133.06
334.314	120.06
334.542	136.06
334.771	124.06
334.999	117.06
335.227	111.06
335.455	129.06
335.684	113.06
335.912	122.06
336.14	118.06
336.369	124.06
336.597	103.06
336.825	127.06
337.053	112.06
337.281	110.06
337.51	125.06
337.738	120.06
337.966	107.06
338.194	107.06
338.422	104.06
338.65	111.06
338.878	109.06
339.106	106.06
339.334	107.06
339.562	119.06
339.79	116.06
340.018	109.06
340.246	107.06
340.474	116.06
340.702	113.06
340.93	122.06
341.158	121.06
341.386	121.06
341.614	104.06
341.842	96.06
342.07	124.06
342.298	113.06
342.526	115.06
342.754	101.06
342.981	109.06
343.209	110.06
343.437	111.06
343.665	121.06
343.893	125.06
344.12	131.06
344.348	121.06
344.576	103.06
344.804	116.06
345.031	125.06
345.259	138.06
345.487	111.06
345.714	117.06
345.942	127.06
346.17	116.06
346.397	111.06
346.625	106.06
346.853	101.06
347.08	111.06
347.308	112.06
347.535	119.06
347.763	125.06
347.99	112.06
348.218	118.06
348.445	105.06
348.673	113.06
348.9	116.06
349.128	108.06
349.355	109.06
349.583	109.06
349.81	92.06
350.037	115.06
350.265	110.06
350.492	120.06
350.72	105.06
350.947	117.06
351.174	110.06
351.402	116.06
351.629	118.06
351.856	109.06
352.083	110.06
352.311	122.06
352.538	118.06
352.765	116.06
352.992	118.06
353.22	104.06
353.447	125.06
353.674	120.06
353.901	115.06
354.128	125.06
354.355	116.06
354.583	112.06
354.81	119.06
355.037	118.06
355.264	106.06
355.491	108.06
355.718	101.06
355.945	110.06
356.172	100.06
356.399	128.06
356.626	111.06
356.853	127.06
357.08	119.06
357.307	119.06
357.534	102.06
357.761	102.06
357.988	110.06
358.215	117.06
358.441	114.06
358.668	108.06
358.895	106.06
359.122	116.06
359.349	123.06
359.576	119.06
359.802	110.06
360.029	120.06
360.256	127.06
360.483	111.06
360.709	100.06
360.936	119.06
361.163	115.06
361.39	99.06
361.616	109.06
361.843	114.06
362.07	110.06
362.296	110.06
362.523	128.06
362.749	115.06
362.976	120.06
363.203	107.06
363.429	101.06
363.656	112.06
363.882	117.06
364.109	110.06
364.335	135.06
364.562	124.06
364.788	109.06
365.015	106.06
365.241	107.06
365.468	94.06
365.694	117.06
365.92	109.06
366.147	123.06
366.373	112.06
366.599	105.06
366.826	124.06
367.052	117.06
367.278	108.06
367.505	115.06
367.731	105.06
367.957	116.06
368.184	112.06
368.41	115.06
368.636	137.06
368.862	119.06
369.089	110.06
369.315	88.06
369.541	106.06
369.767	105.06
369.993	97.06
370.219	121.06
370.445	101.06
370.672	112.06
370.898	105.06
371.124	120.06
371.35	93.06
371.576	119.06
371.802	108.06
372.028	127.06
372.254	132.06
372.48	115.06
372.706	117.06
372.932	124.06
373.158	109.06
373.384	117.06
373.61	127.06
373.835	106.06
374.061	118.06
374.287	104.06
374.513	123.06
374.739	109.06
374.965	116.06
375.191	116.06
375.416	117.06
375.642	104.06
375.868	109.06
376.094	113.06
376.319	111.06
376.545	112.06
376.771	102.06
376.997	120.06
377.222	117.06
377.448	109.06
377.674	112.06
377.899	127.06
378.125	124.06
378.35	94.06
378.576	113.06
378.802	124.06
379.027	121.06
379.253	119.06
379.478	110.06
379.704	112.06
379.929	118.06
380.155	118.06
380.38	109.06
380.606	128.06
380.831	125.06
381.057	144.06
381.282	107.06
381.507	123.06
381.733	119.06
381.958	101.06
382.184	93.06
382.409	112.06
382.634	115.06
382.86	112.06
383.085	115.06
383.31	115.06
383.535	141.06
383.761	119.06
383.986	123.06
384.211	120.06
384.436	115.06
384.662	124.06
384.887	130.06
385.112	113.06
385.337	123.06
385.562	112.06
385.787	133.06
386.013	112.06
386.238	109.06
386.463	131.06
386.688	123.06
386.913	113.06
387.138	127.06
387.363	113.06
387.588	126.06
387.813	115.06
388.038	115.06
388.263	152.06
388.488	118.06
388.713	108.06
388.938	110.06
389.163	122.06
389.387	116.06
389.612	123.06
389.837	120.06
390.062	120.06
390.287	131.06
390.512	124.06
390.736	125.06
390.961	116.06
391.186	120.06
391.411	106.06
391.636	117.06
391.86	119.06
392.085	120.06
392.31	131.06
392.534	117.06
392.759	125.06
392.984	115.06
393.208	128.06
393.433	124.06
393.658	123.06
393.882	119.06
394.107	120.06
394.331	115.06
394.556	108.06
394.78	114.06
395.005	124.06
395.229	121.06
395.454	111.06
395.678	115.06
395.903	123.06
396.127	123.06
396.352	135.06
396.576	116.06
396.801	117.06
397.025	117.06
397.249	142.06
397.474	117.06
397.698	121.06
397.922	127.06
398.147	141.06
398.371	127.06
398.595	139.06
398.82	122.06
399.044	134.06
399.268	132.06
399.492	141.06
399.717	152.06
399.941	152.06
400.165	147.06
400.389	132.06
400.613	129.06
400.837	136.06
401.062	125.06
401.286	125.06
401.51	138.06
401.734	129.06
401.958	137.06
402.182	135.06
402.406	126.06
402.63	136.06
402.854	123.06
403.078	125.06
403.302	132.06
403.526	150.06
403.75	126.06
403.974	139.06
404.198	126.06
404.422	136.06
404.645	144.06
404.869	143.06
405.093	142.06
405.317	136.06
405.541	130.06
405.765	140.06
405.988	129.06
406.212	134.06
406.436	139.06
406.66	124.06
406.883	127.06
407.107	137.06
407.331	141.06
407.555	171.06
407.778	144.06
408.002	126.06
408.226	151.06
408.449	140.06
408.673	144.06
408.896	126.06
409.12	129.06
409.344	118.06
409.567	141.06
409.791	141.06
410.014	135.06
410.238	138.06
410.461	108.06
410.685	133.06
410.908	133.06
411.132	141.06
411.355	127.06
411.578	132.06
411.802	124.06
412.025	129.06
412.249	136.06
412.472	132.06
412.695	138.06
412.919	134.06
413.142	132.06
413.365	136.06
413.589	134.06
413.812	133.06
414.035	142.06
414.258	135.06
414.482	144.06
414.705	136.06
414.928	139.06
415.151	126.06
415.374	143.06
415.597	133.06
415.821	131.06
416.044	120.06
416.267	111.06
416.49	139.06
416.713	116.06
416.936	139.06
417.159	137.06
417.382	135.06
417.605	135.06
417.828	138.06
418.051	130.06
418.274	119.06
418.497	136.06
418.72	124.06
418.943	124.06
419.166	127.06
419.389	146.06
419.611	148.06
419.834	134.06
420.057	127.06
420.28	110.06
420.503	120.06
420.726	129.06
420.948	124.06
421.171	124.06
421.394	139.06
421.617	145.06
421.839	123.06
422.062	127.06
422.285	136.06
422.507	131.06
422.73	123.06
422.953	135.06
423.175	142.06
423.398	146.06
423.621	124.06
423.843	136.06
424.066	131.06
424.288	132.06
424.511	131.06
424.733	131.06
424.956	140.06
425.178	148.06
425.401	136.06
425.623	136.06
425.846	141.06
426.068	129.06
426.291	136.06
426.513	140.06
426.735	126.06
426.958	128.06
427.18	137.06
427.402	151.06
427.625	142.06
427.847	129.06
428.069	137.06
428.292	134.06
428.514	133.06
428.736	135.06
428.958	123.06
429.181	135.06
429.403	133.06
429.625	113.06
429.847	149.06
430.069	129.06
430.292	127.06
430.514	136.06
430.736	122.06
430.958	143.06
431.18	124.06
431.402	131.06
431.624	132.06
431.846	123.06
432.068	134.06
432.29	127.06
432.512	139.06
432.734	132.06
432.956	128.06
433.178	136.06
433.4	133.06
433.622	130.06
433.844	127.06
434.066	137.06
434.287	107.06
434.509	136.06
434.731	127.06
434.953	135.06
435.175	134.06
435.397	132.06
435.618	137.06
435.84	131.06
436.062	146.06
436.284	136.06
436.505	132.06
436.727	119.06
436.949	137.06
437.17	119.06
437.392	133.06
437.614	133.06
437.835	108.06
438.057	131.06
438.278	133.06
438.5	149.06
438.721	143.06
438.943	143.06
439.165	124.06
439.386	132.06
439.608	130.06
439.829	123.06
440.05	134.06
440.272	131.06
440.493	128.06
440.715	140.06
440.936	132.06
441.158	127.06
441.379	139.06
441.6	148.06
441.822	137.06
442.043	134.06
442.264	135.06
442.486	132.06
442.707	131.06
442.928	134.06
443.149	119.06
443.371	121.06
443.592	155.06
443.813	149.06
444.034	154.06
444.255	142.06
444.476	137.06
444.698	139.06
444.919	135.06
445.14	223.06
445.361	179.06
445.582	134.06
445.803	149.06
446.024	145.06
446.245	134.06
446.466	142.06
446.687	123.06
446.908	129.06
447.129	127.06
447.35	131.06
447.571	130.06
447.792	120.06
448.013	132.06
448.234	128.06
448.455	124.06
448.675	145.06
448.896	126.06
449.117	130.06
449.338	137.06
449.559	142.06
449.779	127.06
450	151.06
450.221	130.06
450.442	119.06
450.662	115.06
450.883	120.06
451.104	122.06
451.324	130.06
451.545	133.06
451.766	124.06
451.986	128.06
452.207	135.06
452.428	133.06
452.648	117.06
452.869	142.06
453.089	122.06
453.31	123.06
453.53	124.06
453.751	134.06
453.971	117.06
454.192	117.06
454.412	137.06
454.633	130.06
454.853	120.06
455.073	133.06
455.294	124.06
455.514	114.06
455.734	120.06
455.955	133.06
456.175	121.06
456.395	129.06
456.616	115.06
456.836	131.06
457.056	116.06
457.276	110.06
457.497	118.06
457.717	105.06
457.937	126.06
458.157	117.06
458.377	129.06
458.598	117.06
458.818	115.06
459.038	133.06
459.258	128.06
459.478	124.06
459.698	121.06
459.918	139.06
460.138	120.06
460.358	131.06
460.578	123.06
460.798	128.06
461.018	138.06
461.238	110.06
461.458	135.06
461.678	146.06
461.898	124.06
462.118	135.06
462.338	143.06
462.558	141.06
462.777	145.06
462.997	147.06
463.217	149.06
463.437	131.06
463.657	142.06
463.876	149.06
464.096	147.06
464.316	130.06
464.536	139.06
464.755	146.06
464.975	134.06
465.195	135.06
465.414	125.06
465.634	136.06
465.854	131.06
466.073	130.06
466.293	130.06
466.512	116.06
466.732	116.06
466.951	117.06
467.171	130.06
467.391	122.06
467.61	126.06
467.829	99.06
468.049	123.06
468.268	118.06
468.488	128.06
468.707	122.06
468.927	112.06
469.146	126.06
469.365	110.06
469.585	135.06
469.804	127.06
470.023	127.06
470.243	120.06
470.462	135.06
470.681	117.06
470.901	125.06
471.12	115.06
471.339	131.06
471.558	113.06
471.777	107.06
471.997	127.06
472.216	133.06
472.435	133.06
472.654	109.06
472.873	142.06
473.092	134.06
473.311	130.06
473.53	123.06
473.749	125.06
473.968	127.06
474.187	135.06
474.406	131.06
474.625	132.06
474.844	116.06
475.063	133.06
475.282	121.06
475.501	124.06
475.72	127.06
475.939	127.06
476.158	123.06
476.377	137.06
476.596	119.06
476.814	119.06
477.033	130.06
477.252	129.06
477.471	109.06
477.69	123.06
477.908	123.06
478.127	140.06
478.346	131.06
478.564	122.06
478.783	132.06
479.002	127.06
479.22	133.06
479.439	138.06
479.658	143.06
479.876	135.06
480.095	136.06
480.313	129.06
480.532	139.06
480.751	145.06
480.969	137.06
481.188	143.06
481.406	145.06
481.624	122.06
481.843	140.06
482.061	135.06
482.28	138.06
482.498	149.06
482.717	126.06
482.935	126.06
483.153	123.06
483.372	141.06
483.59	134.06
483.808	143.06
484.027	129.06
484.245	121.06
484.463	130.06
484.681	128.06
484.9	131.06
485.118	142.06
485.336	136.06
485.554	138.06
485.772	137.06
485.99	132.06
486.209	143.06
486.427	149.06
486.645	156.06
486.863	135.06
487.081	127.06
487.299	127.06
487.517	136.06
487.735	131.06
487.953	132.06
488.171	137.06
488.389	132.06
488.607	137.06
488.825	144.06
489.043	118.06
489.261	135.06
489.479	135.06
489.696	141.06
489.914	137.06
490.132	134.06
490.35	120.06
490.568	131.06
490.786	125.06
491.003	156.06
491.221	142.06
491.439	139.06
491.657	145.06
491.874	150.06
492.092	168.06
492.31	152.06
492.527	140.06
492.745	140.06
492.963	150.06
493.18	133.06
493.398	139.06
493.615	159.06
493.833	136.06
494.05	150.06
494.268	141.06
494.485	139.06
494.703	135.06
494.92	145.06
495.138	132.06
495.355	156.06
495.573	139.06
495.79	147.06
496.008	143.06
496.225	141.06
496.442	131.06
496.66	156.06
496.877	133.06
497.094	146.06
497.312	158.06
497.529	146.06
497.746	143.06
497.963	148.06
498.181	149.06
498.398	151.06
498.615	145.06
498.832	149.06
499.049	174.06
499.267	165.06
499.484	187.06
499.701	183.06
499.918	199.06
500.135	210.06
500.352	222.06
500.569	215.06
500.786	221.06
501.003	203.06
501.22	195.06
501.437	192.06
501.654	192.06
501.871	168.06
502.088	162.06
502.305	167.06
502.522	173.06
502.739	164.06
502.956	157.06
503.172	148.06
503.389	163.06
503.606	158.06
503.823	153.06
504.04	149.06
504.256	155.06
504.473	163.06
504.69	152.06
504.907	148.06
505.123	142.06
505.34	147.06
505.557	149.06
505.773	141.06
505.99	135.06
506.207	157.06
506.423	137.06
506.64	135.06
506.856	125.06
507.073	136.06
507.289	129.06
507.506	137.06
507.722	125.06
507.939	129.06
508.155	141.06
508.372	140.06
508.588	142.06
508.805	139.06
509.021	128.06
509.238	136.06
509.454	138.06
509.67	133.06
509.887	145.06
510.103	124.06
510.319	138.06
510.536	139.06
510.752	166.06
510.968	151.06
511.184	135.06
511.401	125.06
511.617	121.06
511.833	122.06
512.049	125.06
512.265	125.06
512.481	133.06
512.698	121.06
512.914	130.06
513.13	137.06
513.346	130.06
513.562	118.06
513.778	139.06
513.994	126.06
514.21	149.06
514.426	138.06
514.642	128.06
514.858	145.06
515.074	129.06
515.29	144.06
515.506	177.06
515.721	153.06
515.937	113.06
516.153	124.06
516.369	126.06
516.585	117.06
516.801	136.06
517.016	137.06
517.232	158.06
517.448	151.06
517.664	151.06
517.879	144.06
518.095	136.06
518.311	135.06
518.527	141.06
518.742	130.06
518.958	134.06
519.173	132.06
519.389	136.06
519.605	145.06
519.82	136.06
520.036	141.06
520.251	125.06
520.467	139.06
520.682	135.06
520.898	122.06
521.113	135.06
521.329	131.06
521.544	126.06
521.76	155.06
521.975	180.06
522.19	181.06
522.406	131.06
522.621	110.06
522.836	129.06
523.052	138.06
523.267	115.06
523.482	120.06
523.698	112.06
523.913	125.06
524.128	118.06
524.343	128.06
524.559	128.06
524.774	119.06
524.989	127.06
525.204	124.06
525.419	127.06
525.634	120.06
525.849	133.06
526.064	139.06
526.28	143.06
526.495	116.06
526.71	117.06
526.925	113.06
527.14	120.06
527.355	123.06
527.57	125.06
527.785	135.06
527.999	123.06
528.214	128.06
528.429	125.06
528.644	128.06
528.859	109.06
529.074	123.06
529.289	137.06
529.503	131.06
529.718	116.06
529.933	116.06
530.148	108.06
530.363	126.06
530.577	123.06
530.792	115.06
531.007	132.06
531.221	117.06
531.436	108.06
531.651	126.06
531.865	125.06
532.08	121.06
532.295	121.06
532.509	101.06
532.724	121.06
532.938	126.06
533.153	130.06
533.367	126.06
533.582	121.06
533.796	135.06
534.011	127.06
534.225	119.06
534.44	119.06
534.654	123.06
534.868	124.06
535.083	116.06
535.297	127.06
535.511	119.06
535.726	133.06
535.94	126.06
536.154	109.06
536.369	110.06
536.583	127.06
536.797	108.06
537.011	125.06
537.225	121.06
537.44	121.06
537.654	109.06
537.868	114.06
538.082	113.06
538.296	127.06
538.51	115.06
538.724	126.06
538.938	110.06
539.153	139.06
539.367	129.06
539.581	122.06
539.795	119.06
540.009	133.06
540.222	123.06
540.436	120.06
540.65	111.06
540.864	128.06
541.078	122.06
541.292	133.06
541.506	137.06
541.72	123.06
541.934	126.06
542.147	142.06
542.361	144.06
542.575	138.06
542.789	137.06
543.002	131.06
543.216	136.06
543.43	125.06
543.644	140.06
543.857	137.06
544.071	138.06
544.285	138.06
544.498	140.06
544.712	130.06
544.925	127.06
545.139	137.06
545.352	145.06
545.566	134.06
545.779	128.06
545.993	142.06
546.206	148.06
546.42	140.06
546.633	128.06
546.847	127.06
547.06	134.06
547.274	131.06
547.487	145.06
547.7	136.06
547.914	125.06
548.127	132.06
548.34	129.06
548.554	129.06
548.767	133.06
548.98	140.06
549.193	128.06
549.407	134.06
549.62	126.06
549.833	123.06
550.046	129.06
550.259	124.06
550.473	138.06
550.686	134.06
550.899	119.06
551.112	120.06
551.325	121.06
551.538	126.06
551.751	129.06
551.964	121.06
552.177	120.06
552.39	119.06
552.603	123.06
552.816	131.06
553.029	116.06
553.242	123.06
553.455	135.06
553.667	142.06
553.88	134.06
554.093	130.06
554.306	122.06
554.519	136.06
554.732	125.06
554.944	126.06
555.157	140.06
555.37	119.06
555.583	141.06
555.795	139.06
556.008	120.06
556.221	135.06
556.433	121.06
556.646	114.06
556.859	129.06
557.071	106.06
557.284	119.06
557.496	117.06
557.709	122.06
557.921	118.06
558.134	126.06
558.346	124.06
558.559	127.06
558.771	110.06
558.984	111.06
559.196	122.06
559.409	110.06
559.621	121.06
559.833	139.06
560.046	124.06
560.258	129.06
560.47	105.06
560.683	107.06
560.895	108.06
561.107	117.06
561.32	132.06
561.532	126.06
561.744	128.06
561.956	134.06
562.168	120.06
562.381	107.06
562.593	117.06
562.805	113.06
563.017	127.06
563.229	126.06
563.441	145.06
563.653	126.06
563.865	124.06
564.077	118.06
564.289	123.06
564.501	120.06
564.713	119.06
564.925	118.06
565.137	122.06
565.349	136.06
565.561	108.06
565.773	119.06
565.985	117.06
566.197	131.06
566.408	120.06
566.62	127.06
566.832	126.06
567.044	141.06
567.255	144.06
567.467	137.06
567.679	135.06
567.891	144.06
568.102	148.06
568.314	143.06
568.526	124.06
568.737	121.06
568.949	125.06
569.161	119.06
569.372	124.06
569.584	127.06
569.795	126.06
570.007	127.06
570.218	126.06
570.43	116.06
570.641	111.06
570.853	134.06
571.064	126.06
571.276	123.06
571.487	126.06
571.698	107.06
571.91	119.06
572.121	117.06
572.333	123.06
572.544	109.06
572.755	123.06
572.966	114.06
573.178	120.06
573.389	112.06
573.6	110.06
573.811	115.06
574.023	107.06
574.234	107.06
574.445	120.06
574.656	109.06
574.867	99.06
575.078	111.06
575.289	111.06
575.501	103.06
575.712	113.06
575.923	94.06
576.134	117.06
576.345	120.06
576.556	122.06
576.767	117.06
576.978	106.06
577.188	128.06
577.399	102.06
577.61	95.06
577.821	117.06
578.032	108.06
578.243	100.06
578.454	119.06
578.665	108.06
578.875	103.06
579.086	107.06
579.297	100.06
579.508	96.06
579.718	111.06
579.929	109.06
580.14	115.06
580.35	103.06
580.561	123.06
580.772	121.06
580.982	109.06
581.193	100.06
581.403	115.06
581.614	118.06
581.825	102.06
582.035	116.06
582.246	101.06
582.456	109.06
582.667	120.06
582.877	119.06
583.087	109.06
583.298	110.06
583.508	97.06
583.719	91.06
583.929	111.06
584.139	104.06
584.35	115.06
584.56	105.06
584.77	109.06
584.981	101.06
585.191	112.06
585.401	95.06
585.611	108.06
585.821	100.06
586.032	107.06
586.242	99.06
586.452	128.06
586.662	119.06
586.872	107.06
587.082	106.06
587.292	109.06
587.502	120.06
587.713	111.06
587.923	110.06
588.133	100.06
588.343	120.06
588.553	93.06
588.762	114.06
588.972	108.06
589.182	119.06
589.392	95.06
589.602	103.06
589.812	106.06
590.022	102.06
590.232	109.06
590.441	104.06
590.651	110.06
590.861	123.06
591.071	112.06
591.281	117.06
591.49	116.06
591.7	115.06
591.91	115.06
592.119	115.06
592.329	108.06
592.539	111.06
592.748	118.06
592.958	112.06
593.167	118.06
593.377	108.06
593.587	122.06
593.796	117.06
594.006	111.06
594.215	120.06
594.424	110.06
594.634	113.06
594.843	109.06
595.053	95.06
595.262	119.06
595.472	128.06
595.681	116.06
595.89	97.06
596.1	110.06
596.309	94.06
596.518	103.06
596.727	122.06
596.937	119.06
597.146	104.06
597.355	109.06
597.564	114.06
597.774	107.06
597.983	103.06
598.192	84.06
598.401	94.06
598.61	104.06
598.819	109.06
599.028	113.06
599.237	102.06
599.446	91.06
599.655	99.06
599.864	105.06
600.073	96.06
600.282	103.06
600.491	99.06
600.7	103.06
600.909	120.06
601.118	106.06
601.327	119.06
601.536	110.06
601.745	87.06
601.953	100.06
602.162	109.06
602.371	108.06
602.58	117.06
602.789	115.06
602.997	98.06
603.206	99.06
603.415	107.06
603.623	109.06
603.832	107.06
604.041	92.06
604.249	96.06
604.458	96.06
604.666	104.06
604.875	105.06
605.084	125.06
605.292	106.06
605.501	102.06
605.709	113.06
605.918	105.06
606.126	112.06
606.334	87.06
606.543	100.06
606.751	104.06
606.96	104.06
607.168	104.06
607.376	113.06
607.585	103.06
607.793	108.06
608.001	110.06
608.21	106.06
608.418	110.06
608.626	117.06
608.834	90.06
609.043	104.06
609.251	101.06
609.459	98.06
609.667	108.06
609.875	104.06
610.083	113.06
610.291	105.06
610.499	105.06
610.707	106.06
610.916	92.06
611.124	108.06
611.332	112.06
611.54	117.06
611.748	105.06
611.955	106.06
612.163	112.06
612.371	114.06
612.579	113.06
612.787	97.06
612.995	107.06
613.203	115.06
613.411	103.06
613.618	102.06
613.826	105.06
614.034	99.06
614.242	111.06
614.449	110.06
614.657	108.06
614.865	103.06
615.072	109.06
615.28	108.06
615.488	121.06
615.695	96.06
615.903	109.06
616.111	104.06
616.318	125.06
616.526	115.06
616.733	105.06
616.941	106.06
617.148	91.06
617.356	121.06
617.563	105.06
617.771	125.06
617.978	110.06
618.185	109.06
618.393	96.06
618.6	94.06
618.807	111.06
619.015	103.06
619.222	112.06
619.429	89.06
619.637	93.06
619.844	106.06
620.051	94.06
620.258	103.06
620.466	122.06
620.673	106.06
620.88	102.06
621.087	102.06
621.294	106.06
621.501	96.06
621.708	85.06
621.915	84.06
622.122	99.06
622.329	119.06
622.536	107.06
622.743	111.06
622.95	100.06
623.157	92.06
623.364	102.06
623.571	91.06
623.778	96.06
623.985	92.06
624.192	103.06
624.399	117.06
624.606	128.06
624.812	91.06
625.019	109.06
625.226	101.06
625.433	101.06
625.639	99.06
625.846	94.06
626.053	102.06
626.259	91.06
626.466	111.06
626.673	94.06
626.879	111.06
627.086	101.06
627.293	106.06
627.499	112.06
627.706	102.06
627.912	105.06
628.119	100.06
628.325	100.06
628.532	113.06
628.738	102.06
628.945	99.06
629.151	101.06
629.357	105.06
629.564	103.06
629.77	107.06
629.976	110.06
630.183	99.06
630.389	102.06
630.595	102.06
630.802	93.06
631.008	105.06
631.214	97.06
631.42	97.06
631.627	108.06
631.833	107.06
632.039	104.06
632.245	94.06
632.451	110.06
632.657	89.06
632.863	80.06
633.069	105.06
633.275	104.06
633.481	99.06
633.688	91.06
633.893	105.06
634.099	91.06
634.305	103.06
634.511	98.06
634.717	110.06
634.923	96.06
635.129	100.06
635.335	99.06
635.541	100.06
635.747	92.06
635.952	101.06
636.158	94.06
636.364	102.06
636.57	84.06
636.775	103.06
636.981	105.06
637.187	102.06
637.392	105.06
637.598	91.06
637.804	102.06
638.009	97.06
638.215	118.06
638.421	90.06
638.626	94.06
638.832	101.06
639.037	85.06
639.243	89.06
639.448	96.06
639.654	102.06
639.859	93.06
640.065	95.06
640.27	113.06
640.475	102.06
640.681	90.06
640.886	106.06
641.091	104.06
641.297	106.06
641.502	110.06
641.707	88.06
641.913	94.06
642.118	100.06
642.323	96.06
642.528	82.06
642.733	80.06
642.939	88.06
643.144	100.06
643.349	94.06
643.554	101.06
643.759	97.06
643.964	99.06
644.169	94.06
644.374	90.06
644.579	88.06
644.784	92.06
644.989	93.06
645.194	96.06
645.399	95.06
645.604	88.06
645.809	85.06
646.014	94.06
646.219	87.06
646.423	87.06
646.628	123.06
646.833	89.06
647.038	104.06
647.243	101.06
647.447	100.06
647.652	106.06
647.857	101.06
648.062	89.06
648.266	96.06
648.471	94.06
648.676	104.06
648.88	87.06
649.085	96.06
649.289	109.06
649.494	86.06
649.698	92.06
649.903	101.06
650.107	103.06
650.312	82.06
650.516	96.06
650.721	92.06
650.925	85.06
651.13	104.06
651.334	101.06
651.539	108.06
651.743	99.06
651.947	90.06
652.152	93.06
652.356	91.06
652.56	89.06
652.764	93.06
652.969	95.06
653.173	88.06
653.377	86.06
653.581	87.06
653.785	86.06
653.99	88.06
654.194	102.06
654.398	96.06
654.602	82.06
654.806	99.06
655.01	85.06
655.214	98.06
655.418	97.06
655.622	90.06
655.826	88.06
656.03	94.06
656.234	94.06
656.438	112.06
656.642	76.06
656.846	83.06
657.049	91.06
657.253	92.06
657.457	94.06
657.661	99.06
657.865	102.06
658.068	86.06
658.272	93.06
658.476	79.06
658.68	90.06
658.883	87.06
659.087	89.06
659.291	82.06
659.494	100.06
659.698	92.06
659.901	87.06
660.105	79.06
660.309	96.06
660.512	93.06
660.716	88.06
660.919	92.06
661.123	84.06
661.326	94.06
661.53	95.06
661.733	89.06
661.936	96.06
662.14	97.06
662.343	93.06
662.546	76.06
662.75	94.06
662.953	81.06
663.156	76.06
663.36	95.06
663.563	87.06
663.766	78.06
663.969	87.06
664.173	92.06
664.376	84.06
664.579	81.06
664.782	95.06
664.985	77.06
665.188	85.06
665.391	89.06
665.594	80.06
665.797	78.06
666	81.06
666.203	90.06
666.406	89.06
666.609	84.06
666.812	66.06
667.015	87.06
667.218	86.06
667.421	81.06
667.624	93.06
667.827	73.06
668.03	78.06
668.232	87.06
668.435	95.06
668.638	92.06
668.841	80.06
669.043	89.06
669.246	87.06
669.449	90.06
669.651	89.06
669.854	98.06
670.057	96.06
670.259	70.06
670.462	81.06
670.665	66.06
670.867	94.06
671.07	91.06
671.272	90.06
671.475	101.06
671.677	90.06
671.88	72.06
672.082	87.06
672.284	83.06
672.487	93.06
672.689	82.06
672.892	88.06
