Data from 1968.PennyLincolnUp.Lamp.En5.5.200Scan.071719.P1._HRD10591_14-49-15-969.txt Node
Date: Thu Jul 18 14:49:15 EDT 2019
User: cochatt
Spectrometer: HR+D1059
Trigger mode: 1
Integration Time (sec): 1.000000E-1
Scans to average: 1
Electric dark correction enabled: true
Nonlinearity correction enabled: false
Boxcar width: 0
XAxis mode: Wavelengths
Number of Pixels in Spectrum: 2048
>>>>>Begin Spectral Data<<<<<
223.165	-21.75
223.4	-21.75
223.635	-21.75
223.869	-29.75
224.104	-15.75
224.338	-5.75
224.573	-17.75
224.808	-13.75
225.042	-9.75
225.277	-5.75
225.511	-2.75
225.746	-1.75
225.98	12.25
226.215	-0.75
226.449	19.25
226.683	33.25
226.918	30.25
227.152	30.25
227.387	20.25
227.621	50.25
227.856	39.25
228.09	40.25
228.324	48.25
228.559	44.25
228.793	57.25
229.027	52.25
229.262	75.25
229.496	95.25
229.73	80.25
229.964	71.25
230.199	77.25
230.433	83.25
230.667	66.25
230.901	76.25
231.136	85.25
231.37	89.25
231.604	82.25
231.838	82.25
232.072	76.25
232.306	77.25
232.541	78.25
232.775	102.25
233.009	80.25
233.243	72.25
233.477	80.25
233.711	90.25
233.945	82.25
234.179	94.25
234.413	82.25
234.647	84.25
234.881	101.25
235.115	89.25
235.349	82.25
235.583	100.25
235.817	77.25
236.051	70.25
236.285	78.25
236.519	93.25
236.753	74.25
236.987	77.25
237.221	94.25
237.455	74.25
237.689	80.25
237.922	93.25
238.156	82.25
238.39	93.25
238.624	78.25
238.858	79.25
239.091	90.25
239.325	78.25
239.559	78.25
239.793	86.25
240.027	96.25
240.26	76.25
240.494	77.25
240.728	76.25
240.961	90.25
241.195	83.25
241.429	90.25
241.662	80.25
241.896	82.25
242.13	78.25
242.363	89.25
242.597	81.25
242.83	80.25
243.064	96.25
243.298	82.25
243.531	81.25
243.765	100.25
243.998	90.25
244.232	82.25
244.465	79.25
244.699	73.25
244.932	88.25
245.166	84.25
245.399	91.25
245.633	113.25
245.866	88.25
246.099	94.25
246.333	96.25
246.566	74.25
246.8	74.25
247.033	87.25
247.266	71.25
247.5	100.25
247.733	92.25
247.966	97.25
248.2	94.25
248.433	85.25
248.666	82.25
248.899	90.25
249.133	81.25
249.366	79.25
249.599	80.25
249.832	98.25
250.066	95.25
250.299	91.25
250.532	97.25
250.765	93.25
250.998	84.25
251.231	97.25
251.465	83.25
251.698	81.25
251.931	93.25
252.164	97.25
252.397	95.25
252.63	96.25
252.863	79.25
253.096	85.25
253.329	88.25
253.562	87.25
253.795	77.25
254.028	82.25
254.261	89.25
254.494	97.25
254.727	107.25
254.96	104.25
255.193	79.25
255.426	80.25
255.659	95.25
255.892	101.25
256.124	86.25
256.357	96.25
256.59	89.25
256.823	81.25
257.056	90.25
257.289	96.25
257.521	92.25
257.754	109.25
257.987	96.25
258.22	88.25
258.452	100.25
258.685	92.25
258.918	80.25
259.151	88.25
259.383	99.25
259.616	85.25
259.849	91.25
260.081	108.25
260.314	95.25
260.547	87.25
260.779	96.25
261.012	81.25
261.244	92.25
261.477	96.25
261.71	92.25
261.942	84.25
262.175	100.25
262.407	92.25
262.64	95.25
262.872	78.25
263.105	98.25
263.337	88.25
263.57	83.25
263.802	97.25
264.035	109.25
264.267	97.25
264.499	93.25
264.732	86.25
264.964	96.25
265.197	95.25
265.429	94.25
265.661	95.25
265.894	87.25
266.126	84.25
266.358	87.25
266.591	92.25
266.823	101.25
267.055	107.25
267.287	95.25
267.52	92.25
267.752	100.25
267.984	97.25
268.216	106.25
268.448	110.25
268.681	99.25
268.913	99.25
269.145	88.25
269.377	99.25
269.609	93.25
269.841	109.25
270.073	91.25
270.306	95.25
270.538	81.25
270.77	94.25
271.002	113.25
271.234	100.25
271.466	98.25
271.698	88.25
271.93	93.25
272.162	91.25
272.394	97.25
272.626	103.25
272.858	97.25
273.09	94.25
273.322	110.25
273.553	96.25
273.785	98.25
274.017	104.25
274.249	93.25
274.481	95.25
274.713	90.25
274.945	91.25
275.176	101.25
275.408	107.25
275.64	96.25
275.872	104.25
276.104	99.25
276.335	92.25
276.567	95.25
276.799	88.25
277.031	103.25
277.262	95.25
277.494	102.25
277.726	98.25
277.957	110.25
278.189	109.25
278.421	92.25
278.652	101.25
278.884	102.25
279.115	109.25
279.347	89.25
279.579	96.25
279.81	91.25
280.042	105.25
280.273	103.25
280.505	79.25
280.736	89.25
280.968	97.25
281.199	102.25
281.431	104.25
281.662	104.25
281.894	107.25
282.125	91.25
282.356	93.25
282.588	95.25
282.819	98.25
283.051	103.25
283.282	102.25
283.513	103.25
283.745	92.25
283.976	96.25
284.207	108.25
284.439	116.25
284.67	97.25
284.901	104.25
285.132	95.25
285.364	108.25
285.595	108.25
285.826	108.25
286.057	92.25
286.288	95.25
286.52	100.25
286.751	78.25
286.982	98.25
287.213	91.25
287.444	108.25
287.675	102.25
287.906	89.25
288.138	108.25
288.369	108.25
288.6	110.25
288.831	106.25
289.062	117.25
289.293	104.25
289.524	112.25
289.755	108.25
289.986	95.25
290.217	97.25
290.448	98.25
290.679	108.25
290.91	99.25
291.141	98.25
291.371	87.25
291.602	110.25
291.833	109.25
292.064	104.25
292.295	97.25
292.526	105.25
292.757	101.25
292.987	110.25
293.218	94.25
293.449	103.25
293.68	104.25
293.91	95.25
294.141	106.25
294.372	113.25
294.603	98.25
294.833	110.25
295.064	101.25
295.295	108.25
295.525	113.25
295.756	93.25
295.987	111.25
296.217	96.25
296.448	111.25
296.679	111.25
296.909	120.25
297.14	105.25
297.37	95.25
297.601	104.25
297.831	89.25
298.062	116.25
298.292	100.25
298.523	108.25
298.753	113.25
298.984	121.25
299.214	97.25
299.445	108.25
299.675	106.25
299.905	108.25
300.136	102.25
300.366	121.25
300.597	116.25
300.827	118.25
301.057	113.25
301.288	116.25
301.518	115.25
301.748	108.25
301.979	113.25
302.209	104.25
302.439	101.25
302.669	106.25
302.9	101.25
303.13	110.25
303.36	103.25
303.59	112.25
303.82	100.25
304.051	92.25
304.281	109.25
304.511	105.25
304.741	97.25
304.971	108.25
305.201	105.25
305.431	101.25
305.661	116.25
305.891	118.25
306.121	107.25
306.352	96.25
306.582	101.25
306.812	107.25
307.042	106.25
307.272	101.25
307.502	109.25
307.731	110.25
307.961	120.25
308.191	94.25
308.421	108.25
308.651	109.25
308.881	114.25
309.111	121.25
309.341	112.25
309.571	112.25
309.8	130.25
310.03	108.25
310.26	109.25
310.49	115.25
310.72	109.25
310.949	114.25
311.179	107.25
311.409	110.25
311.639	108.25
311.868	98.25
312.098	120.25
312.328	117.25
312.557	108.25
312.787	110.25
313.017	119.25
313.246	108.25
313.476	103.25
313.706	97.25
313.935	99.25
314.165	115.25
314.394	126.25
314.624	99.25
314.853	98.25
315.083	82.25
315.312	104.25
315.542	112.25
315.771	119.25
316.001	119.25
316.23	109.25
316.46	103.25
316.689	102.25
316.919	116.25
317.148	105.25
317.377	108.25
317.607	106.25
317.836	119.25
318.065	116.25
318.295	110.25
318.524	109.25
318.753	111.25
318.983	117.25
319.212	104.25
319.441	92.25
319.67	106.25
319.9	109.25
320.129	104.25
320.358	118.25
320.587	118.25
320.816	105.25
321.046	104.25
321.275	111.25
321.504	109.25
321.733	108.25
321.962	120.25
322.191	117.25
322.42	113.25
322.649	122.25
322.878	110.25
323.108	103.25
323.337	114.25
323.566	102.25
323.795	116.25
324.024	125.25
324.253	127.25
324.482	126.25
324.71	138.25
324.939	160.25
325.168	154.25
325.397	120.25
325.626	107.25
325.855	121.25
326.084	121.25
326.313	112.25
326.542	110.25
326.77	125.25
326.999	119.25
327.228	122.25
327.457	136.25
327.686	156.25
327.914	120.25
328.143	122.25
328.372	127.25
328.6	123.25
328.829	103.25
329.058	119.25
329.287	106.25
329.515	121.25
329.744	111.25
329.972	127.25
330.201	125.25
330.43	129.25
330.658	121.25
330.887	111.25
331.115	118.25
331.344	106.25
331.572	121.25
331.801	109.25
332.03	126.25
332.258	116.25
332.486	109.25
332.715	132.25
332.943	117.25
333.172	122.25
333.4	107.25
333.629	134.25
333.857	122.25
334.085	127.25
334.314	119.25
334.542	121.25
334.771	121.25
334.999	111.25
335.227	121.25
335.455	107.25
335.684	130.25
335.912	124.25
336.14	120.25
336.369	124.25
336.597	118.25
336.825	100.25
337.053	116.25
337.281	123.25
337.51	130.25
337.738	129.25
337.966	121.25
338.194	107.25
338.422	100.25
338.65	112.25
338.878	105.25
339.106	116.25
339.334	109.25
339.562	109.25
339.79	117.25
340.018	111.25
340.246	120.25
340.474	112.25
340.702	99.25
340.93	124.25
341.158	119.25
341.386	107.25
341.614	125.25
341.842	109.25
342.07	116.25
342.298	117.25
342.526	117.25
342.754	124.25
342.981	106.25
343.209	124.25
343.437	117.25
343.665	120.25
343.893	125.25
344.12	125.25
344.348	128.25
344.576	124.25
344.804	98.25
345.031	119.25
345.259	111.25
345.487	105.25
345.714	97.25
345.942	128.25
346.17	128.25
346.397	111.25
346.625	113.25
346.853	115.25
347.08	116.25
347.308	109.25
347.535	116.25
347.763	112.25
347.99	120.25
348.218	109.25
348.445	106.25
348.673	132.25
348.9	126.25
349.128	122.25
349.355	98.25
349.583	106.25
349.81	120.25
350.037	116.25
350.265	116.25
350.492	110.25
350.72	111.25
350.947	111.25
351.174	121.25
351.402	112.25
351.629	120.25
351.856	110.25
352.083	117.25
352.311	125.25
352.538	121.25
352.765	114.25
352.992	105.25
353.22	113.25
353.447	103.25
353.674	114.25
353.901	121.25
354.128	121.25
354.355	105.25
354.583	116.25
354.81	124.25
355.037	121.25
355.264	122.25
355.491	111.25
355.718	105.25
355.945	112.25
356.172	120.25
356.399	111.25
356.626	99.25
356.853	104.25
357.08	113.25
357.307	110.25
357.534	117.25
357.761	103.25
357.988	110.25
358.215	125.25
358.441	108.25
358.668	118.25
358.895	107.25
359.122	122.25
359.349	105.25
359.576	106.25
359.802	116.25
360.029	119.25
360.256	127.25
360.483	114.25
360.709	110.25
360.936	113.25
361.163	122.25
361.39	101.25
361.616	118.25
361.843	111.25
362.07	118.25
362.296	107.25
362.523	129.25
362.749	111.25
362.976	98.25
363.203	108.25
363.429	112.25
363.656	94.25
363.882	111.25
364.109	127.25
364.335	97.25
364.562	122.25
364.788	108.25
365.015	116.25
365.241	98.25
365.468	111.25
365.694	113.25
365.92	108.25
366.147	104.25
366.373	117.25
366.599	116.25
366.826	118.25
367.052	112.25
367.278	104.25
367.505	126.25
367.731	118.25
367.957	113.25
368.184	108.25
368.41	116.25
368.636	114.25
368.862	116.25
369.089	92.25
369.315	105.25
369.541	105.25
369.767	121.25
369.993	113.25
370.219	134.25
370.445	112.25
370.672	106.25
370.898	121.25
371.124	109.25
371.35	102.25
371.576	118.25
371.802	112.25
372.028	120.25
372.254	124.25
372.48	117.25
372.706	134.25
372.932	108.25
373.158	123.25
373.384	119.25
373.61	127.25
373.835	107.25
374.061	123.25
374.287	122.25
374.513	112.25
374.739	120.25
374.965	104.25
375.191	102.25
375.416	130.25
375.642	113.25
375.868	121.25
376.094	121.25
376.319	106.25
376.545	111.25
376.771	120.25
376.997	123.25
377.222	120.25
377.448	137.25
377.674	108.25
377.899	123.25
378.125	119.25
378.35	114.25
378.576	98.25
378.802	112.25
379.027	118.25
379.253	116.25
379.478	101.25
379.704	126.25
379.929	113.25
380.155	125.25
380.38	122.25
380.606	127.25
380.831	128.25
381.057	131.25
381.282	106.25
381.507	130.25
381.733	129.25
381.958	130.25
382.184	122.25
382.409	136.25
382.634	137.25
382.86	124.25
383.085	125.25
383.31	117.25
383.535	97.25
383.761	125.25
383.986	110.25
384.211	114.25
384.436	112.25
384.662	143.25
384.887	118.25
385.112	113.25
385.337	121.25
385.562	112.25
385.787	125.25
386.013	124.25
386.238	124.25
386.463	104.25
386.688	110.25
386.913	134.25
387.138	130.25
387.363	133.25
387.588	125.25
387.813	125.25
388.038	114.25
388.263	111.25
388.488	123.25
388.713	128.25
388.938	132.25
389.163	108.25
389.387	116.25
389.612	119.25
389.837	128.25
390.062	122.25
390.287	136.25
390.512	127.25
390.736	121.25
390.961	124.25
391.186	131.25
391.411	122.25
391.636	126.25
391.86	111.25
392.085	122.25
392.31	124.25
392.534	134.25
392.759	141.25
392.984	127.25
393.208	123.25
393.433	137.25
393.658	123.25
393.882	123.25
394.107	119.25
394.331	126.25
394.556	116.25
394.78	125.25
395.005	118.25
395.229	103.25
395.454	116.25
395.678	117.25
395.903	124.25
396.127	131.25
396.352	121.25
396.576	111.25
396.801	129.25
397.025	100.25
397.249	136.25
397.474	118.25
397.698	126.25
397.922	127.25
398.147	123.25
398.371	121.25
398.595	123.25
398.82	123.25
399.044	128.25
399.268	134.25
399.492	155.25
399.717	148.25
399.941	137.25
400.165	153.25
400.389	143.25
400.613	134.25
400.837	142.25
401.062	137.25
401.286	124.25
401.51	145.25
401.734	136.25
401.958	132.25
402.182	123.25
402.406	142.25
402.63	138.25
402.854	124.25
403.078	133.25
403.302	130.25
403.526	120.25
403.75	138.25
403.974	140.25
404.198	126.25
404.422	137.25
404.645	140.25
404.869	132.25
405.093	136.25
405.317	137.25
405.541	146.25
405.765	155.25
405.988	140.25
406.212	123.25
406.436	132.25
406.66	136.25
406.883	153.25
407.107	146.25
407.331	150.25
407.555	156.25
407.778	136.25
408.002	144.25
408.226	144.25
408.449	138.25
408.673	141.25
408.896	122.25
409.12	155.25
409.344	141.25
409.567	136.25
409.791	130.25
410.014	149.25
410.238	143.25
410.461	137.25
410.685	129.25
410.908	148.25
411.132	138.25
411.355	152.25
411.578	143.25
411.802	135.25
412.025	134.25
412.249	157.25
412.472	130.25
412.695	146.25
412.919	130.25
413.142	144.25
413.365	140.25
413.589	133.25
413.812	129.25
414.035	131.25
414.258	124.25
414.482	137.25
414.705	130.25
414.928	137.25
415.151	136.25
415.374	140.25
415.597	147.25
415.821	141.25
416.044	137.25
416.267	130.25
416.49	126.25
416.713	129.25
416.936	140.25
417.159	131.25
417.382	130.25
417.605	113.25
417.828	116.25
418.051	139.25
418.274	135.25
418.497	132.25
418.72	132.25
418.943	123.25
419.166	129.25
419.389	136.25
419.611	141.25
419.834	130.25
420.057	125.25
420.28	134.25
420.503	131.25
420.726	131.25
420.948	129.25
421.171	134.25
421.394	136.25
421.617	144.25
421.839	134.25
422.062	127.25
422.285	144.25
422.507	145.25
422.73	135.25
422.953	132.25
423.175	135.25
423.398	131.25
423.621	133.25
423.843	137.25
424.066	135.25
424.288	133.25
424.511	134.25
424.733	125.25
424.956	136.25
425.178	142.25
425.401	135.25
425.623	143.25
425.846	130.25
426.068	137.25
426.291	150.25
426.513	132.25
426.735	141.25
426.958	134.25
427.18	136.25
427.402	148.25
427.625	153.25
427.847	139.25
428.069	135.25
428.292	126.25
428.514	122.25
428.736	130.25
428.958	131.25
429.181	113.25
429.403	156.25
429.625	117.25
429.847	122.25
430.069	121.25
430.292	122.25
430.514	134.25
430.736	124.25
430.958	118.25
431.18	124.25
431.402	126.25
431.624	109.25
431.846	121.25
432.068	132.25
432.29	128.25
432.512	132.25
432.734	121.25
432.956	124.25
433.178	116.25
433.4	123.25
433.622	141.25
433.844	137.25
434.066	108.25
434.287	118.25
434.509	120.25
434.731	137.25
434.953	146.25
435.175	133.25
435.397	135.25
435.618	143.25
435.84	143.25
436.062	131.25
436.284	123.25
436.505	129.25
436.727	125.25
436.949	129.25
437.17	134.25
437.392	121.25
437.614	130.25
437.835	139.25
438.057	127.25
438.278	122.25
438.5	142.25
438.721	134.25
438.943	135.25
439.165	140.25
439.386	134.25
439.608	131.25
439.829	135.25
440.05	139.25
440.272	151.25
440.493	125.25
440.715	123.25
440.936	132.25
441.158	130.25
441.379	124.25
441.6	143.25
441.822	138.25
442.043	149.25
442.264	154.25
442.486	129.25
442.707	127.25
442.928	131.25
443.149	144.25
443.371	138.25
443.592	133.25
443.813	139.25
444.034	142.25
444.255	143.25
444.476	150.25
444.698	134.25
444.919	126.25
445.14	261.25
445.361	197.25
445.582	141.25
445.803	150.25
446.024	139.25
446.245	125.25
446.466	145.25
446.687	136.25
446.908	127.25
447.129	127.25
447.35	140.25
447.571	128.25
447.792	109.25
448.013	132.25
448.234	121.25
448.455	130.25
448.675	145.25
448.896	142.25
449.117	139.25
449.338	130.25
449.559	142.25
449.779	138.25
450	124.25
450.221	141.25
450.442	128.25
450.662	114.25
450.883	108.25
451.104	114.25
451.324	127.25
451.545	124.25
451.766	132.25
451.986	111.25
452.207	139.25
452.428	129.25
452.648	132.25
452.869	120.25
453.089	128.25
453.31	111.25
453.53	128.25
453.751	119.25
453.971	121.25
454.192	96.25
454.412	112.25
454.633	117.25
454.853	130.25
455.073	122.25
455.294	134.25
455.514	134.25
455.734	121.25
455.955	130.25
456.175	124.25
456.395	119.25
456.616	113.25
456.836	137.25
457.056	113.25
457.276	110.25
457.497	118.25
457.717	114.25
457.937	134.25
458.157	132.25
458.377	127.25
458.598	114.25
458.818	120.25
459.038	124.25
459.258	135.25
459.478	128.25
459.698	135.25
459.918	123.25
460.138	126.25
460.358	125.25
460.578	143.25
460.798	112.25
461.018	144.25
461.238	140.25
461.458	135.25
461.678	136.25
461.898	127.25
462.118	136.25
462.338	141.25
462.558	144.25
462.777	144.25
462.997	142.25
463.217	145.25
463.437	158.25
463.657	143.25
463.876	148.25
464.096	140.25
464.316	148.25
464.536	120.25
464.755	136.25
464.975	138.25
465.195	125.25
465.414	134.25
465.634	132.25
465.854	131.25
466.073	126.25
466.293	129.25
466.512	132.25
466.732	122.25
466.951	126.25
467.171	129.25
467.391	121.25
467.61	118.25
467.829	138.25
468.049	128.25
468.268	132.25
468.488	132.25
468.707	122.25
468.927	128.25
469.146	114.25
469.365	139.25
469.585	125.25
469.804	138.25
470.023	134.25
470.243	126.25
470.462	144.25
470.681	118.25
470.901	125.25
471.12	126.25
471.339	150.25
471.558	126.25
471.777	128.25
471.997	123.25
472.216	126.25
472.435	122.25
472.654	132.25
472.873	140.25
473.092	117.25
473.311	116.25
473.53	119.25
473.749	136.25
473.968	140.25
474.187	132.25
474.406	123.25
474.625	126.25
474.844	125.25
475.063	129.25
475.282	125.25
475.501	117.25
475.72	125.25
475.939	106.25
476.158	144.25
476.377	127.25
476.596	137.25
476.814	140.25
477.033	114.25
477.252	137.25
477.471	127.25
477.69	137.25
477.908	130.25
478.127	136.25
478.346	130.25
478.564	134.25
478.783	120.25
479.002	145.25
479.22	130.25
479.439	139.25
479.658	136.25
479.876	127.25
480.095	126.25
480.313	137.25
480.532	145.25
480.751	141.25
480.969	133.25
481.188	137.25
481.406	152.25
481.624	138.25
481.843	126.25
482.061	130.25
482.28	135.25
482.498	124.25
482.717	129.25
482.935	133.25
483.153	130.25
483.372	133.25
483.59	126.25
483.808	150.25
484.027	142.25
484.245	158.25
484.463	132.25
484.681	138.25
484.9	124.25
485.118	138.25
485.336	136.25
485.554	137.25
485.772	136.25
485.99	145.25
486.209	132.25
486.427	128.25
486.645	140.25
486.863	144.25
487.081	142.25
487.299	143.25
487.517	145.25
487.735	139.25
487.953	143.25
488.171	138.25
488.389	146.25
488.607	139.25
488.825	142.25
489.043	133.25
489.261	129.25
489.479	127.25
489.696	151.25
489.914	142.25
490.132	145.25
490.35	149.25
490.568	153.25
490.786	135.25
491.003	137.25
491.221	143.25
491.439	141.25
491.657	146.25
491.874	152.25
492.092	158.25
492.31	145.25
492.527	147.25
492.745	158.25
492.963	135.25
493.18	150.25
493.398	142.25
493.615	142.25
493.833	148.25
494.05	148.25
494.268	141.25
494.485	143.25
494.703	152.25
494.92	152.25
495.138	134.25
495.355	142.25
495.573	162.25
495.79	130.25
496.008	138.25
496.225	159.25
496.442	153.25
496.66	160.25
496.877	139.25
497.094	150.25
497.312	150.25
497.529	142.25
497.746	150.25
497.963	151.25
498.181	141.25
498.398	141.25
498.615	157.25
498.832	159.25
499.049	170.25
499.267	161.25
499.484	199.25
499.701	186.25
499.918	195.25
500.135	201.25
500.352	237.25
500.569	223.25
500.786	226.25
501.003	219.25
501.22	202.25
501.437	200.25
501.654	176.25
501.871	183.25
502.088	169.25
502.305	164.25
502.522	165.25
502.739	156.25
502.956	153.25
503.172	149.25
503.389	141.25
503.606	139.25
503.823	154.25
504.04	139.25
504.256	160.25
504.473	160.25
504.69	157.25
504.907	155.25
505.123	151.25
505.34	155.25
505.557	162.25
505.773	153.25
505.99	136.25
506.207	146.25
506.423	138.25
506.64	145.25
506.856	129.25
507.073	141.25
507.289	145.25
507.506	140.25
507.722	138.25
507.939	126.25
508.155	152.25
508.372	132.25
508.588	127.25
508.805	124.25
509.021	125.25
509.238	132.25
509.454	128.25
509.67	132.25
509.887	136.25
510.103	142.25
510.319	119.25
510.536	137.25
510.752	156.25
510.968	139.25
511.184	131.25
511.401	136.25
511.617	129.25
511.833	145.25
512.049	121.25
512.265	126.25
512.481	133.25
512.698	135.25
512.914	131.25
513.13	122.25
513.346	122.25
513.562	123.25
513.778	121.25
513.994	137.25
514.21	136.25
514.426	129.25
514.642	132.25
514.858	133.25
515.074	135.25
515.29	142.25
515.506	143.25
515.721	127.25
515.937	140.25
516.153	121.25
516.369	136.25
516.585	132.25
516.801	137.25
517.016	133.25
517.232	129.25
517.448	146.25
517.664	156.25
517.879	142.25
518.095	140.25
518.311	144.25
518.527	139.25
518.742	139.25
518.958	127.25
519.173	125.25
519.389	140.25
519.605	121.25
519.82	122.25
520.036	140.25
520.251	138.25
520.467	136.25
520.682	130.25
520.898	132.25
521.113	112.25
521.329	124.25
521.544	134.25
521.76	134.25
521.975	148.25
522.19	151.25
522.406	136.25
522.621	128.25
522.836	126.25
523.052	127.25
523.267	113.25
523.482	127.25
523.698	127.25
523.913	137.25
524.128	129.25
524.343	123.25
524.559	122.25
524.774	124.25
524.989	130.25
525.204	133.25
525.419	126.25
525.634	139.25
525.849	127.25
526.064	130.25
526.28	132.25
526.495	129.25
526.71	127.25
526.925	104.25
527.14	117.25
527.355	105.25
527.57	124.25
527.785	122.25
527.999	135.25
528.214	121.25
528.429	128.25
528.644	131.25
528.859	134.25
529.074	135.25
529.289	128.25
529.503	126.25
529.718	132.25
529.933	125.25
530.148	134.25
530.363	142.25
530.577	129.25
530.792	128.25
531.007	126.25
531.221	127.25
531.436	124.25
531.651	134.25
531.865	106.25
532.08	124.25
532.295	130.25
532.509	133.25
532.724	119.25
532.938	120.25
533.153	120.25
533.367	135.25
533.582	125.25
533.796	140.25
534.011	131.25
534.225	105.25
534.44	124.25
534.654	124.25
534.868	117.25
535.083	113.25
535.297	131.25
535.511	136.25
535.726	135.25
535.94	133.25
536.154	130.25
536.369	127.25
536.583	122.25
536.797	127.25
537.011	127.25
537.225	128.25
537.44	128.25
537.654	146.25
537.868	120.25
538.082	114.25
538.296	120.25
538.51	120.25
538.724	120.25
538.938	129.25
539.153	127.25
539.367	122.25
539.581	130.25
539.795	122.25
540.009	128.25
540.222	128.25
540.436	121.25
540.65	123.25
540.864	125.25
541.078	128.25
541.292	128.25
541.506	131.25
541.72	148.25
541.934	142.25
542.147	125.25
542.361	136.25
542.575	122.25
542.789	125.25
543.002	126.25
543.216	128.25
543.43	120.25
543.644	137.25
543.857	136.25
544.071	140.25
544.285	139.25
544.498	137.25
544.712	140.25
544.925	132.25
545.139	125.25
545.352	143.25
545.566	133.25
545.779	126.25
545.993	135.25
546.206	147.25
546.42	157.25
546.633	125.25
546.847	129.25
547.06	126.25
547.274	134.25
547.487	130.25
547.7	121.25
547.914	126.25
548.127	130.25
548.34	119.25
548.554	129.25
548.767	138.25
548.98	149.25
549.193	142.25
549.407	140.25
549.62	137.25
549.833	129.25
550.046	133.25
550.259	133.25
550.473	142.25
550.686	127.25
550.899	132.25
551.112	142.25
551.325	125.25
551.538	121.25
551.751	128.25
551.964	126.25
552.177	128.25
552.39	125.25
552.603	132.25
552.816	132.25
553.029	124.25
553.242	142.25
553.455	123.25
553.667	142.25
553.88	141.25
554.093	137.25
554.306	118.25
554.519	133.25
554.732	119.25
554.944	116.25
555.157	122.25
555.37	121.25
555.583	117.25
555.795	136.25
556.008	136.25
556.221	133.25
556.433	111.25
556.646	114.25
556.859	122.25
557.071	121.25
557.284	100.25
557.496	122.25
557.709	119.25
557.921	120.25
558.134	118.25
558.346	126.25
558.559	125.25
558.771	109.25
558.984	124.25
559.196	121.25
559.409	122.25
559.621	129.25
559.833	131.25
560.046	135.25
560.258	125.25
560.47	123.25
560.683	109.25
560.895	113.25
561.107	118.25
561.32	104.25
561.532	112.25
561.744	118.25
561.956	118.25
562.168	120.25
562.381	133.25
562.593	106.25
562.805	123.25
563.017	116.25
563.229	123.25
563.441	127.25
563.653	118.25
563.865	107.25
564.077	122.25
564.289	109.25
564.501	119.25
564.713	128.25
564.925	119.25
565.137	135.25
565.349	125.25
565.561	131.25
565.773	129.25
565.985	142.25
566.197	133.25
566.408	136.25
566.62	145.25
566.832	148.25
567.044	152.25
567.255	145.25
567.467	144.25
567.679	138.25
567.891	143.25
568.102	144.25
568.314	140.25
568.526	139.25
568.737	148.25
568.949	139.25
569.161	130.25
569.372	133.25
569.584	126.25
569.795	121.25
570.007	116.25
570.218	133.25
570.43	128.25
570.641	111.25
570.853	109.25
571.064	111.25
571.276	125.25
571.487	130.25
571.698	117.25
571.91	124.25
572.121	121.25
572.333	120.25
572.544	117.25
572.755	106.25
572.966	124.25
573.178	122.25
573.389	111.25
573.6	105.25
573.811	105.25
574.023	102.25
574.234	116.25
574.445	116.25
574.656	112.25
574.867	111.25
575.078	113.25
575.289	114.25
575.501	126.25
575.712	113.25
575.923	104.25
576.134	109.25
576.345	113.25
576.556	112.25
576.767	108.25
576.978	116.25
577.188	127.25
577.399	106.25
577.61	106.25
577.821	117.25
578.032	124.25
578.243	108.25
578.454	114.25
578.665	115.25
578.875	108.25
579.086	101.25
579.297	111.25
579.508	102.25
579.718	113.25
579.929	110.25
580.14	116.25
580.35	102.25
580.561	111.25
580.772	126.25
580.982	108.25
581.193	111.25
581.403	109.25
581.614	114.25
581.825	114.25
582.035	111.25
582.246	124.25
582.456	120.25
582.667	112.25
582.877	113.25
583.087	100.25
583.298	92.25
583.508	99.25
583.719	118.25
583.929	118.25
584.139	104.25
584.35	109.25
584.56	118.25
584.77	114.25
584.981	111.25
585.191	107.25
585.401	108.25
585.611	111.25
585.821	106.25
586.032	106.25
586.242	101.25
586.452	118.25
586.662	100.25
586.872	98.25
587.082	113.25
587.292	110.25
587.502	111.25
587.713	111.25
587.923	108.25
588.133	118.25
588.343	110.25
588.553	109.25
588.762	126.25
588.972	121.25
589.182	95.25
589.392	98.25
589.602	103.25
589.812	121.25
590.022	117.25
590.232	104.25
590.441	97.25
590.651	98.25
590.861	112.25
591.071	100.25
591.281	108.25
591.49	107.25
591.7	112.25
591.91	127.25
592.119	99.25
592.329	109.25
592.539	112.25
592.748	119.25
592.958	119.25
593.167	117.25
593.377	113.25
593.587	128.25
593.796	109.25
594.006	110.25
594.215	116.25
594.424	113.25
594.634	122.25
594.843	116.25
595.053	101.25
595.262	105.25
595.472	119.25
595.681	112.25
595.89	110.25
596.1	111.25
596.309	111.25
596.518	118.25
596.727	98.25
596.937	103.25
597.146	102.25
597.355	109.25
597.564	109.25
597.774	113.25
597.983	105.25
598.192	117.25
598.401	116.25
598.61	119.25
598.819	120.25
599.028	117.25
599.237	113.25
599.446	117.25
599.655	114.25
599.864	97.25
600.073	102.25
600.282	119.25
600.491	106.25
600.7	104.25
600.909	106.25
601.118	97.25
601.327	115.25
601.536	109.25
601.745	96.25
601.953	116.25
602.162	99.25
602.371	114.25
602.58	112.25
602.789	104.25
602.997	120.25
603.206	106.25
603.415	102.25
603.623	113.25
603.832	93.25
604.041	114.25
604.249	105.25
604.458	97.25
604.666	92.25
604.875	104.25
605.084	120.25
605.292	102.25
605.501	98.25
605.709	97.25
605.918	117.25
606.126	105.25
606.334	100.25
606.543	107.25
606.751	100.25
606.96	109.25
607.168	92.25
607.376	104.25
607.585	118.25
607.793	109.25
608.001	116.25
608.21	102.25
608.418	104.25
608.626	102.25
608.834	108.25
609.043	110.25
609.251	113.25
609.459	97.25
609.667	115.25
609.875	111.25
610.083	118.25
610.291	115.25
610.499	117.25
610.707	100.25
610.916	118.25
611.124	114.25
611.332	107.25
611.54	128.25
611.748	118.25
611.955	104.25
612.163	108.25
612.371	120.25
612.579	110.25
612.787	116.25
612.995	113.25
613.203	93.25
613.411	127.25
613.618	104.25
613.826	108.25
614.034	129.25
614.242	110.25
614.449	98.25
614.657	112.25
614.865	113.25
615.072	99.25
615.28	113.25
615.488	82.25
615.695	111.25
615.903	104.25
616.111	110.25
616.318	106.25
616.526	90.25
616.733	114.25
616.941	118.25
617.148	111.25
617.356	107.25
617.563	109.25
617.771	113.25
617.978	114.25
618.185	113.25
618.393	104.25
618.6	98.25
618.807	101.25
619.015	104.25
619.222	106.25
619.429	118.25
619.637	97.25
619.844	100.25
620.051	111.25
620.258	106.25
620.466	104.25
620.673	103.25
620.88	79.25
621.087	105.25
621.294	90.25
621.501	105.25
621.708	88.25
621.915	104.25
622.122	98.25
622.329	105.25
622.536	95.25
622.743	91.25
622.95	94.25
623.157	92.25
623.364	97.25
623.571	111.25
623.778	91.25
623.985	110.25
624.192	107.25
624.399	99.25
624.606	97.25
624.812	98.25
625.019	101.25
625.226	94.25
625.433	103.25
625.639	100.25
625.846	107.25
626.053	87.25
626.259	101.25
626.466	86.25
626.673	104.25
626.879	90.25
627.086	103.25
627.293	102.25
627.499	97.25
627.706	95.25
627.912	98.25
628.119	107.25
628.325	96.25
628.532	98.25
628.738	97.25
628.945	93.25
629.151	100.25
629.357	109.25
629.564	118.25
629.77	110.25
629.976	115.25
630.183	98.25
630.389	101.25
630.595	84.25
630.802	103.25
631.008	91.25
631.214	99.25
631.42	99.25
631.627	92.25
631.833	89.25
632.039	98.25
632.245	101.25
632.451	96.25
632.657	97.25
632.863	118.25
633.069	101.25
633.275	90.25
633.481	108.25
633.688	111.25
633.893	89.25
634.099	96.25
634.305	105.25
634.511	91.25
634.717	126.25
634.923	93.25
635.129	94.25
635.335	101.25
635.541	94.25
635.747	92.25
635.952	104.25
636.158	87.25
636.364	95.25
636.57	85.25
636.775	83.25
636.981	89.25
637.187	98.25
637.392	81.25
637.598	97.25
637.804	107.25
638.009	104.25
638.215	119.25
638.421	97.25
638.626	96.25
638.832	77.25
639.037	92.25
639.243	99.25
639.448	97.25
639.654	104.25
639.859	105.25
640.065	115.25
640.27	108.25
640.475	95.25
640.681	106.25
640.886	109.25
641.091	93.25
641.297	104.25
641.502	90.25
641.707	100.25
641.913	101.25
642.118	102.25
642.323	97.25
642.528	100.25
642.733	107.25
642.939	94.25
643.144	92.25
643.349	106.25
643.554	96.25
643.759	91.25
643.964	83.25
644.169	93.25
644.374	93.25
644.579	86.25
644.784	95.25
644.989	84.25
645.194	96.25
645.399	102.25
645.604	100.25
645.809	96.25
646.014	101.25
646.219	90.25
646.423	95.25
646.628	92.25
646.833	109.25
647.038	93.25
647.243	86.25
647.447	89.25
647.652	93.25
647.857	90.25
648.062	99.25
648.266	89.25
648.471	117.25
648.676	99.25
648.88	106.25
649.085	102.25
649.289	106.25
649.494	109.25
649.698	93.25
649.903	94.25
650.107	97.25
650.312	102.25
650.516	96.25
650.721	81.25
650.925	86.25
651.13	89.25
651.334	86.25
651.539	109.25
651.743	89.25
651.947	90.25
652.152	94.25
652.356	97.25
652.56	100.25
652.764	84.25
652.969	87.25
653.173	94.25
653.377	88.25
653.581	84.25
653.785	86.25
653.99	92.25
654.194	101.25
654.398	99.25
654.602	92.25
654.806	95.25
655.01	94.25
655.214	102.25
655.418	103.25
655.622	93.25
655.826	93.25
656.03	97.25
656.234	95.25
656.438	102.25
656.642	89.25
656.846	88.25
657.049	111.25
657.253	85.25
657.457	92.25
657.661	100.25
657.865	101.25
658.068	87.25
658.272	82.25
658.476	84.25
658.68	93.25
658.883	86.25
659.087	96.25
659.291	83.25
659.494	88.25
659.698	84.25
659.901	89.25
660.105	92.25
660.309	90.25
660.512	95.25
660.716	70.25
660.919	93.25
661.123	103.25
661.326	91.25
661.53	77.25
661.733	110.25
661.936	72.25
662.14	90.25
662.343	78.25
662.546	98.25
662.75	88.25
662.953	101.25
663.156	82.25
663.36	88.25
663.563	98.25
663.766	87.25
663.969	94.25
664.173	80.25
664.376	81.25
664.579	87.25
664.782	91.25
664.985	96.25
665.188	94.25
665.391	78.25
665.594	81.25
665.797	93.25
666	88.25
666.203	80.25
666.406	81.25
666.609	93.25
666.812	89.25
667.015	91.25
667.218	91.25
667.421	81.25
667.624	80.25
667.827	82.25
668.03	78.25
668.232	97.25
668.435	90.25
668.638	76.25
668.841	81.25
669.043	84.25
669.246	101.25
669.449	74.25
669.651	91.25
669.854	83.25
670.057	91.25
670.259	84.25
670.462	91.25
670.665	84.25
670.867	88.25
671.07	96.25
671.272	97.25
671.475	98.25
671.677	91.25
671.88	79.25
672.082	88.25
672.284	73.25
672.487	82.25
672.689	91.25
672.892	92.25
