Data from 1968.PennyLincolnUp.Lamp.En5.5.200Scan.071719.P1._HRD10591_14-50-48-969.txt Node
Date: Thu Jul 18 14:50:48 EDT 2019
User: cochatt
Spectrometer: HR+D1059
Trigger mode: 1
Integration Time (sec): 1.000000E-1
Scans to average: 1
Electric dark correction enabled: true
Nonlinearity correction enabled: false
Boxcar width: 0
XAxis mode: Wavelengths
Number of Pixels in Spectrum: 2048
>>>>>Begin Spectral Data<<<<<
223.165	-15.12
223.4	-15.12
223.635	-15.12
223.869	-15.12
224.104	-17.12
224.338	-5.12
224.573	-14.12
224.808	-12.12
225.042	-3.12
225.277	3.88
225.511	-11.12
225.746	7.88
225.98	-5.12
226.215	-3.12
226.449	16.88
226.683	15.88
226.918	30.88
227.152	25.88
227.387	33.88
227.621	41.88
227.856	34.88
228.09	46.88
228.324	53.88
228.559	55.88
228.793	58.88
229.027	65.88
229.262	61.88
229.496	66.88
229.73	73.88
229.964	86.88
230.199	84.88
230.433	76.88
230.667	72.88
230.901	83.88
231.136	94.88
231.37	75.88
231.604	82.88
231.838	90.88
232.072	78.88
232.306	91.88
232.541	84.88
232.775	91.88
233.009	93.88
233.243	77.88
233.477	82.88
233.711	92.88
233.945	85.88
234.179	79.88
234.413	86.88
234.647	72.88
234.881	80.88
235.115	97.88
235.349	90.88
235.583	95.88
235.817	83.88
236.051	79.88
236.285	70.88
236.519	89.88
236.753	99.88
236.987	88.88
237.221	83.88
237.455	90.88
237.689	75.88
237.922	89.88
238.156	75.88
238.39	87.88
238.624	78.88
238.858	86.88
239.091	96.88
239.325	103.88
239.559	75.88
239.793	70.88
240.027	78.88
240.26	77.88
240.494	79.88
240.728	91.88
240.961	83.88
241.195	83.88
241.429	83.88
241.662	88.88
241.896	80.88
242.13	101.88
242.363	101.88
242.597	87.88
242.83	79.88
243.064	77.88
243.298	82.88
243.531	87.88
243.765	86.88
243.998	68.88
244.232	77.88
244.465	86.88
244.699	86.88
244.932	78.88
245.166	90.88
245.399	78.88
245.633	85.88
245.866	98.88
246.099	82.88
246.333	95.88
246.566	84.88
246.8	75.88
247.033	89.88
247.266	94.88
247.5	90.88
247.733	99.88
247.966	91.88
248.2	93.88
248.433	99.88
248.666	83.88
248.899	90.88
249.133	106.88
249.366	87.88
249.599	80.88
249.832	85.88
250.066	80.88
250.299	103.88
250.532	84.88
250.765	95.88
250.998	78.88
251.231	87.88
251.465	90.88
251.698	91.88
251.931	101.88
252.164	111.88
252.397	95.88
252.63	89.88
252.863	95.88
253.096	91.88
253.329	101.88
253.562	70.88
253.795	95.88
254.028	95.88
254.261	76.88
254.494	97.88
254.727	102.88
254.96	104.88
255.193	101.88
255.426	83.88
255.659	103.88
255.892	99.88
256.124	92.88
256.357	91.88
256.59	98.88
256.823	107.88
257.056	93.88
257.289	101.88
257.521	94.88
257.754	103.88
257.987	99.88
258.22	92.88
258.452	103.88
258.685	84.88
258.918	83.88
259.151	92.88
259.383	84.88
259.616	80.88
259.849	94.88
260.081	95.88
260.314	98.88
260.547	88.88
260.779	96.88
261.012	100.88
261.244	93.88
261.477	89.88
261.71	101.88
261.942	97.88
262.175	100.88
262.407	94.88
262.64	90.88
262.872	104.88
263.105	91.88
263.337	98.88
263.57	104.88
263.802	95.88
264.035	92.88
264.267	85.88
264.499	93.88
264.732	99.88
264.964	95.88
265.197	101.88
265.429	90.88
265.661	93.88
265.894	98.88
266.126	97.88
266.358	97.88
266.591	92.88
266.823	90.88
267.055	84.88
267.287	102.88
267.52	96.88
267.752	87.88
267.984	94.88
268.216	84.88
268.448	103.88
268.681	98.88
268.913	96.88
269.145	110.88
269.377	92.88
269.609	103.88
269.841	90.88
270.073	95.88
270.306	98.88
270.538	110.88
270.77	85.88
271.002	85.88
271.234	103.88
271.466	103.88
271.698	103.88
271.93	88.88
272.162	105.88
272.394	108.88
272.626	99.88
272.858	98.88
273.09	92.88
273.322	106.88
273.553	95.88
273.785	93.88
274.017	94.88
274.249	111.88
274.481	109.88
274.713	84.88
274.945	96.88
275.176	95.88
275.408	108.88
275.64	96.88
275.872	99.88
276.104	90.88
276.335	87.88
276.567	96.88
276.799	102.88
277.031	105.88
277.262	110.88
277.494	99.88
277.726	97.88
277.957	97.88
278.189	84.88
278.421	101.88
278.652	89.88
278.884	95.88
279.115	109.88
279.347	107.88
279.579	94.88
279.81	97.88
280.042	93.88
280.273	99.88
280.505	87.88
280.736	101.88
280.968	111.88
281.199	121.88
281.431	101.88
281.662	100.88
281.894	95.88
282.125	87.88
282.356	98.88
282.588	107.88
282.819	92.88
283.051	98.88
283.282	110.88
283.513	108.88
283.745	102.88
283.976	108.88
284.207	93.88
284.439	117.88
284.67	103.88
284.901	95.88
285.132	102.88
285.364	92.88
285.595	98.88
285.826	101.88
286.057	109.88
286.288	108.88
286.52	106.88
286.751	86.88
286.982	105.88
287.213	99.88
287.444	110.88
287.675	97.88
287.906	121.88
288.138	103.88
288.369	118.88
288.6	88.88
288.831	90.88
289.062	100.88
289.293	103.88
289.524	105.88
289.755	104.88
289.986	111.88
290.217	123.88
290.448	110.88
290.679	102.88
290.91	105.88
291.141	100.88
291.371	114.88
291.602	108.88
291.833	106.88
292.064	97.88
292.295	109.88
292.526	99.88
292.757	95.88
292.987	107.88
293.218	105.88
293.449	107.88
293.68	106.88
293.91	89.88
294.141	96.88
294.372	107.88
294.603	112.88
294.833	104.88
295.064	101.88
295.295	101.88
295.525	104.88
295.756	127.88
295.987	90.88
296.217	103.88
296.448	110.88
296.679	120.88
296.909	88.88
297.14	117.88
297.37	100.88
297.601	106.88
297.831	112.88
298.062	108.88
298.292	104.88
298.523	104.88
298.753	92.88
298.984	96.88
299.214	104.88
299.445	112.88
299.675	99.88
299.905	106.88
300.136	102.88
300.366	97.88
300.597	99.88
300.827	104.88
301.057	111.88
301.288	120.88
301.518	110.88
301.748	96.88
301.979	97.88
302.209	95.88
302.439	105.88
302.669	91.88
302.9	94.88
303.13	103.88
303.36	108.88
303.59	96.88
303.82	108.88
304.051	106.88
304.281	115.88
304.511	104.88
304.741	114.88
304.971	105.88
305.201	107.88
305.431	96.88
305.661	114.88
305.891	109.88
306.121	108.88
306.352	119.88
306.582	110.88
306.812	106.88
307.042	118.88
307.272	108.88
307.502	110.88
307.731	111.88
307.961	98.88
308.191	100.88
308.421	105.88
308.651	105.88
308.881	109.88
309.111	110.88
309.341	95.88
309.571	107.88
309.8	113.88
310.03	99.88
310.26	96.88
310.49	100.88
310.72	106.88
310.949	101.88
311.179	115.88
311.409	103.88
311.639	107.88
311.868	105.88
312.098	109.88
312.328	107.88
312.557	109.88
312.787	133.88
313.017	103.88
313.246	117.88
313.476	118.88
313.706	109.88
313.935	109.88
314.165	115.88
314.394	123.88
314.624	119.88
314.853	110.88
315.083	107.88
315.312	98.88
315.542	112.88
315.771	101.88
316.001	104.88
316.23	116.88
316.46	115.88
316.689	111.88
316.919	108.88
317.148	114.88
317.377	116.88
317.607	114.88
317.836	115.88
318.065	111.88
318.295	121.88
318.524	104.88
318.753	110.88
318.983	99.88
319.212	103.88
319.441	110.88
319.67	108.88
319.9	103.88
320.129	123.88
320.358	107.88
320.587	110.88
320.816	123.88
321.046	103.88
321.275	119.88
321.504	105.88
321.733	99.88
321.962	103.88
322.191	114.88
322.42	106.88
322.649	105.88
322.878	99.88
323.108	100.88
323.337	115.88
323.566	121.88
323.795	127.88
324.024	124.88
324.253	128.88
324.482	134.88
324.71	152.88
324.939	189.88
325.168	157.88
325.397	134.88
325.626	124.88
325.855	132.88
326.084	111.88
326.313	107.88
326.542	111.88
326.77	123.88
326.999	126.88
327.228	130.88
327.457	158.88
327.686	152.88
327.914	124.88
328.143	123.88
328.372	136.88
328.6	122.88
328.829	126.88
329.058	124.88
329.287	114.88
329.515	114.88
329.744	108.88
329.972	110.88
330.201	110.88
330.43	118.88
330.658	118.88
330.887	119.88
331.115	114.88
331.344	107.88
331.572	118.88
331.801	116.88
332.03	126.88
332.258	119.88
332.486	121.88
332.715	125.88
332.943	119.88
333.172	115.88
333.4	118.88
333.629	107.88
333.857	120.88
334.085	136.88
334.314	118.88
334.542	107.88
334.771	118.88
334.999	128.88
335.227	114.88
335.455	107.88
335.684	122.88
335.912	126.88
336.14	141.88
336.369	116.88
336.597	134.88
336.825	114.88
337.053	129.88
337.281	113.88
337.51	118.88
337.738	129.88
337.966	133.88
338.194	103.88
338.422	112.88
338.65	108.88
338.878	106.88
339.106	112.88
339.334	118.88
339.562	114.88
339.79	120.88
340.018	113.88
340.246	118.88
340.474	110.88
340.702	103.88
340.93	109.88
341.158	123.88
341.386	111.88
341.614	124.88
341.842	117.88
342.07	115.88
342.298	107.88
342.526	106.88
342.754	115.88
342.981	114.88
343.209	124.88
343.437	114.88
343.665	114.88
343.893	126.88
344.12	112.88
344.348	126.88
344.576	110.88
344.804	122.88
345.031	119.88
345.259	110.88
345.487	114.88
345.714	119.88
345.942	118.88
346.17	116.88
346.397	117.88
346.625	118.88
346.853	111.88
347.08	106.88
347.308	107.88
347.535	117.88
347.763	100.88
347.99	103.88
348.218	115.88
348.445	122.88
348.673	112.88
348.9	118.88
349.128	114.88
349.355	127.88
349.583	108.88
349.81	112.88
350.037	112.88
350.265	117.88
350.492	114.88
350.72	107.88
350.947	113.88
351.174	114.88
351.402	102.88
351.629	118.88
351.856	115.88
352.083	102.88
352.311	104.88
352.538	101.88
352.765	116.88
352.992	103.88
353.22	93.88
353.447	115.88
353.674	109.88
353.901	109.88
354.128	107.88
354.355	110.88
354.583	113.88
354.81	111.88
355.037	110.88
355.264	106.88
355.491	109.88
355.718	99.88
355.945	104.88
356.172	99.88
356.399	108.88
356.626	105.88
356.853	106.88
357.08	109.88
357.307	118.88
357.534	109.88
357.761	108.88
357.988	106.88
358.215	119.88
358.441	126.88
358.668	114.88
358.895	115.88
359.122	124.88
359.349	110.88
359.576	122.88
359.802	116.88
360.029	127.88
360.256	103.88
360.483	103.88
360.709	117.88
360.936	132.88
361.163	118.88
361.39	108.88
361.616	130.88
361.843	115.88
362.07	114.88
362.296	108.88
362.523	108.88
362.749	121.88
362.976	116.88
363.203	99.88
363.429	115.88
363.656	107.88
363.882	124.88
364.109	114.88
364.335	128.88
364.562	105.88
364.788	107.88
365.015	116.88
365.241	111.88
365.468	113.88
365.694	114.88
365.92	116.88
366.147	107.88
366.373	114.88
366.599	102.88
366.826	117.88
367.052	109.88
367.278	103.88
367.505	102.88
367.731	104.88
367.957	119.88
368.184	94.88
368.41	105.88
368.636	108.88
368.862	119.88
369.089	118.88
369.315	117.88
369.541	110.88
369.767	106.88
369.993	130.88
370.219	120.88
370.445	115.88
370.672	125.88
370.898	122.88
371.124	110.88
371.35	114.88
371.576	105.88
371.802	113.88
372.028	100.88
372.254	109.88
372.48	105.88
372.706	121.88
372.932	104.88
373.158	126.88
373.384	127.88
373.61	135.88
373.835	125.88
374.061	109.88
374.287	123.88
374.513	109.88
374.739	117.88
374.965	120.88
375.191	110.88
375.416	126.88
375.642	114.88
375.868	117.88
376.094	103.88
376.319	116.88
376.545	134.88
376.771	126.88
376.997	115.88
377.222	115.88
377.448	99.88
377.674	106.88
377.899	125.88
378.125	126.88
378.35	107.88
378.576	112.88
378.802	111.88
379.027	122.88
379.253	110.88
379.478	110.88
379.704	119.88
379.929	105.88
380.155	105.88
380.38	111.88
380.606	125.88
380.831	107.88
381.057	138.88
381.282	119.88
381.507	110.88
381.733	112.88
381.958	124.88
382.184	118.88
382.409	103.88
382.634	120.88
382.86	114.88
383.085	128.88
383.31	122.88
383.535	115.88
383.761	118.88
383.986	118.88
384.211	120.88
384.436	118.88
384.662	112.88
384.887	109.88
385.112	111.88
385.337	112.88
385.562	127.88
385.787	120.88
386.013	134.88
386.238	108.88
386.463	118.88
386.688	120.88
386.913	126.88
387.138	124.88
387.363	119.88
387.588	119.88
387.813	131.88
388.038	118.88
388.263	114.88
388.488	124.88
388.713	117.88
388.938	122.88
389.163	122.88
389.387	121.88
389.612	133.88
389.837	124.88
390.062	124.88
390.287	115.88
390.512	118.88
390.736	114.88
390.961	128.88
391.186	112.88
391.411	108.88
391.636	113.88
391.86	108.88
392.085	122.88
392.31	128.88
392.534	133.88
392.759	118.88
392.984	93.88
393.208	126.88
393.433	116.88
393.658	122.88
393.882	125.88
394.107	112.88
394.331	128.88
394.556	115.88
394.78	117.88
395.005	125.88
395.229	133.88
395.454	125.88
395.678	126.88
395.903	136.88
396.127	115.88
396.352	132.88
396.576	122.88
396.801	124.88
397.025	119.88
397.249	125.88
397.474	128.88
397.698	139.88
397.922	120.88
398.147	117.88
398.371	130.88
398.595	124.88
398.82	142.88
399.044	122.88
399.268	135.88
399.492	138.88
399.717	148.88
399.941	146.88
400.165	147.88
400.389	129.88
400.613	134.88
400.837	136.88
401.062	133.88
401.286	139.88
401.51	122.88
401.734	130.88
401.958	136.88
402.182	136.88
402.406	133.88
402.63	135.88
402.854	117.88
403.078	115.88
403.302	131.88
403.526	138.88
403.75	129.88
403.974	143.88
404.198	132.88
404.422	131.88
404.645	136.88
404.869	133.88
405.093	145.88
405.317	145.88
405.541	131.88
405.765	140.88
405.988	139.88
406.212	132.88
406.436	142.88
406.66	143.88
406.883	130.88
407.107	141.88
407.331	140.88
407.555	134.88
407.778	156.88
408.002	157.88
408.226	140.88
408.449	132.88
408.673	127.88
408.896	126.88
409.12	136.88
409.344	143.88
409.567	124.88
409.791	138.88
410.014	128.88
410.238	120.88
410.461	151.88
410.685	133.88
410.908	134.88
411.132	132.88
411.355	145.88
411.578	141.88
411.802	123.88
412.025	131.88
412.249	145.88
412.472	128.88
412.695	138.88
412.919	134.88
413.142	137.88
413.365	127.88
413.589	137.88
413.812	132.88
414.035	132.88
414.258	150.88
414.482	129.88
414.705	146.88
414.928	131.88
415.151	154.88
415.374	140.88
415.597	127.88
415.821	142.88
416.044	115.88
416.267	116.88
416.49	127.88
416.713	135.88
416.936	132.88
417.159	127.88
417.382	126.88
417.605	122.88
417.828	121.88
418.051	128.88
418.274	122.88
418.497	131.88
418.72	149.88
418.943	126.88
419.166	129.88
419.389	128.88
419.611	129.88
419.834	127.88
420.057	125.88
420.28	143.88
420.503	131.88
420.726	136.88
420.948	132.88
421.171	127.88
421.394	138.88
421.617	136.88
421.839	147.88
422.062	133.88
422.285	142.88
422.507	145.88
422.73	140.88
422.953	145.88
423.175	135.88
423.398	137.88
423.621	132.88
423.843	141.88
424.066	135.88
424.288	131.88
424.511	142.88
424.733	144.88
424.956	149.88
425.178	144.88
425.401	152.88
425.623	127.88
425.846	142.88
426.068	128.88
426.291	131.88
426.513	130.88
426.735	132.88
426.958	145.88
427.18	141.88
427.402	154.88
427.625	143.88
427.847	136.88
428.069	133.88
428.292	136.88
428.514	135.88
428.736	132.88
428.958	135.88
429.181	137.88
429.403	142.88
429.625	126.88
429.847	140.88
430.069	145.88
430.292	134.88
430.514	126.88
430.736	128.88
430.958	134.88
431.18	124.88
431.402	128.88
431.624	129.88
431.846	111.88
432.068	132.88
432.29	122.88
432.512	104.88
432.734	122.88
432.956	130.88
433.178	132.88
433.4	131.88
433.622	136.88
433.844	118.88
434.066	129.88
434.287	123.88
434.509	122.88
434.731	118.88
434.953	136.88
435.175	140.88
435.397	131.88
435.618	130.88
435.84	143.88
436.062	152.88
436.284	136.88
436.505	126.88
436.727	130.88
436.949	134.88
437.17	130.88
437.392	131.88
437.614	126.88
437.835	133.88
438.057	148.88
438.278	140.88
438.5	141.88
438.721	148.88
438.943	125.88
439.165	128.88
439.386	122.88
439.608	140.88
439.829	158.88
440.05	119.88
440.272	132.88
440.493	126.88
440.715	129.88
440.936	126.88
441.158	130.88
441.379	131.88
441.6	112.88
441.822	126.88
442.043	149.88
442.264	136.88
442.486	154.88
442.707	128.88
442.928	128.88
443.149	128.88
443.371	139.88
443.592	144.88
443.813	139.88
444.034	126.88
444.255	144.88
444.476	134.88
444.698	146.88
444.919	141.88
445.14	228.88
445.361	182.88
445.582	138.88
445.803	142.88
446.024	137.88
446.245	139.88
446.466	131.88
446.687	131.88
446.908	145.88
447.129	141.88
447.35	131.88
447.571	138.88
447.792	123.88
448.013	125.88
448.234	128.88
448.455	131.88
448.675	142.88
448.896	135.88
449.117	142.88
449.338	141.88
449.559	137.88
449.779	131.88
450	130.88
450.221	112.88
450.442	124.88
450.662	130.88
450.883	127.88
451.104	126.88
451.324	119.88
451.545	136.88
451.766	125.88
451.986	126.88
452.207	122.88
452.428	132.88
452.648	125.88
452.869	128.88
453.089	124.88
453.31	123.88
453.53	119.88
453.751	124.88
453.971	111.88
454.192	121.88
454.412	115.88
454.633	117.88
454.853	117.88
455.073	125.88
455.294	134.88
455.514	124.88
455.734	131.88
455.955	127.88
456.175	124.88
456.395	132.88
456.616	112.88
456.836	117.88
457.056	124.88
457.276	110.88
457.497	124.88
457.717	109.88
457.937	123.88
458.157	135.88
458.377	108.88
458.598	119.88
458.818	130.88
459.038	134.88
459.258	139.88
459.478	133.88
459.698	121.88
459.918	132.88
460.138	124.88
460.358	123.88
460.578	127.88
460.798	130.88
461.018	135.88
461.238	132.88
461.458	115.88
461.678	131.88
461.898	125.88
462.118	126.88
462.338	131.88
462.558	140.88
462.777	142.88
462.997	137.88
463.217	136.88
463.437	124.88
463.657	139.88
463.876	149.88
464.096	130.88
464.316	138.88
464.536	139.88
464.755	145.88
464.975	136.88
465.195	150.88
465.414	138.88
465.634	130.88
465.854	122.88
466.073	132.88
466.293	130.88
466.512	145.88
466.732	136.88
466.951	128.88
467.171	129.88
467.391	125.88
467.61	137.88
467.829	122.88
468.049	124.88
468.268	120.88
468.488	130.88
468.707	137.88
468.927	126.88
469.146	104.88
469.365	120.88
469.585	132.88
469.804	118.88
470.023	110.88
470.243	128.88
470.462	124.88
470.681	125.88
470.901	134.88
471.12	123.88
471.339	126.88
471.558	117.88
471.777	118.88
471.997	130.88
472.216	130.88
472.435	120.88
472.654	118.88
472.873	114.88
473.092	110.88
473.311	117.88
473.53	128.88
473.749	126.88
473.968	127.88
474.187	132.88
474.406	127.88
474.625	114.88
474.844	128.88
475.063	128.88
475.282	138.88
475.501	133.88
475.72	128.88
475.939	133.88
476.158	143.88
476.377	135.88
476.596	130.88
476.814	120.88
477.033	120.88
477.252	137.88
477.471	142.88
477.69	139.88
477.908	119.88
478.127	135.88
478.346	136.88
478.564	134.88
478.783	133.88
479.002	135.88
479.22	129.88
479.439	130.88
479.658	130.88
479.876	132.88
480.095	138.88
480.313	143.88
480.532	128.88
480.751	140.88
480.969	135.88
481.188	128.88
481.406	153.88
481.624	130.88
481.843	141.88
482.061	135.88
482.28	151.88
482.498	137.88
482.717	128.88
482.935	136.88
483.153	118.88
483.372	135.88
483.59	138.88
483.808	128.88
484.027	138.88
484.245	154.88
484.463	125.88
484.681	122.88
484.9	128.88
485.118	126.88
485.336	118.88
485.554	136.88
485.772	131.88
485.99	134.88
486.209	134.88
486.427	142.88
486.645	132.88
486.863	135.88
487.081	132.88
487.299	124.88
487.517	140.88
487.735	129.88
487.953	151.88
488.171	133.88
488.389	137.88
488.607	141.88
488.825	137.88
489.043	133.88
489.261	125.88
489.479	124.88
489.696	140.88
489.914	150.88
490.132	142.88
490.35	133.88
490.568	147.88
490.786	140.88
491.003	142.88
491.221	139.88
491.439	151.88
491.657	148.88
491.874	142.88
492.092	155.88
492.31	168.88
492.527	167.88
492.745	148.88
492.963	154.88
493.18	150.88
493.398	151.88
493.615	150.88
493.833	153.88
494.05	154.88
494.268	150.88
494.485	145.88
494.703	148.88
494.92	161.88
495.138	150.88
495.355	143.88
495.573	154.88
495.79	138.88
496.008	140.88
496.225	137.88
496.442	143.88
496.66	144.88
496.877	142.88
497.094	150.88
497.312	155.88
497.529	152.88
497.746	149.88
497.963	164.88
498.181	152.88
498.398	155.88
498.615	158.88
498.832	174.88
499.049	173.88
499.267	159.88
499.484	187.88
499.701	173.88
499.918	203.88
500.135	190.88
500.352	216.88
500.569	204.88
500.786	228.88
501.003	213.88
501.22	207.88
501.437	197.88
501.654	175.88
501.871	174.88
502.088	182.88
502.305	170.88
502.522	165.88
502.739	157.88
502.956	145.88
503.172	152.88
503.389	147.88
503.606	162.88
503.823	148.88
504.04	135.88
504.256	136.88
504.473	146.88
504.69	152.88
504.907	153.88
505.123	149.88
505.34	149.88
505.557	139.88
505.773	146.88
505.99	148.88
506.207	134.88
506.423	133.88
506.64	127.88
506.856	134.88
507.073	152.88
507.289	135.88
507.506	138.88
507.722	133.88
507.939	120.88
508.155	145.88
508.372	131.88
508.588	131.88
508.805	138.88
509.021	133.88
509.238	145.88
509.454	138.88
509.67	139.88
509.887	126.88
510.103	143.88
510.319	143.88
510.536	125.88
510.752	160.88
510.968	155.88
511.184	138.88
511.401	130.88
511.617	124.88
511.833	124.88
512.049	123.88
512.265	123.88
512.481	131.88
512.698	127.88
512.914	131.88
513.13	136.88
513.346	130.88
513.562	125.88
513.778	126.88
513.994	151.88
514.21	141.88
514.426	128.88
514.642	133.88
514.858	135.88
515.074	136.88
515.29	141.88
515.506	167.88
515.721	155.88
515.937	143.88
516.153	140.88
516.369	140.88
516.585	130.88
516.801	135.88
517.016	130.88
517.232	135.88
517.448	154.88
517.664	143.88
517.879	145.88
518.095	139.88
518.311	150.88
518.527	123.88
518.742	131.88
518.958	142.88
519.173	129.88
519.389	120.88
519.605	132.88
519.82	143.88
520.036	139.88
520.251	138.88
520.467	127.88
520.682	130.88
520.898	128.88
521.113	136.88
521.329	132.88
521.544	136.88
521.76	144.88
521.975	187.88
522.19	188.88
522.406	139.88
522.621	115.88
522.836	115.88
523.052	142.88
523.267	145.88
523.482	141.88
523.698	140.88
523.913	129.88
524.128	123.88
524.343	137.88
524.559	127.88
524.774	122.88
524.989	123.88
525.204	133.88
525.419	113.88
525.634	140.88
525.849	120.88
526.064	130.88
526.28	122.88
526.495	123.88
526.71	123.88
526.925	127.88
527.14	127.88
527.355	130.88
527.57	127.88
527.785	101.88
527.999	125.88
528.214	127.88
528.429	121.88
528.644	137.88
528.859	131.88
529.074	114.88
529.289	140.88
529.503	143.88
529.718	132.88
529.933	126.88
530.148	129.88
530.363	125.88
530.577	112.88
530.792	109.88
531.007	116.88
531.221	123.88
531.436	120.88
531.651	114.88
531.865	134.88
532.08	99.88
532.295	124.88
532.509	128.88
532.724	130.88
532.938	144.88
533.153	130.88
533.367	134.88
533.582	129.88
533.796	122.88
534.011	136.88
534.225	127.88
534.44	120.88
534.654	117.88
534.868	123.88
535.083	119.88
535.297	107.88
535.511	132.88
535.726	138.88
535.94	131.88
536.154	123.88
536.369	124.88
536.583	137.88
536.797	117.88
537.011	110.88
537.225	120.88
537.44	119.88
537.654	125.88
537.868	130.88
538.082	132.88
538.296	115.88
538.51	127.88
538.724	120.88
538.938	125.88
539.153	126.88
539.367	134.88
539.581	118.88
539.795	118.88
540.009	121.88
540.222	125.88
540.436	126.88
540.65	133.88
540.864	127.88
541.078	135.88
541.292	119.88
541.506	117.88
541.72	138.88
541.934	123.88
542.147	141.88
542.361	132.88
542.575	107.88
542.789	135.88
543.002	130.88
543.216	138.88
543.43	137.88
543.644	126.88
543.857	132.88
544.071	145.88
544.285	138.88
544.498	138.88
544.712	140.88
544.925	138.88
545.139	114.88
545.352	139.88
545.566	132.88
545.779	126.88
545.993	148.88
546.206	132.88
546.42	162.88
546.633	145.88
546.847	131.88
547.06	130.88
547.274	139.88
547.487	119.88
547.7	118.88
547.914	142.88
548.127	124.88
548.34	147.88
548.554	131.88
548.767	133.88
548.98	124.88
549.193	132.88
549.407	112.88
549.62	118.88
549.833	128.88
550.046	131.88
550.259	128.88
550.473	121.88
550.686	121.88
550.899	126.88
551.112	128.88
551.325	133.88
551.538	120.88
551.751	117.88
551.964	131.88
552.177	119.88
552.39	130.88
552.603	130.88
552.816	127.88
553.029	136.88
553.242	136.88
553.455	142.88
553.667	130.88
553.88	145.88
554.093	141.88
554.306	127.88
554.519	137.88
554.732	126.88
554.944	117.88
555.157	120.88
555.37	121.88
555.583	122.88
555.795	132.88
556.008	116.88
556.221	117.88
556.433	123.88
556.646	112.88
556.859	128.88
557.071	114.88
557.284	116.88
557.496	132.88
557.709	109.88
557.921	118.88
558.134	132.88
558.346	115.88
558.559	117.88
558.771	126.88
558.984	124.88
559.196	122.88
559.409	122.88
559.621	131.88
559.833	116.88
560.046	125.88
560.258	119.88
560.47	133.88
560.683	109.88
560.895	122.88
561.107	130.88
561.32	126.88
561.532	126.88
561.744	124.88
561.956	119.88
562.168	116.88
562.381	112.88
562.593	119.88
562.805	118.88
563.017	131.88
563.229	120.88
563.441	122.88
563.653	126.88
563.865	128.88
564.077	117.88
564.289	122.88
564.501	128.88
564.713	132.88
564.925	119.88
565.137	107.88
565.349	139.88
565.561	141.88
565.773	107.88
565.985	125.88
566.197	122.88
566.408	146.88
566.62	143.88
566.832	135.88
567.044	125.88
567.255	138.88
567.467	147.88
567.679	136.88
567.891	154.88
568.102	156.88
568.314	140.88
568.526	131.88
568.737	136.88
568.949	146.88
569.161	125.88
569.372	129.88
569.584	126.88
569.795	117.88
570.007	125.88
570.218	115.88
570.43	106.88
570.641	117.88
570.853	105.88
571.064	118.88
571.276	132.88
571.487	131.88
571.698	120.88
571.91	119.88
572.121	121.88
572.333	121.88
572.544	103.88
572.755	109.88
572.966	104.88
573.178	101.88
573.389	131.88
573.6	102.88
573.811	116.88
574.023	107.88
574.234	123.88
574.445	118.88
574.656	111.88
574.867	111.88
575.078	115.88
575.289	110.88
575.501	110.88
575.712	120.88
575.923	107.88
576.134	116.88
576.345	108.88
576.556	100.88
576.767	109.88
576.978	103.88
577.188	113.88
577.399	95.88
577.61	109.88
577.821	125.88
578.032	100.88
578.243	116.88
578.454	126.88
578.665	126.88
578.875	95.88
579.086	110.88
579.297	95.88
579.508	119.88
579.718	114.88
579.929	122.88
580.14	109.88
580.35	121.88
580.561	103.88
580.772	107.88
580.982	132.88
581.193	99.88
581.403	110.88
581.614	100.88
581.825	107.88
582.035	105.88
582.246	109.88
582.456	102.88
582.667	99.88
582.877	116.88
583.087	102.88
583.298	116.88
583.508	116.88
583.719	124.88
583.929	103.88
584.139	99.88
584.35	97.88
584.56	110.88
584.77	116.88
584.981	85.88
585.191	89.88
585.401	103.88
585.611	99.88
585.821	99.88
586.032	115.88
586.242	109.88
586.452	110.88
586.662	119.88
586.872	102.88
587.082	102.88
587.292	100.88
587.502	111.88
587.713	98.88
587.923	128.88
588.133	108.88
588.343	98.88
588.553	102.88
588.762	108.88
588.972	115.88
589.182	106.88
589.392	111.88
589.602	107.88
589.812	114.88
590.022	100.88
590.232	125.88
590.441	100.88
590.651	102.88
590.861	102.88
591.071	98.88
591.281	101.88
591.49	104.88
591.7	111.88
591.91	106.88
592.119	107.88
592.329	115.88
592.539	112.88
592.748	115.88
592.958	114.88
593.167	110.88
593.377	113.88
593.587	110.88
593.796	124.88
594.006	98.88
594.215	130.88
594.424	124.88
594.634	107.88
594.843	117.88
595.053	118.88
595.262	94.88
595.472	113.88
595.681	116.88
595.89	97.88
596.1	120.88
596.309	107.88
596.518	96.88
596.727	107.88
596.937	120.88
597.146	119.88
597.355	96.88
597.564	96.88
597.774	106.88
597.983	106.88
598.192	95.88
598.401	104.88
598.61	102.88
598.819	99.88
599.028	125.88
599.237	110.88
599.446	110.88
599.655	98.88
599.864	114.88
600.073	114.88
600.282	114.88
600.491	118.88
600.7	93.88
600.909	93.88
601.118	108.88
601.327	84.88
601.536	98.88
601.745	108.88
601.953	93.88
602.162	110.88
602.371	115.88
602.58	102.88
602.789	108.88
602.997	108.88
603.206	88.88
603.415	102.88
603.623	85.88
603.832	116.88
604.041	101.88
604.249	105.88
604.458	103.88
604.666	102.88
604.875	100.88
605.084	112.88
605.292	117.88
605.501	99.88
605.709	102.88
605.918	101.88
606.126	111.88
606.334	105.88
606.543	96.88
606.751	82.88
606.96	88.88
607.168	106.88
607.376	114.88
607.585	105.88
607.793	109.88
608.001	98.88
608.21	95.88
608.418	118.88
608.626	106.88
608.834	119.88
609.043	117.88
609.251	120.88
609.459	112.88
609.667	103.88
609.875	117.88
610.083	103.88
610.291	112.88
610.499	96.88
610.707	100.88
610.916	107.88
611.124	104.88
611.332	110.88
611.54	105.88
611.748	115.88
611.955	117.88
612.163	106.88
612.371	122.88
612.579	110.88
612.787	98.88
612.995	103.88
613.203	101.88
613.411	105.88
613.618	103.88
613.826	114.88
614.034	110.88
614.242	112.88
614.449	91.88
614.657	102.88
614.865	114.88
615.072	102.88
615.28	115.88
615.488	110.88
615.695	107.88
615.903	96.88
616.111	98.88
616.318	94.88
616.526	94.88
616.733	95.88
616.941	103.88
617.148	98.88
617.356	93.88
617.563	107.88
617.771	107.88
617.978	102.88
618.185	120.88
618.393	111.88
618.6	110.88
618.807	100.88
619.015	101.88
619.222	86.88
619.429	102.88
619.637	105.88
619.844	111.88
620.051	104.88
620.258	114.88
620.466	96.88
620.673	94.88
620.88	104.88
621.087	90.88
621.294	103.88
621.501	108.88
621.708	99.88
621.915	110.88
622.122	116.88
622.329	100.88
622.536	112.88
622.743	106.88
622.95	104.88
623.157	99.88
623.364	100.88
623.571	103.88
623.778	114.88
623.985	98.88
624.192	108.88
624.399	101.88
624.606	97.88
624.812	90.88
625.019	101.88
625.226	105.88
625.433	83.88
625.639	91.88
625.846	78.88
626.053	88.88
626.259	95.88
626.466	84.88
626.673	95.88
626.879	92.88
627.086	101.88
627.293	98.88
627.499	107.88
627.706	91.88
627.912	104.88
628.119	103.88
628.325	100.88
628.532	92.88
628.738	93.88
628.945	106.88
629.151	114.88
629.357	105.88
629.564	113.88
629.77	98.88
629.976	83.88
630.183	110.88
630.389	107.88
630.595	99.88
630.802	111.88
631.008	95.88
631.214	108.88
631.42	104.88
631.627	111.88
631.833	108.88
632.039	101.88
632.245	115.88
632.451	101.88
632.657	96.88
632.863	87.88
633.069	102.88
633.275	95.88
633.481	86.88
633.688	77.88
633.893	104.88
634.099	86.88
634.305	100.88
634.511	98.88
634.717	94.88
634.923	91.88
635.129	86.88
635.335	97.88
635.541	107.88
635.747	100.88
635.952	95.88
636.158	92.88
636.364	106.88
636.57	105.88
636.775	109.88
636.981	97.88
637.187	111.88
637.392	91.88
637.598	84.88
637.804	97.88
638.009	100.88
638.215	103.88
638.421	84.88
638.626	97.88
638.832	100.88
639.037	98.88
639.243	94.88
639.448	103.88
639.654	102.88
639.859	103.88
640.065	86.88
640.27	93.88
640.475	104.88
640.681	91.88
640.886	96.88
641.091	99.88
641.297	100.88
641.502	97.88
641.707	107.88
641.913	82.88
642.118	91.88
642.323	93.88
642.528	99.88
642.733	107.88
642.939	93.88
643.144	110.88
643.349	85.88
643.554	107.88
643.759	95.88
643.964	87.88
644.169	92.88
644.374	92.88
644.579	91.88
644.784	89.88
644.989	104.88
645.194	82.88
645.399	95.88
645.604	92.88
645.809	110.88
646.014	92.88
646.219	97.88
646.423	96.88
646.628	102.88
646.833	96.88
647.038	92.88
647.243	91.88
647.447	94.88
647.652	114.88
647.857	97.88
648.062	96.88
648.266	89.88
648.471	97.88
648.676	84.88
648.88	98.88
649.085	99.88
649.289	100.88
649.494	100.88
649.698	100.88
649.903	96.88
650.107	79.88
650.312	92.88
650.516	94.88
650.721	101.88
650.925	86.88
651.13	95.88
651.334	97.88
651.539	93.88
651.743	77.88
651.947	86.88
652.152	98.88
652.356	95.88
652.56	88.88
652.764	88.88
652.969	90.88
653.173	96.88
653.377	86.88
653.581	99.88
653.785	94.88
653.99	85.88
654.194	102.88
654.398	80.88
654.602	88.88
654.806	94.88
655.01	95.88
655.214	93.88
655.418	100.88
655.622	85.88
655.826	87.88
656.03	88.88
656.234	86.88
656.438	84.88
656.642	94.88
656.846	95.88
657.049	92.88
657.253	92.88
657.457	86.88
657.661	85.88
657.865	107.88
658.068	80.88
658.272	86.88
658.476	87.88
658.68	86.88
658.883	100.88
659.087	82.88
659.291	84.88
659.494	81.88
659.698	86.88
659.901	73.88
660.105	95.88
660.309	92.88
660.512	84.88
660.716	89.88
660.919	88.88
661.123	83.88
661.326	95.88
661.53	74.88
661.733	86.88
661.936	91.88
662.14	82.88
662.343	79.88
662.546	80.88
662.75	69.88
662.953	79.88
663.156	79.88
663.36	83.88
663.563	90.88
663.766	99.88
663.969	71.88
664.173	78.88
664.376	96.88
664.579	90.88
664.782	81.88
664.985	92.88
665.188	85.88
665.391	85.88
665.594	78.88
665.797	87.88
666	85.88
666.203	95.88
666.406	85.88
666.609	84.88
666.812	97.88
667.015	87.88
667.218	87.88
667.421	84.88
667.624	86.88
667.827	83.88
668.03	87.88
668.232	87.88
668.435	87.88
668.638	87.88
668.841	91.88
669.043	83.88
669.246	86.88
669.449	75.88
669.651	83.88
669.854	82.88
670.057	88.88
670.259	70.88
670.462	75.88
670.665	73.88
670.867	80.88
671.07	89.88
671.272	80.88
671.475	78.88
671.677	79.88
671.88	90.88
672.082	85.88
672.284	76.88
672.487	83.88
672.689	83.88
672.892	70.88
