Data from 1968.PennyLincolnUp.Lamp.En5.5.200Scan.071719.P1._HRD10591_14-51-36-970.txt Node
Date: Thu Jul 18 14:51:36 EDT 2019
User: cochatt
Spectrometer: HR+D1059
Trigger mode: 1
Integration Time (sec): 1.000000E-1
Scans to average: 1
Electric dark correction enabled: true
Nonlinearity correction enabled: false
Boxcar width: 0
XAxis mode: Wavelengths
Number of Pixels in Spectrum: 2048
>>>>>Begin Spectral Data<<<<<
223.165	-9.25
223.4	-9.25
223.635	-9.25
223.869	-24.25
224.104	-20.25
224.338	-17.25
224.573	-2.25
224.808	-14.25
225.042	-6.25
225.277	-16.25
225.511	-11.25
225.746	-10.25
225.98	6.75
226.215	23.75
226.449	23.75
226.683	14.75
226.918	32.75
227.152	29.75
227.387	31.75
227.621	36.75
227.856	38.75
228.09	51.75
228.324	48.75
228.559	41.75
228.793	50.75
229.027	78.75
229.262	60.75
229.496	79.75
229.73	73.75
229.964	59.75
230.199	65.75
230.433	78.75
230.667	76.75
230.901	80.75
231.136	79.75
231.37	80.75
231.604	75.75
231.838	85.75
232.072	84.75
232.306	76.75
232.541	76.75
232.775	87.75
233.009	87.75
233.243	69.75
233.477	72.75
233.711	93.75
233.945	79.75
234.179	79.75
234.413	86.75
234.647	79.75
234.881	86.75
235.115	76.75
235.349	80.75
235.583	87.75
235.817	65.75
236.051	83.75
236.285	87.75
236.519	72.75
236.753	104.75
236.987	82.75
237.221	74.75
237.455	87.75
237.689	84.75
237.922	79.75
238.156	75.75
238.39	83.75
238.624	82.75
238.858	78.75
239.091	70.75
239.325	73.75
239.559	77.75
239.793	77.75
240.027	80.75
240.26	73.75
240.494	78.75
240.728	96.75
240.961	71.75
241.195	80.75
241.429	81.75
241.662	83.75
241.896	91.75
242.13	79.75
242.363	92.75
242.597	78.75
242.83	83.75
243.064	93.75
243.298	94.75
243.531	80.75
243.765	78.75
243.998	88.75
244.232	95.75
244.465	80.75
244.699	86.75
244.932	78.75
245.166	95.75
245.399	88.75
245.633	84.75
245.866	83.75
246.099	95.75
246.333	92.75
246.566	89.75
246.8	89.75
247.033	95.75
247.266	99.75
247.5	79.75
247.733	91.75
247.966	86.75
248.2	83.75
248.433	88.75
248.666	74.75
248.899	78.75
249.133	96.75
249.366	100.75
249.599	90.75
249.832	108.75
250.066	103.75
250.299	82.75
250.532	82.75
250.765	88.75
250.998	84.75
251.231	79.75
251.465	94.75
251.698	97.75
251.931	85.75
252.164	104.75
252.397	95.75
252.63	89.75
252.863	74.75
253.096	89.75
253.329	108.75
253.562	88.75
253.795	94.75
254.028	100.75
254.261	85.75
254.494	98.75
254.727	103.75
254.96	87.75
255.193	87.75
255.426	94.75
255.659	94.75
255.892	88.75
256.124	104.75
256.357	94.75
256.59	96.75
256.823	83.75
257.056	88.75
257.289	99.75
257.521	89.75
257.754	101.75
257.987	87.75
258.22	98.75
258.452	71.75
258.685	94.75
258.918	100.75
259.151	98.75
259.383	97.75
259.616	88.75
259.849	95.75
260.081	89.75
260.314	86.75
260.547	105.75
260.779	98.75
261.012	89.75
261.244	91.75
261.477	111.75
261.71	115.75
261.942	90.75
262.175	98.75
262.407	86.75
262.64	92.75
262.872	99.75
263.105	111.75
263.337	88.75
263.57	92.75
263.802	92.75
264.035	78.75
264.267	89.75
264.499	93.75
264.732	92.75
264.964	92.75
265.197	94.75
265.429	87.75
265.661	88.75
265.894	85.75
266.126	92.75
266.358	106.75
266.591	84.75
266.823	93.75
267.055	100.75
267.287	103.75
267.52	81.75
267.752	104.75
267.984	95.75
268.216	92.75
268.448	101.75
268.681	112.75
268.913	112.75
269.145	102.75
269.377	93.75
269.609	99.75
269.841	92.75
270.073	95.75
270.306	99.75
270.538	97.75
270.77	111.75
271.002	99.75
271.234	90.75
271.466	108.75
271.698	103.75
271.93	88.75
272.162	87.75
272.394	111.75
272.626	102.75
272.858	94.75
273.09	102.75
273.322	106.75
273.553	109.75
273.785	99.75
274.017	96.75
274.249	103.75
274.481	93.75
274.713	90.75
274.945	98.75
275.176	103.75
275.408	89.75
275.64	101.75
275.872	98.75
276.104	91.75
276.335	90.75
276.567	94.75
276.799	102.75
277.031	98.75
277.262	106.75
277.494	106.75
277.726	108.75
277.957	102.75
278.189	92.75
278.421	93.75
278.652	94.75
278.884	95.75
279.115	94.75
279.347	90.75
279.579	101.75
279.81	109.75
280.042	107.75
280.273	101.75
280.505	94.75
280.736	104.75
280.968	95.75
281.199	95.75
281.431	92.75
281.662	96.75
281.894	91.75
282.125	113.75
282.356	102.75
282.588	104.75
282.819	96.75
283.051	94.75
283.282	112.75
283.513	98.75
283.745	102.75
283.976	99.75
284.207	87.75
284.439	104.75
284.67	102.75
284.901	107.75
285.132	102.75
285.364	109.75
285.595	112.75
285.826	94.75
286.057	102.75
286.288	108.75
286.52	102.75
286.751	120.75
286.982	94.75
287.213	95.75
287.444	93.75
287.675	103.75
287.906	109.75
288.138	100.75
288.369	96.75
288.6	106.75
288.831	100.75
289.062	110.75
289.293	86.75
289.524	95.75
289.755	116.75
289.986	101.75
290.217	108.75
290.448	120.75
290.679	111.75
290.91	101.75
291.141	100.75
291.371	96.75
291.602	102.75
291.833	115.75
292.064	116.75
292.295	99.75
292.526	91.75
292.757	91.75
292.987	95.75
293.218	104.75
293.449	107.75
293.68	106.75
293.91	109.75
294.141	99.75
294.372	96.75
294.603	119.75
294.833	98.75
295.064	102.75
295.295	112.75
295.525	126.75
295.756	119.75
295.987	103.75
296.217	93.75
296.448	100.75
296.679	118.75
296.909	103.75
297.14	102.75
297.37	109.75
297.601	104.75
297.831	94.75
298.062	99.75
298.292	108.75
298.523	102.75
298.753	104.75
298.984	107.75
299.214	91.75
299.445	103.75
299.675	110.75
299.905	102.75
300.136	100.75
300.366	105.75
300.597	104.75
300.827	106.75
301.057	108.75
301.288	87.75
301.518	101.75
301.748	101.75
301.979	109.75
302.209	97.75
302.439	107.75
302.669	97.75
302.9	89.75
303.13	101.75
303.36	108.75
303.59	94.75
303.82	99.75
304.051	106.75
304.281	114.75
304.511	109.75
304.741	98.75
304.971	105.75
305.201	98.75
305.431	110.75
305.661	90.75
305.891	100.75
306.121	101.75
306.352	99.75
306.582	93.75
306.812	96.75
307.042	112.75
307.272	114.75
307.502	114.75
307.731	112.75
307.961	96.75
308.191	102.75
308.421	111.75
308.651	118.75
308.881	100.75
309.111	114.75
309.341	114.75
309.571	111.75
309.8	114.75
310.03	111.75
310.26	103.75
310.49	95.75
310.72	94.75
310.949	112.75
311.179	101.75
311.409	109.75
311.639	118.75
311.868	105.75
312.098	121.75
312.328	114.75
312.557	94.75
312.787	110.75
313.017	113.75
313.246	111.75
313.476	93.75
313.706	115.75
313.935	110.75
314.165	99.75
314.394	89.75
314.624	123.75
314.853	104.75
315.083	113.75
315.312	110.75
315.542	116.75
315.771	103.75
316.001	95.75
316.23	120.75
316.46	112.75
316.689	105.75
316.919	104.75
317.148	111.75
317.377	102.75
317.607	101.75
317.836	109.75
318.065	109.75
318.295	116.75
318.524	96.75
318.753	95.75
318.983	115.75
319.212	111.75
319.441	101.75
319.67	112.75
319.9	123.75
320.129	112.75
320.358	112.75
320.587	103.75
320.816	120.75
321.046	113.75
321.275	112.75
321.504	115.75
321.733	106.75
321.962	86.75
322.191	94.75
322.42	108.75
322.649	114.75
322.878	112.75
323.108	116.75
323.337	122.75
323.566	110.75
323.795	118.75
324.024	109.75
324.253	115.75
324.482	139.75
324.71	158.75
324.939	180.75
325.168	152.75
325.397	128.75
325.626	132.75
325.855	107.75
326.084	116.75
326.313	104.75
326.542	108.75
326.77	126.75
326.999	127.75
327.228	126.75
327.457	135.75
327.686	154.75
327.914	126.75
328.143	107.75
328.372	110.75
328.6	114.75
328.829	109.75
329.058	116.75
329.287	112.75
329.515	127.75
329.744	114.75
329.972	118.75
330.201	123.75
330.43	110.75
330.658	110.75
330.887	110.75
331.115	126.75
331.344	108.75
331.572	114.75
331.801	111.75
332.03	110.75
332.258	128.75
332.486	121.75
332.715	136.75
332.943	120.75
333.172	133.75
333.4	121.75
333.629	117.75
333.857	122.75
334.085	126.75
334.314	120.75
334.542	117.75
334.771	116.75
334.999	129.75
335.227	127.75
335.455	99.75
335.684	126.75
335.912	136.75
336.14	127.75
336.369	109.75
336.597	112.75
336.825	110.75
337.053	116.75
337.281	118.75
337.51	115.75
337.738	122.75
337.966	93.75
338.194	115.75
338.422	104.75
338.65	111.75
338.878	125.75
339.106	106.75
339.334	112.75
339.562	108.75
339.79	126.75
340.018	120.75
340.246	117.75
340.474	119.75
340.702	118.75
340.93	104.75
341.158	95.75
341.386	117.75
341.614	118.75
341.842	108.75
342.07	98.75
342.298	113.75
342.526	107.75
342.754	118.75
342.981	120.75
343.209	103.75
343.437	100.75
343.665	100.75
343.893	99.75
344.12	105.75
344.348	124.75
344.576	113.75
344.804	95.75
345.031	118.75
345.259	112.75
345.487	102.75
345.714	114.75
345.942	101.75
346.17	106.75
346.397	107.75
346.625	111.75
346.853	102.75
347.08	105.75
347.308	96.75
347.535	105.75
347.763	115.75
347.99	107.75
348.218	106.75
348.445	110.75
348.673	119.75
348.9	113.75
349.128	118.75
349.355	115.75
349.583	101.75
349.81	122.75
350.037	100.75
350.265	120.75
350.492	100.75
350.72	106.75
350.947	112.75
351.174	111.75
351.402	110.75
351.629	107.75
351.856	106.75
352.083	113.75
352.311	114.75
352.538	104.75
352.765	100.75
352.992	117.75
353.22	91.75
353.447	101.75
353.674	114.75
353.901	109.75
354.128	124.75
354.355	117.75
354.583	96.75
354.81	121.75
355.037	110.75
355.264	95.75
355.491	103.75
355.718	97.75
355.945	117.75
356.172	100.75
356.399	112.75
356.626	118.75
356.853	102.75
357.08	121.75
357.307	129.75
357.534	103.75
357.761	112.75
357.988	110.75
358.215	101.75
358.441	111.75
358.668	128.75
358.895	122.75
359.122	117.75
359.349	111.75
359.576	107.75
359.802	110.75
360.029	123.75
360.256	104.75
360.483	102.75
360.709	116.75
360.936	112.75
361.163	95.75
361.39	102.75
361.616	110.75
361.843	100.75
362.07	115.75
362.296	110.75
362.523	107.75
362.749	102.75
362.976	106.75
363.203	120.75
363.429	99.75
363.656	96.75
363.882	115.75
364.109	118.75
364.335	99.75
364.562	105.75
364.788	104.75
365.015	107.75
365.241	110.75
365.468	109.75
365.694	117.75
365.92	112.75
366.147	106.75
366.373	104.75
366.599	118.75
366.826	104.75
367.052	115.75
367.278	94.75
367.505	120.75
367.731	106.75
367.957	102.75
368.184	119.75
368.41	108.75
368.636	94.75
368.862	102.75
369.089	123.75
369.315	90.75
369.541	109.75
369.767	108.75
369.993	111.75
370.219	109.75
370.445	104.75
370.672	103.75
370.898	95.75
371.124	111.75
371.35	119.75
371.576	122.75
371.802	102.75
372.028	107.75
372.254	102.75
372.48	115.75
372.706	108.75
372.932	128.75
373.158	116.75
373.384	115.75
373.61	115.75
373.835	95.75
374.061	110.75
374.287	115.75
374.513	114.75
374.739	104.75
374.965	109.75
375.191	121.75
375.416	111.75
375.642	101.75
375.868	112.75
376.094	106.75
376.319	122.75
376.545	121.75
376.771	120.75
376.997	107.75
377.222	107.75
377.448	120.75
377.674	101.75
377.899	120.75
378.125	100.75
378.35	112.75
378.576	110.75
378.802	109.75
379.027	107.75
379.253	117.75
379.478	106.75
379.704	112.75
379.929	113.75
380.155	114.75
380.38	110.75
380.606	125.75
380.831	109.75
381.057	116.75
381.282	118.75
381.507	122.75
381.733	117.75
381.958	110.75
382.184	102.75
382.409	88.75
382.634	116.75
382.86	119.75
383.085	103.75
383.31	111.75
383.535	121.75
383.761	112.75
383.986	104.75
384.211	117.75
384.436	122.75
384.662	116.75
384.887	117.75
385.112	116.75
385.337	122.75
385.562	116.75
385.787	121.75
386.013	121.75
386.238	119.75
386.463	105.75
386.688	121.75
386.913	126.75
387.138	102.75
387.363	110.75
387.588	124.75
387.813	114.75
388.038	127.75
388.263	126.75
388.488	116.75
388.713	124.75
388.938	125.75
389.163	116.75
389.387	108.75
389.612	109.75
389.837	109.75
390.062	126.75
390.287	118.75
390.512	111.75
390.736	112.75
390.961	116.75
391.186	115.75
391.411	106.75
391.636	114.75
391.86	100.75
392.085	104.75
392.31	126.75
392.534	112.75
392.759	113.75
392.984	130.75
393.208	115.75
393.433	125.75
393.658	115.75
393.882	115.75
394.107	117.75
394.331	104.75
394.556	122.75
394.78	133.75
395.005	121.75
395.229	130.75
395.454	118.75
395.678	124.75
395.903	114.75
396.127	116.75
396.352	120.75
396.576	115.75
396.801	105.75
397.025	126.75
397.249	122.75
397.474	118.75
397.698	137.75
397.922	112.75
398.147	122.75
398.371	114.75
398.595	127.75
398.82	137.75
399.044	128.75
399.268	126.75
399.492	146.75
399.717	143.75
399.941	148.75
400.165	152.75
400.389	142.75
400.613	139.75
400.837	147.75
401.062	130.75
401.286	138.75
401.51	137.75
401.734	123.75
401.958	140.75
402.182	130.75
402.406	134.75
402.63	132.75
402.854	142.75
403.078	132.75
403.302	135.75
403.526	134.75
403.75	140.75
403.974	132.75
404.198	139.75
404.422	130.75
404.645	138.75
404.869	119.75
405.093	135.75
405.317	144.75
405.541	141.75
405.765	127.75
405.988	135.75
406.212	131.75
406.436	135.75
406.66	126.75
406.883	136.75
407.107	129.75
407.331	138.75
407.555	141.75
407.778	143.75
408.002	123.75
408.226	133.75
408.449	134.75
408.673	128.75
408.896	130.75
409.12	139.75
409.344	155.75
409.567	134.75
409.791	134.75
410.014	130.75
410.238	119.75
410.461	119.75
410.685	117.75
410.908	132.75
411.132	130.75
411.355	136.75
411.578	148.75
411.802	127.75
412.025	133.75
412.249	131.75
412.472	126.75
412.695	132.75
412.919	139.75
413.142	125.75
413.365	135.75
413.589	131.75
413.812	139.75
414.035	119.75
414.258	123.75
414.482	132.75
414.705	136.75
414.928	140.75
415.151	126.75
415.374	116.75
415.597	124.75
415.821	113.75
416.044	126.75
416.267	134.75
416.49	131.75
416.713	122.75
416.936	131.75
417.159	129.75
417.382	117.75
417.605	110.75
417.828	138.75
418.051	140.75
418.274	135.75
418.497	134.75
418.72	125.75
418.943	122.75
419.166	140.75
419.389	126.75
419.611	123.75
419.834	122.75
420.057	125.75
420.28	143.75
420.503	141.75
420.726	115.75
420.948	133.75
421.171	119.75
421.394	150.75
421.617	126.75
421.839	138.75
422.062	120.75
422.285	130.75
422.507	137.75
422.73	142.75
422.953	138.75
423.175	124.75
423.398	135.75
423.621	140.75
423.843	140.75
424.066	139.75
424.288	147.75
424.511	142.75
424.733	131.75
424.956	147.75
425.178	140.75
425.401	142.75
425.623	126.75
425.846	127.75
426.068	127.75
426.291	130.75
426.513	134.75
426.735	132.75
426.958	123.75
427.18	134.75
427.402	144.75
427.625	161.75
427.847	136.75
428.069	125.75
428.292	132.75
428.514	125.75
428.736	130.75
428.958	126.75
429.181	125.75
429.403	137.75
429.625	126.75
429.847	120.75
430.069	132.75
430.292	129.75
430.514	138.75
430.736	118.75
430.958	125.75
431.18	101.75
431.402	110.75
431.624	114.75
431.846	134.75
432.068	136.75
432.29	130.75
432.512	106.75
432.734	123.75
432.956	109.75
433.178	120.75
433.4	126.75
433.622	115.75
433.844	110.75
434.066	122.75
434.287	128.75
434.509	125.75
434.731	123.75
434.953	108.75
435.175	125.75
435.397	124.75
435.618	126.75
435.84	126.75
436.062	139.75
436.284	138.75
436.505	142.75
436.727	119.75
436.949	106.75
437.17	130.75
437.392	130.75
437.614	133.75
437.835	127.75
438.057	127.75
438.278	137.75
438.5	125.75
438.721	130.75
438.943	137.75
439.165	116.75
439.386	110.75
439.608	127.75
439.829	126.75
440.05	124.75
440.272	132.75
440.493	127.75
440.715	132.75
440.936	143.75
441.158	138.75
441.379	124.75
441.6	142.75
441.822	122.75
442.043	137.75
442.264	144.75
442.486	135.75
442.707	144.75
442.928	144.75
443.149	124.75
443.371	135.75
443.592	139.75
443.813	142.75
444.034	135.75
444.255	145.75
444.476	128.75
444.698	147.75
444.919	150.75
445.14	257.75
445.361	202.75
445.582	142.75
445.803	141.75
446.024	140.75
446.245	130.75
446.466	126.75
446.687	141.75
446.908	135.75
447.129	130.75
447.35	127.75
447.571	122.75
447.792	121.75
448.013	130.75
448.234	128.75
448.455	136.75
448.675	138.75
448.896	126.75
449.117	145.75
449.338	132.75
449.559	128.75
449.779	140.75
450	134.75
450.221	126.75
450.442	125.75
450.662	122.75
450.883	127.75
451.104	122.75
451.324	112.75
451.545	119.75
451.766	125.75
451.986	119.75
452.207	116.75
452.428	132.75
452.648	107.75
452.869	127.75
453.089	110.75
453.31	124.75
453.53	116.75
453.751	124.75
453.971	124.75
454.192	122.75
454.412	128.75
454.633	125.75
454.853	119.75
455.073	111.75
455.294	105.75
455.514	122.75
455.734	119.75
455.955	126.75
456.175	118.75
456.395	116.75
456.616	115.75
456.836	124.75
457.056	118.75
457.276	116.75
457.497	123.75
457.717	124.75
457.937	121.75
458.157	116.75
458.377	132.75
458.598	107.75
458.818	133.75
459.038	131.75
459.258	132.75
459.478	120.75
459.698	114.75
459.918	134.75
460.138	133.75
460.358	118.75
460.578	118.75
460.798	124.75
461.018	136.75
461.238	130.75
461.458	122.75
461.678	113.75
461.898	141.75
462.118	116.75
462.338	137.75
462.558	138.75
462.777	134.75
462.997	126.75
463.217	141.75
463.437	153.75
463.657	151.75
463.876	138.75
464.096	138.75
464.316	137.75
464.536	144.75
464.755	124.75
464.975	134.75
465.195	150.75
465.414	133.75
465.634	147.75
465.854	146.75
466.073	104.75
466.293	118.75
466.512	121.75
466.732	128.75
466.951	135.75
467.171	130.75
467.391	132.75
467.61	124.75
467.829	142.75
468.049	125.75
468.268	136.75
468.488	117.75
468.707	132.75
468.927	138.75
469.146	114.75
469.365	118.75
469.585	112.75
469.804	125.75
470.023	126.75
470.243	137.75
470.462	103.75
470.681	124.75
470.901	114.75
471.12	123.75
471.339	136.75
471.558	119.75
471.777	115.75
471.997	126.75
472.216	141.75
472.435	135.75
472.654	115.75
472.873	124.75
473.092	120.75
473.311	131.75
473.53	115.75
473.749	125.75
473.968	132.75
474.187	126.75
474.406	127.75
474.625	129.75
474.844	131.75
475.063	139.75
475.282	130.75
475.501	116.75
475.72	120.75
475.939	125.75
476.158	125.75
476.377	124.75
476.596	115.75
476.814	122.75
477.033	128.75
477.252	131.75
477.471	123.75
477.69	133.75
477.908	121.75
478.127	127.75
478.346	128.75
478.564	116.75
478.783	128.75
479.002	118.75
479.22	125.75
479.439	150.75
479.658	137.75
479.876	140.75
480.095	121.75
480.313	145.75
480.532	131.75
480.751	128.75
480.969	129.75
481.188	124.75
481.406	140.75
481.624	139.75
481.843	132.75
482.061	138.75
482.28	135.75
482.498	128.75
482.717	108.75
482.935	127.75
483.153	118.75
483.372	124.75
483.59	116.75
483.808	123.75
484.027	123.75
484.245	126.75
484.463	132.75
484.681	148.75
484.9	138.75
485.118	136.75
485.336	120.75
485.554	123.75
485.772	128.75
485.99	128.75
486.209	121.75
486.427	130.75
486.645	130.75
486.863	130.75
487.081	134.75
487.299	121.75
487.517	132.75
487.735	163.75
487.953	140.75
488.171	131.75
488.389	136.75
488.607	126.75
488.825	137.75
489.043	134.75
489.261	130.75
489.479	135.75
489.696	132.75
489.914	126.75
490.132	138.75
490.35	134.75
490.568	148.75
490.786	140.75
491.003	141.75
491.221	140.75
491.439	142.75
491.657	142.75
491.874	139.75
492.092	139.75
492.31	145.75
492.527	146.75
492.745	151.75
492.963	149.75
493.18	149.75
493.398	141.75
493.615	159.75
493.833	141.75
494.05	135.75
494.268	141.75
494.485	138.75
494.703	133.75
494.92	128.75
495.138	134.75
495.355	154.75
495.573	149.75
495.79	130.75
496.008	158.75
496.225	146.75
496.442	142.75
496.66	143.75
496.877	137.75
497.094	155.75
497.312	146.75
497.529	152.75
497.746	135.75
497.963	142.75
498.181	156.75
498.398	152.75
498.615	171.75
498.832	162.75
499.049	167.75
499.267	183.75
499.484	186.75
499.701	164.75
499.918	184.75
500.135	197.75
500.352	220.75
500.569	214.75
500.786	202.75
501.003	209.75
501.22	197.75
501.437	174.75
501.654	179.75
501.871	162.75
502.088	165.75
502.305	186.75
502.522	166.75
502.739	162.75
502.956	147.75
503.172	148.75
503.389	140.75
503.606	162.75
503.823	159.75
504.04	158.75
504.256	139.75
504.473	155.75
504.69	145.75
504.907	135.75
505.123	145.75
505.34	139.75
505.557	133.75
505.773	131.75
505.99	146.75
506.207	144.75
506.423	157.75
506.64	145.75
506.856	150.75
507.073	143.75
507.289	134.75
507.506	136.75
507.722	132.75
507.939	133.75
508.155	149.75
508.372	145.75
508.588	144.75
508.805	115.75
509.021	120.75
509.238	130.75
509.454	143.75
509.67	116.75
509.887	124.75
510.103	134.75
510.319	142.75
510.536	135.75
510.752	167.75
510.968	172.75
511.184	125.75
511.401	115.75
511.617	106.75
511.833	123.75
512.049	138.75
512.265	126.75
512.481	116.75
512.698	118.75
512.914	130.75
513.13	135.75
513.346	140.75
513.562	120.75
513.778	134.75
513.994	130.75
514.21	131.75
514.426	141.75
514.642	132.75
514.858	128.75
515.074	134.75
515.29	130.75
515.506	158.75
515.721	153.75
515.937	158.75
516.153	123.75
516.369	138.75
516.585	137.75
516.801	137.75
517.016	125.75
517.232	136.75
517.448	130.75
517.664	131.75
517.879	128.75
518.095	147.75
518.311	153.75
518.527	133.75
518.742	142.75
518.958	126.75
519.173	127.75
519.389	148.75
519.605	133.75
519.82	122.75
520.036	124.75
520.251	121.75
520.467	131.75
520.682	137.75
520.898	127.75
521.113	134.75
521.329	134.75
521.544	129.75
521.76	145.75
521.975	175.75
522.19	190.75
522.406	152.75
522.621	136.75
522.836	119.75
523.052	141.75
523.267	137.75
523.482	133.75
523.698	123.75
523.913	121.75
524.128	117.75
524.343	126.75
524.559	123.75
524.774	104.75
524.989	119.75
525.204	124.75
525.419	126.75
525.634	132.75
525.849	118.75
526.064	132.75
526.28	138.75
526.495	112.75
526.71	118.75
526.925	108.75
527.14	118.75
527.355	122.75
527.57	123.75
527.785	118.75
527.999	130.75
528.214	125.75
528.429	114.75
528.644	130.75
528.859	115.75
529.074	114.75
529.289	136.75
529.503	140.75
529.718	122.75
529.933	121.75
530.148	127.75
530.363	124.75
530.577	124.75
530.792	125.75
531.007	132.75
531.221	122.75
531.436	122.75
531.651	126.75
531.865	115.75
532.08	125.75
532.295	126.75
532.509	110.75
532.724	119.75
532.938	120.75
533.153	125.75
533.367	120.75
533.582	130.75
533.796	114.75
534.011	130.75
534.225	126.75
534.44	110.75
534.654	118.75
534.868	106.75
535.083	118.75
535.297	121.75
535.511	119.75
535.726	138.75
535.94	120.75
536.154	137.75
536.369	114.75
536.583	121.75
536.797	106.75
537.011	128.75
537.225	120.75
537.44	126.75
537.654	124.75
537.868	121.75
538.082	118.75
538.296	107.75
538.51	125.75
538.724	130.75
538.938	113.75
539.153	125.75
539.367	117.75
539.581	114.75
539.795	135.75
540.009	124.75
540.222	126.75
540.436	132.75
540.65	113.75
540.864	122.75
541.078	125.75
541.292	132.75
541.506	134.75
541.72	130.75
541.934	131.75
542.147	133.75
542.361	130.75
542.575	144.75
542.789	148.75
543.002	130.75
543.216	119.75
543.43	126.75
543.644	136.75
543.857	125.75
544.071	140.75
544.285	142.75
544.498	146.75
544.712	140.75
544.925	130.75
545.139	123.75
545.352	136.75
545.566	132.75
545.779	136.75
545.993	151.75
546.206	144.75
546.42	165.75
546.633	133.75
546.847	127.75
547.06	126.75
547.274	126.75
547.487	127.75
547.7	117.75
547.914	120.75
548.127	128.75
548.34	129.75
548.554	134.75
548.767	119.75
548.98	138.75
549.193	120.75
549.407	110.75
549.62	140.75
549.833	128.75
550.046	138.75
550.259	120.75
550.473	140.75
550.686	112.75
550.899	121.75
551.112	127.75
551.325	114.75
551.538	116.75
551.751	124.75
551.964	128.75
552.177	124.75
552.39	130.75
552.603	110.75
552.816	130.75
553.029	125.75
553.242	130.75
553.455	133.75
553.667	141.75
553.88	139.75
554.093	126.75
554.306	121.75
554.519	123.75
554.732	131.75
554.944	121.75
555.157	131.75
555.37	116.75
555.583	138.75
555.795	114.75
556.008	118.75
556.221	124.75
556.433	117.75
556.646	130.75
556.859	127.75
557.071	113.75
557.284	122.75
557.496	125.75
557.709	119.75
557.921	108.75
558.134	118.75
558.346	114.75
558.559	116.75
558.771	110.75
558.984	128.75
559.196	120.75
559.409	117.75
559.621	119.75
559.833	99.75
560.046	96.75
560.258	113.75
560.47	124.75
560.683	103.75
560.895	107.75
561.107	122.75
561.32	91.75
561.532	110.75
561.744	118.75
561.956	115.75
562.168	114.75
562.381	111.75
562.593	112.75
562.805	129.75
563.017	117.75
563.229	117.75
563.441	117.75
563.653	124.75
563.865	116.75
564.077	104.75
564.289	123.75
564.501	125.75
564.713	127.75
564.925	123.75
565.137	128.75
565.349	137.75
565.561	135.75
565.773	125.75
565.985	137.75
566.197	127.75
566.408	136.75
566.62	122.75
566.832	123.75
567.044	126.75
567.255	144.75
567.467	134.75
567.679	134.75
567.891	136.75
568.102	130.75
568.314	136.75
568.526	130.75
568.737	125.75
568.949	121.75
569.161	126.75
569.372	109.75
569.584	122.75
569.795	114.75
570.007	109.75
570.218	111.75
570.43	120.75
570.641	102.75
570.853	104.75
571.064	117.75
571.276	122.75
571.487	124.75
571.698	116.75
571.91	106.75
572.121	119.75
572.333	126.75
572.544	107.75
572.755	105.75
572.966	100.75
573.178	99.75
573.389	111.75
573.6	103.75
573.811	120.75
574.023	114.75
574.234	110.75
574.445	105.75
574.656	122.75
574.867	111.75
575.078	132.75
575.289	114.75
575.501	110.75
575.712	122.75
575.923	114.75
576.134	121.75
576.345	108.75
576.556	107.75
576.767	109.75
576.978	121.75
577.188	102.75
577.399	117.75
577.61	126.75
577.821	95.75
578.032	107.75
578.243	112.75
578.454	117.75
578.665	102.75
578.875	99.75
579.086	103.75
579.297	109.75
579.508	106.75
579.718	101.75
579.929	111.75
580.14	118.75
580.35	106.75
580.561	112.75
580.772	100.75
580.982	116.75
581.193	111.75
581.403	114.75
581.614	111.75
581.825	108.75
582.035	110.75
582.246	117.75
582.456	106.75
582.667	101.75
582.877	117.75
583.087	101.75
583.298	121.75
583.508	116.75
583.719	106.75
583.929	92.75
584.139	115.75
584.35	107.75
584.56	116.75
584.77	111.75
584.981	106.75
585.191	110.75
585.401	107.75
585.611	98.75
585.821	112.75
586.032	118.75
586.242	118.75
586.452	119.75
586.662	118.75
586.872	94.75
587.082	108.75
587.292	114.75
587.502	101.75
587.713	106.75
587.923	100.75
588.133	115.75
588.343	109.75
588.553	100.75
588.762	98.75
588.972	117.75
589.182	107.75
589.392	96.75
589.602	107.75
589.812	109.75
590.022	101.75
590.232	109.75
590.441	102.75
590.651	93.75
590.861	110.75
591.071	106.75
591.281	114.75
591.49	109.75
591.7	105.75
591.91	109.75
592.119	103.75
592.329	108.75
592.539	108.75
592.748	110.75
592.958	108.75
593.167	116.75
593.377	112.75
593.587	101.75
593.796	103.75
594.006	95.75
594.215	115.75
594.424	109.75
594.634	104.75
594.843	115.75
595.053	90.75
595.262	109.75
595.472	107.75
595.681	105.75
595.89	87.75
596.1	109.75
596.309	100.75
596.518	108.75
596.727	112.75
596.937	113.75
597.146	99.75
597.355	96.75
597.564	104.75
597.774	99.75
597.983	98.75
598.192	86.75
598.401	107.75
598.61	96.75
598.819	107.75
599.028	92.75
599.237	95.75
599.446	116.75
599.655	105.75
599.864	104.75
600.073	111.75
600.282	101.75
600.491	94.75
600.7	95.75
600.909	112.75
601.118	101.75
601.327	103.75
601.536	98.75
601.745	102.75
601.953	89.75
602.162	113.75
602.371	94.75
602.58	89.75
602.789	114.75
602.997	100.75
603.206	105.75
603.415	95.75
603.623	96.75
603.832	114.75
604.041	105.75
604.249	102.75
604.458	104.75
604.666	98.75
604.875	103.75
605.084	91.75
605.292	104.75
605.501	99.75
605.709	103.75
605.918	109.75
606.126	115.75
606.334	98.75
606.543	101.75
606.751	103.75
606.96	105.75
607.168	119.75
607.376	111.75
607.585	111.75
607.793	109.75
608.001	94.75
608.21	100.75
608.418	107.75
608.626	95.75
608.834	99.75
609.043	101.75
609.251	98.75
609.459	102.75
609.667	110.75
609.875	116.75
610.083	103.75
610.291	112.75
610.499	103.75
610.707	106.75
610.916	105.75
611.124	103.75
611.332	109.75
611.54	104.75
611.748	118.75
611.955	118.75
612.163	100.75
612.371	103.75
612.579	98.75
612.787	114.75
612.995	95.75
613.203	104.75
613.411	100.75
613.618	101.75
613.826	88.75
614.034	86.75
614.242	102.75
614.449	105.75
614.657	107.75
614.865	108.75
615.072	111.75
615.28	97.75
615.488	99.75
615.695	102.75
615.903	116.75
616.111	98.75
616.318	95.75
616.526	115.75
616.733	100.75
616.941	112.75
617.148	108.75
617.356	95.75
617.563	97.75
617.771	94.75
617.978	94.75
618.185	110.75
618.393	101.75
618.6	102.75
618.807	95.75
619.015	102.75
619.222	95.75
619.429	103.75
619.637	95.75
619.844	92.75
620.051	92.75
620.258	106.75
620.466	106.75
620.673	98.75
620.88	107.75
621.087	98.75
621.294	115.75
621.501	94.75
621.708	100.75
621.915	104.75
622.122	88.75
622.329	89.75
622.536	100.75
622.743	109.75
622.95	117.75
623.157	84.75
623.364	110.75
623.571	100.75
623.778	107.75
623.985	107.75
624.192	110.75
624.399	106.75
624.606	104.75
624.812	95.75
625.019	97.75
625.226	95.75
625.433	93.75
625.639	101.75
625.846	105.75
626.053	97.75
626.259	93.75
626.466	111.75
626.673	100.75
626.879	91.75
627.086	84.75
627.293	89.75
627.499	101.75
627.706	96.75
627.912	99.75
628.119	104.75
628.325	100.75
628.532	103.75
628.738	85.75
628.945	103.75
629.151	106.75
629.357	98.75
629.564	86.75
629.77	104.75
629.976	94.75
630.183	104.75
630.389	88.75
630.595	80.75
630.802	91.75
631.008	91.75
631.214	101.75
631.42	81.75
631.627	89.75
631.833	83.75
632.039	97.75
632.245	98.75
632.451	101.75
632.657	86.75
632.863	91.75
633.069	86.75
633.275	82.75
633.481	106.75
633.688	84.75
633.893	103.75
634.099	106.75
634.305	83.75
634.511	86.75
634.717	95.75
634.923	74.75
635.129	89.75
635.335	98.75
635.541	101.75
635.747	90.75
635.952	110.75
636.158	91.75
636.364	80.75
636.57	100.75
636.775	99.75
636.981	85.75
637.187	91.75
637.392	97.75
637.598	101.75
637.804	100.75
638.009	101.75
638.215	104.75
638.421	101.75
638.626	82.75
638.832	96.75
639.037	103.75
639.243	84.75
639.448	86.75
639.654	90.75
639.859	96.75
640.065	105.75
640.27	98.75
640.475	97.75
640.681	82.75
640.886	101.75
641.091	86.75
641.297	94.75
641.502	93.75
641.707	109.75
641.913	91.75
642.118	89.75
642.323	87.75
642.528	83.75
642.733	99.75
642.939	101.75
643.144	100.75
643.349	95.75
643.554	92.75
643.759	107.75
643.964	84.75
644.169	92.75
644.374	102.75
644.579	90.75
644.784	103.75
644.989	93.75
645.194	88.75
645.399	97.75
645.604	84.75
645.809	107.75
646.014	100.75
646.219	113.75
646.423	90.75
646.628	93.75
646.833	90.75
647.038	88.75
647.243	95.75
647.447	91.75
647.652	85.75
647.857	88.75
648.062	99.75
648.266	92.75
648.471	83.75
648.676	97.75
648.88	103.75
649.085	88.75
649.289	91.75
649.494	109.75
649.698	86.75
649.903	88.75
650.107	101.75
650.312	100.75
650.516	77.75
650.721	84.75
650.925	95.75
651.13	78.75
651.334	112.75
651.539	100.75
651.743	91.75
651.947	93.75
652.152	87.75
652.356	97.75
652.56	94.75
652.764	94.75
652.969	82.75
653.173	97.75
653.377	95.75
653.581	89.75
653.785	93.75
653.99	78.75
654.194	95.75
654.398	79.75
654.602	90.75
654.806	80.75
655.01	79.75
655.214	72.75
655.418	94.75
655.622	88.75
655.826	80.75
656.03	80.75
656.234	90.75
656.438	79.75
656.642	93.75
656.846	84.75
657.049	80.75
657.253	91.75
657.457	101.75
657.661	89.75
657.865	90.75
658.068	89.75
658.272	90.75
658.476	90.75
658.68	82.75
658.883	86.75
659.087	93.75
659.291	91.75
659.494	84.75
659.698	88.75
659.901	87.75
660.105	87.75
660.309	84.75
660.512	84.75
660.716	87.75
660.919	83.75
661.123	96.75
661.326	90.75
661.53	80.75
661.733	87.75
661.936	84.75
662.14	77.75
662.343	88.75
662.546	93.75
662.75	87.75
662.953	95.75
663.156	80.75
663.36	87.75
663.563	83.75
663.766	77.75
663.969	86.75
664.173	99.75
664.376	80.75
664.579	92.75
664.782	85.75
664.985	92.75
665.188	83.75
665.391	88.75
665.594	80.75
665.797	84.75
666	91.75
666.203	79.75
666.406	74.75
666.609	87.75
666.812	79.75
667.015	81.75
667.218	90.75
667.421	70.75
667.624	80.75
667.827	78.75
668.03	72.75
668.232	68.75
668.435	88.75
668.638	86.75
668.841	91.75
669.043	82.75
669.246	91.75
669.449	91.75
669.651	86.75
669.854	86.75
670.057	96.75
670.259	64.75
670.462	67.75
670.665	85.75
670.867	81.75
671.07	86.75
671.272	82.75
671.475	84.75
671.677	83.75
671.88	81.75
672.082	87.75
672.284	83.75
672.487	86.75
672.689	77.75
672.892	69.75
