Data from 1968.PennyLincolnUp.Lamp.En5.5.200Scan.071719.P1._HRD10591_14-51-32-969.txt Node
Date: Thu Jul 18 14:51:32 EDT 2019
User: cochatt
Spectrometer: HR+D1059
Trigger mode: 1
Integration Time (sec): 1.000000E-1
Scans to average: 1
Electric dark correction enabled: true
Nonlinearity correction enabled: false
Boxcar width: 0
XAxis mode: Wavelengths
Number of Pixels in Spectrum: 2048
>>>>>Begin Spectral Data<<<<<
223.165	-26.25
223.4	-26.25
223.635	-26.25
223.869	-9.25
224.104	-24.25
224.338	-20.25
224.573	-6.25
224.808	-3.25
225.042	-8.25
225.277	0.75
225.511	2.75
225.746	-9.25
225.98	6.75
226.215	5.75
226.449	3.75
226.683	22.75
226.918	30.75
227.152	33.75
227.387	29.75
227.621	21.75
227.856	39.75
228.09	50.75
228.324	43.75
228.559	47.75
228.793	62.75
229.027	59.75
229.262	62.75
229.496	62.75
229.73	77.75
229.964	70.75
230.199	74.75
230.433	78.75
230.667	86.75
230.901	79.75
231.136	81.75
231.37	73.75
231.604	87.75
231.838	95.75
232.072	90.75
232.306	82.75
232.541	77.75
232.775	68.75
233.009	91.75
233.243	84.75
233.477	106.75
233.711	89.75
233.945	82.75
234.179	87.75
234.413	94.75
234.647	73.75
234.881	78.75
235.115	85.75
235.349	80.75
235.583	89.75
235.817	90.75
236.051	75.75
236.285	73.75
236.519	77.75
236.753	81.75
236.987	89.75
237.221	74.75
237.455	70.75
237.689	78.75
237.922	84.75
238.156	79.75
238.39	98.75
238.624	88.75
238.858	95.75
239.091	74.75
239.325	95.75
239.559	78.75
239.793	85.75
240.027	91.75
240.26	75.75
240.494	83.75
240.728	86.75
240.961	85.75
241.195	79.75
241.429	89.75
241.662	86.75
241.896	81.75
242.13	66.75
242.363	84.75
242.597	83.75
242.83	82.75
243.064	87.75
243.298	84.75
243.531	83.75
243.765	85.75
243.998	81.75
244.232	96.75
244.465	90.75
244.699	71.75
244.932	86.75
245.166	79.75
245.399	91.75
245.633	92.75
245.866	87.75
246.099	80.75
246.333	105.75
246.566	101.75
246.8	77.75
247.033	103.75
247.266	75.75
247.5	97.75
247.733	75.75
247.966	95.75
248.2	85.75
248.433	80.75
248.666	81.75
248.899	103.75
249.133	84.75
249.366	100.75
249.599	92.75
249.832	97.75
250.066	89.75
250.299	74.75
250.532	99.75
250.765	99.75
250.998	80.75
251.231	81.75
251.465	92.75
251.698	103.75
251.931	80.75
252.164	95.75
252.397	89.75
252.63	84.75
252.863	81.75
253.096	99.75
253.329	86.75
253.562	103.75
253.795	83.75
254.028	77.75
254.261	84.75
254.494	83.75
254.727	93.75
254.96	90.75
255.193	92.75
255.426	83.75
255.659	99.75
255.892	87.75
256.124	91.75
256.357	93.75
256.59	94.75
256.823	80.75
257.056	81.75
257.289	83.75
257.521	86.75
257.754	93.75
257.987	93.75
258.22	89.75
258.452	92.75
258.685	75.75
258.918	90.75
259.151	84.75
259.383	83.75
259.616	94.75
259.849	109.75
260.081	93.75
260.314	77.75
260.547	91.75
260.779	96.75
261.012	90.75
261.244	79.75
261.477	87.75
261.71	90.75
261.942	100.75
262.175	76.75
262.407	103.75
262.64	101.75
262.872	108.75
263.105	86.75
263.337	88.75
263.57	96.75
263.802	94.75
264.035	94.75
264.267	91.75
264.499	85.75
264.732	88.75
264.964	100.75
265.197	95.75
265.429	88.75
265.661	88.75
265.894	98.75
266.126	83.75
266.358	108.75
266.591	92.75
266.823	114.75
267.055	92.75
267.287	80.75
267.52	86.75
267.752	90.75
267.984	106.75
268.216	81.75
268.448	107.75
268.681	95.75
268.913	89.75
269.145	92.75
269.377	102.75
269.609	98.75
269.841	100.75
270.073	92.75
270.306	95.75
270.538	101.75
270.77	105.75
271.002	107.75
271.234	107.75
271.466	101.75
271.698	108.75
271.93	99.75
272.162	106.75
272.394	101.75
272.626	101.75
272.858	111.75
273.09	96.75
273.322	99.75
273.553	95.75
273.785	91.75
274.017	99.75
274.249	97.75
274.481	84.75
274.713	99.75
274.945	103.75
275.176	102.75
275.408	92.75
275.64	101.75
275.872	81.75
276.104	98.75
276.335	83.75
276.567	88.75
276.799	99.75
277.031	109.75
277.262	86.75
277.494	108.75
277.726	111.75
277.957	103.75
278.189	96.75
278.421	100.75
278.652	106.75
278.884	94.75
279.115	113.75
279.347	92.75
279.579	104.75
279.81	103.75
280.042	87.75
280.273	110.75
280.505	93.75
280.736	89.75
280.968	119.75
281.199	90.75
281.431	98.75
281.662	92.75
281.894	100.75
282.125	106.75
282.356	110.75
282.588	110.75
282.819	95.75
283.051	94.75
283.282	92.75
283.513	102.75
283.745	114.75
283.976	96.75
284.207	102.75
284.439	103.75
284.67	103.75
284.901	116.75
285.132	94.75
285.364	109.75
285.595	110.75
285.826	100.75
286.057	100.75
286.288	101.75
286.52	99.75
286.751	114.75
286.982	110.75
287.213	106.75
287.444	93.75
287.675	99.75
287.906	115.75
288.138	107.75
288.369	99.75
288.6	94.75
288.831	99.75
289.062	85.75
289.293	105.75
289.524	101.75
289.755	106.75
289.986	102.75
290.217	96.75
290.448	86.75
290.679	106.75
290.91	103.75
291.141	108.75
291.371	102.75
291.602	107.75
291.833	93.75
292.064	97.75
292.295	108.75
292.526	96.75
292.757	83.75
292.987	98.75
293.218	107.75
293.449	110.75
293.68	110.75
293.91	105.75
294.141	92.75
294.372	110.75
294.603	100.75
294.833	96.75
295.064	108.75
295.295	109.75
295.525	109.75
295.756	101.75
295.987	107.75
296.217	112.75
296.448	104.75
296.679	116.75
296.909	109.75
297.14	100.75
297.37	110.75
297.601	102.75
297.831	105.75
298.062	115.75
298.292	98.75
298.523	106.75
298.753	114.75
298.984	114.75
299.214	99.75
299.445	112.75
299.675	84.75
299.905	102.75
300.136	125.75
300.366	108.75
300.597	101.75
300.827	99.75
301.057	114.75
301.288	101.75
301.518	102.75
301.748	99.75
301.979	112.75
302.209	97.75
302.439	105.75
302.669	109.75
302.9	107.75
303.13	107.75
303.36	97.75
303.59	91.75
303.82	95.75
304.051	105.75
304.281	95.75
304.511	112.75
304.741	105.75
304.971	107.75
305.201	107.75
305.431	106.75
305.661	107.75
305.891	109.75
306.121	119.75
306.352	95.75
306.582	107.75
306.812	89.75
307.042	108.75
307.272	108.75
307.502	111.75
307.731	98.75
307.961	109.75
308.191	103.75
308.421	104.75
308.651	106.75
308.881	108.75
309.111	110.75
309.341	107.75
309.571	96.75
309.8	104.75
310.03	102.75
310.26	106.75
310.49	102.75
310.72	106.75
310.949	103.75
311.179	106.75
311.409	107.75
311.639	107.75
311.868	115.75
312.098	104.75
312.328	105.75
312.557	106.75
312.787	123.75
313.017	120.75
313.246	107.75
313.476	134.75
313.706	115.75
313.935	126.75
314.165	111.75
314.394	120.75
314.624	103.75
314.853	108.75
315.083	126.75
315.312	96.75
315.542	101.75
315.771	115.75
316.001	107.75
316.23	114.75
316.46	100.75
316.689	114.75
316.919	120.75
317.148	117.75
317.377	94.75
317.607	124.75
317.836	115.75
318.065	136.75
318.295	104.75
318.524	114.75
318.753	118.75
318.983	100.75
319.212	111.75
319.441	115.75
319.67	108.75
319.9	114.75
320.129	105.75
320.358	116.75
320.587	102.75
320.816	110.75
321.046	105.75
321.275	116.75
321.504	106.75
321.733	106.75
321.962	111.75
322.191	97.75
322.42	125.75
322.649	120.75
322.878	119.75
323.108	130.75
323.337	110.75
323.566	122.75
323.795	126.75
324.024	118.75
324.253	123.75
324.482	127.75
324.71	166.75
324.939	188.75
325.168	172.75
325.397	116.75
325.626	114.75
325.855	116.75
326.084	121.75
326.313	109.75
326.542	119.75
326.77	102.75
326.999	120.75
327.228	131.75
327.457	171.75
327.686	183.75
327.914	142.75
328.143	122.75
328.372	129.75
328.6	116.75
328.829	107.75
329.058	126.75
329.287	124.75
329.515	105.75
329.744	110.75
329.972	115.75
330.201	122.75
330.43	121.75
330.658	123.75
330.887	130.75
331.115	127.75
331.344	107.75
331.572	114.75
331.801	118.75
332.03	115.75
332.258	116.75
332.486	112.75
332.715	118.75
332.943	114.75
333.172	111.75
333.4	136.75
333.629	132.75
333.857	121.75
334.085	122.75
334.314	115.75
334.542	125.75
334.771	131.75
334.999	118.75
335.227	120.75
335.455	125.75
335.684	122.75
335.912	106.75
336.14	114.75
336.369	104.75
336.597	114.75
336.825	108.75
337.053	123.75
337.281	126.75
337.51	117.75
337.738	118.75
337.966	114.75
338.194	119.75
338.422	113.75
338.65	110.75
338.878	101.75
339.106	118.75
339.334	116.75
339.562	107.75
339.79	90.75
340.018	120.75
340.246	122.75
340.474	117.75
340.702	125.75
340.93	118.75
341.158	106.75
341.386	110.75
341.614	114.75
341.842	129.75
342.07	127.75
342.298	119.75
342.526	115.75
342.754	117.75
342.981	123.75
343.209	113.75
343.437	120.75
343.665	119.75
343.893	113.75
344.12	124.75
344.348	112.75
344.576	114.75
344.804	135.75
345.031	123.75
345.259	108.75
345.487	96.75
345.714	121.75
345.942	127.75
346.17	103.75
346.397	114.75
346.625	120.75
346.853	112.75
347.08	109.75
347.308	109.75
347.535	108.75
347.763	125.75
347.99	120.75
348.218	138.75
348.445	98.75
348.673	113.75
348.9	122.75
349.128	103.75
349.355	118.75
349.583	107.75
349.81	120.75
350.037	124.75
350.265	117.75
350.492	118.75
350.72	108.75
350.947	110.75
351.174	103.75
351.402	116.75
351.629	99.75
351.856	104.75
352.083	117.75
352.311	108.75
352.538	114.75
352.765	124.75
352.992	115.75
353.22	126.75
353.447	109.75
353.674	110.75
353.901	106.75
354.128	115.75
354.355	119.75
354.583	107.75
354.81	116.75
355.037	118.75
355.264	106.75
355.491	122.75
355.718	105.75
355.945	110.75
356.172	119.75
356.399	118.75
356.626	110.75
356.853	107.75
357.08	109.75
357.307	111.75
357.534	111.75
357.761	108.75
357.988	122.75
358.215	104.75
358.441	111.75
358.668	107.75
358.895	108.75
359.122	117.75
359.349	114.75
359.576	115.75
359.802	107.75
360.029	107.75
360.256	110.75
360.483	121.75
360.709	111.75
360.936	106.75
361.163	111.75
361.39	110.75
361.616	117.75
361.843	118.75
362.07	110.75
362.296	112.75
362.523	106.75
362.749	106.75
362.976	116.75
363.203	117.75
363.429	110.75
363.656	107.75
363.882	99.75
364.109	115.75
364.335	120.75
364.562	115.75
364.788	119.75
365.015	121.75
365.241	117.75
365.468	123.75
365.694	111.75
365.92	108.75
366.147	122.75
366.373	112.75
366.599	105.75
366.826	116.75
367.052	104.75
367.278	112.75
367.505	104.75
367.731	120.75
367.957	111.75
368.184	114.75
368.41	111.75
368.636	107.75
368.862	112.75
369.089	114.75
369.315	117.75
369.541	108.75
369.767	108.75
369.993	113.75
370.219	105.75
370.445	114.75
370.672	125.75
370.898	116.75
371.124	106.75
371.35	111.75
371.576	96.75
371.802	119.75
372.028	101.75
372.254	108.75
372.48	111.75
372.706	114.75
372.932	109.75
373.158	109.75
373.384	123.75
373.61	123.75
373.835	127.75
374.061	110.75
374.287	110.75
374.513	105.75
374.739	104.75
374.965	104.75
375.191	119.75
375.416	133.75
375.642	112.75
375.868	112.75
376.094	114.75
376.319	108.75
376.545	118.75
376.771	119.75
376.997	115.75
377.222	117.75
377.448	113.75
377.674	120.75
377.899	115.75
378.125	120.75
378.35	110.75
378.576	113.75
378.802	100.75
379.027	120.75
379.253	101.75
379.478	107.75
379.704	106.75
379.929	119.75
380.155	105.75
380.38	114.75
380.606	116.75
380.831	115.75
381.057	118.75
381.282	103.75
381.507	109.75
381.733	110.75
381.958	112.75
382.184	112.75
382.409	118.75
382.634	123.75
382.86	119.75
383.085	123.75
383.31	105.75
383.535	115.75
383.761	122.75
383.986	127.75
384.211	125.75
384.436	116.75
384.662	133.75
384.887	118.75
385.112	127.75
385.337	109.75
385.562	119.75
385.787	119.75
386.013	135.75
386.238	139.75
386.463	116.75
386.688	104.75
386.913	120.75
387.138	118.75
387.363	124.75
387.588	124.75
387.813	117.75
388.038	126.75
388.263	119.75
388.488	111.75
388.713	124.75
388.938	124.75
389.163	116.75
389.387	117.75
389.612	103.75
389.837	123.75
390.062	115.75
390.287	123.75
390.512	130.75
390.736	121.75
390.961	122.75
391.186	133.75
391.411	122.75
391.636	114.75
391.86	117.75
392.085	129.75
392.31	138.75
392.534	117.75
392.759	134.75
392.984	107.75
393.208	106.75
393.433	131.75
393.658	115.75
393.882	114.75
394.107	116.75
394.331	108.75
394.556	114.75
394.78	125.75
395.005	114.75
395.229	110.75
395.454	107.75
395.678	125.75
395.903	130.75
396.127	122.75
396.352	115.75
396.576	109.75
396.801	123.75
397.025	130.75
397.249	114.75
397.474	119.75
397.698	126.75
397.922	126.75
398.147	134.75
398.371	123.75
398.595	128.75
398.82	126.75
399.044	150.75
399.268	132.75
399.492	146.75
399.717	125.75
399.941	144.75
400.165	142.75
400.389	158.75
400.613	127.75
400.837	140.75
401.062	125.75
401.286	123.75
401.51	120.75
401.734	145.75
401.958	143.75
402.182	116.75
402.406	140.75
402.63	126.75
402.854	140.75
403.078	116.75
403.302	128.75
403.526	136.75
403.75	131.75
403.974	136.75
404.198	135.75
404.422	135.75
404.645	127.75
404.869	136.75
405.093	132.75
405.317	135.75
405.541	132.75
405.765	157.75
405.988	148.75
406.212	131.75
406.436	132.75
406.66	147.75
406.883	135.75
407.107	138.75
407.331	145.75
407.555	144.75
407.778	136.75
408.002	131.75
408.226	135.75
408.449	150.75
408.673	141.75
408.896	137.75
409.12	133.75
409.344	128.75
409.567	133.75
409.791	133.75
410.014	122.75
410.238	138.75
410.461	134.75
410.685	149.75
410.908	134.75
411.132	123.75
411.355	142.75
411.578	142.75
411.802	139.75
412.025	133.75
412.249	139.75
412.472	135.75
412.695	139.75
412.919	137.75
413.142	124.75
413.365	120.75
413.589	127.75
413.812	135.75
414.035	138.75
414.258	130.75
414.482	134.75
414.705	130.75
414.928	130.75
415.151	120.75
415.374	116.75
415.597	119.75
415.821	127.75
416.044	122.75
416.267	107.75
416.49	132.75
416.713	131.75
416.936	138.75
417.159	141.75
417.382	127.75
417.605	137.75
417.828	131.75
418.051	130.75
418.274	134.75
418.497	130.75
418.72	125.75
418.943	130.75
419.166	122.75
419.389	144.75
419.611	138.75
419.834	126.75
420.057	125.75
420.28	135.75
420.503	126.75
420.726	138.75
420.948	143.75
421.171	140.75
421.394	140.75
421.617	133.75
421.839	128.75
422.062	137.75
422.285	135.75
422.507	142.75
422.73	139.75
422.953	133.75
423.175	136.75
423.398	143.75
423.621	127.75
423.843	156.75
424.066	145.75
424.288	129.75
424.511	133.75
424.733	137.75
424.956	135.75
425.178	128.75
425.401	128.75
425.623	152.75
425.846	133.75
426.068	127.75
426.291	123.75
426.513	142.75
426.735	143.75
426.958	134.75
427.18	128.75
427.402	142.75
427.625	159.75
427.847	144.75
428.069	130.75
428.292	136.75
428.514	131.75
428.736	139.75
428.958	143.75
429.181	126.75
429.403	130.75
429.625	124.75
429.847	138.75
430.069	143.75
430.292	133.75
430.514	131.75
430.736	127.75
430.958	121.75
431.18	109.75
431.402	120.75
431.624	122.75
431.846	122.75
432.068	131.75
432.29	121.75
432.512	114.75
432.734	123.75
432.956	133.75
433.178	126.75
433.4	116.75
433.622	135.75
433.844	142.75
434.066	119.75
434.287	126.75
434.509	128.75
434.731	148.75
434.953	130.75
435.175	131.75
435.397	130.75
435.618	141.75
435.84	142.75
436.062	143.75
436.284	140.75
436.505	142.75
436.727	131.75
436.949	129.75
437.17	121.75
437.392	128.75
437.614	138.75
437.835	134.75
438.057	136.75
438.278	144.75
438.5	130.75
438.721	158.75
438.943	157.75
439.165	134.75
439.386	128.75
439.608	134.75
439.829	138.75
440.05	134.75
440.272	148.75
440.493	134.75
440.715	128.75
440.936	138.75
441.158	127.75
441.379	132.75
441.6	122.75
441.822	133.75
442.043	136.75
442.264	140.75
442.486	134.75
442.707	132.75
442.928	127.75
443.149	121.75
443.371	140.75
443.592	131.75
443.813	148.75
444.034	146.75
444.255	138.75
444.476	158.75
444.698	140.75
444.919	127.75
445.14	251.75
445.361	189.75
445.582	141.75
445.803	153.75
446.024	133.75
446.245	147.75
446.466	148.75
446.687	147.75
446.908	129.75
447.129	127.75
447.35	134.75
447.571	142.75
447.792	132.75
448.013	138.75
448.234	116.75
448.455	136.75
448.675	140.75
448.896	143.75
449.117	119.75
449.338	121.75
449.559	136.75
449.779	147.75
450	124.75
450.221	127.75
450.442	134.75
450.662	119.75
450.883	137.75
451.104	134.75
451.324	127.75
451.545	119.75
451.766	122.75
451.986	115.75
452.207	119.75
452.428	121.75
452.648	127.75
452.869	147.75
453.089	125.75
453.31	140.75
453.53	116.75
453.751	139.75
453.971	118.75
454.192	131.75
454.412	111.75
454.633	124.75
454.853	120.75
455.073	125.75
455.294	121.75
455.514	140.75
455.734	125.75
455.955	111.75
456.175	100.75
456.395	118.75
456.616	107.75
456.836	107.75
457.056	119.75
457.276	133.75
457.497	118.75
457.717	112.75
457.937	112.75
458.157	100.75
458.377	100.75
458.598	113.75
458.818	116.75
459.038	122.75
459.258	117.75
459.478	122.75
459.698	124.75
459.918	126.75
460.138	125.75
460.358	128.75
460.578	137.75
460.798	122.75
461.018	130.75
461.238	129.75
461.458	139.75
461.678	116.75
461.898	141.75
462.118	117.75
462.338	129.75
462.558	119.75
462.777	135.75
462.997	143.75
463.217	139.75
463.437	139.75
463.657	144.75
463.876	139.75
464.096	128.75
464.316	139.75
464.536	143.75
464.755	148.75
464.975	141.75
465.195	132.75
465.414	139.75
465.634	130.75
465.854	128.75
466.073	122.75
466.293	128.75
466.512	114.75
466.732	131.75
466.951	128.75
467.171	127.75
467.391	120.75
467.61	117.75
467.829	124.75
468.049	131.75
468.268	123.75
468.488	123.75
468.707	127.75
468.927	130.75
469.146	121.75
469.365	114.75
469.585	114.75
469.804	137.75
470.023	128.75
470.243	116.75
470.462	124.75
470.681	131.75
470.901	133.75
471.12	126.75
471.339	124.75
471.558	127.75
471.777	127.75
471.997	124.75
472.216	122.75
472.435	124.75
472.654	130.75
472.873	108.75
473.092	132.75
473.311	112.75
473.53	116.75
473.749	131.75
473.968	132.75
474.187	131.75
474.406	131.75
474.625	125.75
474.844	122.75
475.063	124.75
475.282	128.75
475.501	121.75
475.72	121.75
475.939	108.75
476.158	136.75
476.377	139.75
476.596	136.75
476.814	130.75
477.033	115.75
477.252	128.75
477.471	124.75
477.69	144.75
477.908	139.75
478.127	125.75
478.346	121.75
478.564	128.75
478.783	142.75
479.002	131.75
479.22	134.75
479.439	127.75
479.658	135.75
479.876	127.75
480.095	145.75
480.313	123.75
480.532	136.75
480.751	130.75
480.969	138.75
481.188	142.75
481.406	142.75
481.624	136.75
481.843	132.75
482.061	123.75
482.28	145.75
482.498	138.75
482.717	128.75
482.935	132.75
483.153	119.75
483.372	148.75
483.59	147.75
483.808	142.75
484.027	136.75
484.245	136.75
484.463	142.75
484.681	144.75
484.9	123.75
485.118	125.75
485.336	138.75
485.554	141.75
485.772	128.75
485.99	136.75
486.209	141.75
486.427	134.75
486.645	134.75
486.863	149.75
487.081	148.75
487.299	121.75
487.517	158.75
487.735	147.75
487.953	148.75
488.171	133.75
488.389	146.75
488.607	143.75
488.825	126.75
489.043	142.75
489.261	160.75
489.479	139.75
489.696	137.75
489.914	130.75
490.132	145.75
490.35	132.75
490.568	135.75
490.786	135.75
491.003	135.75
491.221	138.75
491.439	156.75
491.657	162.75
491.874	140.75
492.092	158.75
492.31	157.75
492.527	150.75
492.745	144.75
492.963	160.75
493.18	142.75
493.398	142.75
493.615	160.75
493.833	143.75
494.05	153.75
494.268	139.75
494.485	139.75
494.703	147.75
494.92	152.75
495.138	142.75
495.355	138.75
495.573	146.75
495.79	144.75
496.008	157.75
496.225	139.75
496.442	142.75
496.66	151.75
496.877	136.75
497.094	147.75
497.312	134.75
497.529	142.75
497.746	150.75
497.963	167.75
498.181	150.75
498.398	152.75
498.615	166.75
498.832	143.75
499.049	161.75
499.267	178.75
499.484	184.75
499.701	174.75
499.918	207.75
500.135	205.75
500.352	207.75
500.569	212.75
500.786	230.75
501.003	202.75
501.22	198.75
501.437	200.75
501.654	196.75
501.871	178.75
502.088	154.75
502.305	154.75
502.522	168.75
502.739	160.75
502.956	162.75
503.172	152.75
503.389	161.75
503.606	143.75
503.823	154.75
504.04	146.75
504.256	147.75
504.473	150.75
504.69	146.75
504.907	148.75
505.123	153.75
505.34	138.75
505.557	145.75
505.773	144.75
505.99	132.75
506.207	131.75
506.423	142.75
506.64	129.75
506.856	130.75
507.073	132.75
507.289	129.75
507.506	136.75
507.722	130.75
507.939	118.75
508.155	129.75
508.372	124.75
508.588	127.75
508.805	135.75
509.021	145.75
509.238	139.75
509.454	134.75
509.67	132.75
509.887	133.75
510.103	130.75
510.319	128.75
510.536	142.75
510.752	184.75
510.968	154.75
511.184	122.75
511.401	137.75
511.617	125.75
511.833	133.75
512.049	139.75
512.265	126.75
512.481	130.75
512.698	118.75
512.914	135.75
513.13	128.75
513.346	127.75
513.562	123.75
513.778	111.75
513.994	134.75
514.21	126.75
514.426	123.75
514.642	139.75
514.858	143.75
515.074	148.75
515.29	137.75
515.506	163.75
515.721	150.75
515.937	152.75
516.153	138.75
516.369	132.75
516.585	135.75
516.801	128.75
517.016	137.75
517.232	152.75
517.448	132.75
517.664	137.75
517.879	144.75
518.095	144.75
518.311	145.75
518.527	132.75
518.742	138.75
518.958	137.75
519.173	132.75
519.389	139.75
519.605	131.75
519.82	123.75
520.036	120.75
520.251	134.75
520.467	137.75
520.682	120.75
520.898	144.75
521.113	125.75
521.329	164.75
521.544	135.75
521.76	144.75
521.975	191.75
522.19	190.75
522.406	144.75
522.621	132.75
522.836	136.75
523.052	132.75
523.267	128.75
523.482	120.75
523.698	130.75
523.913	130.75
524.128	128.75
524.343	125.75
524.559	135.75
524.774	136.75
524.989	130.75
525.204	134.75
525.419	131.75
525.634	124.75
525.849	122.75
526.064	118.75
526.28	120.75
526.495	121.75
526.71	124.75
526.925	115.75
527.14	112.75
527.355	106.75
527.57	124.75
527.785	124.75
527.999	134.75
528.214	120.75
528.429	131.75
528.644	146.75
528.859	118.75
529.074	146.75
529.289	136.75
529.503	126.75
529.718	121.75
529.933	115.75
530.148	141.75
530.363	123.75
530.577	126.75
530.792	127.75
531.007	112.75
531.221	117.75
531.436	132.75
531.651	130.75
531.865	114.75
532.08	110.75
532.295	115.75
532.509	116.75
532.724	119.75
532.938	119.75
533.153	109.75
533.367	134.75
533.582	126.75
533.796	133.75
534.011	119.75
534.225	116.75
534.44	109.75
534.654	113.75
534.868	140.75
535.083	113.75
535.297	118.75
535.511	116.75
535.726	123.75
535.94	133.75
536.154	119.75
536.369	136.75
536.583	115.75
536.797	126.75
537.011	121.75
537.225	121.75
537.44	123.75
537.654	127.75
537.868	138.75
538.082	132.75
538.296	114.75
538.51	124.75
538.724	125.75
538.938	130.75
539.153	117.75
539.367	133.75
539.581	131.75
539.795	117.75
540.009	102.75
540.222	118.75
540.436	135.75
540.65	131.75
540.864	127.75
541.078	134.75
541.292	121.75
541.506	132.75
541.72	148.75
541.934	142.75
542.147	128.75
542.361	136.75
542.575	123.75
542.789	162.75
543.002	128.75
543.216	128.75
543.43	141.75
543.644	122.75
543.857	131.75
544.071	136.75
544.285	154.75
544.498	134.75
544.712	134.75
544.925	137.75
545.139	137.75
545.352	139.75
545.566	141.75
545.779	126.75
545.993	138.75
546.206	149.75
546.42	158.75
546.633	127.75
546.847	142.75
547.06	123.75
547.274	117.75
547.487	151.75
547.7	132.75
547.914	130.75
548.127	130.75
548.34	119.75
548.554	126.75
548.767	122.75
548.98	132.75
549.193	128.75
549.407	131.75
549.62	126.75
549.833	134.75
550.046	127.75
550.259	119.75
550.473	136.75
550.686	138.75
550.899	127.75
551.112	133.75
551.325	130.75
551.538	119.75
551.751	132.75
551.964	135.75
552.177	123.75
552.39	118.75
552.603	124.75
552.816	135.75
553.029	140.75
553.242	129.75
553.455	133.75
553.667	135.75
553.88	127.75
554.093	137.75
554.306	142.75
554.519	120.75
554.732	128.75
554.944	138.75
555.157	130.75
555.37	126.75
555.583	125.75
555.795	121.75
556.008	111.75
556.221	119.75
556.433	111.75
556.646	126.75
556.859	132.75
557.071	126.75
557.284	120.75
557.496	135.75
557.709	118.75
557.921	125.75
558.134	130.75
558.346	112.75
558.559	128.75
558.771	127.75
558.984	128.75
559.196	112.75
559.409	117.75
559.621	118.75
559.833	119.75
560.046	116.75
560.258	120.75
560.47	114.75
560.683	114.75
560.895	117.75
561.107	141.75
561.32	122.75
561.532	108.75
561.744	122.75
561.956	127.75
562.168	107.75
562.381	116.75
562.593	120.75
562.805	117.75
563.017	114.75
563.229	126.75
563.441	135.75
563.653	121.75
563.865	126.75
564.077	110.75
564.289	123.75
564.501	125.75
564.713	128.75
564.925	124.75
565.137	122.75
565.349	125.75
565.561	118.75
565.773	134.75
565.985	132.75
566.197	128.75
566.408	135.75
566.62	142.75
566.832	129.75
567.044	132.75
567.255	122.75
567.467	126.75
567.679	133.75
567.891	141.75
568.102	133.75
568.314	131.75
568.526	145.75
568.737	125.75
568.949	130.75
569.161	131.75
569.372	111.75
569.584	119.75
569.795	118.75
570.007	127.75
570.218	111.75
570.43	110.75
570.641	116.75
570.853	136.75
571.064	119.75
571.276	124.75
571.487	112.75
571.698	117.75
571.91	116.75
572.121	113.75
572.333	110.75
572.544	108.75
572.755	116.75
572.966	121.75
573.178	126.75
573.389	91.75
573.6	108.75
573.811	104.75
574.023	109.75
574.234	105.75
574.445	105.75
574.656	100.75
574.867	114.75
575.078	115.75
575.289	112.75
575.501	116.75
575.712	105.75
575.923	122.75
576.134	114.75
576.345	115.75
576.556	122.75
576.767	109.75
576.978	107.75
577.188	113.75
577.399	111.75
577.61	122.75
577.821	104.75
578.032	115.75
578.243	107.75
578.454	120.75
578.665	112.75
578.875	119.75
579.086	101.75
579.297	114.75
579.508	96.75
579.718	114.75
579.929	105.75
580.14	124.75
580.35	111.75
580.561	102.75
580.772	133.75
580.982	100.75
581.193	118.75
581.403	115.75
581.614	116.75
581.825	118.75
582.035	116.75
582.246	106.75
582.456	101.75
582.667	115.75
582.877	116.75
583.087	101.75
583.298	101.75
583.508	107.75
583.719	108.75
583.929	127.75
584.139	106.75
584.35	114.75
584.56	107.75
584.77	109.75
584.981	99.75
585.191	107.75
585.401	101.75
585.611	114.75
585.821	118.75
586.032	97.75
586.242	97.75
586.452	117.75
586.662	103.75
586.872	110.75
587.082	115.75
587.292	111.75
587.502	110.75
587.713	108.75
587.923	100.75
588.133	110.75
588.343	103.75
588.553	108.75
588.762	109.75
588.972	111.75
589.182	105.75
589.392	120.75
589.602	115.75
589.812	108.75
590.022	111.75
590.232	103.75
590.441	114.75
590.651	105.75
590.861	104.75
591.071	102.75
591.281	114.75
591.49	111.75
591.7	116.75
591.91	128.75
592.119	111.75
592.329	108.75
592.539	110.75
592.748	127.75
592.958	104.75
593.167	114.75
593.377	140.75
593.587	118.75
593.796	107.75
594.006	103.75
594.215	115.75
594.424	102.75
594.634	115.75
594.843	94.75
595.053	116.75
595.262	106.75
595.472	103.75
595.681	102.75
595.89	99.75
596.1	107.75
596.309	106.75
596.518	114.75
596.727	105.75
596.937	112.75
597.146	101.75
597.355	108.75
597.564	112.75
597.774	110.75
597.983	104.75
598.192	118.75
598.401	104.75
598.61	125.75
598.819	122.75
599.028	93.75
599.237	111.75
599.446	93.75
599.655	106.75
599.864	115.75
600.073	104.75
600.282	114.75
600.491	98.75
600.7	111.75
600.909	118.75
601.118	109.75
601.327	111.75
601.536	111.75
601.745	102.75
601.953	108.75
602.162	93.75
602.371	99.75
602.58	98.75
602.789	99.75
602.997	111.75
603.206	120.75
603.415	102.75
603.623	105.75
603.832	103.75
604.041	98.75
604.249	101.75
604.458	97.75
604.666	96.75
604.875	110.75
605.084	107.75
605.292	102.75
605.501	108.75
605.709	108.75
605.918	109.75
606.126	116.75
606.334	100.75
606.543	102.75
606.751	130.75
606.96	89.75
607.168	105.75
607.376	103.75
607.585	95.75
607.793	111.75
608.001	95.75
608.21	105.75
608.418	95.75
608.626	100.75
608.834	118.75
609.043	100.75
609.251	110.75
609.459	104.75
609.667	93.75
609.875	115.75
610.083	100.75
610.291	114.75
610.499	107.75
610.707	95.75
610.916	118.75
611.124	120.75
611.332	123.75
611.54	129.75
611.748	130.75
611.955	108.75
612.163	108.75
612.371	118.75
612.579	102.75
612.787	112.75
612.995	122.75
613.203	102.75
613.411	100.75
613.618	120.75
613.826	116.75
614.034	117.75
614.242	115.75
614.449	102.75
614.657	107.75
614.865	101.75
615.072	114.75
615.28	102.75
615.488	121.75
615.695	117.75
615.903	109.75
616.111	82.75
616.318	111.75
616.526	103.75
616.733	116.75
616.941	112.75
617.148	107.75
617.356	103.75
617.563	95.75
617.771	108.75
617.978	108.75
618.185	113.75
618.393	111.75
618.6	92.75
618.807	104.75
619.015	101.75
619.222	109.75
619.429	109.75
619.637	104.75
619.844	85.75
620.051	110.75
620.258	102.75
620.466	114.75
620.673	108.75
620.88	114.75
621.087	116.75
621.294	100.75
621.501	98.75
621.708	106.75
621.915	91.75
622.122	120.75
622.329	110.75
622.536	107.75
622.743	105.75
622.95	91.75
623.157	93.75
623.364	100.75
623.571	102.75
623.778	86.75
623.985	112.75
624.192	100.75
624.399	103.75
624.606	107.75
624.812	105.75
625.019	104.75
625.226	111.75
625.433	100.75
625.639	104.75
625.846	116.75
626.053	106.75
626.259	93.75
626.466	107.75
626.673	95.75
626.879	105.75
627.086	99.75
627.293	90.75
627.499	101.75
627.706	91.75
627.912	94.75
628.119	95.75
628.325	111.75
628.532	114.75
628.738	106.75
628.945	103.75
629.151	98.75
629.357	108.75
629.564	96.75
629.77	96.75
629.976	98.75
630.183	104.75
630.389	103.75
630.595	116.75
630.802	105.75
631.008	96.75
631.214	107.75
631.42	103.75
631.627	101.75
631.833	110.75
632.039	100.75
632.245	108.75
632.451	103.75
632.657	105.75
632.863	101.75
633.069	98.75
633.275	100.75
633.481	109.75
633.688	103.75
633.893	111.75
634.099	105.75
634.305	94.75
634.511	101.75
634.717	106.75
634.923	102.75
635.129	96.75
635.335	95.75
635.541	90.75
635.747	84.75
635.952	96.75
636.158	91.75
636.364	102.75
636.57	101.75
636.775	92.75
636.981	93.75
637.187	89.75
637.392	97.75
637.598	86.75
637.804	97.75
638.009	114.75
638.215	106.75
638.421	102.75
638.626	93.75
638.832	106.75
639.037	89.75
639.243	92.75
639.448	103.75
639.654	89.75
639.859	90.75
640.065	92.75
640.27	105.75
640.475	89.75
640.681	89.75
640.886	95.75
641.091	110.75
641.297	115.75
641.502	64.75
641.707	82.75
641.913	87.75
642.118	103.75
642.323	98.75
642.528	115.75
642.733	88.75
642.939	90.75
643.144	111.75
643.349	101.75
643.554	104.75
643.759	96.75
643.964	102.75
644.169	105.75
644.374	96.75
644.579	100.75
644.784	99.75
644.989	98.75
645.194	91.75
645.399	98.75
645.604	101.75
645.809	98.75
646.014	106.75
646.219	89.75
646.423	92.75
646.628	92.75
646.833	94.75
647.038	109.75
647.243	92.75
647.447	88.75
647.652	102.75
647.857	86.75
648.062	80.75
648.266	105.75
648.471	98.75
648.676	94.75
648.88	99.75
649.085	108.75
649.289	102.75
649.494	98.75
649.698	96.75
649.903	106.75
650.107	94.75
650.312	119.75
650.516	100.75
650.721	95.75
650.925	94.75
651.13	98.75
651.334	104.75
651.539	101.75
651.743	103.75
651.947	89.75
652.152	82.75
652.356	89.75
652.56	89.75
652.764	100.75
652.969	83.75
653.173	98.75
653.377	102.75
653.581	93.75
653.785	103.75
653.99	106.75
654.194	92.75
654.398	85.75
654.602	85.75
654.806	93.75
655.01	99.75
655.214	91.75
655.418	87.75
655.622	82.75
655.826	75.75
656.03	83.75
656.234	88.75
656.438	86.75
656.642	100.75
656.846	84.75
657.049	84.75
657.253	98.75
657.457	82.75
657.661	92.75
657.865	97.75
658.068	85.75
658.272	91.75
658.476	84.75
658.68	87.75
658.883	93.75
659.087	80.75
659.291	101.75
659.494	90.75
659.698	88.75
659.901	93.75
660.105	76.75
660.309	79.75
660.512	99.75
660.716	93.75
660.919	89.75
661.123	95.75
661.326	75.75
661.53	79.75
661.733	92.75
661.936	79.75
662.14	91.75
662.343	86.75
662.546	88.75
662.75	92.75
662.953	80.75
663.156	95.75
663.36	76.75
663.563	86.75
663.766	82.75
663.969	82.75
664.173	87.75
664.376	91.75
664.579	93.75
664.782	81.75
664.985	79.75
665.188	88.75
665.391	80.75
665.594	79.75
665.797	78.75
666	100.75
666.203	78.75
666.406	81.75
666.609	97.75
666.812	93.75
667.015	89.75
667.218	88.75
667.421	92.75
667.624	93.75
667.827	71.75
668.03	84.75
668.232	81.75
668.435	75.75
668.638	85.75
668.841	85.75
669.043	83.75
669.246	96.75
669.449	78.75
669.651	91.75
669.854	86.75
670.057	91.75
670.259	98.75
670.462	85.75
670.665	81.75
670.867	79.75
671.07	87.75
671.272	71.75
671.475	91.75
671.677	100.75
671.88	94.75
672.082	90.75
672.284	77.75
672.487	78.75
672.689	84.75
672.892	87.75
