Data from 1968.PennyLincolnUp.Lamp.En5.5.200Scan.071719.P1._HRD10591_14-50-42-970.txt Node
Date: Thu Jul 18 14:50:42 EDT 2019
User: cochatt
Spectrometer: HR+D1059
Trigger mode: 1
Integration Time (sec): 1.000000E-1
Scans to average: 1
Electric dark correction enabled: true
Nonlinearity correction enabled: false
Boxcar width: 0
XAxis mode: Wavelengths
Number of Pixels in Spectrum: 2048
>>>>>Begin Spectral Data<<<<<
223.165	-12.12
223.4	-12.12
223.635	-12.12
223.869	-18.12
224.104	-28.12
224.338	-14.12
224.573	-2.12
224.808	-11.12
225.042	-4.12
225.277	4.88
225.511	-11.12
225.746	-3.12
225.98	0.88
226.215	5.88
226.449	23.88
226.683	19.88
226.918	14.88
227.152	33.88
227.387	33.88
227.621	42.88
227.856	46.88
228.09	51.88
228.324	38.88
228.559	56.88
228.793	61.88
229.027	68.88
229.262	69.88
229.496	58.88
229.73	61.88
229.964	77.88
230.199	67.88
230.433	80.88
230.667	88.88
230.901	64.88
231.136	84.88
231.37	71.88
231.604	81.88
231.838	87.88
232.072	77.88
232.306	74.88
232.541	87.88
232.775	85.88
233.009	71.88
233.243	82.88
233.477	88.88
233.711	89.88
233.945	72.88
234.179	78.88
234.413	81.88
234.647	85.88
234.881	78.88
235.115	70.88
235.349	98.88
235.583	77.88
235.817	72.88
236.051	75.88
236.285	74.88
236.519	78.88
236.753	80.88
236.987	89.88
237.221	81.88
237.455	84.88
237.689	90.88
237.922	69.88
238.156	78.88
238.39	70.88
238.624	76.88
238.858	84.88
239.091	85.88
239.325	81.88
239.559	70.88
239.793	87.88
240.027	82.88
240.26	74.88
240.494	91.88
240.728	89.88
240.961	88.88
241.195	98.88
241.429	74.88
241.662	85.88
241.896	83.88
242.13	74.88
242.363	84.88
242.597	82.88
242.83	88.88
243.064	87.88
243.298	74.88
243.531	76.88
243.765	91.88
243.998	76.88
244.232	75.88
244.465	75.88
244.699	72.88
244.932	93.88
245.166	87.88
245.399	84.88
245.633	93.88
245.866	100.88
246.099	83.88
246.333	76.88
246.566	78.88
246.8	87.88
247.033	79.88
247.266	86.88
247.5	85.88
247.733	79.88
247.966	83.88
248.2	75.88
248.433	85.88
248.666	79.88
248.899	96.88
249.133	85.88
249.366	98.88
249.599	88.88
249.832	88.88
250.066	100.88
250.299	90.88
250.532	83.88
250.765	91.88
250.998	78.88
251.231	82.88
251.465	87.88
251.698	84.88
251.931	91.88
252.164	90.88
252.397	77.88
252.63	84.88
252.863	91.88
253.096	97.88
253.329	82.88
253.562	89.88
253.795	91.88
254.028	80.88
254.261	89.88
254.494	100.88
254.727	96.88
254.96	93.88
255.193	90.88
255.426	89.88
255.659	76.88
255.892	100.88
256.124	93.88
256.357	86.88
256.59	88.88
256.823	93.88
257.056	102.88
257.289	99.88
257.521	84.88
257.754	92.88
257.987	90.88
258.22	101.88
258.452	89.88
258.685	93.88
258.918	83.88
259.151	83.88
259.383	85.88
259.616	88.88
259.849	84.88
260.081	86.88
260.314	81.88
260.547	92.88
260.779	86.88
261.012	84.88
261.244	96.88
261.477	100.88
261.71	91.88
261.942	98.88
262.175	97.88
262.407	102.88
262.64	92.88
262.872	83.88
263.105	97.88
263.337	97.88
263.57	102.88
263.802	82.88
264.035	100.88
264.267	92.88
264.499	85.88
264.732	99.88
264.964	88.88
265.197	101.88
265.429	84.88
265.661	86.88
265.894	92.88
266.126	96.88
266.358	98.88
266.591	106.88
266.823	96.88
267.055	94.88
267.287	96.88
267.52	84.88
267.752	94.88
267.984	94.88
268.216	100.88
268.448	100.88
268.681	97.88
268.913	89.88
269.145	101.88
269.377	108.88
269.609	69.88
269.841	95.88
270.073	98.88
270.306	106.88
270.538	90.88
270.77	97.88
271.002	109.88
271.234	98.88
271.466	97.88
271.698	100.88
271.93	108.88
272.162	93.88
272.394	85.88
272.626	99.88
272.858	105.88
273.09	121.88
273.322	95.88
273.553	82.88
273.785	104.88
274.017	93.88
274.249	85.88
274.481	88.88
274.713	93.88
274.945	85.88
275.176	85.88
275.408	92.88
275.64	96.88
275.872	90.88
276.104	93.88
276.335	84.88
276.567	90.88
276.799	97.88
277.031	95.88
277.262	94.88
277.494	87.88
277.726	99.88
277.957	94.88
278.189	104.88
278.421	97.88
278.652	101.88
278.884	102.88
279.115	103.88
279.347	84.88
279.579	103.88
279.81	98.88
280.042	102.88
280.273	84.88
280.505	89.88
280.736	104.88
280.968	98.88
281.199	108.88
281.431	99.88
281.662	89.88
281.894	101.88
282.125	102.88
282.356	94.88
282.588	108.88
282.819	102.88
283.051	83.88
283.282	106.88
283.513	87.88
283.745	115.88
283.976	105.88
284.207	94.88
284.439	81.88
284.67	90.88
284.901	96.88
285.132	95.88
285.364	87.88
285.595	84.88
285.826	97.88
286.057	103.88
286.288	110.88
286.52	106.88
286.751	93.88
286.982	98.88
287.213	99.88
287.444	102.88
287.675	105.88
287.906	106.88
288.138	102.88
288.369	103.88
288.6	101.88
288.831	109.88
289.062	102.88
289.293	98.88
289.524	101.88
289.755	101.88
289.986	107.88
290.217	102.88
290.448	98.88
290.679	112.88
290.91	100.88
291.141	91.88
291.371	110.88
291.602	84.88
291.833	116.88
292.064	111.88
292.295	83.88
292.526	92.88
292.757	85.88
292.987	120.88
293.218	108.88
293.449	84.88
293.68	99.88
293.91	103.88
294.141	98.88
294.372	78.88
294.603	104.88
294.833	98.88
295.064	99.88
295.295	94.88
295.525	91.88
295.756	105.88
295.987	116.88
296.217	91.88
296.448	101.88
296.679	105.88
296.909	99.88
297.14	107.88
297.37	96.88
297.601	99.88
297.831	97.88
298.062	98.88
298.292	92.88
298.523	114.88
298.753	108.88
298.984	103.88
299.214	100.88
299.445	105.88
299.675	101.88
299.905	116.88
300.136	98.88
300.366	91.88
300.597	105.88
300.827	100.88
301.057	88.88
301.288	99.88
301.518	104.88
301.748	114.88
301.979	103.88
302.209	102.88
302.439	106.88
302.669	112.88
302.9	108.88
303.13	103.88
303.36	93.88
303.59	102.88
303.82	117.88
304.051	106.88
304.281	97.88
304.511	104.88
304.741	112.88
304.971	106.88
305.201	98.88
305.431	98.88
305.661	99.88
305.891	100.88
306.121	91.88
306.352	101.88
306.582	89.88
306.812	104.88
307.042	115.88
307.272	100.88
307.502	107.88
307.731	92.88
307.961	98.88
308.191	105.88
308.421	118.88
308.651	114.88
308.881	101.88
309.111	96.88
309.341	104.88
309.571	105.88
309.8	109.88
310.03	103.88
310.26	108.88
310.49	98.88
310.72	94.88
310.949	105.88
311.179	122.88
311.409	112.88
311.639	93.88
311.868	114.88
312.098	90.88
312.328	99.88
312.557	102.88
312.787	102.88
313.017	104.88
313.246	109.88
313.476	105.88
313.706	109.88
313.935	109.88
314.165	110.88
314.394	109.88
314.624	94.88
314.853	113.88
315.083	102.88
315.312	96.88
315.542	115.88
315.771	102.88
316.001	99.88
316.23	106.88
316.46	107.88
316.689	101.88
316.919	90.88
317.148	120.88
317.377	106.88
317.607	103.88
317.836	109.88
318.065	109.88
318.295	107.88
318.524	113.88
318.753	97.88
318.983	107.88
319.212	106.88
319.441	106.88
319.67	105.88
319.9	116.88
320.129	101.88
320.358	93.88
320.587	112.88
320.816	105.88
321.046	104.88
321.275	111.88
321.504	112.88
321.733	117.88
321.962	120.88
322.191	91.88
322.42	112.88
322.649	105.88
322.878	100.88
323.108	114.88
323.337	115.88
323.566	106.88
323.795	112.88
324.024	109.88
324.253	120.88
324.482	132.88
324.71	166.88
324.939	173.88
325.168	156.88
325.397	116.88
325.626	118.88
325.855	124.88
326.084	115.88
326.313	114.88
326.542	104.88
326.77	112.88
326.999	120.88
327.228	122.88
327.457	149.88
327.686	156.88
327.914	119.88
328.143	134.88
328.372	117.88
328.6	93.88
328.829	119.88
329.058	106.88
329.287	113.88
329.515	101.88
329.744	101.88
329.972	107.88
330.201	112.88
330.43	110.88
330.658	125.88
330.887	111.88
331.115	124.88
331.344	121.88
331.572	101.88
331.801	95.88
332.03	101.88
332.258	113.88
332.486	114.88
332.715	112.88
332.943	98.88
333.172	124.88
333.4	105.88
333.629	118.88
333.857	117.88
334.085	109.88
334.314	118.88
334.542	107.88
334.771	111.88
334.999	111.88
335.227	100.88
335.455	120.88
335.684	87.88
335.912	107.88
336.14	116.88
336.369	119.88
336.597	111.88
336.825	114.88
337.053	103.88
337.281	108.88
337.51	122.88
337.738	116.88
337.966	125.88
338.194	112.88
338.422	110.88
338.65	92.88
338.878	124.88
339.106	124.88
339.334	113.88
339.562	114.88
339.79	116.88
340.018	117.88
340.246	115.88
340.474	122.88
340.702	107.88
340.93	114.88
341.158	109.88
341.386	115.88
341.614	115.88
341.842	123.88
342.07	117.88
342.298	110.88
342.526	98.88
342.754	102.88
342.981	114.88
343.209	100.88
343.437	109.88
343.665	104.88
343.893	109.88
344.12	107.88
344.348	114.88
344.576	122.88
344.804	117.88
345.031	117.88
345.259	102.88
345.487	112.88
345.714	112.88
345.942	111.88
346.17	123.88
346.397	118.88
346.625	107.88
346.853	110.88
347.08	118.88
347.308	124.88
347.535	109.88
347.763	117.88
347.99	102.88
348.218	113.88
348.445	90.88
348.673	101.88
348.9	107.88
349.128	102.88
349.355	91.88
349.583	108.88
349.81	114.88
350.037	106.88
350.265	118.88
350.492	105.88
350.72	104.88
350.947	102.88
351.174	103.88
351.402	91.88
351.629	107.88
351.856	104.88
352.083	115.88
352.311	117.88
352.538	102.88
352.765	104.88
352.992	107.88
353.22	110.88
353.447	105.88
353.674	120.88
353.901	107.88
354.128	93.88
354.355	109.88
354.583	109.88
354.81	104.88
355.037	107.88
355.264	102.88
355.491	116.88
355.718	114.88
355.945	121.88
356.172	108.88
356.399	92.88
356.626	108.88
356.853	118.88
357.08	104.88
357.307	100.88
357.534	101.88
357.761	105.88
357.988	104.88
358.215	106.88
358.441	108.88
358.668	94.88
358.895	95.88
359.122	88.88
359.349	116.88
359.576	120.88
359.802	102.88
360.029	108.88
360.256	101.88
360.483	88.88
360.709	120.88
360.936	112.88
361.163	111.88
361.39	107.88
361.616	118.88
361.843	108.88
362.07	104.88
362.296	105.88
362.523	112.88
362.749	98.88
362.976	104.88
363.203	109.88
363.429	115.88
363.656	106.88
363.882	109.88
364.109	117.88
364.335	97.88
364.562	100.88
364.788	117.88
365.015	112.88
365.241	99.88
365.468	132.88
365.694	99.88
365.92	107.88
366.147	109.88
366.373	112.88
366.599	122.88
366.826	100.88
367.052	104.88
367.278	105.88
367.505	109.88
367.731	119.88
367.957	104.88
368.184	112.88
368.41	105.88
368.636	120.88
368.862	116.88
369.089	93.88
369.315	107.88
369.541	99.88
369.767	98.88
369.993	97.88
370.219	120.88
370.445	125.88
370.672	124.88
370.898	112.88
371.124	114.88
371.35	116.88
371.576	114.88
371.802	113.88
372.028	105.88
372.254	109.88
372.48	108.88
372.706	103.88
372.932	117.88
373.158	119.88
373.384	117.88
373.61	99.88
373.835	116.88
374.061	113.88
374.287	106.88
374.513	118.88
374.739	115.88
374.965	100.88
375.191	115.88
375.416	116.88
375.642	113.88
375.868	115.88
376.094	115.88
376.319	111.88
376.545	115.88
376.771	117.88
376.997	99.88
377.222	112.88
377.448	104.88
377.674	114.88
377.899	104.88
378.125	83.88
378.35	110.88
378.576	118.88
378.802	114.88
379.027	93.88
379.253	112.88
379.478	103.88
379.704	116.88
379.929	101.88
380.155	123.88
380.38	105.88
380.606	113.88
380.831	100.88
381.057	105.88
381.282	109.88
381.507	126.88
381.733	126.88
381.958	122.88
382.184	114.88
382.409	103.88
382.634	115.88
382.86	110.88
383.085	100.88
383.31	102.88
383.535	107.88
383.761	108.88
383.986	122.88
384.211	115.88
384.436	116.88
384.662	119.88
384.887	127.88
385.112	106.88
385.337	108.88
385.562	113.88
385.787	113.88
386.013	125.88
386.238	123.88
386.463	124.88
386.688	122.88
386.913	115.88
387.138	116.88
387.363	113.88
387.588	110.88
387.813	102.88
388.038	119.88
388.263	108.88
388.488	105.88
388.713	120.88
388.938	115.88
389.163	114.88
389.387	121.88
389.612	118.88
389.837	110.88
390.062	110.88
390.287	131.88
390.512	119.88
390.736	116.88
390.961	127.88
391.186	124.88
391.411	121.88
391.636	116.88
391.86	133.88
392.085	126.88
392.31	102.88
392.534	107.88
392.759	126.88
392.984	110.88
393.208	116.88
393.433	122.88
393.658	126.88
393.882	125.88
394.107	118.88
394.331	123.88
394.556	111.88
394.78	125.88
395.005	118.88
395.229	120.88
395.454	115.88
395.678	118.88
395.903	137.88
396.127	125.88
396.352	130.88
396.576	118.88
396.801	110.88
397.025	132.88
397.249	113.88
397.474	134.88
397.698	132.88
397.922	125.88
398.147	130.88
398.371	123.88
398.595	128.88
398.82	133.88
399.044	135.88
399.268	145.88
399.492	132.88
399.717	154.88
399.941	146.88
400.165	152.88
400.389	135.88
400.613	125.88
400.837	123.88
401.062	132.88
401.286	129.88
401.51	123.88
401.734	134.88
401.958	125.88
402.182	122.88
402.406	119.88
402.63	132.88
402.854	135.88
403.078	126.88
403.302	124.88
403.526	137.88
403.75	132.88
403.974	115.88
404.198	136.88
404.422	138.88
404.645	136.88
404.869	120.88
405.093	136.88
405.317	142.88
405.541	126.88
405.765	122.88
405.988	140.88
406.212	136.88
406.436	137.88
406.66	146.88
406.883	137.88
407.107	132.88
407.331	140.88
407.555	142.88
407.778	142.88
408.002	129.88
408.226	139.88
408.449	126.88
408.673	144.88
408.896	140.88
409.12	140.88
409.344	129.88
409.567	113.88
409.791	132.88
410.014	141.88
410.238	122.88
410.461	122.88
410.685	136.88
410.908	121.88
411.132	124.88
411.355	133.88
411.578	138.88
411.802	130.88
412.025	117.88
412.249	125.88
412.472	139.88
412.695	127.88
412.919	118.88
413.142	122.88
413.365	121.88
413.589	120.88
413.812	121.88
414.035	122.88
414.258	131.88
414.482	136.88
414.705	123.88
414.928	141.88
415.151	126.88
415.374	129.88
415.597	129.88
415.821	130.88
416.044	115.88
416.267	125.88
416.49	125.88
416.713	125.88
416.936	124.88
417.159	122.88
417.382	127.88
417.605	129.88
417.828	125.88
418.051	128.88
418.274	132.88
418.497	121.88
418.72	130.88
418.943	124.88
419.166	121.88
419.389	131.88
419.611	132.88
419.834	120.88
420.057	134.88
420.28	117.88
420.503	117.88
420.726	114.88
420.948	117.88
421.171	131.88
421.394	128.88
421.617	134.88
421.839	122.88
422.062	127.88
422.285	125.88
422.507	139.88
422.73	125.88
422.953	123.88
423.175	135.88
423.398	125.88
423.621	124.88
423.843	121.88
424.066	136.88
424.288	127.88
424.511	132.88
424.733	149.88
424.956	141.88
425.178	128.88
425.401	138.88
425.623	135.88
425.846	143.88
426.068	142.88
426.291	127.88
426.513	125.88
426.735	128.88
426.958	136.88
427.18	129.88
427.402	143.88
427.625	151.88
427.847	124.88
428.069	130.88
428.292	133.88
428.514	126.88
428.736	133.88
428.958	128.88
429.181	132.88
429.403	109.88
429.625	111.88
429.847	126.88
430.069	136.88
430.292	138.88
430.514	126.88
430.736	124.88
430.958	125.88
431.18	122.88
431.402	125.88
431.624	124.88
431.846	114.88
432.068	115.88
432.29	122.88
432.512	125.88
432.734	109.88
432.956	128.88
433.178	127.88
433.4	129.88
433.622	129.88
433.844	136.88
434.066	118.88
434.287	122.88
434.509	135.88
434.731	129.88
434.953	128.88
435.175	118.88
435.397	122.88
435.618	125.88
435.84	132.88
436.062	128.88
436.284	133.88
436.505	118.88
436.727	116.88
436.949	133.88
437.17	126.88
437.392	123.88
437.614	126.88
437.835	116.88
438.057	133.88
438.278	135.88
438.5	117.88
438.721	132.88
438.943	128.88
439.165	121.88
439.386	123.88
439.608	139.88
439.829	130.88
440.05	123.88
440.272	120.88
440.493	156.88
440.715	133.88
440.936	120.88
441.158	140.88
441.379	136.88
441.6	125.88
441.822	135.88
442.043	139.88
442.264	146.88
442.486	148.88
442.707	120.88
442.928	134.88
443.149	131.88
443.371	140.88
443.592	133.88
443.813	129.88
444.034	147.88
444.255	123.88
444.476	143.88
444.698	121.88
444.919	136.88
445.14	216.88
445.361	185.88
445.582	137.88
445.803	142.88
446.024	143.88
446.245	142.88
446.466	120.88
446.687	136.88
446.908	130.88
447.129	128.88
447.35	137.88
447.571	124.88
447.792	115.88
448.013	123.88
448.234	127.88
448.455	128.88
448.675	124.88
448.896	115.88
449.117	142.88
449.338	124.88
449.559	140.88
449.779	149.88
450	136.88
450.221	120.88
450.442	131.88
450.662	118.88
450.883	124.88
451.104	134.88
451.324	116.88
451.545	118.88
451.766	128.88
451.986	121.88
452.207	118.88
452.428	123.88
452.648	107.88
452.869	116.88
453.089	116.88
453.31	130.88
453.53	127.88
453.751	132.88
453.971	123.88
454.192	113.88
454.412	108.88
454.633	112.88
454.853	107.88
455.073	118.88
455.294	117.88
455.514	120.88
455.734	119.88
455.955	113.88
456.175	120.88
456.395	108.88
456.616	106.88
456.836	117.88
457.056	122.88
457.276	119.88
457.497	117.88
457.717	128.88
457.937	114.88
458.157	124.88
458.377	112.88
458.598	120.88
458.818	112.88
459.038	130.88
459.258	130.88
459.478	118.88
459.698	112.88
459.918	132.88
460.138	136.88
460.358	121.88
460.578	128.88
460.798	136.88
461.018	129.88
461.238	116.88
461.458	129.88
461.678	139.88
461.898	129.88
462.118	134.88
462.338	136.88
462.558	133.88
462.777	147.88
462.997	141.88
463.217	140.88
463.437	123.88
463.657	136.88
463.876	130.88
464.096	121.88
464.316	134.88
464.536	139.88
464.755	140.88
464.975	126.88
465.195	155.88
465.414	123.88
465.634	135.88
465.854	130.88
466.073	124.88
466.293	109.88
466.512	120.88
466.732	114.88
466.951	122.88
467.171	112.88
467.391	113.88
467.61	117.88
467.829	121.88
468.049	116.88
468.268	119.88
468.488	121.88
468.707	120.88
468.927	117.88
469.146	121.88
469.365	130.88
469.585	120.88
469.804	124.88
470.023	132.88
470.243	115.88
470.462	122.88
470.681	118.88
470.901	118.88
471.12	121.88
471.339	121.88
471.558	132.88
471.777	126.88
471.997	143.88
472.216	110.88
472.435	132.88
472.654	116.88
472.873	110.88
473.092	100.88
473.311	126.88
473.53	122.88
473.749	115.88
473.968	126.88
474.187	122.88
474.406	114.88
474.625	117.88
474.844	123.88
475.063	125.88
475.282	135.88
475.501	119.88
475.72	134.88
475.939	124.88
476.158	128.88
476.377	130.88
476.596	129.88
476.814	122.88
477.033	121.88
477.252	132.88
477.471	119.88
477.69	120.88
477.908	128.88
478.127	126.88
478.346	130.88
478.564	125.88
478.783	125.88
479.002	113.88
479.22	134.88
479.439	123.88
479.658	128.88
479.876	141.88
480.095	123.88
480.313	133.88
480.532	130.88
480.751	122.88
480.969	128.88
481.188	133.88
481.406	136.88
481.624	128.88
481.843	131.88
482.061	138.88
482.28	124.88
482.498	142.88
482.717	127.88
482.935	128.88
483.153	125.88
483.372	132.88
483.59	128.88
483.808	137.88
484.027	130.88
484.245	145.88
484.463	112.88
484.681	150.88
484.9	135.88
485.118	134.88
485.336	137.88
485.554	126.88
485.772	137.88
485.99	129.88
486.209	132.88
486.427	134.88
486.645	128.88
486.863	107.88
487.081	118.88
487.299	136.88
487.517	122.88
487.735	147.88
487.953	148.88
488.171	136.88
488.389	146.88
488.607	141.88
488.825	128.88
489.043	128.88
489.261	135.88
489.479	130.88
489.696	134.88
489.914	133.88
490.132	140.88
490.35	140.88
490.568	114.88
490.786	124.88
491.003	139.88
491.221	143.88
491.439	136.88
491.657	138.88
491.874	149.88
492.092	138.88
492.31	145.88
492.527	148.88
492.745	141.88
492.963	126.88
493.18	121.88
493.398	140.88
493.615	152.88
493.833	149.88
494.05	147.88
494.268	145.88
494.485	130.88
494.703	141.88
494.92	149.88
495.138	134.88
495.355	166.88
495.573	138.88
495.79	142.88
496.008	140.88
496.225	141.88
496.442	160.88
496.66	142.88
496.877	148.88
497.094	135.88
497.312	136.88
497.529	138.88
497.746	161.88
497.963	157.88
498.181	146.88
498.398	159.88
498.615	161.88
498.832	163.88
499.049	158.88
499.267	150.88
499.484	160.88
499.701	166.88
499.918	181.88
500.135	180.88
500.352	201.88
500.569	200.88
500.786	219.88
501.003	195.88
501.22	177.88
501.437	194.88
501.654	185.88
501.871	180.88
502.088	147.88
502.305	171.88
502.522	169.88
502.739	169.88
502.956	131.88
503.172	162.88
503.389	133.88
503.606	130.88
503.823	138.88
504.04	153.88
504.256	166.88
504.473	161.88
504.69	140.88
504.907	148.88
505.123	151.88
505.34	133.88
505.557	104.88
505.773	125.88
505.99	140.88
506.207	138.88
506.423	139.88
506.64	135.88
506.856	129.88
507.073	130.88
507.289	128.88
507.506	135.88
507.722	136.88
507.939	124.88
508.155	135.88
508.372	139.88
508.588	129.88
508.805	126.88
509.021	121.88
509.238	128.88
509.454	122.88
509.67	122.88
509.887	133.88
510.103	118.88
510.319	137.88
510.536	136.88
510.752	148.88
510.968	148.88
511.184	130.88
511.401	126.88
511.617	123.88
511.833	134.88
512.049	126.88
512.265	107.88
512.481	129.88
512.698	126.88
512.914	139.88
513.13	148.88
513.346	122.88
513.562	117.88
513.778	116.88
513.994	134.88
514.21	128.88
514.426	121.88
514.642	118.88
514.858	130.88
515.074	126.88
515.29	149.88
515.506	178.88
515.721	136.88
515.937	120.88
516.153	126.88
516.369	147.88
516.585	138.88
516.801	122.88
517.016	129.88
517.232	140.88
517.448	139.88
517.664	149.88
517.879	150.88
518.095	132.88
518.311	128.88
518.527	130.88
518.742	136.88
518.958	125.88
519.173	128.88
519.389	119.88
519.605	143.88
519.82	136.88
520.036	147.88
520.251	120.88
520.467	139.88
520.682	126.88
520.898	111.88
521.113	134.88
521.329	126.88
521.544	130.88
521.76	146.88
521.975	178.88
522.19	174.88
522.406	139.88
522.621	126.88
522.836	125.88
523.052	118.88
523.267	133.88
523.482	126.88
523.698	126.88
523.913	131.88
524.128	118.88
524.343	127.88
524.559	130.88
524.774	115.88
524.989	121.88
525.204	122.88
525.419	104.88
525.634	113.88
525.849	119.88
526.064	117.88
526.28	123.88
526.495	113.88
526.71	119.88
526.925	131.88
527.14	105.88
527.355	117.88
527.57	110.88
527.785	112.88
527.999	120.88
528.214	142.88
528.429	132.88
528.644	128.88
528.859	132.88
529.074	109.88
529.289	148.88
529.503	134.88
529.718	133.88
529.933	116.88
530.148	121.88
530.363	124.88
530.577	120.88
530.792	121.88
531.007	112.88
531.221	116.88
531.436	120.88
531.651	107.88
531.865	106.88
532.08	124.88
532.295	122.88
532.509	135.88
532.724	122.88
532.938	107.88
533.153	117.88
533.367	121.88
533.582	125.88
533.796	115.88
534.011	109.88
534.225	131.88
534.44	125.88
534.654	138.88
534.868	117.88
535.083	131.88
535.297	119.88
535.511	109.88
535.726	124.88
535.94	100.88
536.154	124.88
536.369	130.88
536.583	104.88
536.797	122.88
537.011	105.88
537.225	108.88
537.44	121.88
537.654	116.88
537.868	105.88
538.082	121.88
538.296	111.88
538.51	122.88
538.724	113.88
538.938	125.88
539.153	130.88
539.367	126.88
539.581	122.88
539.795	116.88
540.009	110.88
540.222	116.88
540.436	108.88
540.65	128.88
540.864	120.88
541.078	134.88
541.292	127.88
541.506	129.88
541.72	126.88
541.934	140.88
542.147	134.88
542.361	117.88
542.575	120.88
542.789	132.88
543.002	130.88
543.216	135.88
543.43	147.88
543.644	133.88
543.857	142.88
544.071	141.88
544.285	124.88
544.498	130.88
544.712	115.88
544.925	125.88
545.139	135.88
545.352	129.88
545.566	142.88
545.779	124.88
545.993	136.88
546.206	149.88
546.42	142.88
546.633	117.88
546.847	130.88
547.06	129.88
547.274	134.88
547.487	127.88
547.7	126.88
547.914	125.88
548.127	122.88
548.34	116.88
548.554	132.88
548.767	146.88
548.98	134.88
549.193	114.88
549.407	132.88
549.62	132.88
549.833	133.88
550.046	125.88
550.259	121.88
550.473	121.88
550.686	135.88
550.899	124.88
551.112	130.88
551.325	123.88
551.538	136.88
551.751	122.88
551.964	133.88
552.177	124.88
552.39	122.88
552.603	131.88
552.816	134.88
553.029	137.88
553.242	128.88
553.455	132.88
553.667	124.88
553.88	132.88
554.093	135.88
554.306	120.88
554.519	132.88
554.732	120.88
554.944	118.88
555.157	126.88
555.37	124.88
555.583	126.88
555.795	134.88
556.008	128.88
556.221	120.88
556.433	108.88
556.646	109.88
556.859	112.88
557.071	124.88
557.284	112.88
557.496	113.88
557.709	130.88
557.921	120.88
558.134	125.88
558.346	132.88
558.559	123.88
558.771	115.88
558.984	125.88
559.196	126.88
559.409	132.88
559.621	125.88
559.833	104.88
560.046	123.88
560.258	110.88
560.47	110.88
560.683	117.88
560.895	101.88
561.107	109.88
561.32	116.88
561.532	101.88
561.744	106.88
561.956	128.88
562.168	120.88
562.381	126.88
562.593	125.88
562.805	105.88
563.017	126.88
563.229	124.88
563.441	118.88
563.653	115.88
563.865	113.88
564.077	112.88
564.289	123.88
564.501	133.88
564.713	116.88
564.925	116.88
565.137	127.88
565.349	137.88
565.561	126.88
565.773	118.88
565.985	123.88
566.197	132.88
566.408	120.88
566.62	123.88
566.832	133.88
567.044	99.88
567.255	124.88
567.467	136.88
567.679	130.88
567.891	138.88
568.102	128.88
568.314	130.88
568.526	135.88
568.737	125.88
568.949	125.88
569.161	122.88
569.372	123.88
569.584	121.88
569.795	116.88
570.007	100.88
570.218	119.88
570.43	108.88
570.641	107.88
570.853	107.88
571.064	127.88
571.276	99.88
571.487	108.88
571.698	124.88
571.91	115.88
572.121	119.88
572.333	110.88
572.544	120.88
572.755	113.88
572.966	110.88
573.178	98.88
573.389	112.88
573.6	105.88
573.811	112.88
574.023	93.88
574.234	98.88
574.445	109.88
574.656	98.88
574.867	94.88
575.078	114.88
575.289	101.88
575.501	97.88
575.712	105.88
575.923	102.88
576.134	106.88
576.345	121.88
576.556	110.88
576.767	109.88
576.978	117.88
577.188	117.88
577.399	97.88
577.61	106.88
577.821	103.88
578.032	109.88
578.243	123.88
578.454	124.88
578.665	121.88
578.875	102.88
579.086	109.88
579.297	112.88
579.508	109.88
579.718	110.88
579.929	106.88
580.14	109.88
580.35	89.88
580.561	109.88
580.772	109.88
580.982	109.88
581.193	105.88
581.403	101.88
581.614	93.88
581.825	106.88
582.035	100.88
582.246	107.88
582.456	106.88
582.667	106.88
582.877	114.88
583.087	124.88
583.298	113.88
583.508	94.88
583.719	110.88
583.929	112.88
584.139	116.88
584.35	98.88
584.56	107.88
584.77	114.88
584.981	98.88
585.191	120.88
585.401	98.88
585.611	110.88
585.821	93.88
586.032	113.88
586.242	102.88
586.452	114.88
586.662	107.88
586.872	112.88
587.082	101.88
587.292	105.88
587.502	104.88
587.713	96.88
587.923	113.88
588.133	115.88
588.343	99.88
588.553	105.88
588.762	116.88
588.972	105.88
589.182	104.88
589.392	106.88
589.602	93.88
589.812	93.88
590.022	111.88
590.232	98.88
590.441	108.88
590.651	98.88
590.861	120.88
591.071	112.88
591.281	100.88
591.49	96.88
591.7	116.88
591.91	110.88
592.119	112.88
592.329	101.88
592.539	114.88
592.748	128.88
592.958	115.88
593.167	111.88
593.377	124.88
593.587	128.88
593.796	113.88
594.006	99.88
594.215	113.88
594.424	110.88
594.634	105.88
594.843	105.88
595.053	97.88
595.262	98.88
595.472	121.88
595.681	107.88
595.89	96.88
596.1	102.88
596.309	106.88
596.518	107.88
596.727	101.88
596.937	109.88
597.146	109.88
597.355	99.88
597.564	106.88
597.774	107.88
597.983	105.88
598.192	101.88
598.401	106.88
598.61	99.88
598.819	105.88
599.028	97.88
599.237	108.88
599.446	114.88
599.655	88.88
599.864	105.88
600.073	95.88
600.282	88.88
600.491	105.88
600.7	97.88
600.909	96.88
601.118	110.88
601.327	86.88
601.536	109.88
601.745	115.88
601.953	103.88
602.162	106.88
602.371	97.88
602.58	92.88
602.789	107.88
602.997	92.88
603.206	89.88
603.415	86.88
603.623	100.88
603.832	86.88
604.041	95.88
604.249	98.88
604.458	88.88
604.666	91.88
604.875	105.88
605.084	110.88
605.292	114.88
605.501	93.88
605.709	92.88
605.918	109.88
606.126	99.88
606.334	103.88
606.543	119.88
606.751	108.88
606.96	104.88
607.168	94.88
607.376	105.88
607.585	116.88
607.793	102.88
608.001	110.88
608.21	101.88
608.418	87.88
608.626	115.88
608.834	104.88
609.043	104.88
609.251	97.88
609.459	92.88
609.667	108.88
609.875	93.88
610.083	88.88
610.291	101.88
610.499	96.88
610.707	101.88
610.916	101.88
611.124	98.88
611.332	119.88
611.54	116.88
611.748	104.88
611.955	114.88
612.163	122.88
612.371	104.88
612.579	110.88
612.787	101.88
612.995	112.88
613.203	132.88
613.411	101.88
613.618	102.88
613.826	116.88
614.034	91.88
614.242	102.88
614.449	100.88
614.657	100.88
614.865	117.88
615.072	109.88
615.28	104.88
615.488	95.88
615.695	112.88
615.903	112.88
616.111	104.88
616.318	99.88
616.526	97.88
616.733	116.88
616.941	96.88
617.148	106.88
617.356	99.88
617.563	98.88
617.771	103.88
617.978	97.88
618.185	95.88
618.393	100.88
618.6	93.88
618.807	102.88
619.015	101.88
619.222	91.88
619.429	93.88
619.637	108.88
619.844	98.88
620.051	96.88
620.258	85.88
620.466	99.88
620.673	93.88
620.88	102.88
621.087	89.88
621.294	101.88
621.501	93.88
621.708	100.88
621.915	100.88
622.122	95.88
622.329	108.88
622.536	96.88
622.743	101.88
622.95	103.88
623.157	108.88
623.364	102.88
623.571	99.88
623.778	91.88
623.985	106.88
624.192	91.88
624.399	111.88
624.606	85.88
624.812	106.88
625.019	99.88
625.226	94.88
625.433	105.88
625.639	102.88
625.846	110.88
626.053	79.88
626.259	112.88
626.466	99.88
626.673	92.88
626.879	98.88
627.086	100.88
627.293	86.88
627.499	89.88
627.706	110.88
627.912	97.88
628.119	100.88
628.325	99.88
628.532	100.88
628.738	97.88
628.945	96.88
629.151	91.88
629.357	91.88
629.564	89.88
629.77	108.88
629.976	91.88
630.183	99.88
630.389	96.88
630.595	87.88
630.802	78.88
631.008	105.88
631.214	104.88
631.42	94.88
631.627	95.88
631.833	96.88
632.039	90.88
632.245	107.88
632.451	94.88
632.657	97.88
632.863	84.88
633.069	66.88
633.275	96.88
633.481	90.88
633.688	97.88
633.893	98.88
634.099	70.88
634.305	84.88
634.511	102.88
634.717	107.88
634.923	98.88
635.129	104.88
635.335	89.88
635.541	91.88
635.747	96.88
635.952	101.88
636.158	90.88
636.364	88.88
636.57	96.88
636.775	97.88
636.981	89.88
637.187	94.88
637.392	93.88
637.598	82.88
637.804	97.88
638.009	109.88
638.215	107.88
638.421	92.88
638.626	95.88
638.832	99.88
639.037	89.88
639.243	88.88
639.448	84.88
639.654	90.88
639.859	93.88
640.065	97.88
640.27	109.88
640.475	87.88
640.681	92.88
640.886	92.88
641.091	90.88
641.297	92.88
641.502	101.88
641.707	99.88
641.913	88.88
642.118	101.88
642.323	102.88
642.528	89.88
642.733	96.88
642.939	94.88
643.144	91.88
643.349	90.88
643.554	88.88
643.759	90.88
643.964	108.88
644.169	102.88
644.374	99.88
644.579	96.88
644.784	92.88
644.989	93.88
645.194	103.88
645.399	102.88
645.604	91.88
645.809	99.88
646.014	91.88
646.219	101.88
646.423	94.88
646.628	97.88
646.833	89.88
647.038	98.88
647.243	116.88
647.447	91.88
647.652	103.88
647.857	89.88
648.062	90.88
648.266	90.88
648.471	91.88
648.676	96.88
648.88	82.88
649.085	98.88
649.289	85.88
649.494	83.88
649.698	84.88
649.903	98.88
650.107	93.88
650.312	92.88
650.516	88.88
650.721	94.88
650.925	90.88
651.13	98.88
651.334	81.88
651.539	80.88
651.743	88.88
651.947	89.88
652.152	87.88
652.356	82.88
652.56	85.88
652.764	89.88
652.969	94.88
653.173	86.88
653.377	92.88
653.581	106.88
653.785	78.88
653.99	84.88
654.194	86.88
654.398	80.88
654.602	79.88
654.806	90.88
655.01	94.88
655.214	81.88
655.418	84.88
655.622	92.88
655.826	88.88
656.03	83.88
656.234	93.88
656.438	82.88
656.642	94.88
656.846	91.88
657.049	90.88
657.253	95.88
657.457	82.88
657.661	85.88
657.865	78.88
658.068	80.88
658.272	81.88
658.476	88.88
658.68	86.88
658.883	75.88
659.087	84.88
659.291	95.88
659.494	80.88
659.698	101.88
659.901	92.88
660.105	88.88
660.309	91.88
660.512	84.88
660.716	86.88
660.919	90.88
661.123	92.88
661.326	89.88
661.53	92.88
661.733	92.88
661.936	94.88
662.14	80.88
662.343	78.88
662.546	84.88
662.75	82.88
662.953	94.88
663.156	74.88
663.36	73.88
663.563	75.88
663.766	87.88
663.969	81.88
664.173	76.88
664.376	86.88
664.579	76.88
664.782	83.88
664.985	101.88
665.188	92.88
665.391	85.88
665.594	88.88
665.797	69.88
666	90.88
666.203	75.88
666.406	90.88
666.609	87.88
666.812	87.88
667.015	85.88
667.218	65.88
667.421	82.88
667.624	63.88
667.827	85.88
668.03	76.88
668.232	70.88
668.435	83.88
668.638	93.88
668.841	84.88
669.043	73.88
669.246	80.88
669.449	74.88
669.651	77.88
669.854	75.88
670.057	94.88
670.259	79.88
670.462	82.88
670.665	86.88
670.867	84.88
671.07	74.88
671.272	88.88
671.475	89.88
671.677	66.88
671.88	79.88
672.082	92.88
672.284	84.88
672.487	86.88
672.689	87.88
672.892	76.88
