Data from 1968.PennyLincolnUp.Lamp.En5.5.200Scan.071719.P1._HRD10591_14-50-35-969.txt Node
Date: Thu Jul 18 14:50:35 EDT 2019
User: cochatt
Spectrometer: HR+D1059
Trigger mode: 1
Integration Time (sec): 1.000000E-1
Scans to average: 1
Electric dark correction enabled: true
Nonlinearity correction enabled: false
Boxcar width: 0
XAxis mode: Wavelengths
Number of Pixels in Spectrum: 2048
>>>>>Begin Spectral Data<<<<<
223.165	-7.62
223.4	-7.62
223.635	-7.62
223.869	-20.62
224.104	-16.62
224.338	-6.62
224.573	-6.62
224.808	-10.62
225.042	-2.62
225.277	1.38
225.511	-4.62
225.746	-7.62
225.98	9.38
226.215	8.38
226.449	3.38
226.683	12.38
226.918	15.38
227.152	33.38
227.387	27.38
227.621	40.38
227.856	33.38
228.09	52.38
228.324	56.38
228.559	49.38
228.793	62.38
229.027	67.38
229.262	81.38
229.496	74.38
229.73	85.38
229.964	85.38
230.199	83.38
230.433	76.38
230.667	82.38
230.901	95.38
231.136	82.38
231.37	85.38
231.604	107.38
231.838	95.38
232.072	83.38
232.306	93.38
232.541	84.38
232.775	88.38
233.009	107.38
233.243	98.38
233.477	76.38
233.711	94.38
233.945	101.38
234.179	88.38
234.413	85.38
234.647	93.38
234.881	82.38
235.115	92.38
235.349	83.38
235.583	89.38
235.817	83.38
236.051	82.38
236.285	98.38
236.519	93.38
236.753	96.38
236.987	86.38
237.221	80.38
237.455	88.38
237.689	95.38
237.922	93.38
238.156	83.38
238.39	98.38
238.624	96.38
238.858	97.38
239.091	83.38
239.325	84.38
239.559	83.38
239.793	79.38
240.027	98.38
240.26	93.38
240.494	81.38
240.728	85.38
240.961	84.38
241.195	95.38
241.429	87.38
241.662	84.38
241.896	94.38
242.13	87.38
242.363	88.38
242.597	76.38
242.83	75.38
243.064	79.38
243.298	84.38
243.531	94.38
243.765	97.38
243.998	85.38
244.232	78.38
244.465	79.38
244.699	92.38
244.932	98.38
245.166	92.38
245.399	89.38
245.633	83.38
245.866	90.38
246.099	95.38
246.333	105.38
246.566	91.38
246.8	83.38
247.033	93.38
247.266	99.38
247.5	80.38
247.733	89.38
247.966	97.38
248.2	86.38
248.433	96.38
248.666	95.38
248.899	100.38
249.133	86.38
249.366	95.38
249.599	89.38
249.832	85.38
250.066	95.38
250.299	97.38
250.532	103.38
250.765	105.38
250.998	111.38
251.231	83.38
251.465	80.38
251.698	97.38
251.931	89.38
252.164	98.38
252.397	81.38
252.63	93.38
252.863	82.38
253.096	92.38
253.329	96.38
253.562	87.38
253.795	96.38
254.028	94.38
254.261	94.38
254.494	85.38
254.727	103.38
254.96	106.38
255.193	99.38
255.426	92.38
255.659	100.38
255.892	105.38
256.124	99.38
256.357	91.38
256.59	103.38
256.823	104.38
257.056	92.38
257.289	80.38
257.521	95.38
257.754	84.38
257.987	102.38
258.22	118.38
258.452	86.38
258.685	85.38
258.918	93.38
259.151	100.38
259.383	93.38
259.616	96.38
259.849	88.38
260.081	95.38
260.314	100.38
260.547	99.38
260.779	93.38
261.012	94.38
261.244	96.38
261.477	101.38
261.71	84.38
261.942	96.38
262.175	104.38
262.407	106.38
262.64	93.38
262.872	101.38
263.105	101.38
263.337	97.38
263.57	92.38
263.802	99.38
264.035	103.38
264.267	88.38
264.499	81.38
264.732	104.38
264.964	107.38
265.197	97.38
265.429	88.38
265.661	105.38
265.894	93.38
266.126	100.38
266.358	91.38
266.591	96.38
266.823	107.38
267.055	110.38
267.287	97.38
267.52	101.38
267.752	96.38
267.984	94.38
268.216	96.38
268.448	103.38
268.681	89.38
268.913	110.38
269.145	105.38
269.377	107.38
269.609	111.38
269.841	107.38
270.073	101.38
270.306	105.38
270.538	114.38
270.77	98.38
271.002	106.38
271.234	97.38
271.466	99.38
271.698	109.38
271.93	88.38
272.162	106.38
272.394	102.38
272.626	87.38
272.858	109.38
273.09	115.38
273.322	118.38
273.553	95.38
273.785	109.38
274.017	98.38
274.249	93.38
274.481	97.38
274.713	111.38
274.945	95.38
275.176	100.38
275.408	100.38
275.64	99.38
275.872	100.38
276.104	104.38
276.335	95.38
276.567	105.38
276.799	114.38
277.031	93.38
277.262	111.38
277.494	109.38
277.726	105.38
277.957	96.38
278.189	108.38
278.421	107.38
278.652	95.38
278.884	114.38
279.115	105.38
279.347	106.38
279.579	109.38
279.81	100.38
280.042	99.38
280.273	112.38
280.505	109.38
280.736	94.38
280.968	104.38
281.199	110.38
281.431	111.38
281.662	107.38
281.894	111.38
282.125	100.38
282.356	116.38
282.588	120.38
282.819	96.38
283.051	113.38
283.282	99.38
283.513	105.38
283.745	101.38
283.976	119.38
284.207	111.38
284.439	114.38
284.67	112.38
284.901	129.38
285.132	115.38
285.364	88.38
285.595	108.38
285.826	113.38
286.057	117.38
286.288	111.38
286.52	105.38
286.751	107.38
286.982	98.38
287.213	110.38
287.444	104.38
287.675	114.38
287.906	108.38
288.138	103.38
288.369	117.38
288.6	111.38
288.831	106.38
289.062	122.38
289.293	106.38
289.524	112.38
289.755	107.38
289.986	95.38
290.217	99.38
290.448	103.38
290.679	108.38
290.91	113.38
291.141	113.38
291.371	125.38
291.602	110.38
291.833	100.38
292.064	111.38
292.295	114.38
292.526	114.38
292.757	115.38
292.987	102.38
293.218	96.38
293.449	90.38
293.68	110.38
293.91	119.38
294.141	124.38
294.372	112.38
294.603	116.38
294.833	98.38
295.064	106.38
295.295	121.38
295.525	105.38
295.756	103.38
295.987	112.38
296.217	122.38
296.448	111.38
296.679	101.38
296.909	112.38
297.14	116.38
297.37	107.38
297.601	111.38
297.831	110.38
298.062	108.38
298.292	115.38
298.523	106.38
298.753	114.38
298.984	116.38
299.214	93.38
299.445	107.38
299.675	109.38
299.905	103.38
300.136	112.38
300.366	109.38
300.597	110.38
300.827	120.38
301.057	103.38
301.288	116.38
301.518	110.38
301.748	114.38
301.979	114.38
302.209	105.38
302.439	105.38
302.669	114.38
302.9	112.38
303.13	103.38
303.36	123.38
303.59	121.38
303.82	122.38
304.051	116.38
304.281	127.38
304.511	103.38
304.741	111.38
304.971	115.38
305.201	129.38
305.431	119.38
305.661	129.38
305.891	104.38
306.121	109.38
306.352	108.38
306.582	120.38
306.812	120.38
307.042	103.38
307.272	120.38
307.502	119.38
307.731	114.38
307.961	111.38
308.191	117.38
308.421	112.38
308.651	120.38
308.881	108.38
309.111	108.38
309.341	113.38
309.571	112.38
309.8	108.38
310.03	115.38
310.26	102.38
310.49	114.38
310.72	119.38
310.949	103.38
311.179	117.38
311.409	119.38
311.639	96.38
311.868	108.38
312.098	109.38
312.328	122.38
312.557	103.38
312.787	117.38
313.017	108.38
313.246	90.38
313.476	108.38
313.706	117.38
313.935	113.38
314.165	103.38
314.394	99.38
314.624	115.38
314.853	112.38
315.083	121.38
315.312	114.38
315.542	109.38
315.771	127.38
316.001	104.38
316.23	111.38
316.46	115.38
316.689	115.38
316.919	100.38
317.148	117.38
317.377	112.38
317.607	116.38
317.836	118.38
318.065	105.38
318.295	108.38
318.524	122.38
318.753	101.38
318.983	107.38
319.212	126.38
319.441	113.38
319.67	114.38
319.9	119.38
320.129	107.38
320.358	120.38
320.587	106.38
320.816	106.38
321.046	115.38
321.275	126.38
321.504	107.38
321.733	114.38
321.962	118.38
322.191	117.38
322.42	116.38
322.649	108.38
322.878	105.38
323.108	127.38
323.337	123.38
323.566	124.38
323.795	126.38
324.024	117.38
324.253	149.38
324.482	149.38
324.71	148.38
324.939	192.38
325.168	161.38
325.397	121.38
325.626	125.38
325.855	135.38
326.084	114.38
326.313	121.38
326.542	117.38
326.77	127.38
326.999	117.38
327.228	140.38
327.457	155.38
327.686	168.38
327.914	148.38
328.143	125.38
328.372	103.38
328.6	123.38
328.829	126.38
329.058	121.38
329.287	128.38
329.515	127.38
329.744	124.38
329.972	122.38
330.201	131.38
330.43	113.38
330.658	123.38
330.887	127.38
331.115	123.38
331.344	108.38
331.572	130.38
331.801	114.38
332.03	128.38
332.258	113.38
332.486	139.38
332.715	123.38
332.943	121.38
333.172	128.38
333.4	120.38
333.629	129.38
333.857	124.38
334.085	104.38
334.314	98.38
334.542	116.38
334.771	124.38
334.999	123.38
335.227	119.38
335.455	118.38
335.684	127.38
335.912	129.38
336.14	132.38
336.369	137.38
336.597	117.38
336.825	133.38
337.053	128.38
337.281	119.38
337.51	117.38
337.738	139.38
337.966	125.38
338.194	121.38
338.422	112.38
338.65	121.38
338.878	119.38
339.106	113.38
339.334	119.38
339.562	111.38
339.79	122.38
340.018	106.38
340.246	122.38
340.474	121.38
340.702	135.38
340.93	114.38
341.158	119.38
341.386	113.38
341.614	122.38
341.842	116.38
342.07	103.38
342.298	127.38
342.526	120.38
342.754	126.38
342.981	117.38
343.209	107.38
343.437	114.38
343.665	125.38
343.893	106.38
344.12	123.38
344.348	135.38
344.576	124.38
344.804	112.38
345.031	124.38
345.259	115.38
345.487	111.38
345.714	118.38
345.942	114.38
346.17	129.38
346.397	112.38
346.625	123.38
346.853	114.38
347.08	115.38
347.308	115.38
347.535	115.38
347.763	106.38
347.99	123.38
348.218	133.38
348.445	123.38
348.673	128.38
348.9	105.38
349.128	112.38
349.355	103.38
349.583	121.38
349.81	97.38
350.037	119.38
350.265	117.38
350.492	113.38
350.72	114.38
350.947	113.38
351.174	112.38
351.402	108.38
351.629	97.38
351.856	113.38
352.083	121.38
352.311	111.38
352.538	109.38
352.765	128.38
352.992	121.38
353.22	107.38
353.447	125.38
353.674	124.38
353.901	108.38
354.128	114.38
354.355	113.38
354.583	121.38
354.81	107.38
355.037	108.38
355.264	116.38
355.491	124.38
355.718	119.38
355.945	131.38
356.172	119.38
356.399	124.38
356.626	107.38
356.853	123.38
357.08	114.38
357.307	121.38
357.534	115.38
357.761	113.38
357.988	114.38
358.215	115.38
358.441	111.38
358.668	120.38
358.895	110.38
359.122	126.38
359.349	100.38
359.576	115.38
359.802	126.38
360.029	125.38
360.256	119.38
360.483	114.38
360.709	119.38
360.936	112.38
361.163	110.38
361.39	126.38
361.616	123.38
361.843	107.38
362.07	112.38
362.296	110.38
362.523	125.38
362.749	116.38
362.976	115.38
363.203	125.38
363.429	117.38
363.656	111.38
363.882	115.38
364.109	125.38
364.335	110.38
364.562	113.38
364.788	115.38
365.015	117.38
365.241	112.38
365.468	107.38
365.694	108.38
365.92	111.38
366.147	119.38
366.373	113.38
366.599	121.38
366.826	107.38
367.052	127.38
367.278	123.38
367.505	133.38
367.731	120.38
367.957	112.38
368.184	123.38
368.41	108.38
368.636	130.38
368.862	127.38
369.089	111.38
369.315	116.38
369.541	115.38
369.767	115.38
369.993	103.38
370.219	112.38
370.445	122.38
370.672	109.38
370.898	114.38
371.124	112.38
371.35	128.38
371.576	123.38
371.802	103.38
372.028	124.38
372.254	97.38
372.48	106.38
372.706	113.38
372.932	130.38
373.158	114.38
373.384	112.38
373.61	123.38
373.835	114.38
374.061	117.38
374.287	111.38
374.513	122.38
374.739	132.38
374.965	112.38
375.191	107.38
375.416	125.38
375.642	126.38
375.868	114.38
376.094	116.38
376.319	111.38
376.545	98.38
376.771	111.38
376.997	115.38
377.222	109.38
377.448	134.38
377.674	127.38
377.899	116.38
378.125	122.38
378.35	114.38
378.576	112.38
378.802	116.38
379.027	127.38
379.253	139.38
379.478	130.38
379.704	121.38
379.929	118.38
380.155	127.38
380.38	121.38
380.606	120.38
380.831	126.38
381.057	129.38
381.282	124.38
381.507	117.38
381.733	125.38
381.958	103.38
382.184	133.38
382.409	117.38
382.634	130.38
382.86	120.38
383.085	125.38
383.31	124.38
383.535	107.38
383.761	123.38
383.986	133.38
384.211	123.38
384.436	120.38
384.662	115.38
384.887	114.38
385.112	136.38
385.337	116.38
385.562	103.38
385.787	127.38
386.013	117.38
386.238	121.38
386.463	127.38
386.688	115.38
386.913	119.38
387.138	117.38
387.363	122.38
387.588	127.38
387.813	126.38
388.038	117.38
388.263	116.38
388.488	120.38
388.713	113.38
388.938	125.38
389.163	111.38
389.387	116.38
389.612	134.38
389.837	123.38
390.062	122.38
390.287	108.38
390.512	124.38
390.736	116.38
390.961	129.38
391.186	120.38
391.411	119.38
391.636	122.38
391.86	117.38
392.085	133.38
392.31	122.38
392.534	131.38
392.759	130.38
392.984	128.38
393.208	116.38
393.433	128.38
393.658	139.38
393.882	113.38
394.107	120.38
394.331	123.38
394.556	132.38
394.78	130.38
395.005	119.38
395.229	128.38
395.454	132.38
395.678	123.38
395.903	115.38
396.127	142.38
396.352	112.38
396.576	135.38
396.801	114.38
397.025	116.38
397.249	132.38
397.474	150.38
397.698	137.38
397.922	130.38
398.147	115.38
398.371	121.38
398.595	130.38
398.82	143.38
399.044	137.38
399.268	127.38
399.492	156.38
399.717	143.38
399.941	127.38
400.165	155.38
400.389	148.38
400.613	132.38
400.837	143.38
401.062	130.38
401.286	125.38
401.51	127.38
401.734	134.38
401.958	131.38
402.182	135.38
402.406	130.38
402.63	138.38
402.854	126.38
403.078	136.38
403.302	141.38
403.526	128.38
403.75	117.38
403.974	137.38
404.198	137.38
404.422	132.38
404.645	137.38
404.869	147.38
405.093	154.38
405.317	129.38
405.541	132.38
405.765	136.38
405.988	137.38
406.212	142.38
406.436	135.38
406.66	146.38
406.883	144.38
407.107	158.38
407.331	154.38
407.555	132.38
407.778	140.38
408.002	139.38
408.226	154.38
408.449	134.38
408.673	142.38
408.896	139.38
409.12	137.38
409.344	148.38
409.567	145.38
409.791	148.38
410.014	147.38
410.238	128.38
410.461	135.38
410.685	136.38
410.908	143.38
411.132	142.38
411.355	159.38
411.578	139.38
411.802	134.38
412.025	115.38
412.249	135.38
412.472	137.38
412.695	130.38
412.919	118.38
413.142	141.38
413.365	140.38
413.589	114.38
413.812	129.38
414.035	129.38
414.258	131.38
414.482	132.38
414.705	127.38
414.928	117.38
415.151	121.38
415.374	121.38
415.597	115.38
415.821	129.38
416.044	129.38
416.267	140.38
416.49	135.38
416.713	125.38
416.936	126.38
417.159	122.38
417.382	130.38
417.605	133.38
417.828	130.38
418.051	127.38
418.274	121.38
418.497	150.38
418.72	132.38
418.943	136.38
419.166	143.38
419.389	148.38
419.611	141.38
419.834	143.38
420.057	135.38
420.28	134.38
420.503	135.38
420.726	136.38
420.948	135.38
421.171	131.38
421.394	130.38
421.617	140.38
421.839	130.38
422.062	142.38
422.285	135.38
422.507	130.38
422.73	153.38
422.953	156.38
423.175	145.38
423.398	132.38
423.621	137.38
423.843	137.38
424.066	124.38
424.288	134.38
424.511	147.38
424.733	135.38
424.956	141.38
425.178	144.38
425.401	143.38
425.623	147.38
425.846	129.38
426.068	134.38
426.291	126.38
426.513	133.38
426.735	133.38
426.958	142.38
427.18	137.38
427.402	141.38
427.625	151.38
427.847	143.38
428.069	150.38
428.292	144.38
428.514	139.38
428.736	137.38
428.958	133.38
429.181	149.38
429.403	133.38
429.625	138.38
429.847	129.38
430.069	131.38
430.292	137.38
430.514	131.38
430.736	125.38
430.958	120.38
431.18	128.38
431.402	132.38
431.624	127.38
431.846	124.38
432.068	120.38
432.29	114.38
432.512	141.38
432.734	132.38
432.956	132.38
433.178	118.38
433.4	125.38
433.622	135.38
433.844	126.38
434.066	133.38
434.287	142.38
434.509	113.38
434.731	121.38
434.953	131.38
435.175	130.38
435.397	135.38
435.618	132.38
435.84	127.38
436.062	143.38
436.284	142.38
436.505	143.38
436.727	129.38
436.949	136.38
437.17	136.38
437.392	144.38
437.614	142.38
437.835	131.38
438.057	130.38
438.278	147.38
438.5	127.38
438.721	143.38
438.943	128.38
439.165	129.38
439.386	139.38
439.608	144.38
439.829	135.38
440.05	139.38
440.272	135.38
440.493	143.38
440.715	137.38
440.936	136.38
441.158	142.38
441.379	139.38
441.6	137.38
441.822	151.38
442.043	154.38
442.264	148.38
442.486	141.38
442.707	150.38
442.928	140.38
443.149	141.38
443.371	140.38
443.592	137.38
443.813	141.38
444.034	160.38
444.255	149.38
444.476	145.38
444.698	143.38
444.919	139.38
445.14	240.38
445.361	193.38
445.582	135.38
445.803	136.38
446.024	130.38
446.245	144.38
446.466	137.38
446.687	138.38
446.908	142.38
447.129	125.38
447.35	141.38
447.571	131.38
447.792	144.38
448.013	116.38
448.234	147.38
448.455	133.38
448.675	140.38
448.896	140.38
449.117	145.38
449.338	136.38
449.559	151.38
449.779	140.38
450	135.38
450.221	139.38
450.442	135.38
450.662	124.38
450.883	125.38
451.104	140.38
451.324	135.38
451.545	131.38
451.766	142.38
451.986	135.38
452.207	125.38
452.428	119.38
452.648	129.38
452.869	141.38
453.089	125.38
453.31	131.38
453.53	135.38
453.751	126.38
453.971	135.38
454.192	127.38
454.412	125.38
454.633	116.38
454.853	135.38
455.073	114.38
455.294	130.38
455.514	123.38
455.734	131.38
455.955	129.38
456.175	117.38
456.395	132.38
456.616	114.38
456.836	130.38
457.056	119.38
457.276	115.38
457.497	126.38
457.717	131.38
457.937	128.38
458.157	124.38
458.377	124.38
458.598	125.38
458.818	135.38
459.038	144.38
459.258	126.38
459.478	120.38
459.698	141.38
459.918	129.38
460.138	114.38
460.358	116.38
460.578	124.38
460.798	133.38
461.018	128.38
461.238	143.38
461.458	153.38
461.678	152.38
461.898	141.38
462.118	139.38
462.338	143.38
462.558	144.38
462.777	151.38
462.997	151.38
463.217	153.38
463.437	156.38
463.657	149.38
463.876	139.38
464.096	133.38
464.316	143.38
464.536	127.38
464.755	144.38
464.975	149.38
465.195	140.38
465.414	143.38
465.634	141.38
465.854	131.38
466.073	139.38
466.293	129.38
466.512	133.38
466.732	106.38
466.951	137.38
467.171	137.38
467.391	113.38
467.61	133.38
467.829	127.38
468.049	131.38
468.268	136.38
468.488	132.38
468.707	133.38
468.927	125.38
469.146	135.38
469.365	129.38
469.585	130.38
469.804	127.38
470.023	138.38
470.243	139.38
470.462	126.38
470.681	132.38
470.901	126.38
471.12	127.38
471.339	148.38
471.558	144.38
471.777	124.38
471.997	147.38
472.216	134.38
472.435	148.38
472.654	135.38
472.873	141.38
473.092	135.38
473.311	116.38
473.53	139.38
473.749	125.38
473.968	139.38
474.187	130.38
474.406	116.38
474.625	131.38
474.844	113.38
475.063	132.38
475.282	119.38
475.501	125.38
475.72	144.38
475.939	130.38
476.158	126.38
476.377	128.38
476.596	135.38
476.814	143.38
477.033	123.38
477.252	124.38
477.471	148.38
477.69	123.38
477.908	131.38
478.127	140.38
478.346	122.38
478.564	150.38
478.783	138.38
479.002	147.38
479.22	135.38
479.439	145.38
479.658	163.38
479.876	158.38
480.095	134.38
480.313	135.38
480.532	135.38
480.751	128.38
480.969	138.38
481.188	139.38
481.406	144.38
481.624	135.38
481.843	153.38
482.061	132.38
482.28	129.38
482.498	132.38
482.717	130.38
482.935	135.38
483.153	134.38
483.372	143.38
483.59	139.38
483.808	148.38
484.027	129.38
484.245	137.38
484.463	127.38
484.681	141.38
484.9	148.38
485.118	119.38
485.336	140.38
485.554	142.38
485.772	131.38
485.99	126.38
486.209	140.38
486.427	144.38
486.645	131.38
486.863	135.38
487.081	149.38
487.299	151.38
487.517	152.38
487.735	139.38
487.953	136.38
488.171	149.38
488.389	138.38
488.607	138.38
488.825	136.38
489.043	137.38
489.261	146.38
489.479	143.38
489.696	143.38
489.914	142.38
490.132	146.38
490.35	137.38
490.568	149.38
490.786	146.38
491.003	148.38
491.221	147.38
491.439	161.38
491.657	152.38
491.874	157.38
492.092	161.38
492.31	140.38
492.527	159.38
492.745	161.38
492.963	150.38
493.18	165.38
493.398	143.38
493.615	161.38
493.833	150.38
494.05	162.38
494.268	158.38
494.485	157.38
494.703	153.38
494.92	147.38
495.138	149.38
495.355	156.38
495.573	151.38
495.79	161.38
496.008	153.38
496.225	152.38
496.442	161.38
496.66	139.38
496.877	153.38
497.094	158.38
497.312	158.38
497.529	162.38
497.746	146.38
497.963	152.38
498.181	163.38
498.398	167.38
498.615	172.38
498.832	164.38
499.049	176.38
499.267	179.38
499.484	168.38
499.701	192.38
499.918	206.38
500.135	225.38
500.352	222.38
500.569	224.38
500.786	220.38
501.003	211.38
501.22	199.38
501.437	194.38
501.654	178.38
501.871	178.38
502.088	191.38
502.305	187.38
502.522	153.38
502.739	170.38
502.956	167.38
503.172	158.38
503.389	156.38
503.606	148.38
503.823	159.38
504.04	156.38
504.256	156.38
504.473	145.38
504.69	157.38
504.907	167.38
505.123	147.38
505.34	141.38
505.557	145.38
505.773	132.38
505.99	144.38
506.207	139.38
506.423	128.38
506.64	148.38
506.856	151.38
507.073	143.38
507.289	141.38
507.506	139.38
507.722	141.38
507.939	160.38
508.155	141.38
508.372	135.38
508.588	139.38
508.805	126.38
509.021	130.38
509.238	140.38
509.454	122.38
509.67	135.38
509.887	143.38
510.103	130.38
510.319	129.38
510.536	135.38
510.752	171.38
510.968	138.38
511.184	134.38
511.401	136.38
511.617	131.38
511.833	132.38
512.049	127.38
512.265	144.38
512.481	134.38
512.698	143.38
512.914	136.38
513.13	137.38
513.346	139.38
513.562	127.38
513.778	134.38
513.994	140.38
514.21	126.38
514.426	146.38
514.642	147.38
514.858	140.38
515.074	146.38
515.29	154.38
515.506	188.38
515.721	162.38
515.937	150.38
516.153	135.38
516.369	131.38
516.585	130.38
516.801	131.38
517.016	131.38
517.232	145.38
517.448	147.38
517.664	153.38
517.879	151.38
518.095	138.38
518.311	165.38
518.527	161.38
518.742	136.38
518.958	135.38
519.173	143.38
519.389	139.38
519.605	133.38
519.82	139.38
520.036	133.38
520.251	146.38
520.467	151.38
520.682	133.38
520.898	127.38
521.113	139.38
521.329	140.38
521.544	144.38
521.76	125.38
521.975	183.38
522.19	175.38
522.406	140.38
522.621	127.38
522.836	136.38
523.052	139.38
523.267	132.38
523.482	133.38
523.698	127.38
523.913	125.38
524.128	120.38
524.343	139.38
524.559	124.38
524.774	116.38
524.989	139.38
525.204	142.38
525.419	124.38
525.634	131.38
525.849	133.38
526.064	136.38
526.28	147.38
526.495	116.38
526.71	129.38
526.925	127.38
527.14	116.38
527.355	133.38
527.57	121.38
527.785	131.38
527.999	147.38
528.214	134.38
528.429	137.38
528.644	137.38
528.859	142.38
529.074	124.38
529.289	135.38
529.503	144.38
529.718	123.38
529.933	124.38
530.148	127.38
530.363	135.38
530.577	131.38
530.792	135.38
531.007	133.38
531.221	136.38
531.436	136.38
531.651	125.38
531.865	128.38
532.08	116.38
532.295	121.38
532.509	114.38
532.724	112.38
532.938	115.38
533.153	123.38
533.367	125.38
533.582	138.38
533.796	113.38
534.011	126.38
534.225	141.38
534.44	128.38
534.654	130.38
534.868	129.38
535.083	133.38
535.297	128.38
535.511	132.38
535.726	115.38
535.94	139.38
536.154	133.38
536.369	117.38
536.583	132.38
536.797	125.38
537.011	123.38
537.225	137.38
537.44	119.38
537.654	130.38
537.868	104.38
538.082	118.38
538.296	134.38
538.51	117.38
538.724	124.38
538.938	120.38
539.153	124.38
539.367	132.38
539.581	124.38
539.795	122.38
540.009	135.38
540.222	128.38
540.436	148.38
540.65	139.38
540.864	126.38
541.078	130.38
541.292	143.38
541.506	156.38
541.72	139.38
541.934	146.38
542.147	148.38
542.361	144.38
542.575	132.38
542.789	138.38
543.002	134.38
543.216	137.38
543.43	133.38
543.644	134.38
543.857	150.38
544.071	138.38
544.285	148.38
544.498	134.38
544.712	140.38
544.925	154.38
545.139	151.38
545.352	150.38
545.566	141.38
545.779	145.38
545.993	137.38
546.206	133.38
546.42	157.38
546.633	147.38
546.847	127.38
547.06	132.38
547.274	126.38
547.487	133.38
547.7	134.38
547.914	131.38
548.127	129.38
548.34	144.38
548.554	128.38
548.767	143.38
548.98	120.38
549.193	128.38
549.407	155.38
549.62	148.38
549.833	133.38
550.046	145.38
550.259	127.38
550.473	134.38
550.686	150.38
550.899	137.38
551.112	140.38
551.325	140.38
551.538	133.38
551.751	134.38
551.964	129.38
552.177	136.38
552.39	119.38
552.603	138.38
552.816	131.38
553.029	131.38
553.242	128.38
553.455	132.38
553.667	150.38
553.88	141.38
554.093	131.38
554.306	139.38
554.519	139.38
554.732	137.38
554.944	136.38
555.157	135.38
555.37	135.38
555.583	135.38
555.795	131.38
556.008	130.38
556.221	120.38
556.433	123.38
556.646	119.38
556.859	129.38
557.071	126.38
557.284	135.38
557.496	124.38
557.709	132.38
557.921	112.38
558.134	125.38
558.346	124.38
558.559	133.38
558.771	124.38
558.984	128.38
559.196	123.38
559.409	131.38
559.621	127.38
559.833	123.38
560.046	122.38
560.258	119.38
560.47	121.38
560.683	119.38
560.895	116.38
561.107	144.38
561.32	135.38
561.532	128.38
561.744	122.38
561.956	123.38
562.168	138.38
562.381	133.38
562.593	128.38
562.805	131.38
563.017	121.38
563.229	118.38
563.441	125.38
563.653	128.38
563.865	113.38
564.077	135.38
564.289	124.38
564.501	130.38
564.713	127.38
564.925	119.38
565.137	125.38
565.349	136.38
565.561	131.38
565.773	139.38
565.985	124.38
566.197	131.38
566.408	140.38
566.62	141.38
566.832	143.38
567.044	155.38
567.255	141.38
567.467	148.38
567.679	148.38
567.891	138.38
568.102	138.38
568.314	164.38
568.526	142.38
568.737	140.38
568.949	131.38
569.161	127.38
569.372	133.38
569.584	127.38
569.795	113.38
570.007	130.38
570.218	117.38
570.43	119.38
570.641	128.38
570.853	124.38
571.064	127.38
571.276	115.38
571.487	133.38
571.698	124.38
571.91	103.38
572.121	114.38
572.333	129.38
572.544	123.38
572.755	116.38
572.966	112.38
573.178	123.38
573.389	123.38
573.6	114.38
573.811	116.38
574.023	122.38
574.234	112.38
574.445	121.38
574.656	122.38
574.867	110.38
575.078	121.38
575.289	121.38
575.501	114.38
575.712	108.38
575.923	110.38
576.134	109.38
576.345	108.38
576.556	122.38
576.767	119.38
576.978	116.38
577.188	135.38
577.399	125.38
577.61	103.38
577.821	123.38
578.032	120.38
578.243	114.38
578.454	137.38
578.665	129.38
578.875	109.38
579.086	121.38
579.297	110.38
579.508	113.38
579.718	106.38
579.929	103.38
580.14	109.38
580.35	115.38
580.561	119.38
580.772	125.38
580.982	119.38
581.193	110.38
581.403	115.38
581.614	133.38
581.825	118.38
582.035	110.38
582.246	123.38
582.456	117.38
582.667	119.38
582.877	120.38
583.087	121.38
583.298	122.38
583.508	128.38
583.719	122.38
583.929	125.38
584.139	112.38
584.35	113.38
584.56	113.38
584.77	109.38
584.981	103.38
585.191	99.38
585.401	111.38
585.611	103.38
585.821	109.38
586.032	115.38
586.242	110.38
586.452	100.38
586.662	110.38
586.872	107.38
587.082	88.38
587.292	126.38
587.502	105.38
587.713	115.38
587.923	125.38
588.133	116.38
588.343	101.38
588.553	104.38
588.762	110.38
588.972	108.38
589.182	121.38
589.392	133.38
589.602	104.38
589.812	99.38
590.022	113.38
590.232	114.38
590.441	116.38
590.651	98.38
590.861	113.38
591.071	120.38
591.281	121.38
591.49	111.38
591.7	124.38
591.91	119.38
592.119	120.38
592.329	113.38
592.539	111.38
592.748	115.38
592.958	103.38
593.167	111.38
593.377	104.38
593.587	117.38
593.796	130.38
594.006	124.38
594.215	111.38
594.424	106.38
594.634	104.38
594.843	124.38
595.053	128.38
595.262	113.38
595.472	127.38
595.681	123.38
595.89	109.38
596.1	105.38
596.309	128.38
596.518	108.38
596.727	112.38
596.937	115.38
597.146	114.38
597.355	102.38
597.564	97.38
597.774	109.38
597.983	119.38
598.192	112.38
598.401	93.38
598.61	119.38
598.819	121.38
599.028	120.38
599.237	108.38
599.446	111.38
599.655	111.38
599.864	114.38
600.073	112.38
600.282	115.38
600.491	106.38
600.7	107.38
600.909	101.38
601.118	119.38
601.327	109.38
601.536	115.38
601.745	121.38
601.953	111.38
602.162	109.38
602.371	105.38
602.58	104.38
602.789	116.38
602.997	107.38
603.206	109.38
603.415	109.38
603.623	103.38
603.832	111.38
604.041	113.38
604.249	107.38
604.458	89.38
604.666	116.38
604.875	111.38
605.084	115.38
605.292	110.38
605.501	98.38
605.709	98.38
605.918	107.38
606.126	108.38
606.334	101.38
606.543	104.38
606.751	123.38
606.96	111.38
607.168	113.38
607.376	115.38
607.585	102.38
607.793	103.38
608.001	110.38
608.21	106.38
608.418	119.38
608.626	105.38
608.834	111.38
609.043	114.38
609.251	106.38
609.459	114.38
609.667	107.38
609.875	123.38
610.083	111.38
610.291	123.38
610.499	125.38
610.707	115.38
610.916	114.38
611.124	117.38
611.332	109.38
611.54	115.38
611.748	124.38
611.955	127.38
612.163	111.38
612.371	128.38
612.579	122.38
612.787	111.38
612.995	122.38
613.203	113.38
613.411	110.38
613.618	99.38
613.826	103.38
614.034	109.38
614.242	108.38
614.449	97.38
614.657	97.38
614.865	123.38
615.072	115.38
615.28	121.38
615.488	95.38
615.695	102.38
615.903	113.38
616.111	107.38
616.318	100.38
616.526	113.38
616.733	121.38
616.941	114.38
617.148	103.38
617.356	96.38
617.563	107.38
617.771	104.38
617.978	122.38
618.185	97.38
618.393	120.38
618.6	99.38
618.807	110.38
619.015	91.38
619.222	98.38
619.429	100.38
619.637	105.38
619.844	97.38
620.051	104.38
620.258	107.38
620.466	103.38
620.673	111.38
620.88	106.38
621.087	121.38
621.294	108.38
621.501	113.38
621.708	107.38
621.915	99.38
622.122	97.38
622.329	107.38
622.536	100.38
622.743	95.38
622.95	114.38
623.157	115.38
623.364	112.38
623.571	113.38
623.778	106.38
623.985	110.38
624.192	113.38
624.399	102.38
624.606	91.38
624.812	108.38
625.019	91.38
625.226	114.38
625.433	101.38
625.639	90.38
625.846	104.38
626.053	111.38
626.259	106.38
626.466	111.38
626.673	99.38
626.879	100.38
627.086	105.38
627.293	109.38
627.499	95.38
627.706	100.38
627.912	110.38
628.119	99.38
628.325	118.38
628.532	105.38
628.738	97.38
628.945	105.38
629.151	121.38
629.357	113.38
629.564	106.38
629.77	91.38
629.976	101.38
630.183	102.38
630.389	91.38
630.595	94.38
630.802	113.38
631.008	95.38
631.214	101.38
631.42	85.38
631.627	112.38
631.833	94.38
632.039	103.38
632.245	91.38
632.451	101.38
632.657	120.38
632.863	105.38
633.069	101.38
633.275	102.38
633.481	106.38
633.688	119.38
633.893	106.38
634.099	105.38
634.305	97.38
634.511	102.38
634.717	103.38
634.923	100.38
635.129	98.38
635.335	94.38
635.541	94.38
635.747	107.38
635.952	101.38
636.158	105.38
636.364	106.38
636.57	111.38
636.775	109.38
636.981	116.38
637.187	110.38
637.392	108.38
637.598	101.38
637.804	112.38
638.009	92.38
638.215	110.38
638.421	101.38
638.626	100.38
638.832	96.38
639.037	105.38
639.243	107.38
639.448	83.38
639.654	98.38
639.859	110.38
640.065	98.38
640.27	126.38
640.475	103.38
640.681	97.38
640.886	97.38
641.091	96.38
641.297	103.38
641.502	103.38
641.707	106.38
641.913	120.38
642.118	103.38
642.323	98.38
642.528	96.38
642.733	127.38
642.939	95.38
643.144	95.38
643.349	94.38
643.554	109.38
643.759	82.38
643.964	91.38
644.169	93.38
644.374	103.38
644.579	95.38
644.784	101.38
644.989	113.38
645.194	97.38
645.399	103.38
645.604	103.38
645.809	100.38
646.014	102.38
646.219	85.38
646.423	107.38
646.628	101.38
646.833	116.38
647.038	95.38
647.243	99.38
647.447	89.38
647.652	93.38
647.857	99.38
648.062	104.38
648.266	100.38
648.471	101.38
648.676	100.38
648.88	92.38
649.085	96.38
649.289	98.38
649.494	83.38
649.698	105.38
649.903	89.38
650.107	98.38
650.312	99.38
650.516	100.38
650.721	109.38
650.925	104.38
651.13	101.38
651.334	95.38
651.539	94.38
651.743	96.38
651.947	90.38
652.152	87.38
652.356	97.38
652.56	101.38
652.764	104.38
652.969	94.38
653.173	103.38
653.377	107.38
653.581	92.38
653.785	92.38
653.99	106.38
654.194	104.38
654.398	82.38
654.602	87.38
654.806	93.38
655.01	99.38
655.214	97.38
655.418	107.38
655.622	100.38
655.826	89.38
656.03	91.38
656.234	97.38
656.438	85.38
656.642	89.38
656.846	100.38
657.049	108.38
657.253	115.38
657.457	89.38
657.661	84.38
657.865	93.38
658.068	94.38
658.272	83.38
658.476	97.38
658.68	79.38
658.883	84.38
659.087	94.38
659.291	97.38
659.494	92.38
659.698	92.38
659.901	107.38
660.105	95.38
660.309	93.38
660.512	94.38
660.716	80.38
660.919	79.38
661.123	88.38
661.326	88.38
661.53	83.38
661.733	85.38
661.936	91.38
662.14	106.38
662.343	85.38
662.546	90.38
662.75	92.38
662.953	93.38
663.156	84.38
663.36	71.38
663.563	106.38
663.766	85.38
663.969	80.38
664.173	88.38
664.376	86.38
664.579	71.38
664.782	81.38
664.985	89.38
665.188	91.38
665.391	89.38
665.594	92.38
665.797	85.38
666	83.38
666.203	87.38
666.406	82.38
666.609	80.38
666.812	85.38
667.015	81.38
667.218	90.38
667.421	92.38
667.624	100.38
667.827	82.38
668.03	102.38
668.232	86.38
668.435	80.38
668.638	92.38
668.841	90.38
669.043	104.38
669.246	98.38
669.449	95.38
669.651	91.38
669.854	81.38
670.057	97.38
670.259	77.38
670.462	73.38
670.665	97.38
670.867	88.38
671.07	85.38
671.272	97.38
671.475	87.38
671.677	82.38
671.88	98.38
672.082	93.38
672.284	79.38
672.487	85.38
672.689	75.38
672.892	93.38
