Data from 1968.PennyLincolnUp.Lamp.En5.5.200Scan.071719.P1._HRD10591_14-49-08-969.txt Node
Date: Thu Jul 18 14:49:08 EDT 2019
User: cochatt
Spectrometer: HR+D1059
Trigger mode: 1
Integration Time (sec): 1.000000E-1
Scans to average: 1
Electric dark correction enabled: true
Nonlinearity correction enabled: false
Boxcar width: 0
XAxis mode: Wavelengths
Number of Pixels in Spectrum: 2048
>>>>>Begin Spectral Data<<<<<
223.165	-7.62
223.4	-7.62
223.635	-7.62
223.869	-11.62
224.104	-13.62
224.338	-25.62
224.573	-8.62
224.808	-18.62
225.042	-3.62
225.277	-18.62
225.511	3.38
225.746	-2.62
225.98	9.38
226.215	17.38
226.449	-1.62
226.683	15.38
226.918	39.38
227.152	27.38
227.387	33.38
227.621	53.38
227.856	33.38
228.09	45.38
228.324	53.38
228.559	60.38
228.793	75.38
229.027	106.38
229.262	97.38
229.496	111.38
229.73	113.38
229.964	126.38
230.199	108.38
230.433	122.38
230.667	114.38
230.901	106.38
231.136	107.38
231.37	101.38
231.604	108.38
231.838	121.38
232.072	106.38
232.306	118.38
232.541	120.38
232.775	128.38
233.009	135.38
233.243	122.38
233.477	129.38
233.711	130.38
233.945	124.38
234.179	118.38
234.413	119.38
234.647	124.38
234.881	130.38
235.115	132.38
235.349	128.38
235.583	127.38
235.817	122.38
236.051	125.38
236.285	120.38
236.519	118.38
236.753	130.38
236.987	145.38
237.221	154.38
237.455	183.38
237.689	168.38
237.922	133.38
238.156	133.38
238.39	134.38
238.624	135.38
238.858	127.38
239.091	131.38
239.325	146.38
239.559	142.38
239.793	135.38
240.027	138.38
240.26	136.38
240.494	134.38
240.728	150.38
240.961	152.38
241.195	141.38
241.429	156.38
241.662	151.38
241.896	143.38
242.13	151.38
242.363	145.38
242.597	156.38
242.83	159.38
243.064	165.38
243.298	155.38
243.531	170.38
243.765	164.38
243.998	153.38
244.232	148.38
244.465	162.38
244.699	160.38
244.932	154.38
245.166	158.38
245.399	153.38
245.633	166.38
245.866	167.38
246.099	154.38
246.333	176.38
246.566	164.38
246.8	165.38
247.033	165.38
247.266	183.38
247.5	191.38
247.733	169.38
247.966	172.38
248.2	206.38
248.433	202.38
248.666	186.38
248.899	188.38
249.133	214.38
249.366	206.38
249.599	192.38
249.832	170.38
250.066	177.38
250.299	193.38
250.532	218.38
250.765	203.38
250.998	208.38
251.231	229.38
251.465	223.38
251.698	229.38
251.931	220.38
252.164	200.38
252.397	204.38
252.63	199.38
252.863	220.38
253.096	235.38
253.329	230.38
253.562	205.38
253.795	222.38
254.028	213.38
254.261	244.38
254.494	233.38
254.727	240.38
254.96	252.38
255.193	249.38
255.426	248.38
255.659	226.38
255.892	242.38
256.124	230.38
256.357	227.38
256.59	228.38
256.823	211.38
257.056	225.38
257.289	222.38
257.521	219.38
257.754	230.38
257.987	212.38
258.22	210.38
258.452	240.38
258.685	230.38
258.918	222.38
259.151	231.38
259.383	229.38
259.616	222.38
259.849	229.38
260.081	238.38
260.314	248.38
260.547	257.38
260.779	252.38
261.012	239.38
261.244	241.38
261.477	237.38
261.71	236.38
261.942	241.38
262.175	260.38
262.407	245.38
262.64	217.38
262.872	244.38
263.105	237.38
263.337	248.38
263.57	240.38
263.802	231.38
264.035	232.38
264.267	222.38
264.499	255.38
264.732	256.38
264.964	247.38
265.197	258.38
265.429	231.38
265.661	250.38
265.894	256.38
266.126	253.38
266.358	252.38
266.591	252.38
266.823	247.38
267.055	240.38
267.287	248.38
267.52	247.38
267.752	269.38
267.984	274.38
268.216	264.38
268.448	262.38
268.681	258.38
268.913	266.38
269.145	280.38
269.377	287.38
269.609	278.38
269.841	298.38
270.073	299.38
270.306	292.38
270.538	306.38
270.77	298.38
271.002	329.38
271.234	293.38
271.466	314.38
271.698	302.38
271.93	312.38
272.162	323.38
272.394	320.38
272.626	310.38
272.858	301.38
273.09	287.38
273.322	303.38
273.553	284.38
273.785	304.38
274.017	297.38
274.249	311.38
274.481	294.38
274.713	291.38
274.945	298.38
275.176	300.38
275.408	290.38
275.64	292.38
275.872	291.38
276.104	299.38
276.335	302.38
276.567	310.38
276.799	301.38
277.031	315.38
277.262	340.38
277.494	314.38
277.726	315.38
277.957	302.38
278.189	313.38
278.421	321.38
278.652	311.38
278.884	303.38
279.115	325.38
279.347	324.38
279.579	324.38
279.81	340.38
280.042	345.38
280.273	335.38
280.505	346.38
280.736	333.38
280.968	331.38
281.199	329.38
281.431	324.38
281.662	301.38
281.894	340.38
282.125	324.38
282.356	320.38
282.588	349.38
282.819	341.38
283.051	334.38
283.282	320.38
283.513	328.38
283.745	337.38
283.976	337.38
284.207	334.38
284.439	330.38
284.67	336.38
284.901	340.38
285.132	347.38
285.364	346.38
285.595	346.38
285.826	342.38
286.057	344.38
286.288	341.38
286.52	334.38
286.751	338.38
286.982	350.38
287.213	335.38
287.444	361.38
287.675	353.38
287.906	352.38
288.138	365.38
288.369	380.38
288.6	370.38
288.831	357.38
289.062	366.38
289.293	354.38
289.524	358.38
289.755	361.38
289.986	359.38
290.217	353.38
290.448	363.38
290.679	349.38
290.91	362.38
291.141	358.38
291.371	358.38
291.602	359.38
291.833	361.38
292.064	387.38
292.295	385.38
292.526	358.38
292.757	382.38
292.987	358.38
293.218	345.38
293.449	346.38
293.68	368.38
293.91	357.38
294.141	371.38
294.372	366.38
294.603	342.38
294.833	357.38
295.064	361.38
295.295	360.38
295.525	373.38
295.756	370.38
295.987	372.38
296.217	382.38
296.448	394.38
296.679	386.38
296.909	390.38
297.14	381.38
297.37	392.38
297.601	408.38
297.831	374.38
298.062	397.38
298.292	368.38
298.523	400.38
298.753	394.38
298.984	395.38
299.214	402.38
299.445	410.38
299.675	401.38
299.905	399.38
300.136	391.38
300.366	392.38
300.597	410.38
300.827	427.38
301.057	426.38
301.288	410.38
301.518	413.38
301.748	418.38
301.979	426.38
302.209	414.38
302.439	431.38
302.669	411.38
302.9	402.38
303.13	416.38
303.36	412.38
303.59	410.38
303.82	393.38
304.051	434.38
304.281	431.38
304.511	410.38
304.741	397.38
304.971	424.38
305.201	412.38
305.431	412.38
305.661	427.38
305.891	421.38
306.121	407.38
306.352	411.38
306.582	410.38
306.812	416.38
307.042	397.38
307.272	407.38
307.502	401.38
307.731	423.38
307.961	406.38
308.191	418.38
308.421	419.38
308.651	405.38
308.881	420.38
309.111	415.38
309.341	428.38
309.571	412.38
309.8	459.38
310.03	450.38
310.26	436.38
310.49	431.38
310.72	443.38
310.949	454.38
311.179	429.38
311.409	423.38
311.639	455.38
311.868	451.38
312.098	428.38
312.328	463.38
312.557	466.38
312.787	459.38
313.017	480.38
313.246	447.38
313.476	460.38
313.706	449.38
313.935	478.38
314.165	455.38
314.394	452.38
314.624	477.38
314.853	449.38
315.083	462.38
315.312	466.38
315.542	462.38
315.771	455.38
316.001	447.38
316.23	451.38
316.46	451.38
316.689	450.38
316.919	451.38
317.148	470.38
317.377	437.38
317.607	475.38
317.836	471.38
318.065	457.38
318.295	470.38
318.524	453.38
318.753	441.38
318.983	452.38
319.212	458.38
319.441	453.38
319.67	434.38
319.9	459.38
320.129	467.38
320.358	464.38
320.587	444.38
320.816	455.38
321.046	458.38
321.275	483.38
321.504	433.38
321.733	476.38
321.962	465.38
322.191	465.38
322.42	466.38
322.649	476.38
322.878	496.38
323.108	504.38
323.337	522.38
323.566	529.38
323.795	533.38
324.024	566.38
324.253	612.38
324.482	746.38
324.71	1064.38
324.939	1450.38
325.168	1285.38
325.397	752.38
325.626	589.38
325.855	536.38
326.084	529.38
326.313	518.38
326.542	536.38
326.77	538.38
326.999	614.38
327.228	729.38
327.457	1003.38
327.686	1185.38
327.914	857.38
328.143	655.38
328.372	586.38
328.6	556.38
328.829	577.38
329.058	567.38
329.287	562.38
329.515	548.38
329.744	530.38
329.972	546.38
330.201	540.38
330.43	573.38
330.658	555.38
330.887	628.38
331.115	588.38
331.344	559.38
331.572	540.38
331.801	575.38
332.03	552.38
332.258	580.38
332.486	571.38
332.715	574.38
332.943	620.38
333.172	632.38
333.4	617.38
333.629	619.38
333.857	648.38
334.085	618.38
334.314	621.38
334.542	646.38
334.771	599.38
334.999	629.38
335.227	599.38
335.455	597.38
335.684	573.38
335.912	583.38
336.14	598.38
336.369	568.38
336.597	583.38
336.825	557.38
337.053	572.38
337.281	566.38
337.51	558.38
337.738	554.38
337.966	544.38
338.194	550.38
338.422	558.38
338.65	560.38
338.878	526.38
339.106	533.38
339.334	526.38
339.562	528.38
339.79	519.38
340.018	512.38
340.246	513.38
340.474	524.38
340.702	497.38
340.93	535.38
341.158	522.38
341.386	528.38
341.614	521.38
341.842	506.38
342.07	507.38
342.298	492.38
342.526	509.38
342.754	496.38
342.981	536.38
343.209	498.38
343.437	524.38
343.665	566.38
343.893	571.38
344.12	601.38
344.348	570.38
344.576	558.38
344.804	558.38
345.031	557.38
345.259	526.38
345.487	543.38
345.714	510.38
345.942	503.38
346.17	517.38
346.397	495.38
346.625	486.38
346.853	500.38
347.08	496.38
347.308	492.38
347.535	496.38
347.763	506.38
347.99	501.38
348.218	508.38
348.445	495.38
348.673	502.38
348.9	485.38
349.128	513.38
349.355	486.38
349.583	493.38
349.81	500.38
350.037	480.38
350.265	473.38
350.492	481.38
350.72	491.38
350.947	481.38
351.174	486.38
351.402	493.38
351.629	493.38
351.856	486.38
352.083	496.38
352.311	496.38
352.538	500.38
352.765	520.38
352.992	479.38
353.22	490.38
353.447	505.38
353.674	468.38
353.901	481.38
354.128	497.38
354.355	474.38
354.583	464.38
354.81	486.38
355.037	481.38
355.264	492.38
355.491	473.38
355.718	469.38
355.945	480.38
356.172	487.38
356.399	493.38
356.626	481.38
356.853	480.38
357.08	479.38
357.307	494.38
357.534	487.38
357.761	487.38
357.988	487.38
358.215	470.38
358.441	488.38
358.668	478.38
358.895	487.38
359.122	485.38
359.349	496.38
359.576	489.38
359.802	510.38
360.029	528.38
360.256	505.38
360.483	512.38
360.709	478.38
360.936	504.38
361.163	495.38
361.39	502.38
361.616	486.38
361.843	491.38
362.07	502.38
362.296	484.38
362.523	497.38
362.749	486.38
362.976	484.38
363.203	490.38
363.429	507.38
363.656	485.38
363.882	485.38
364.109	474.38
364.335	469.38
364.562	479.38
364.788	477.38
365.015	475.38
365.241	491.38
365.468	502.38
365.694	477.38
365.92	495.38
366.147	464.38
366.373	478.38
366.599	500.38
366.826	480.38
367.052	475.38
367.278	479.38
367.505	463.38
367.731	498.38
367.957	480.38
368.184	480.38
368.41	459.38
368.636	501.38
368.862	477.38
369.089	498.38
369.315	480.38
369.541	494.38
369.767	494.38
369.993	486.38
370.219	479.38
370.445	504.38
370.672	483.38
370.898	509.38
371.124	501.38
371.35	521.38
371.576	507.38
371.802	498.38
372.028	500.38
372.254	508.38
372.48	522.38
372.706	506.38
372.932	524.38
373.158	516.38
373.384	514.38
373.61	517.38
373.835	525.38
374.061	521.38
374.287	522.38
374.513	542.38
374.739	530.38
374.965	530.38
375.191	545.38
375.416	568.38
375.642	558.38
375.868	530.38
376.094	548.38
376.319	508.38
376.545	500.38
376.771	501.38
376.997	542.38
377.222	515.38
377.448	478.38
377.674	522.38
377.899	485.38
378.125	521.38
378.35	511.38
378.576	492.38
378.802	520.38
379.027	518.38
379.253	486.38
379.478	524.38
379.704	509.38
379.929	524.38
380.155	518.38
380.38	520.38
380.606	536.38
380.831	516.38
381.057	524.38
381.282	508.38
381.507	504.38
381.733	519.38
381.958	531.38
382.184	526.38
382.409	542.38
382.634	544.38
382.86	528.38
383.085	551.38
383.31	550.38
383.535	554.38
383.761	589.38
383.986	556.38
384.211	577.38
384.436	594.38
384.662	597.38
384.887	601.38
385.112	612.38
385.337	605.38
385.562	620.38
385.787	618.38
386.013	617.38
386.238	630.38
386.463	622.38
386.688	589.38
386.913	582.38
387.138	601.38
387.363	623.38
387.588	586.38
387.813	583.38
388.038	592.38
388.263	602.38
388.488	646.38
388.713	601.38
388.938	593.38
389.163	569.38
389.387	568.38
389.612	576.38
389.837	582.38
390.062	559.38
390.287	560.38
390.512	559.38
390.736	602.38
390.961	609.38
391.186	598.38
391.411	603.38
391.636	620.38
391.86	629.38
392.085	644.38
392.31	650.38
392.534	646.38
392.759	615.38
392.984	618.38
393.208	671.38
393.433	792.38
393.658	831.38
393.882	652.38
394.107	610.38
394.331	629.38
394.556	608.38
394.78	624.38
395.005	643.38
395.229	600.38
395.454	630.38
395.678	644.38
395.903	662.38
396.127	662.38
396.352	669.38
396.576	642.38
396.801	683.38
397.025	764.38
397.249	710.38
397.474	652.38
397.698	642.38
397.922	634.38
398.147	636.38
398.371	658.38
398.595	679.38
398.82	694.38
399.044	730.38
399.268	783.38
399.492	848.38
399.717	926.38
399.941	943.38
400.165	930.38
400.389	860.38
400.613	798.38
400.837	732.38
401.062	705.38
401.286	712.38
401.51	686.38
401.734	664.38
401.958	696.38
402.182	697.38
402.406	721.38
402.63	725.38
402.854	741.38
403.078	705.38
403.302	753.38
403.526	738.38
403.75	764.38
403.974	728.38
404.198	775.38
404.422	772.38
404.645	766.38
404.869	760.38
405.093	761.38
405.317	790.38
405.541	792.38
405.765	758.38
405.988	736.38
406.212	764.38
406.436	792.38
406.66	812.38
406.883	799.38
407.107	831.38
407.331	899.38
407.555	918.38
407.778	910.38
408.002	857.38
408.226	839.38
408.449	806.38
408.673	789.38
408.896	813.38
409.12	810.38
409.344	783.38
409.567	745.38
409.791	749.38
410.014	731.38
410.238	751.38
410.461	721.38
410.685	722.38
410.908	738.38
411.132	777.38
411.355	750.38
411.578	749.38
411.802	711.38
412.025	695.38
412.249	720.38
412.472	728.38
412.695	741.38
412.919	722.38
413.142	725.38
413.365	720.38
413.589	700.38
413.812	664.38
414.035	704.38
414.258	702.38
414.482	679.38
414.705	668.38
414.928	688.38
415.151	677.38
415.374	672.38
415.597	692.38
415.821	692.38
416.044	663.38
416.267	681.38
416.49	678.38
416.713	683.38
416.936	658.38
417.159	666.38
417.382	683.38
417.605	672.38
417.828	689.38
418.051	696.38
418.274	659.38
418.497	660.38
418.72	676.38
418.943	682.38
419.166	744.38
419.389	777.38
419.611	754.38
419.834	733.38
420.057	732.38
420.28	690.38
420.503	704.38
420.726	686.38
420.948	699.38
421.171	721.38
421.394	748.38
421.617	702.38
421.839	689.38
422.062	714.38
422.285	697.38
422.507	770.38
422.73	839.38
422.953	854.38
423.175	757.38
423.398	731.38
423.621	752.38
423.843	741.38
424.066	748.38
424.288	745.38
424.511	719.38
424.733	783.38
424.956	805.38
425.178	778.38
425.401	780.38
425.623	807.38
425.846	717.38
426.068	674.38
426.291	676.38
426.513	684.38
426.735	693.38
426.958	718.38
427.18	746.38
427.402	838.38
427.625	884.38
427.847	809.38
428.069	714.38
428.292	692.38
428.514	670.38
428.736	663.38
428.958	671.38
429.181	629.38
429.403	637.38
429.625	628.38
429.847	640.38
430.069	683.38
430.292	685.38
430.514	655.38
430.736	649.38
430.958	647.38
431.18	616.38
431.402	621.38
431.624	584.38
431.846	609.38
432.068	616.38
432.29	642.38
432.512	618.38
432.734	646.38
432.956	640.38
433.178	655.38
433.4	638.38
433.622	654.38
433.844	617.38
434.066	642.38
434.287	644.38
434.509	640.38
434.731	646.38
434.953	672.38
435.175	668.38
435.397	702.38
435.618	694.38
435.84	696.38
436.062	783.38
436.284	765.38
436.505	673.38
436.727	688.38
436.949	645.38
437.17	626.38
437.392	610.38
437.614	643.38
437.835	637.38
438.057	708.38
438.278	768.38
438.5	764.38
438.721	822.38
438.943	792.38
439.165	668.38
439.386	667.38
439.608	666.38
439.829	663.38
440.05	674.38
440.272	704.38
440.493	686.38
440.715	654.38
440.936	653.38
441.158	643.38
441.379	661.38
441.6	686.38
441.822	694.38
442.043	720.38
442.264	766.38
442.486	765.38
442.707	734.38
442.928	713.38
443.149	716.38
443.371	693.38
443.592	772.38
443.813	798.38
444.034	837.38
444.255	770.38
444.476	750.38
444.698	772.38
444.919	761.38
445.14	866.38
445.361	816.38
445.582	764.38
445.803	752.38
446.024	799.38
446.245	798.38
446.466	748.38
446.687	684.38
446.908	646.38
447.129	646.38
447.35	613.38
447.571	623.38
447.792	597.38
448.013	616.38
448.234	611.38
448.455	642.38
448.675	729.38
448.896	773.38
449.117	697.38
449.338	678.38
449.559	728.38
449.779	813.38
450	720.38
450.221	635.38
450.442	606.38
450.662	590.38
450.883	605.38
451.104	625.38
451.324	600.38
451.545	590.38
451.766	559.38
451.986	566.38
452.207	579.38
452.428	578.38
452.648	557.38
452.869	558.38
453.089	564.38
453.31	577.38
453.53	596.38
453.751	584.38
453.971	576.38
454.192	578.38
454.412	575.38
454.633	550.38
454.853	556.38
455.073	556.38
455.294	594.38
455.514	598.38
455.734	603.38
455.955	544.38
456.175	533.38
456.395	549.38
456.616	528.38
456.836	546.38
457.056	542.38
457.276	546.38
457.497	538.38
457.717	548.38
457.937	548.38
458.157	569.38
458.377	548.38
458.598	588.38
458.818	614.38
459.038	670.38
459.258	689.38
459.478	666.38
459.698	649.38
459.918	669.38
460.138	656.38
460.358	671.38
460.578	677.38
460.798	702.38
461.018	700.38
461.238	696.38
461.458	695.38
461.678	700.38
461.898	705.38
462.118	702.38
462.338	722.38
462.558	761.38
462.777	747.38
462.997	798.38
463.217	881.38
463.437	832.38
463.657	814.38
463.876	806.38
464.096	790.38
464.316	794.38
464.536	774.38
464.755	786.38
464.975	773.38
465.195	741.38
465.414	769.38
465.634	705.38
465.854	657.38
466.073	664.38
466.293	620.38
466.512	624.38
466.732	618.38
466.951	598.38
467.171	594.38
467.391	596.38
467.61	607.38
467.829	607.38
468.049	601.38
468.268	591.38
468.488	585.38
468.707	581.38
468.927	606.38
469.146	582.38
469.365	604.38
469.585	590.38
469.804	620.38
470.023	614.38
470.243	626.38
470.462	635.38
470.681	656.38
470.901	648.38
471.12	634.38
471.339	605.38
471.558	609.38
471.777	621.38
471.997	593.38
472.216	597.38
472.435	623.38
472.654	604.38
472.873	584.38
473.092	602.38
473.311	593.38
473.53	588.38
473.749	596.38
473.968	621.38
474.187	666.38
474.406	696.38
474.625	641.38
474.844	568.38
475.063	596.38
475.282	597.38
475.501	622.38
475.72	589.38
475.939	608.38
476.158	622.38
476.377	618.38
476.596	618.38
476.814	649.38
477.033	636.38
477.252	638.38
477.471	651.38
477.69	649.38
477.908	660.38
478.127	702.38
478.346	689.38
478.564	702.38
478.783	697.38
479.002	728.38
479.22	749.38
479.439	743.38
479.658	724.38
479.876	736.38
480.095	777.38
480.313	793.38
480.532	794.38
480.751	768.38
480.969	753.38
481.188	774.38
481.406	762.38
481.624	744.38
481.843	714.38
482.061	717.38
482.28	704.38
482.498	716.38
482.717	704.38
482.935	705.38
483.153	720.38
483.372	659.38
483.59	705.38
483.808	698.38
484.027	699.38
484.245	692.38
484.463	724.38
484.681	699.38
484.9	757.38
485.118	736.38
485.336	698.38
485.554	731.38
485.772	712.38
485.99	744.38
486.209	765.38
486.427	747.38
486.645	732.38
486.863	760.38
487.081	754.38
487.299	759.38
487.517	767.38
487.735	744.38
487.953	754.38
488.171	746.38
488.389	737.38
488.607	746.38
488.825	751.38
489.043	741.38
489.261	741.38
489.479	760.38
489.696	778.38
489.914	760.38
490.132	752.38
490.35	766.38
490.568	749.38
490.786	788.38
491.003	766.38
491.221	786.38
491.439	801.38
491.657	789.38
491.874	790.38
492.092	837.38
492.31	821.38
492.527	833.38
492.745	832.38
492.963	818.38
493.18	822.38
493.398	823.38
493.615	860.38
493.833	838.38
494.05	865.38
494.268	839.38
494.485	871.38
494.703	840.38
494.92	832.38
495.138	830.38
495.355	827.38
495.573	827.38
495.79	846.38
496.008	868.38
496.225	854.38
496.442	873.38
496.66	853.38
496.877	876.38
497.094	866.38
497.312	882.38
497.529	880.38
497.746	920.38
497.963	931.38
498.181	989.38
498.398	1013.38
498.615	1056.38
498.832	1104.38
499.049	1136.38
499.267	1205.38
499.484	1288.38
499.701	1382.38
499.918	1476.38
500.135	1616.38
500.352	1739.38
500.569	1816.38
500.786	1822.38
501.003	1774.38
501.22	1580.38
501.437	1463.38
501.654	1341.38
501.871	1284.38
502.088	1195.38
502.305	1147.38
502.522	1101.38
502.739	1087.38
502.956	1009.38
503.172	992.38
503.389	918.38
503.606	926.38
503.823	928.38
504.04	921.38
504.256	950.38
504.473	927.38
504.69	913.38
504.907	944.38
505.123	878.38
505.34	859.38
505.557	821.38
505.773	825.38
505.99	838.38
506.207	826.38
506.423	781.38
506.64	777.38
506.856	781.38
507.073	759.38
507.289	793.38
507.506	757.38
507.722	797.38
507.939	743.38
508.155	745.38
508.372	742.38
508.588	733.38
508.805	738.38
509.021	736.38
509.238	732.38
509.454	738.38
509.67	737.38
509.887	713.38
510.103	736.38
510.319	732.38
510.536	783.38
510.752	1166.38
510.968	983.38
511.184	718.38
511.401	685.38
511.617	706.38
511.833	697.38
512.049	676.38
512.265	693.38
512.481	709.38
512.698	678.38
512.914	718.38
513.13	672.38
513.346	707.38
513.562	707.38
513.778	695.38
513.994	712.38
514.21	711.38
514.426	710.38
514.642	751.38
514.858	760.38
515.074	794.38
515.29	864.38
515.506	1177.38
515.721	1073.38
515.937	814.38
516.153	772.38
516.369	782.38
516.585	771.38
516.801	793.38
517.016	814.38
517.232	858.38
517.448	840.38
517.664	873.38
517.879	863.38
518.095	890.38
518.311	876.38
518.527	849.38
518.742	804.38
518.958	788.38
519.173	763.38
519.389	734.38
519.605	758.38
519.82	743.38
520.036	744.38
520.251	740.38
520.467	740.38
520.682	710.38
520.898	713.38
521.113	743.38
521.329	749.38
521.544	808.38
521.76	926.38
521.975	1417.38
522.19	1489.38
522.406	866.38
522.621	718.38
522.836	682.38
523.052	680.38
523.267	662.38
523.482	659.38
523.698	656.38
523.913	629.38
524.128	644.38
524.343	628.38
524.559	609.38
524.774	638.38
524.989	657.38
525.204	635.38
525.419	646.38
525.634	613.38
525.849	621.38
526.064	605.38
526.28	611.38
526.495	623.38
526.71	638.38
526.925	598.38
527.14	607.38
527.355	640.38
527.57	607.38
527.785	615.38
527.999	603.38
528.214	625.38
528.429	594.38
528.644	621.38
528.859	603.38
529.074	606.38
529.289	634.38
529.503	680.38
529.718	652.38
529.933	609.38
530.148	608.38
530.363	606.38
530.577	598.38
530.792	597.38
531.007	609.38
531.221	618.38
531.436	595.38
531.651	594.38
531.865	620.38
532.08	603.38
532.295	588.38
532.509	580.38
532.724	620.38
532.938	607.38
533.153	620.38
533.367	598.38
533.582	606.38
533.796	593.38
534.011	578.38
534.225	596.38
534.44	606.38
534.654	608.38
534.868	581.38
535.083	598.38
535.297	613.38
535.511	600.38
535.726	600.38
535.94	586.38
536.154	583.38
536.369	574.38
536.583	566.38
536.797	558.38
537.011	560.38
537.225	576.38
537.44	574.38
537.654	554.38
537.868	574.38
538.082	542.38
538.296	551.38
538.51	561.38
538.724	583.38
538.938	577.38
539.153	567.38
539.367	584.38
539.581	573.38
539.795	553.38
540.009	551.38
540.222	552.38
540.436	550.38
540.65	556.38
540.864	577.38
541.078	561.38
541.292	561.38
541.506	576.38
541.72	564.38
541.934	594.38
542.147	558.38
542.361	556.38
542.575	567.38
542.789	565.38
543.002	537.38
543.216	570.38
543.43	546.38
543.644	552.38
543.857	560.38
544.071	540.38
544.285	554.38
544.498	572.38
544.712	561.38
544.925	579.38
545.139	583.38
545.352	570.38
545.566	557.38
545.779	585.38
545.993	588.38
546.206	579.38
546.42	592.38
546.633	578.38
546.847	573.38
547.06	544.38
547.274	574.38
547.487	549.38
547.7	542.38
547.914	593.38
548.127	596.38
548.34	566.38
548.554	573.38
548.767	561.38
548.98	558.38
549.193	568.38
549.407	569.38
549.62	583.38
549.833	600.38
550.046	566.38
550.259	561.38
550.473	575.38
550.686	559.38
550.899	559.38
551.112	540.38
551.325	558.38
551.538	536.38
551.751	567.38
551.964	564.38
552.177	577.38
552.39	558.38
552.603	595.38
552.816	586.38
553.029	594.38
553.242	598.38
553.455	623.38
553.667	621.38
553.88	607.38
554.093	607.38
554.306	586.38
554.519	577.38
554.732	557.38
554.944	575.38
555.157	557.38
555.37	549.38
555.583	565.38
555.795	530.38
556.008	531.38
556.221	487.38
556.433	507.38
556.646	536.38
556.859	518.38
557.071	493.38
557.284	505.38
557.496	495.38
557.709	493.38
557.921	490.38
558.134	464.38
558.346	494.38
558.559	520.38
558.771	499.38
558.984	503.38
559.196	506.38
559.409	493.38
559.621	508.38
559.833	480.38
560.046	501.38
560.258	508.38
560.47	500.38
560.683	482.38
560.895	504.38
561.107	494.38
561.32	494.38
561.532	476.38
561.744	496.38
561.956	466.38
562.168	501.38
562.381	504.38
562.593	501.38
562.805	475.38
563.017	503.38
563.229	489.38
563.441	504.38
563.653	509.38
563.865	516.38
564.077	523.38
564.289	517.38
564.501	530.38
564.713	528.38
564.925	542.38
565.137	557.38
565.349	551.38
565.561	564.38
565.773	597.38
565.985	600.38
566.197	640.38
566.408	673.38
566.62	711.38
566.832	751.38
567.044	789.38
567.255	767.38
567.467	777.38
567.679	823.38
567.891	857.38
568.102	834.38
568.314	825.38
568.526	778.38
568.737	717.38
568.949	648.38
569.161	615.38
569.372	582.38
569.584	574.38
569.795	565.38
570.007	551.38
570.218	560.38
570.43	568.38
570.641	529.38
570.853	528.38
571.064	539.38
571.276	526.38
571.487	500.38
571.698	483.38
571.91	478.38
572.121	479.38
572.333	480.38
572.544	462.38
572.755	467.38
572.966	452.38
573.178	458.38
573.389	455.38
573.6	440.38
573.811	439.38
574.023	426.38
574.234	415.38
574.445	420.38
574.656	441.38
574.867	434.38
575.078	446.38
575.289	431.38
575.501	432.38
575.712	423.38
575.923	430.38
576.134	417.38
576.345	423.38
576.556	423.38
576.767	412.38
576.978	418.38
577.188	400.38
577.399	420.38
577.61	414.38
577.821	412.38
578.032	408.38
578.243	440.38
578.454	628.38
578.665	470.38
578.875	402.38
579.086	400.38
579.297	405.38
579.508	406.38
579.718	384.38
579.929	411.38
580.14	402.38
580.35	390.38
580.561	391.38
580.772	387.38
580.982	378.38
581.193	385.38
581.403	398.38
581.614	382.38
581.825	382.38
582.035	372.38
582.246	384.38
582.456	375.38
582.667	365.38
582.877	376.38
583.087	376.38
583.298	378.38
583.508	376.38
583.719	372.38
583.929	389.38
584.139	379.38
584.35	363.38
584.56	373.38
584.77	376.38
584.981	357.38
585.191	364.38
585.401	376.38
585.611	366.38
585.821	382.38
586.032	387.38
586.242	373.38
586.452	370.38
586.662	380.38
586.872	377.38
587.082	369.38
587.292	365.38
587.502	382.38
587.713	381.38
587.923	373.38
588.133	379.38
588.343	397.38
588.553	361.38
588.762	394.38
588.972	379.38
589.182	525.38
589.392	530.38
589.602	410.38
589.812	473.38
590.022	420.38
590.232	383.38
590.441	384.38
590.651	377.38
590.861	373.38
591.071	379.38
591.281	389.38
591.49	402.38
591.7	386.38
591.91	429.38
592.119	392.38
592.329	385.38
592.539	409.38
592.748	427.38
592.958	452.38
593.167	449.38
593.377	456.38
593.587	459.38
593.796	454.38
594.006	474.38
594.215	489.38
594.424	461.38
594.634	460.38
594.843	449.38
595.053	424.38
595.262	424.38
595.472	406.38
595.681	399.38
595.89	392.38
596.1	389.38
596.309	382.38
596.518	378.38
596.727	350.38
596.937	368.38
597.146	375.38
597.355	351.38
597.564	345.38
597.774	349.38
597.983	339.38
598.192	344.38
598.401	352.38
598.61	333.38
598.819	359.38
599.028	345.38
599.237	348.38
599.446	332.38
599.655	322.38
599.864	334.38
600.073	314.38
600.282	326.38
600.491	330.38
600.7	335.38
600.909	316.38
601.118	345.38
601.327	332.38
601.536	336.38
601.745	328.38
601.953	313.38
602.162	333.38
602.371	320.38
602.58	310.38
602.789	330.38
602.997	319.38
603.206	318.38
603.415	324.38
603.623	316.38
603.832	306.38
604.041	315.38
604.249	304.38
604.458	305.38
604.666	320.38
604.875	318.38
605.084	300.38
605.292	318.38
605.501	308.38
605.709	297.38
605.918	309.38
606.126	318.38
606.334	314.38
606.543	308.38
606.751	309.38
606.96	310.38
607.168	305.38
607.376	292.38
607.585	293.38
607.793	322.38
608.001	298.38
608.21	317.38
608.418	314.38
608.626	312.38
608.834	296.38
609.043	299.38
609.251	304.38
609.459	308.38
609.667	303.38
609.875	312.38
610.083	314.38
610.291	299.38
610.499	304.38
610.707	297.38
610.916	303.38
611.124	313.38
611.332	295.38
611.54	318.38
611.748	295.38
611.955	305.38
612.163	288.38
612.371	312.38
612.579	311.38
612.787	300.38
612.995	317.38
613.203	314.38
613.411	300.38
613.618	303.38
613.826	303.38
614.034	305.38
614.242	298.38
614.449	301.38
614.657	310.38
614.865	299.38
615.072	305.38
615.28	301.38
615.488	286.38
615.695	303.38
615.903	292.38
616.111	313.38
616.318	300.38
616.526	301.38
616.733	313.38
616.941	313.38
617.148	302.38
617.356	310.38
617.563	299.38
617.771	304.38
617.978	288.38
618.185	311.38
618.393	303.38
618.6	294.38
618.807	300.38
619.015	306.38
619.222	299.38
619.429	298.38
619.637	316.38
619.844	289.38
620.051	297.38
620.258	297.38
620.466	287.38
620.673	280.38
620.88	278.38
621.087	291.38
621.294	293.38
621.501	301.38
621.708	297.38
621.915	287.38
622.122	283.38
622.329	278.38
622.536	270.38
622.743	270.38
622.95	287.38
623.157	276.38
623.364	266.38
623.571	282.38
623.778	279.38
623.985	275.38
624.192	281.38
624.399	267.38
624.606	264.38
624.812	282.38
625.019	261.38
625.226	261.38
625.433	272.38
625.639	253.38
625.846	276.38
626.053	285.38
626.259	246.38
626.466	270.38
626.673	260.38
626.879	256.38
627.086	247.38
627.293	249.38
627.499	271.38
627.706	278.38
627.912	254.38
628.119	249.38
628.325	261.38
628.532	253.38
628.738	279.38
628.945	236.38
629.151	253.38
629.357	235.38
629.564	241.38
629.77	250.38
629.976	252.38
630.183	252.38
630.389	248.38
630.595	230.38
630.802	222.38
631.008	229.38
631.214	237.38
631.42	228.38
631.627	233.38
631.833	240.38
632.039	245.38
632.245	229.38
632.451	237.38
632.657	210.38
632.863	219.38
633.069	216.38
633.275	228.38
633.481	229.38
633.688	237.38
633.893	235.38
634.099	231.38
634.305	234.38
634.511	231.38
634.717	231.38
634.923	224.38
635.129	222.38
635.335	235.38
635.541	229.38
635.747	240.38
635.952	235.38
636.158	215.38
636.364	199.38
636.57	223.38
636.775	222.38
636.981	209.38
637.187	221.38
637.392	212.38
637.598	236.38
637.804	228.38
638.009	208.38
638.215	210.38
638.421	217.38
638.626	209.38
638.832	195.38
639.037	213.38
639.243	204.38
639.448	214.38
639.654	213.38
639.859	214.38
640.065	222.38
640.27	220.38
640.475	205.38
640.681	210.38
640.886	205.38
641.091	195.38
641.297	211.38
641.502	224.38
641.707	206.38
641.913	215.38
642.118	200.38
642.323	202.38
642.528	220.38
642.733	218.38
642.939	206.38
643.144	199.38
643.349	208.38
643.554	193.38
643.759	200.38
643.964	214.38
644.169	204.38
644.374	206.38
644.579	201.38
644.784	206.38
644.989	194.38
645.194	210.38
645.399	199.38
645.604	210.38
645.809	194.38
646.014	200.38
646.219	205.38
646.423	206.38
646.628	214.38
646.833	203.38
647.038	197.38
647.243	208.38
647.447	191.38
647.652	205.38
647.857	213.38
648.062	207.38
648.266	217.38
648.471	217.38
648.676	218.38
648.88	218.38
649.085	222.38
649.289	223.38
649.494	218.38
649.698	232.38
649.903	223.38
650.107	209.38
650.312	203.38
650.516	201.38
650.721	200.38
650.925	177.38
651.13	195.38
651.334	172.38
651.539	196.38
651.743	197.38
651.947	168.38
652.152	190.38
652.356	203.38
652.56	182.38
652.764	171.38
652.969	173.38
653.173	176.38
653.377	174.38
653.581	184.38
653.785	174.38
653.99	162.38
654.194	184.38
654.398	179.38
654.602	175.38
654.806	164.38
655.01	172.38
655.214	170.38
655.418	173.38
655.622	192.38
655.826	196.38
656.03	168.38
656.234	172.38
656.438	204.38
656.642	180.38
656.846	183.38
657.049	169.38
657.253	152.38
657.457	139.38
657.661	152.38
657.865	142.38
658.068	146.38
658.272	128.38
658.476	127.38
658.68	103.38
658.883	112.38
659.087	109.38
659.291	123.38
659.494	123.38
659.698	110.38
659.901	104.38
660.105	101.38
660.309	102.38
660.512	98.38
660.716	105.38
660.919	84.38
661.123	94.38
661.326	94.38
661.53	101.38
661.733	104.38
661.936	109.38
662.14	91.38
662.343	99.38
662.546	83.38
662.75	88.38
662.953	84.38
663.156	91.38
663.36	97.38
663.563	88.38
663.766	90.38
663.969	87.38
664.173	79.38
664.376	87.38
664.579	71.38
664.782	96.38
664.985	96.38
665.188	80.38
665.391	91.38
665.594	82.38
665.797	86.38
666	95.38
666.203	80.38
666.406	82.38
666.609	65.38
666.812	77.38
667.015	81.38
667.218	86.38
667.421	79.38
667.624	96.38
667.827	93.38
668.03	90.38
668.232	97.38
668.435	86.38
668.638	89.38
668.841	92.38
669.043	66.38
669.246	86.38
669.449	81.38
669.651	76.38
669.854	92.38
670.057	93.38
670.259	82.38
670.462	65.38
670.665	77.38
670.867	80.38
671.07	74.38
671.272	75.38
671.475	79.38
671.677	85.38
671.88	81.38
672.082	83.38
672.284	102.38
672.487	81.38
672.689	89.38
672.892	68.38
