Data from 1968.PennyLincolnUp.Lamp.En5.5.200Scan.071719.P1._HRD10591_14-51-58-970.txt Node
Date: Thu Jul 18 14:51:58 EDT 2019
User: cochatt
Spectrometer: HR+D1059
Trigger mode: 1
Integration Time (sec): 1.000000E-1
Scans to average: 1
Electric dark correction enabled: true
Nonlinearity correction enabled: false
Boxcar width: 0
XAxis mode: Wavelengths
Number of Pixels in Spectrum: 2048
>>>>>Begin Spectral Data<<<<<
223.165	-17.12
223.4	-17.12
223.635	-17.12
223.869	-18.12
224.104	-1.12
224.338	-10.12
224.573	-1.12
224.808	-14.12
225.042	-11.12
225.277	-10.12
225.511	-9.12
225.746	6.88
225.98	-0.12
226.215	10.88
226.449	-2.12
226.683	17.88
226.918	35.88
227.152	22.88
227.387	24.88
227.621	45.88
227.856	24.88
228.09	44.88
228.324	32.88
228.559	55.88
228.793	57.88
229.027	73.88
229.262	58.88
229.496	71.88
229.73	87.88
229.964	60.88
230.199	68.88
230.433	77.88
230.667	74.88
230.901	76.88
231.136	71.88
231.37	82.88
231.604	89.88
231.838	77.88
232.072	82.88
232.306	102.88
232.541	87.88
232.775	84.88
233.009	71.88
233.243	79.88
233.477	81.88
233.711	101.88
233.945	92.88
234.179	82.88
234.413	81.88
234.647	86.88
234.881	96.88
235.115	80.88
235.349	72.88
235.583	83.88
235.817	82.88
236.051	78.88
236.285	68.88
236.519	82.88
236.753	84.88
236.987	89.88
237.221	97.88
237.455	89.88
237.689	91.88
237.922	78.88
238.156	71.88
238.39	93.88
238.624	72.88
238.858	86.88
239.091	73.88
239.325	77.88
239.559	95.88
239.793	80.88
240.027	94.88
240.26	75.88
240.494	76.88
240.728	82.88
240.961	87.88
241.195	79.88
241.429	98.88
241.662	81.88
241.896	97.88
242.13	93.88
242.363	67.88
242.597	80.88
242.83	80.88
243.064	69.88
243.298	88.88
243.531	82.88
243.765	76.88
243.998	86.88
244.232	83.88
244.465	75.88
244.699	80.88
244.932	101.88
245.166	92.88
245.399	82.88
245.633	100.88
245.866	92.88
246.099	70.88
246.333	81.88
246.566	68.88
246.8	82.88
247.033	91.88
247.266	74.88
247.5	93.88
247.733	98.88
247.966	83.88
248.2	87.88
248.433	97.88
248.666	71.88
248.899	93.88
249.133	76.88
249.366	89.88
249.599	92.88
249.832	84.88
250.066	91.88
250.299	84.88
250.532	79.88
250.765	85.88
250.998	103.88
251.231	93.88
251.465	72.88
251.698	95.88
251.931	85.88
252.164	95.88
252.397	98.88
252.63	93.88
252.863	92.88
253.096	87.88
253.329	100.88
253.562	90.88
253.795	93.88
254.028	100.88
254.261	91.88
254.494	78.88
254.727	97.88
254.96	76.88
255.193	97.88
255.426	93.88
255.659	88.88
255.892	102.88
256.124	89.88
256.357	70.88
256.59	81.88
256.823	89.88
257.056	103.88
257.289	92.88
257.521	89.88
257.754	88.88
257.987	89.88
258.22	74.88
258.452	93.88
258.685	94.88
258.918	93.88
259.151	92.88
259.383	93.88
259.616	89.88
259.849	83.88
260.081	83.88
260.314	98.88
260.547	92.88
260.779	82.88
261.012	90.88
261.244	93.88
261.477	93.88
261.71	96.88
261.942	103.88
262.175	94.88
262.407	79.88
262.64	73.88
262.872	78.88
263.105	94.88
263.337	102.88
263.57	99.88
263.802	91.88
264.035	93.88
264.267	98.88
264.499	100.88
264.732	99.88
264.964	94.88
265.197	96.88
265.429	84.88
265.661	90.88
265.894	96.88
266.126	93.88
266.358	100.88
266.591	98.88
266.823	102.88
267.055	97.88
267.287	96.88
267.52	93.88
267.752	91.88
267.984	106.88
268.216	84.88
268.448	104.88
268.681	104.88
268.913	87.88
269.145	102.88
269.377	88.88
269.609	94.88
269.841	95.88
270.073	108.88
270.306	88.88
270.538	93.88
270.77	98.88
271.002	88.88
271.234	90.88
271.466	93.88
271.698	100.88
271.93	95.88
272.162	90.88
272.394	96.88
272.626	91.88
272.858	91.88
273.09	101.88
273.322	102.88
273.553	81.88
273.785	95.88
274.017	100.88
274.249	96.88
274.481	98.88
274.713	92.88
274.945	107.88
275.176	93.88
275.408	119.88
275.64	96.88
275.872	93.88
276.104	93.88
276.335	79.88
276.567	94.88
276.799	101.88
277.031	108.88
277.262	98.88
277.494	112.88
277.726	97.88
277.957	101.88
278.189	89.88
278.421	112.88
278.652	88.88
278.884	94.88
279.115	100.88
279.347	90.88
279.579	101.88
279.81	91.88
280.042	90.88
280.273	101.88
280.505	96.88
280.736	101.88
280.968	95.88
281.199	85.88
281.431	84.88
281.662	84.88
281.894	89.88
282.125	106.88
282.356	112.88
282.588	86.88
282.819	106.88
283.051	114.88
283.282	79.88
283.513	121.88
283.745	99.88
283.976	102.88
284.207	114.88
284.439	105.88
284.67	86.88
284.901	100.88
285.132	95.88
285.364	101.88
285.595	92.88
285.826	96.88
286.057	94.88
286.288	104.88
286.52	101.88
286.751	88.88
286.982	99.88
287.213	100.88
287.444	88.88
287.675	99.88
287.906	98.88
288.138	86.88
288.369	101.88
288.6	97.88
288.831	99.88
289.062	101.88
289.293	97.88
289.524	106.88
289.755	96.88
289.986	95.88
290.217	119.88
290.448	88.88
290.679	83.88
290.91	111.88
291.141	107.88
291.371	102.88
291.602	98.88
291.833	97.88
292.064	104.88
292.295	93.88
292.526	105.88
292.757	99.88
292.987	96.88
293.218	81.88
293.449	88.88
293.68	98.88
293.91	108.88
294.141	102.88
294.372	108.88
294.603	90.88
294.833	91.88
295.064	90.88
295.295	99.88
295.525	94.88
295.756	104.88
295.987	97.88
296.217	102.88
296.448	89.88
296.679	110.88
296.909	113.88
297.14	100.88
297.37	98.88
297.601	93.88
297.831	102.88
298.062	101.88
298.292	99.88
298.523	107.88
298.753	105.88
298.984	113.88
299.214	97.88
299.445	100.88
299.675	97.88
299.905	99.88
300.136	114.88
300.366	116.88
300.597	109.88
300.827	105.88
301.057	105.88
301.288	93.88
301.518	117.88
301.748	110.88
301.979	103.88
302.209	90.88
302.439	107.88
302.669	116.88
302.9	101.88
303.13	99.88
303.36	109.88
303.59	110.88
303.82	96.88
304.051	114.88
304.281	100.88
304.511	120.88
304.741	101.88
304.971	101.88
305.201	103.88
305.431	97.88
305.661	96.88
305.891	121.88
306.121	118.88
306.352	98.88
306.582	96.88
306.812	104.88
307.042	110.88
307.272	107.88
307.502	96.88
307.731	110.88
307.961	113.88
308.191	104.88
308.421	107.88
308.651	91.88
308.881	103.88
309.111	100.88
309.341	93.88
309.571	98.88
309.8	119.88
310.03	118.88
310.26	106.88
310.49	92.88
310.72	100.88
310.949	115.88
311.179	100.88
311.409	104.88
311.639	100.88
311.868	111.88
312.098	109.88
312.328	102.88
312.557	98.88
312.787	101.88
313.017	97.88
313.246	110.88
313.476	92.88
313.706	104.88
313.935	104.88
314.165	116.88
314.394	105.88
314.624	104.88
314.853	113.88
315.083	100.88
315.312	97.88
315.542	94.88
315.771	104.88
316.001	105.88
316.23	115.88
316.46	108.88
316.689	118.88
316.919	107.88
317.148	112.88
317.377	115.88
317.607	109.88
317.836	101.88
318.065	107.88
318.295	109.88
318.524	105.88
318.753	120.88
318.983	106.88
319.212	100.88
319.441	108.88
319.67	103.88
319.9	90.88
320.129	115.88
320.358	101.88
320.587	112.88
320.816	103.88
321.046	99.88
321.275	101.88
321.504	106.88
321.733	114.88
321.962	121.88
322.191	112.88
322.42	115.88
322.649	100.88
322.878	108.88
323.108	96.88
323.337	122.88
323.566	107.88
323.795	122.88
324.024	130.88
324.253	121.88
324.482	137.88
324.71	161.88
324.939	184.88
325.168	174.88
325.397	140.88
325.626	114.88
325.855	114.88
326.084	108.88
326.313	114.88
326.542	113.88
326.77	104.88
326.999	123.88
327.228	145.88
327.457	161.88
327.686	164.88
327.914	126.88
328.143	133.88
328.372	122.88
328.6	113.88
328.829	115.88
329.058	99.88
329.287	122.88
329.515	120.88
329.744	105.88
329.972	112.88
330.201	103.88
330.43	106.88
330.658	122.88
330.887	119.88
331.115	105.88
331.344	130.88
331.572	132.88
331.801	109.88
332.03	122.88
332.258	112.88
332.486	115.88
332.715	107.88
332.943	106.88
333.172	110.88
333.4	103.88
333.629	115.88
333.857	120.88
334.085	114.88
334.314	126.88
334.542	120.88
334.771	122.88
334.999	118.88
335.227	116.88
335.455	107.88
335.684	124.88
335.912	115.88
336.14	104.88
336.369	116.88
336.597	104.88
336.825	112.88
337.053	122.88
337.281	100.88
337.51	96.88
337.738	120.88
337.966	110.88
338.194	115.88
338.422	126.88
338.65	125.88
338.878	120.88
339.106	122.88
339.334	107.88
339.562	100.88
339.79	102.88
340.018	99.88
340.246	108.88
340.474	118.88
340.702	112.88
340.93	123.88
341.158	102.88
341.386	114.88
341.614	111.88
341.842	103.88
342.07	114.88
342.298	100.88
342.526	108.88
342.754	104.88
342.981	113.88
343.209	102.88
343.437	121.88
343.665	120.88
343.893	128.88
344.12	108.88
344.348	133.88
344.576	120.88
344.804	112.88
345.031	106.88
345.259	107.88
345.487	116.88
345.714	102.88
345.942	112.88
346.17	113.88
346.397	113.88
346.625	112.88
346.853	101.88
347.08	101.88
347.308	102.88
347.535	110.88
347.763	108.88
347.99	107.88
348.218	109.88
348.445	112.88
348.673	106.88
348.9	103.88
349.128	126.88
349.355	110.88
349.583	120.88
349.81	107.88
350.037	105.88
350.265	113.88
350.492	93.88
350.72	116.88
350.947	120.88
351.174	113.88
351.402	101.88
351.629	119.88
351.856	108.88
352.083	107.88
352.311	115.88
352.538	109.88
352.765	113.88
352.992	109.88
353.22	112.88
353.447	96.88
353.674	103.88
353.901	113.88
354.128	100.88
354.355	110.88
354.583	117.88
354.81	109.88
355.037	105.88
355.264	117.88
355.491	105.88
355.718	109.88
355.945	118.88
356.172	100.88
356.399	101.88
356.626	104.88
356.853	99.88
357.08	114.88
357.307	109.88
357.534	98.88
357.761	109.88
357.988	101.88
358.215	102.88
358.441	112.88
358.668	120.88
358.895	108.88
359.122	103.88
359.349	104.88
359.576	97.88
359.802	115.88
360.029	98.88
360.256	119.88
360.483	114.88
360.709	105.88
360.936	100.88
361.163	112.88
361.39	106.88
361.616	119.88
361.843	107.88
362.07	116.88
362.296	102.88
362.523	99.88
362.749	112.88
362.976	105.88
363.203	116.88
363.429	104.88
363.656	112.88
363.882	106.88
364.109	114.88
364.335	118.88
364.562	113.88
364.788	105.88
365.015	114.88
365.241	120.88
365.468	114.88
365.694	117.88
365.92	110.88
366.147	104.88
366.373	105.88
366.599	101.88
366.826	118.88
367.052	122.88
367.278	106.88
367.505	119.88
367.731	110.88
367.957	88.88
368.184	100.88
368.41	117.88
368.636	106.88
368.862	118.88
369.089	122.88
369.315	109.88
369.541	108.88
369.767	122.88
369.993	116.88
370.219	101.88
370.445	109.88
370.672	106.88
370.898	103.88
371.124	105.88
371.35	109.88
371.576	114.88
371.802	113.88
372.028	112.88
372.254	104.88
372.48	112.88
372.706	98.88
372.932	116.88
373.158	106.88
373.384	101.88
373.61	113.88
373.835	113.88
374.061	92.88
374.287	102.88
374.513	115.88
374.739	115.88
374.965	119.88
375.191	125.88
375.416	119.88
375.642	110.88
375.868	110.88
376.094	109.88
376.319	98.88
376.545	115.88
376.771	107.88
376.997	102.88
377.222	109.88
377.448	120.88
377.674	108.88
377.899	106.88
378.125	100.88
378.35	106.88
378.576	113.88
378.802	109.88
379.027	110.88
379.253	116.88
379.478	132.88
379.704	119.88
379.929	118.88
380.155	110.88
380.38	118.88
380.606	123.88
380.831	109.88
381.057	109.88
381.282	119.88
381.507	103.88
381.733	114.88
381.958	119.88
382.184	106.88
382.409	120.88
382.634	108.88
382.86	116.88
383.085	109.88
383.31	111.88
383.535	122.88
383.761	132.88
383.986	118.88
384.211	121.88
384.436	115.88
384.662	124.88
384.887	119.88
385.112	107.88
385.337	117.88
385.562	126.88
385.787	131.88
386.013	128.88
386.238	107.88
386.463	116.88
386.688	113.88
386.913	108.88
387.138	108.88
387.363	116.88
387.588	136.88
387.813	133.88
388.038	112.88
388.263	119.88
388.488	98.88
388.713	102.88
388.938	115.88
389.163	102.88
389.387	100.88
389.612	112.88
389.837	121.88
390.062	114.88
390.287	135.88
390.512	106.88
390.736	120.88
390.961	95.88
391.186	121.88
391.411	104.88
391.636	122.88
391.86	109.88
392.085	131.88
392.31	124.88
392.534	122.88
392.759	125.88
392.984	120.88
393.208	137.88
393.433	130.88
393.658	121.88
393.882	127.88
394.107	116.88
394.331	123.88
394.556	114.88
394.78	121.88
395.005	117.88
395.229	128.88
395.454	127.88
395.678	118.88
395.903	121.88
396.127	129.88
396.352	121.88
396.576	121.88
396.801	115.88
397.025	119.88
397.249	123.88
397.474	137.88
397.698	126.88
397.922	114.88
398.147	127.88
398.371	122.88
398.595	122.88
398.82	122.88
399.044	136.88
399.268	130.88
399.492	150.88
399.717	139.88
399.941	138.88
400.165	125.88
400.389	120.88
400.613	140.88
400.837	121.88
401.062	143.88
401.286	114.88
401.51	120.88
401.734	127.88
401.958	136.88
402.182	135.88
402.406	126.88
402.63	120.88
402.854	120.88
403.078	120.88
403.302	134.88
403.526	134.88
403.75	131.88
403.974	132.88
404.198	133.88
404.422	149.88
404.645	156.88
404.869	140.88
405.093	134.88
405.317	137.88
405.541	129.88
405.765	145.88
405.988	136.88
406.212	137.88
406.436	130.88
406.66	134.88
406.883	141.88
407.107	136.88
407.331	145.88
407.555	161.88
407.778	125.88
408.002	118.88
408.226	139.88
408.449	136.88
408.673	122.88
408.896	138.88
409.12	136.88
409.344	143.88
409.567	142.88
409.791	118.88
410.014	125.88
410.238	131.88
410.461	120.88
410.685	120.88
410.908	126.88
411.132	137.88
411.355	121.88
411.578	121.88
411.802	135.88
412.025	126.88
412.249	135.88
412.472	124.88
412.695	124.88
412.919	127.88
413.142	116.88
413.365	120.88
413.589	126.88
413.812	121.88
414.035	131.88
414.258	124.88
414.482	125.88
414.705	117.88
414.928	125.88
415.151	125.88
415.374	137.88
415.597	124.88
415.821	134.88
416.044	139.88
416.267	120.88
416.49	133.88
416.713	124.88
416.936	133.88
417.159	130.88
417.382	125.88
417.605	134.88
417.828	127.88
418.051	132.88
418.274	132.88
418.497	119.88
418.72	114.88
418.943	135.88
419.166	130.88
419.389	136.88
419.611	135.88
419.834	119.88
420.057	127.88
420.28	128.88
420.503	138.88
420.726	130.88
420.948	131.88
421.171	136.88
421.394	128.88
421.617	143.88
421.839	145.88
422.062	123.88
422.285	134.88
422.507	124.88
422.73	145.88
422.953	132.88
423.175	132.88
423.398	139.88
423.621	143.88
423.843	132.88
424.066	134.88
424.288	131.88
424.511	134.88
424.733	140.88
424.956	139.88
425.178	125.88
425.401	132.88
425.623	148.88
425.846	136.88
426.068	120.88
426.291	128.88
426.513	130.88
426.735	119.88
426.958	122.88
427.18	138.88
427.402	147.88
427.625	142.88
427.847	149.88
428.069	137.88
428.292	124.88
428.514	112.88
428.736	125.88
428.958	128.88
429.181	120.88
429.403	104.88
429.625	100.88
429.847	127.88
430.069	126.88
430.292	133.88
430.514	114.88
430.736	125.88
430.958	118.88
431.18	121.88
431.402	130.88
431.624	126.88
431.846	127.88
432.068	123.88
432.29	120.88
432.512	119.88
432.734	121.88
432.956	114.88
433.178	129.88
433.4	112.88
433.622	126.88
433.844	130.88
434.066	117.88
434.287	132.88
434.509	119.88
434.731	115.88
434.953	122.88
435.175	141.88
435.397	132.88
435.618	127.88
435.84	130.88
436.062	130.88
436.284	138.88
436.505	128.88
436.727	126.88
436.949	119.88
437.17	123.88
437.392	122.88
437.614	127.88
437.835	121.88
438.057	136.88
438.278	147.88
438.5	162.88
438.721	125.88
438.943	140.88
439.165	131.88
439.386	123.88
439.608	126.88
439.829	127.88
440.05	125.88
440.272	130.88
440.493	141.88
440.715	120.88
440.936	126.88
441.158	139.88
441.379	128.88
441.6	124.88
441.822	125.88
442.043	138.88
442.264	134.88
442.486	129.88
442.707	117.88
442.928	123.88
443.149	129.88
443.371	142.88
443.592	135.88
443.813	141.88
444.034	147.88
444.255	143.88
444.476	140.88
444.698	142.88
444.919	128.88
445.14	270.88
445.361	203.88
445.582	125.88
445.803	131.88
446.024	144.88
446.245	131.88
446.466	140.88
446.687	142.88
446.908	128.88
447.129	120.88
447.35	125.88
447.571	142.88
447.792	124.88
448.013	115.88
448.234	132.88
448.455	130.88
448.675	130.88
448.896	131.88
449.117	128.88
449.338	121.88
449.559	156.88
449.779	143.88
450	133.88
450.221	126.88
450.442	146.88
450.662	115.88
450.883	137.88
451.104	135.88
451.324	120.88
451.545	119.88
451.766	110.88
451.986	128.88
452.207	116.88
452.428	124.88
452.648	113.88
452.869	121.88
453.089	120.88
453.31	112.88
453.53	137.88
453.751	115.88
453.971	100.88
454.192	127.88
454.412	106.88
454.633	128.88
454.853	102.88
455.073	119.88
455.294	121.88
455.514	117.88
455.734	136.88
455.955	122.88
456.175	120.88
456.395	111.88
456.616	128.88
456.836	129.88
457.056	118.88
457.276	126.88
457.497	114.88
457.717	113.88
457.937	126.88
458.157	114.88
458.377	115.88
458.598	130.88
458.818	125.88
459.038	114.88
459.258	121.88
459.478	128.88
459.698	126.88
459.918	134.88
460.138	120.88
460.358	107.88
460.578	132.88
460.798	133.88
461.018	136.88
461.238	130.88
461.458	123.88
461.678	136.88
461.898	122.88
462.118	129.88
462.338	124.88
462.558	122.88
462.777	136.88
462.997	136.88
463.217	135.88
463.437	158.88
463.657	132.88
463.876	119.88
464.096	131.88
464.316	139.88
464.536	136.88
464.755	125.88
464.975	116.88
465.195	129.88
465.414	128.88
465.634	117.88
465.854	128.88
466.073	136.88
466.293	137.88
466.512	124.88
466.732	128.88
466.951	112.88
467.171	113.88
467.391	129.88
467.61	118.88
467.829	124.88
468.049	125.88
468.268	117.88
468.488	109.88
468.707	113.88
468.927	117.88
469.146	125.88
469.365	124.88
469.585	138.88
469.804	109.88
470.023	115.88
470.243	125.88
470.462	123.88
470.681	123.88
470.901	117.88
471.12	118.88
471.339	131.88
471.558	123.88
471.777	126.88
471.997	127.88
472.216	117.88
472.435	124.88
472.654	135.88
472.873	123.88
473.092	123.88
473.311	117.88
473.53	113.88
473.749	124.88
473.968	123.88
474.187	131.88
474.406	138.88
474.625	131.88
474.844	113.88
475.063	118.88
475.282	114.88
475.501	123.88
475.72	130.88
475.939	120.88
476.158	138.88
476.377	117.88
476.596	120.88
476.814	101.88
477.033	129.88
477.252	128.88
477.471	140.88
477.69	127.88
477.908	135.88
478.127	130.88
478.346	107.88
478.564	122.88
478.783	130.88
479.002	132.88
479.22	131.88
479.439	135.88
479.658	138.88
479.876	126.88
480.095	132.88
480.313	143.88
480.532	122.88
480.751	132.88
480.969	145.88
481.188	126.88
481.406	134.88
481.624	140.88
481.843	133.88
482.061	125.88
482.28	123.88
482.498	139.88
482.717	125.88
482.935	114.88
483.153	121.88
483.372	119.88
483.59	130.88
483.808	122.88
484.027	135.88
484.245	136.88
484.463	124.88
484.681	141.88
484.9	141.88
485.118	128.88
485.336	109.88
485.554	124.88
485.772	124.88
485.99	120.88
486.209	146.88
486.427	134.88
486.645	129.88
486.863	145.88
487.081	136.88
487.299	147.88
487.517	152.88
487.735	130.88
487.953	124.88
488.171	127.88
488.389	136.88
488.607	129.88
488.825	121.88
489.043	135.88
489.261	137.88
489.479	124.88
489.696	138.88
489.914	121.88
490.132	149.88
490.35	127.88
490.568	128.88
490.786	140.88
491.003	142.88
491.221	149.88
491.439	136.88
491.657	142.88
491.874	139.88
492.092	164.88
492.31	148.88
492.527	152.88
492.745	151.88
492.963	137.88
493.18	138.88
493.398	147.88
493.615	153.88
493.833	151.88
494.05	159.88
494.268	151.88
494.485	163.88
494.703	149.88
494.92	145.88
495.138	158.88
495.355	150.88
495.573	155.88
495.79	140.88
496.008	150.88
496.225	131.88
496.442	141.88
496.66	148.88
496.877	136.88
497.094	137.88
497.312	133.88
497.529	152.88
497.746	148.88
497.963	160.88
498.181	144.88
498.398	160.88
498.615	169.88
498.832	156.88
499.049	143.88
499.267	164.88
499.484	160.88
499.701	178.88
499.918	194.88
500.135	199.88
500.352	217.88
500.569	215.88
500.786	221.88
501.003	188.88
501.22	190.88
501.437	190.88
501.654	179.88
501.871	168.88
502.088	162.88
502.305	174.88
502.522	164.88
502.739	152.88
502.956	155.88
503.172	165.88
503.389	164.88
503.606	150.88
503.823	133.88
504.04	134.88
504.256	158.88
504.473	132.88
504.69	144.88
504.907	153.88
505.123	137.88
505.34	142.88
505.557	144.88
505.773	144.88
505.99	149.88
506.207	126.88
506.423	124.88
506.64	116.88
506.856	136.88
507.073	144.88
507.289	137.88
507.506	137.88
507.722	132.88
507.939	131.88
508.155	128.88
508.372	106.88
508.588	123.88
508.805	128.88
509.021	141.88
509.238	136.88
509.454	127.88
509.67	120.88
509.887	132.88
510.103	122.88
510.319	133.88
510.536	139.88
510.752	193.88
510.968	152.88
511.184	132.88
511.401	120.88
511.617	135.88
511.833	131.88
512.049	131.88
512.265	122.88
512.481	128.88
512.698	116.88
512.914	128.88
513.13	152.88
513.346	130.88
513.562	121.88
513.778	114.88
513.994	108.88
514.21	118.88
514.426	132.88
514.642	117.88
514.858	122.88
515.074	133.88
515.29	138.88
515.506	166.88
515.721	147.88
515.937	128.88
516.153	142.88
516.369	118.88
516.585	130.88
516.801	123.88
517.016	137.88
517.232	124.88
517.448	141.88
517.664	128.88
517.879	161.88
518.095	146.88
518.311	144.88
518.527	138.88
518.742	148.88
518.958	139.88
519.173	131.88
519.389	144.88
519.605	136.88
519.82	115.88
520.036	135.88
520.251	143.88
520.467	129.88
520.682	126.88
520.898	130.88
521.113	138.88
521.329	134.88
521.544	121.88
521.76	148.88
521.975	189.88
522.19	178.88
522.406	134.88
522.621	126.88
522.836	117.88
523.052	124.88
523.267	122.88
523.482	104.88
523.698	123.88
523.913	117.88
524.128	125.88
524.343	123.88
524.559	106.88
524.774	124.88
524.989	129.88
525.204	132.88
525.419	121.88
525.634	114.88
525.849	126.88
526.064	123.88
526.28	115.88
526.495	129.88
526.71	116.88
526.925	123.88
527.14	107.88
527.355	120.88
527.57	103.88
527.785	112.88
527.999	110.88
528.214	115.88
528.429	107.88
528.644	116.88
528.859	122.88
529.074	123.88
529.289	100.88
529.503	141.88
529.718	127.88
529.933	116.88
530.148	115.88
530.363	115.88
530.577	108.88
530.792	114.88
531.007	128.88
531.221	121.88
531.436	123.88
531.651	117.88
531.865	129.88
532.08	113.88
532.295	131.88
532.509	110.88
532.724	117.88
532.938	130.88
533.153	118.88
533.367	129.88
533.582	122.88
533.796	126.88
534.011	125.88
534.225	127.88
534.44	123.88
534.654	118.88
534.868	118.88
535.083	118.88
535.297	123.88
535.511	128.88
535.726	135.88
535.94	125.88
536.154	125.88
536.369	120.88
536.583	128.88
536.797	127.88
537.011	114.88
537.225	125.88
537.44	130.88
537.654	109.88
537.868	124.88
538.082	120.88
538.296	119.88
538.51	111.88
538.724	117.88
538.938	116.88
539.153	128.88
539.367	123.88
539.581	118.88
539.795	132.88
540.009	108.88
540.222	120.88
540.436	124.88
540.65	114.88
540.864	132.88
541.078	119.88
541.292	124.88
541.506	125.88
541.72	132.88
541.934	122.88
542.147	128.88
542.361	139.88
542.575	149.88
542.789	129.88
543.002	130.88
543.216	126.88
543.43	140.88
543.644	126.88
543.857	133.88
544.071	140.88
544.285	131.88
544.498	141.88
544.712	137.88
544.925	141.88
545.139	133.88
545.352	135.88
545.566	129.88
545.779	131.88
545.993	133.88
546.206	151.88
546.42	141.88
546.633	146.88
546.847	135.88
547.06	136.88
547.274	122.88
547.487	139.88
547.7	128.88
547.914	115.88
548.127	126.88
548.34	122.88
548.554	109.88
548.767	145.88
548.98	125.88
549.193	125.88
549.407	132.88
549.62	115.88
549.833	121.88
550.046	131.88
550.259	123.88
550.473	123.88
550.686	126.88
550.899	118.88
551.112	113.88
551.325	125.88
551.538	122.88
551.751	100.88
551.964	112.88
552.177	104.88
552.39	129.88
552.603	134.88
552.816	127.88
553.029	136.88
553.242	136.88
553.455	146.88
553.667	132.88
553.88	135.88
554.093	116.88
554.306	129.88
554.519	126.88
554.732	122.88
554.944	117.88
555.157	109.88
555.37	122.88
555.583	122.88
555.795	121.88
556.008	125.88
556.221	119.88
556.433	120.88
556.646	115.88
556.859	113.88
557.071	115.88
557.284	121.88
557.496	131.88
557.709	121.88
557.921	127.88
558.134	131.88
558.346	116.88
558.559	125.88
558.771	113.88
558.984	115.88
559.196	128.88
559.409	115.88
559.621	114.88
559.833	114.88
560.046	133.88
560.258	109.88
560.47	115.88
560.683	116.88
560.895	114.88
561.107	121.88
561.32	113.88
561.532	110.88
561.744	109.88
561.956	108.88
562.168	109.88
562.381	125.88
562.593	123.88
562.805	126.88
563.017	114.88
563.229	114.88
563.441	112.88
563.653	121.88
563.865	118.88
564.077	118.88
564.289	125.88
564.501	118.88
564.713	114.88
564.925	125.88
565.137	127.88
565.349	130.88
565.561	125.88
565.773	130.88
565.985	129.88
566.197	137.88
566.408	118.88
566.62	136.88
566.832	141.88
567.044	128.88
567.255	135.88
567.467	141.88
567.679	137.88
567.891	139.88
568.102	131.88
568.314	130.88
568.526	119.88
568.737	139.88
568.949	118.88
569.161	122.88
569.372	104.88
569.584	114.88
569.795	121.88
570.007	114.88
570.218	110.88
570.43	124.88
570.641	123.88
570.853	107.88
571.064	118.88
571.276	114.88
571.487	123.88
571.698	121.88
571.91	102.88
572.121	108.88
572.333	101.88
572.544	114.88
572.755	109.88
572.966	107.88
573.178	107.88
573.389	123.88
573.6	108.88
573.811	98.88
574.023	127.88
574.234	109.88
574.445	106.88
574.656	104.88
574.867	108.88
575.078	97.88
575.289	117.88
575.501	93.88
575.712	99.88
575.923	101.88
576.134	117.88
576.345	115.88
576.556	103.88
576.767	116.88
576.978	110.88
577.188	106.88
577.399	97.88
577.61	89.88
577.821	115.88
578.032	102.88
578.243	108.88
578.454	110.88
578.665	116.88
578.875	104.88
579.086	117.88
579.297	92.88
579.508	100.88
579.718	114.88
579.929	86.88
580.14	100.88
580.35	112.88
580.561	124.88
580.772	104.88
580.982	112.88
581.193	105.88
581.403	105.88
581.614	97.88
581.825	110.88
582.035	100.88
582.246	109.88
582.456	102.88
582.667	108.88
582.877	126.88
583.087	117.88
583.298	92.88
583.508	119.88
583.719	98.88
583.929	102.88
584.139	97.88
584.35	116.88
584.56	104.88
584.77	113.88
584.981	102.88
585.191	106.88
585.401	109.88
585.611	95.88
585.821	90.88
586.032	93.88
586.242	103.88
586.452	102.88
586.662	116.88
586.872	103.88
587.082	102.88
587.292	106.88
587.502	97.88
587.713	117.88
587.923	107.88
588.133	106.88
588.343	109.88
588.553	103.88
588.762	106.88
588.972	97.88
589.182	125.88
589.392	106.88
589.602	112.88
589.812	105.88
590.022	116.88
590.232	96.88
590.441	94.88
590.651	115.88
590.861	106.88
591.071	104.88
591.281	112.88
591.49	104.88
591.7	108.88
591.91	108.88
592.119	95.88
592.329	96.88
592.539	111.88
592.748	108.88
592.958	109.88
593.167	116.88
593.377	102.88
593.587	123.88
593.796	103.88
594.006	113.88
594.215	114.88
594.424	106.88
594.634	119.88
594.843	119.88
595.053	118.88
595.262	93.88
595.472	118.88
595.681	106.88
595.89	117.88
596.1	118.88
596.309	117.88
596.518	109.88
596.727	103.88
596.937	103.88
597.146	106.88
597.355	101.88
597.564	109.88
597.774	121.88
597.983	113.88
598.192	84.88
598.401	98.88
598.61	108.88
598.819	100.88
599.028	112.88
599.237	110.88
599.446	90.88
599.655	90.88
599.864	102.88
600.073	105.88
600.282	107.88
600.491	88.88
600.7	92.88
600.909	109.88
601.118	107.88
601.327	100.88
601.536	109.88
601.745	87.88
601.953	96.88
602.162	116.88
602.371	112.88
602.58	104.88
602.789	97.88
602.997	98.88
603.206	114.88
603.415	105.88
603.623	95.88
603.832	107.88
604.041	108.88
604.249	98.88
604.458	98.88
604.666	107.88
604.875	105.88
605.084	106.88
605.292	99.88
605.501	99.88
605.709	121.88
605.918	111.88
606.126	104.88
606.334	94.88
606.543	100.88
606.751	93.88
606.96	99.88
607.168	101.88
607.376	99.88
607.585	97.88
607.793	101.88
608.001	99.88
608.21	106.88
608.418	104.88
608.626	108.88
608.834	113.88
609.043	109.88
609.251	99.88
609.459	112.88
609.667	98.88
609.875	107.88
610.083	91.88
610.291	101.88
610.499	94.88
610.707	85.88
610.916	99.88
611.124	109.88
611.332	118.88
611.54	120.88
611.748	116.88
611.955	120.88
612.163	114.88
612.371	110.88
612.579	103.88
612.787	94.88
612.995	94.88
613.203	112.88
613.411	116.88
613.618	110.88
613.826	104.88
614.034	94.88
614.242	113.88
614.449	105.88
614.657	90.88
614.865	99.88
615.072	121.88
615.28	99.88
615.488	92.88
615.695	100.88
615.903	105.88
616.111	114.88
616.318	114.88
616.526	101.88
616.733	97.88
616.941	117.88
617.148	97.88
617.356	92.88
617.563	96.88
617.771	100.88
617.978	108.88
618.185	105.88
618.393	103.88
618.6	107.88
618.807	100.88
619.015	97.88
619.222	99.88
619.429	103.88
619.637	121.88
619.844	122.88
620.051	102.88
620.258	99.88
620.466	109.88
620.673	99.88
620.88	92.88
621.087	85.88
621.294	94.88
621.501	93.88
621.708	88.88
621.915	97.88
622.122	107.88
622.329	106.88
622.536	112.88
622.743	98.88
622.95	93.88
623.157	97.88
623.364	96.88
623.571	90.88
623.778	102.88
623.985	100.88
624.192	108.88
624.399	102.88
624.606	114.88
624.812	94.88
625.019	93.88
625.226	103.88
625.433	98.88
625.639	105.88
625.846	103.88
626.053	90.88
626.259	106.88
626.466	94.88
626.673	90.88
626.879	93.88
627.086	101.88
627.293	87.88
627.499	95.88
627.706	85.88
627.912	95.88
628.119	97.88
628.325	102.88
628.532	84.88
628.738	99.88
628.945	90.88
629.151	97.88
629.357	102.88
629.564	87.88
629.77	99.88
629.976	105.88
630.183	94.88
630.389	94.88
630.595	88.88
630.802	93.88
631.008	89.88
631.214	95.88
631.42	91.88
631.627	87.88
631.833	101.88
632.039	102.88
632.245	76.88
632.451	96.88
632.657	94.88
632.863	96.88
633.069	94.88
633.275	93.88
633.481	83.88
633.688	93.88
633.893	100.88
634.099	100.88
634.305	94.88
634.511	86.88
634.717	98.88
634.923	88.88
635.129	81.88
635.335	89.88
635.541	98.88
635.747	100.88
635.952	99.88
636.158	96.88
636.364	94.88
636.57	92.88
636.775	99.88
636.981	86.88
637.187	94.88
637.392	86.88
637.598	88.88
637.804	92.88
638.009	93.88
638.215	102.88
638.421	72.88
638.626	89.88
638.832	99.88
639.037	102.88
639.243	86.88
639.448	94.88
639.654	98.88
639.859	99.88
640.065	82.88
640.27	104.88
640.475	92.88
640.681	93.88
640.886	98.88
641.091	93.88
641.297	104.88
641.502	86.88
641.707	94.88
641.913	102.88
642.118	89.88
642.323	84.88
642.528	101.88
642.733	105.88
642.939	103.88
643.144	102.88
643.349	92.88
643.554	87.88
643.759	96.88
643.964	85.88
644.169	99.88
644.374	85.88
644.579	105.88
644.784	85.88
644.989	91.88
645.194	88.88
645.399	92.88
645.604	80.88
645.809	99.88
646.014	94.88
646.219	100.88
646.423	89.88
646.628	92.88
646.833	89.88
647.038	91.88
647.243	107.88
647.447	83.88
647.652	89.88
647.857	87.88
648.062	84.88
648.266	104.88
648.471	104.88
648.676	86.88
648.88	85.88
649.085	88.88
649.289	78.88
649.494	94.88
649.698	103.88
649.903	85.88
650.107	85.88
650.312	75.88
650.516	99.88
650.721	91.88
650.925	95.88
651.13	90.88
651.334	98.88
651.539	77.88
651.743	97.88
651.947	100.88
652.152	86.88
652.356	93.88
652.56	108.88
652.764	88.88
652.969	105.88
653.173	105.88
653.377	99.88
653.581	81.88
653.785	99.88
653.99	88.88
654.194	82.88
654.398	84.88
654.602	88.88
654.806	96.88
655.01	89.88
655.214	79.88
655.418	85.88
655.622	70.88
655.826	96.88
656.03	91.88
656.234	101.88
656.438	78.88
656.642	85.88
656.846	100.88
657.049	87.88
657.253	77.88
657.457	106.88
657.661	90.88
657.865	88.88
658.068	81.88
658.272	92.88
658.476	79.88
658.68	89.88
658.883	90.88
659.087	92.88
659.291	91.88
659.494	92.88
659.698	68.88
659.901	91.88
660.105	88.88
660.309	91.88
660.512	98.88
660.716	87.88
660.919	91.88
661.123	87.88
661.326	90.88
661.53	87.88
661.733	90.88
661.936	85.88
662.14	78.88
662.343	92.88
662.546	81.88
662.75	85.88
662.953	84.88
663.156	78.88
663.36	78.88
663.563	90.88
663.766	73.88
663.969	76.88
664.173	67.88
664.376	76.88
664.579	85.88
664.782	80.88
664.985	77.88
665.188	73.88
665.391	70.88
665.594	77.88
665.797	64.88
666	91.88
666.203	82.88
666.406	82.88
666.609	83.88
666.812	82.88
667.015	89.88
667.218	82.88
667.421	80.88
667.624	70.88
667.827	88.88
668.03	64.88
668.232	82.88
668.435	88.88
668.638	89.88
668.841	76.88
669.043	74.88
669.246	90.88
669.449	103.88
669.651	84.88
669.854	80.88
670.057	89.88
670.259	84.88
670.462	78.88
670.665	84.88
670.867	82.88
671.07	66.88
671.272	70.88
671.475	74.88
671.677	77.88
671.88	82.88
672.082	78.88
672.284	88.88
672.487	88.88
672.689	76.88
672.892	70.88
