Data from 1968.PennyLincolnUp.Lamp.En5.5.200Scan.071719.P1._HRD10591_14-50-06-969.txt Node
Date: Thu Jul 18 14:50:06 EDT 2019
User: cochatt
Spectrometer: HR+D1059
Trigger mode: 1
Integration Time (sec): 1.000000E-1
Scans to average: 1
Electric dark correction enabled: true
Nonlinearity correction enabled: false
Boxcar width: 0
XAxis mode: Wavelengths
Number of Pixels in Spectrum: 2048
>>>>>Begin Spectral Data<<<<<
223.165	-2.25
223.4	-2.25
223.635	-2.25
223.869	-7.25
224.104	-11.25
224.338	-26.25
224.573	-22.25
224.808	-11.25
225.042	-13.25
225.277	-6.25
225.511	-2.25
225.746	-3.25
225.98	19.75
226.215	11.75
226.449	13.75
226.683	9.75
226.918	28.75
227.152	21.75
227.387	23.75
227.621	39.75
227.856	36.75
228.09	36.75
228.324	45.75
228.559	57.75
228.793	58.75
229.027	58.75
229.262	70.75
229.496	56.75
229.73	71.75
229.964	77.75
230.199	62.75
230.433	70.75
230.667	79.75
230.901	74.75
231.136	81.75
231.37	76.75
231.604	81.75
231.838	77.75
232.072	90.75
232.306	98.75
232.541	84.75
232.775	90.75
233.009	91.75
233.243	88.75
233.477	74.75
233.711	83.75
233.945	83.75
234.179	75.75
234.413	89.75
234.647	82.75
234.881	89.75
235.115	82.75
235.349	81.75
235.583	87.75
235.817	84.75
236.051	76.75
236.285	82.75
236.519	88.75
236.753	80.75
236.987	83.75
237.221	80.75
237.455	98.75
237.689	93.75
237.922	76.75
238.156	75.75
238.39	89.75
238.624	79.75
238.858	82.75
239.091	76.75
239.325	73.75
239.559	66.75
239.793	96.75
240.027	80.75
240.26	80.75
240.494	90.75
240.728	77.75
240.961	78.75
241.195	91.75
241.429	70.75
241.662	88.75
241.896	73.75
242.13	91.75
242.363	84.75
242.597	77.75
242.83	74.75
243.064	82.75
243.298	75.75
243.531	81.75
243.765	79.75
243.998	93.75
244.232	78.75
244.465	84.75
244.699	91.75
244.932	86.75
245.166	62.75
245.399	95.75
245.633	94.75
245.866	74.75
246.099	88.75
246.333	82.75
246.566	85.75
246.8	88.75
247.033	77.75
247.266	85.75
247.5	87.75
247.733	92.75
247.966	95.75
248.2	86.75
248.433	91.75
248.666	87.75
248.899	91.75
249.133	83.75
249.366	77.75
249.599	91.75
249.832	94.75
250.066	84.75
250.299	73.75
250.532	83.75
250.765	93.75
250.998	78.75
251.231	97.75
251.465	97.75
251.698	96.75
251.931	91.75
252.164	98.75
252.397	97.75
252.63	87.75
252.863	80.75
253.096	97.75
253.329	91.75
253.562	81.75
253.795	91.75
254.028	79.75
254.261	97.75
254.494	84.75
254.727	94.75
254.96	95.75
255.193	87.75
255.426	75.75
255.659	81.75
255.892	95.75
256.124	74.75
256.357	80.75
256.59	88.75
256.823	78.75
257.056	95.75
257.289	83.75
257.521	74.75
257.754	83.75
257.987	90.75
258.22	103.75
258.452	90.75
258.685	95.75
258.918	97.75
259.151	81.75
259.383	71.75
259.616	74.75
259.849	87.75
260.081	97.75
260.314	85.75
260.547	94.75
260.779	91.75
261.012	87.75
261.244	92.75
261.477	94.75
261.71	81.75
261.942	80.75
262.175	89.75
262.407	97.75
262.64	89.75
262.872	91.75
263.105	96.75
263.337	114.75
263.57	85.75
263.802	82.75
264.035	86.75
264.267	93.75
264.499	92.75
264.732	94.75
264.964	88.75
265.197	104.75
265.429	98.75
265.661	86.75
265.894	109.75
266.126	95.75
266.358	93.75
266.591	82.75
266.823	92.75
267.055	90.75
267.287	86.75
267.52	104.75
267.752	92.75
267.984	87.75
268.216	99.75
268.448	87.75
268.681	79.75
268.913	77.75
269.145	82.75
269.377	102.75
269.609	81.75
269.841	112.75
270.073	99.75
270.306	95.75
270.538	102.75
270.77	95.75
271.002	106.75
271.234	97.75
271.466	99.75
271.698	98.75
271.93	104.75
272.162	89.75
272.394	95.75
272.626	93.75
272.858	93.75
273.09	96.75
273.322	89.75
273.553	86.75
273.785	85.75
274.017	87.75
274.249	97.75
274.481	87.75
274.713	98.75
274.945	107.75
275.176	97.75
275.408	110.75
275.64	96.75
275.872	113.75
276.104	89.75
276.335	90.75
276.567	92.75
276.799	93.75
277.031	85.75
277.262	98.75
277.494	109.75
277.726	79.75
277.957	105.75
278.189	80.75
278.421	93.75
278.652	83.75
278.884	97.75
279.115	92.75
279.347	95.75
279.579	94.75
279.81	91.75
280.042	94.75
280.273	79.75
280.505	99.75
280.736	95.75
280.968	109.75
281.199	98.75
281.431	90.75
281.662	101.75
281.894	102.75
282.125	98.75
282.356	99.75
282.588	102.75
282.819	76.75
283.051	99.75
283.282	98.75
283.513	93.75
283.745	87.75
283.976	102.75
284.207	97.75
284.439	118.75
284.67	92.75
284.901	86.75
285.132	108.75
285.364	94.75
285.595	104.75
285.826	97.75
286.057	107.75
286.288	94.75
286.52	110.75
286.751	99.75
286.982	98.75
287.213	108.75
287.444	94.75
287.675	100.75
287.906	97.75
288.138	108.75
288.369	99.75
288.6	102.75
288.831	104.75
289.062	108.75
289.293	109.75
289.524	106.75
289.755	114.75
289.986	104.75
290.217	101.75
290.448	114.75
290.679	101.75
290.91	129.75
291.141	107.75
291.371	110.75
291.602	96.75
291.833	96.75
292.064	110.75
292.295	129.75
292.526	98.75
292.757	101.75
292.987	82.75
293.218	103.75
293.449	99.75
293.68	107.75
293.91	98.75
294.141	85.75
294.372	95.75
294.603	103.75
294.833	100.75
295.064	90.75
295.295	98.75
295.525	94.75
295.756	109.75
295.987	93.75
296.217	92.75
296.448	110.75
296.679	90.75
296.909	114.75
297.14	107.75
297.37	113.75
297.601	110.75
297.831	112.75
298.062	105.75
298.292	104.75
298.523	106.75
298.753	118.75
298.984	119.75
299.214	98.75
299.445	103.75
299.675	101.75
299.905	101.75
300.136	103.75
300.366	111.75
300.597	92.75
300.827	115.75
301.057	106.75
301.288	93.75
301.518	116.75
301.748	97.75
301.979	97.75
302.209	104.75
302.439	95.75
302.669	100.75
302.9	110.75
303.13	112.75
303.36	86.75
303.59	101.75
303.82	106.75
304.051	95.75
304.281	104.75
304.511	103.75
304.741	88.75
304.971	111.75
305.201	117.75
305.431	102.75
305.661	108.75
305.891	117.75
306.121	110.75
306.352	108.75
306.582	91.75
306.812	103.75
307.042	123.75
307.272	108.75
307.502	95.75
307.731	96.75
307.961	104.75
308.191	105.75
308.421	101.75
308.651	106.75
308.881	105.75
309.111	114.75
309.341	121.75
309.571	116.75
309.8	104.75
310.03	102.75
310.26	93.75
310.49	118.75
310.72	106.75
310.949	110.75
311.179	103.75
311.409	99.75
311.639	101.75
311.868	106.75
312.098	109.75
312.328	111.75
312.557	114.75
312.787	126.75
313.017	109.75
313.246	114.75
313.476	94.75
313.706	115.75
313.935	104.75
314.165	109.75
314.394	100.75
314.624	103.75
314.853	120.75
315.083	110.75
315.312	101.75
315.542	104.75
315.771	120.75
316.001	115.75
316.23	106.75
316.46	94.75
316.689	103.75
316.919	102.75
317.148	104.75
317.377	109.75
317.607	98.75
317.836	105.75
318.065	105.75
318.295	112.75
318.524	97.75
318.753	104.75
318.983	106.75
319.212	101.75
319.441	97.75
319.67	111.75
319.9	102.75
320.129	120.75
320.358	109.75
320.587	90.75
320.816	114.75
321.046	105.75
321.275	127.75
321.504	117.75
321.733	110.75
321.962	121.75
322.191	108.75
322.42	115.75
322.649	113.75
322.878	103.75
323.108	111.75
323.337	114.75
323.566	108.75
323.795	113.75
324.024	112.75
324.253	125.75
324.482	127.75
324.71	149.75
324.939	169.75
325.168	161.75
325.397	130.75
325.626	115.75
325.855	110.75
326.084	110.75
326.313	118.75
326.542	113.75
326.77	108.75
326.999	129.75
327.228	131.75
327.457	144.75
327.686	154.75
327.914	134.75
328.143	123.75
328.372	121.75
328.6	120.75
328.829	106.75
329.058	119.75
329.287	119.75
329.515	122.75
329.744	121.75
329.972	102.75
330.201	121.75
330.43	113.75
330.658	130.75
330.887	118.75
331.115	115.75
331.344	113.75
331.572	108.75
331.801	120.75
332.03	113.75
332.258	113.75
332.486	120.75
332.715	119.75
332.943	117.75
333.172	125.75
333.4	115.75
333.629	115.75
333.857	121.75
334.085	125.75
334.314	125.75
334.542	134.75
334.771	139.75
334.999	121.75
335.227	118.75
335.455	117.75
335.684	125.75
335.912	107.75
336.14	103.75
336.369	104.75
336.597	116.75
336.825	114.75
337.053	112.75
337.281	103.75
337.51	122.75
337.738	104.75
337.966	110.75
338.194	112.75
338.422	107.75
338.65	110.75
338.878	118.75
339.106	106.75
339.334	120.75
339.562	113.75
339.79	114.75
340.018	107.75
340.246	123.75
340.474	118.75
340.702	118.75
340.93	118.75
341.158	120.75
341.386	122.75
341.614	118.75
341.842	106.75
342.07	107.75
342.298	114.75
342.526	109.75
342.754	115.75
342.981	112.75
343.209	123.75
343.437	118.75
343.665	116.75
343.893	134.75
344.12	87.75
344.348	124.75
344.576	113.75
344.804	119.75
345.031	117.75
345.259	114.75
345.487	114.75
345.714	129.75
345.942	116.75
346.17	111.75
346.397	100.75
346.625	97.75
346.853	116.75
347.08	121.75
347.308	107.75
347.535	110.75
347.763	124.75
347.99	123.75
348.218	118.75
348.445	113.75
348.673	105.75
348.9	121.75
349.128	121.75
349.355	115.75
349.583	100.75
349.81	99.75
350.037	106.75
350.265	104.75
350.492	100.75
350.72	114.75
350.947	117.75
351.174	116.75
351.402	115.75
351.629	103.75
351.856	118.75
352.083	113.75
352.311	109.75
352.538	110.75
352.765	106.75
352.992	105.75
353.22	93.75
353.447	90.75
353.674	122.75
353.901	108.75
354.128	119.75
354.355	125.75
354.583	117.75
354.81	110.75
355.037	113.75
355.264	102.75
355.491	117.75
355.718	107.75
355.945	116.75
356.172	115.75
356.399	107.75
356.626	119.75
356.853	121.75
357.08	109.75
357.307	119.75
357.534	123.75
357.761	102.75
357.988	110.75
358.215	92.75
358.441	108.75
358.668	110.75
358.895	92.75
359.122	101.75
359.349	109.75
359.576	104.75
359.802	113.75
360.029	129.75
360.256	113.75
360.483	126.75
360.709	108.75
360.936	116.75
361.163	117.75
361.39	109.75
361.616	109.75
361.843	110.75
362.07	115.75
362.296	109.75
362.523	129.75
362.749	99.75
362.976	114.75
363.203	120.75
363.429	103.75
363.656	115.75
363.882	104.75
364.109	108.75
364.335	102.75
364.562	107.75
364.788	117.75
365.015	108.75
365.241	113.75
365.468	104.75
365.694	103.75
365.92	103.75
366.147	113.75
366.373	109.75
366.599	111.75
366.826	102.75
367.052	97.75
367.278	131.75
367.505	118.75
367.731	114.75
367.957	106.75
368.184	119.75
368.41	105.75
368.636	103.75
368.862	97.75
369.089	101.75
369.315	104.75
369.541	119.75
369.767	106.75
369.993	123.75
370.219	115.75
370.445	111.75
370.672	111.75
370.898	111.75
371.124	118.75
371.35	119.75
371.576	107.75
371.802	119.75
372.028	112.75
372.254	108.75
372.48	107.75
372.706	98.75
372.932	111.75
373.158	107.75
373.384	110.75
373.61	121.75
373.835	120.75
374.061	117.75
374.287	110.75
374.513	105.75
374.739	116.75
374.965	109.75
375.191	116.75
375.416	116.75
375.642	109.75
375.868	129.75
376.094	119.75
376.319	115.75
376.545	107.75
376.771	110.75
376.997	107.75
377.222	115.75
377.448	121.75
377.674	113.75
377.899	107.75
378.125	112.75
378.35	121.75
378.576	120.75
378.802	115.75
379.027	111.75
379.253	109.75
379.478	126.75
379.704	121.75
379.929	124.75
380.155	122.75
380.38	114.75
380.606	115.75
380.831	123.75
381.057	111.75
381.282	123.75
381.507	104.75
381.733	101.75
381.958	115.75
382.184	115.75
382.409	125.75
382.634	115.75
382.86	106.75
383.085	107.75
383.31	118.75
383.535	123.75
383.761	118.75
383.986	131.75
384.211	119.75
384.436	115.75
384.662	113.75
384.887	116.75
385.112	105.75
385.337	112.75
385.562	109.75
385.787	109.75
386.013	117.75
386.238	104.75
386.463	116.75
386.688	110.75
386.913	121.75
387.138	122.75
387.363	112.75
387.588	114.75
387.813	127.75
388.038	120.75
388.263	120.75
388.488	134.75
388.713	132.75
388.938	101.75
389.163	110.75
389.387	136.75
389.612	124.75
389.837	114.75
390.062	118.75
390.287	130.75
390.512	121.75
390.736	100.75
390.961	108.75
391.186	118.75
391.411	106.75
391.636	116.75
391.86	133.75
392.085	125.75
392.31	136.75
392.534	125.75
392.759	121.75
392.984	108.75
393.208	125.75
393.433	110.75
393.658	115.75
393.882	124.75
394.107	109.75
394.331	124.75
394.556	115.75
394.78	103.75
395.005	117.75
395.229	126.75
395.454	126.75
395.678	131.75
395.903	118.75
396.127	118.75
396.352	114.75
396.576	113.75
396.801	134.75
397.025	126.75
397.249	94.75
397.474	129.75
397.698	121.75
397.922	133.75
398.147	129.75
398.371	127.75
398.595	130.75
398.82	114.75
399.044	130.75
399.268	130.75
399.492	145.75
399.717	132.75
399.941	155.75
400.165	152.75
400.389	138.75
400.613	120.75
400.837	143.75
401.062	121.75
401.286	119.75
401.51	110.75
401.734	123.75
401.958	125.75
402.182	130.75
402.406	131.75
402.63	127.75
402.854	129.75
403.078	129.75
403.302	143.75
403.526	126.75
403.75	132.75
403.974	129.75
404.198	147.75
404.422	141.75
404.645	133.75
404.869	130.75
405.093	127.75
405.317	145.75
405.541	135.75
405.765	143.75
405.988	139.75
406.212	140.75
406.436	142.75
406.66	133.75
406.883	121.75
407.107	139.75
407.331	155.75
407.555	141.75
407.778	127.75
408.002	134.75
408.226	128.75
408.449	130.75
408.673	126.75
408.896	128.75
409.12	133.75
409.344	133.75
409.567	145.75
409.791	134.75
410.014	131.75
410.238	131.75
410.461	116.75
410.685	133.75
410.908	137.75
411.132	137.75
411.355	135.75
411.578	127.75
411.802	122.75
412.025	132.75
412.249	131.75
412.472	137.75
412.695	135.75
412.919	124.75
413.142	128.75
413.365	134.75
413.589	126.75
413.812	124.75
414.035	140.75
414.258	125.75
414.482	116.75
414.705	140.75
414.928	114.75
415.151	124.75
415.374	130.75
415.597	124.75
415.821	117.75
416.044	125.75
416.267	115.75
416.49	121.75
416.713	134.75
416.936	122.75
417.159	137.75
417.382	127.75
417.605	137.75
417.828	115.75
418.051	127.75
418.274	133.75
418.497	138.75
418.72	132.75
418.943	127.75
419.166	134.75
419.389	129.75
419.611	139.75
419.834	130.75
420.057	122.75
420.28	130.75
420.503	130.75
420.726	140.75
420.948	129.75
421.171	132.75
421.394	125.75
421.617	113.75
421.839	108.75
422.062	139.75
422.285	117.75
422.507	143.75
422.73	138.75
422.953	141.75
423.175	127.75
423.398	126.75
423.621	133.75
423.843	138.75
424.066	129.75
424.288	137.75
424.511	137.75
424.733	137.75
424.956	152.75
425.178	129.75
425.401	126.75
425.623	138.75
425.846	123.75
426.068	119.75
426.291	137.75
426.513	117.75
426.735	129.75
426.958	119.75
427.18	133.75
427.402	142.75
427.625	141.75
427.847	142.75
428.069	143.75
428.292	130.75
428.514	131.75
428.736	129.75
428.958	123.75
429.181	132.75
429.403	110.75
429.625	125.75
429.847	133.75
430.069	122.75
430.292	133.75
430.514	117.75
430.736	115.75
430.958	121.75
431.18	118.75
431.402	126.75
431.624	137.75
431.846	120.75
432.068	121.75
432.29	116.75
432.512	140.75
432.734	115.75
432.956	126.75
433.178	116.75
433.4	132.75
433.622	133.75
433.844	129.75
434.066	130.75
434.287	127.75
434.509	130.75
434.731	125.75
434.953	139.75
435.175	133.75
435.397	121.75
435.618	113.75
435.84	146.75
436.062	124.75
436.284	137.75
436.505	123.75
436.727	122.75
436.949	118.75
437.17	115.75
437.392	104.75
437.614	135.75
437.835	118.75
438.057	122.75
438.278	120.75
438.5	138.75
438.721	139.75
438.943	150.75
439.165	140.75
439.386	113.75
439.608	107.75
439.829	131.75
440.05	130.75
440.272	132.75
440.493	131.75
440.715	135.75
440.936	124.75
441.158	127.75
441.379	138.75
441.6	135.75
441.822	143.75
442.043	128.75
442.264	129.75
442.486	149.75
442.707	137.75
442.928	127.75
443.149	121.75
443.371	121.75
443.592	126.75
443.813	129.75
444.034	141.75
444.255	143.75
444.476	141.75
444.698	141.75
444.919	139.75
445.14	272.75
445.361	204.75
445.582	133.75
445.803	142.75
446.024	141.75
446.245	119.75
446.466	137.75
446.687	142.75
446.908	124.75
447.129	127.75
447.35	126.75
447.571	124.75
447.792	118.75
448.013	112.75
448.234	131.75
448.455	122.75
448.675	147.75
448.896	137.75
449.117	119.75
449.338	128.75
449.559	132.75
449.779	135.75
450	126.75
450.221	131.75
450.442	121.75
450.662	120.75
450.883	130.75
451.104	131.75
451.324	122.75
451.545	117.75
451.766	126.75
451.986	117.75
452.207	126.75
452.428	120.75
452.648	103.75
452.869	109.75
453.089	119.75
453.31	133.75
453.53	119.75
453.751	111.75
453.971	122.75
454.192	125.75
454.412	125.75
454.633	122.75
454.853	120.75
455.073	137.75
455.294	104.75
455.514	115.75
455.734	117.75
455.955	129.75
456.175	125.75
456.395	119.75
456.616	128.75
456.836	126.75
457.056	114.75
457.276	122.75
457.497	125.75
457.717	117.75
457.937	127.75
458.157	121.75
458.377	133.75
458.598	125.75
458.818	129.75
459.038	126.75
459.258	128.75
459.478	124.75
459.698	123.75
459.918	114.75
460.138	126.75
460.358	128.75
460.578	115.75
460.798	122.75
461.018	134.75
461.238	133.75
461.458	127.75
461.678	131.75
461.898	151.75
462.118	126.75
462.338	134.75
462.558	147.75
462.777	129.75
462.997	142.75
463.217	139.75
463.437	149.75
463.657	140.75
463.876	137.75
464.096	146.75
464.316	133.75
464.536	114.75
464.755	119.75
464.975	125.75
465.195	127.75
465.414	129.75
465.634	133.75
465.854	107.75
466.073	131.75
466.293	118.75
466.512	124.75
466.732	120.75
466.951	127.75
467.171	126.75
467.391	113.75
467.61	127.75
467.829	126.75
468.049	123.75
468.268	108.75
468.488	128.75
468.707	123.75
468.927	129.75
469.146	121.75
469.365	129.75
469.585	136.75
469.804	118.75
470.023	113.75
470.243	115.75
470.462	129.75
470.681	134.75
470.901	121.75
471.12	114.75
471.339	105.75
471.558	115.75
471.777	115.75
471.997	135.75
472.216	125.75
472.435	117.75
472.654	112.75
472.873	128.75
473.092	120.75
473.311	119.75
473.53	122.75
473.749	123.75
473.968	118.75
474.187	126.75
474.406	128.75
474.625	109.75
474.844	118.75
475.063	108.75
475.282	119.75
475.501	117.75
475.72	110.75
475.939	127.75
476.158	128.75
476.377	117.75
476.596	115.75
476.814	115.75
477.033	125.75
477.252	127.75
477.471	119.75
477.69	125.75
477.908	136.75
478.127	143.75
478.346	127.75
478.564	138.75
478.783	139.75
479.002	132.75
479.22	136.75
479.439	132.75
479.658	138.75
479.876	142.75
480.095	122.75
480.313	150.75
480.532	135.75
480.751	123.75
480.969	124.75
481.188	122.75
481.406	127.75
481.624	148.75
481.843	123.75
482.061	130.75
482.28	127.75
482.498	114.75
482.717	129.75
482.935	123.75
483.153	135.75
483.372	125.75
483.59	136.75
483.808	130.75
484.027	138.75
484.245	130.75
484.463	128.75
484.681	150.75
484.9	137.75
485.118	125.75
485.336	129.75
485.554	131.75
485.772	127.75
485.99	136.75
486.209	113.75
486.427	139.75
486.645	129.75
486.863	134.75
487.081	125.75
487.299	131.75
487.517	132.75
487.735	137.75
487.953	133.75
488.171	116.75
488.389	143.75
488.607	130.75
488.825	145.75
489.043	139.75
489.261	129.75
489.479	136.75
489.696	139.75
489.914	129.75
490.132	137.75
490.35	137.75
490.568	152.75
490.786	156.75
491.003	151.75
491.221	134.75
491.439	136.75
491.657	145.75
491.874	137.75
492.092	131.75
492.31	137.75
492.527	140.75
492.745	145.75
492.963	133.75
493.18	146.75
493.398	139.75
493.615	141.75
493.833	149.75
494.05	146.75
494.268	141.75
494.485	143.75
494.703	140.75
494.92	139.75
495.138	143.75
495.355	154.75
495.573	145.75
495.79	161.75
496.008	148.75
496.225	151.75
496.442	134.75
496.66	158.75
496.877	140.75
497.094	145.75
497.312	146.75
497.529	153.75
497.746	150.75
497.963	146.75
498.181	137.75
498.398	157.75
498.615	151.75
498.832	143.75
499.049	178.75
499.267	169.75
499.484	175.75
499.701	183.75
499.918	194.75
500.135	202.75
500.352	202.75
500.569	214.75
500.786	203.75
501.003	205.75
501.22	179.75
501.437	189.75
501.654	163.75
501.871	179.75
502.088	169.75
502.305	171.75
502.522	145.75
502.739	161.75
502.956	170.75
503.172	156.75
503.389	154.75
503.606	142.75
503.823	153.75
504.04	147.75
504.256	154.75
504.473	142.75
504.69	148.75
504.907	127.75
505.123	132.75
505.34	147.75
505.557	129.75
505.773	145.75
505.99	133.75
506.207	133.75
506.423	138.75
506.64	145.75
506.856	139.75
507.073	128.75
507.289	138.75
507.506	125.75
507.722	116.75
507.939	134.75
508.155	137.75
508.372	129.75
508.588	131.75
508.805	142.75
509.021	127.75
509.238	134.75
509.454	138.75
509.67	136.75
509.887	117.75
510.103	138.75
510.319	149.75
510.536	143.75
510.752	155.75
510.968	131.75
511.184	131.75
511.401	126.75
511.617	126.75
511.833	124.75
512.049	114.75
512.265	123.75
512.481	130.75
512.698	141.75
512.914	121.75
513.13	116.75
513.346	119.75
513.562	124.75
513.778	129.75
513.994	126.75
514.21	145.75
514.426	119.75
514.642	139.75
514.858	141.75
515.074	133.75
515.29	146.75
515.506	161.75
515.721	143.75
515.937	117.75
516.153	126.75
516.369	108.75
516.585	129.75
516.801	137.75
517.016	148.75
517.232	142.75
517.448	141.75
517.664	141.75
517.879	140.75
518.095	134.75
518.311	153.75
518.527	135.75
518.742	132.75
518.958	138.75
519.173	133.75
519.389	125.75
519.605	136.75
519.82	123.75
520.036	139.75
520.251	131.75
520.467	146.75
520.682	151.75
520.898	125.75
521.113	139.75
521.329	123.75
521.544	118.75
521.76	150.75
521.975	154.75
522.19	165.75
522.406	150.75
522.621	133.75
522.836	132.75
523.052	122.75
523.267	121.75
523.482	115.75
523.698	135.75
523.913	131.75
524.128	122.75
524.343	119.75
524.559	113.75
524.774	117.75
524.989	137.75
525.204	136.75
525.419	125.75
525.634	134.75
525.849	132.75
526.064	118.75
526.28	125.75
526.495	110.75
526.71	120.75
526.925	113.75
527.14	119.75
527.355	119.75
527.57	126.75
527.785	119.75
527.999	126.75
528.214	132.75
528.429	105.75
528.644	123.75
528.859	120.75
529.074	125.75
529.289	133.75
529.503	132.75
529.718	119.75
529.933	137.75
530.148	122.75
530.363	119.75
530.577	121.75
530.792	126.75
531.007	126.75
531.221	120.75
531.436	124.75
531.651	113.75
531.865	107.75
532.08	125.75
532.295	127.75
532.509	119.75
532.724	119.75
532.938	130.75
533.153	115.75
533.367	121.75
533.582	127.75
533.796	125.75
534.011	118.75
534.225	117.75
534.44	133.75
534.654	123.75
534.868	122.75
535.083	124.75
535.297	129.75
535.511	117.75
535.726	125.75
535.94	119.75
536.154	120.75
536.369	107.75
536.583	117.75
536.797	125.75
537.011	129.75
537.225	123.75
537.44	113.75
537.654	115.75
537.868	116.75
538.082	122.75
538.296	118.75
538.51	127.75
538.724	121.75
538.938	120.75
539.153	121.75
539.367	106.75
539.581	109.75
539.795	135.75
540.009	116.75
540.222	118.75
540.436	134.75
540.65	122.75
540.864	124.75
541.078	129.75
541.292	119.75
541.506	121.75
541.72	131.75
541.934	130.75
542.147	132.75
542.361	137.75
542.575	129.75
542.789	130.75
543.002	132.75
543.216	133.75
543.43	128.75
543.644	121.75
543.857	142.75
544.071	140.75
544.285	127.75
544.498	139.75
544.712	133.75
544.925	130.75
545.139	145.75
545.352	131.75
545.566	119.75
545.779	135.75
545.993	138.75
546.206	137.75
546.42	150.75
546.633	143.75
546.847	119.75
547.06	126.75
547.274	125.75
547.487	119.75
547.7	136.75
547.914	131.75
548.127	126.75
548.34	133.75
548.554	119.75
548.767	127.75
548.98	134.75
549.193	143.75
549.407	137.75
549.62	133.75
549.833	125.75
550.046	118.75
550.259	123.75
550.473	107.75
550.686	127.75
550.899	128.75
551.112	135.75
551.325	124.75
551.538	121.75
551.751	115.75
551.964	135.75
552.177	129.75
552.39	132.75
552.603	119.75
552.816	130.75
553.029	125.75
553.242	138.75
553.455	131.75
553.667	152.75
553.88	133.75
554.093	137.75
554.306	134.75
554.519	118.75
554.732	120.75
554.944	121.75
555.157	111.75
555.37	110.75
555.583	118.75
555.795	134.75
556.008	117.75
556.221	123.75
556.433	119.75
556.646	113.75
556.859	113.75
557.071	128.75
557.284	111.75
557.496	128.75
557.709	117.75
557.921	105.75
558.134	119.75
558.346	124.75
558.559	115.75
558.771	119.75
558.984	116.75
559.196	127.75
559.409	103.75
559.621	116.75
559.833	125.75
560.046	121.75
560.258	119.75
560.47	117.75
560.683	122.75
560.895	118.75
561.107	118.75
561.32	133.75
561.532	100.75
561.744	127.75
561.956	115.75
562.168	108.75
562.381	113.75
562.593	125.75
562.805	103.75
563.017	114.75
563.229	117.75
563.441	121.75
563.653	116.75
563.865	117.75
564.077	121.75
564.289	120.75
564.501	114.75
564.713	120.75
564.925	122.75
565.137	123.75
565.349	122.75
565.561	133.75
565.773	131.75
565.985	126.75
566.197	128.75
566.408	139.75
566.62	135.75
566.832	140.75
567.044	127.75
567.255	141.75
567.467	121.75
567.679	154.75
567.891	136.75
568.102	137.75
568.314	150.75
568.526	139.75
568.737	130.75
568.949	114.75
569.161	109.75
569.372	113.75
569.584	119.75
569.795	110.75
570.007	104.75
570.218	129.75
570.43	111.75
570.641	122.75
570.853	107.75
571.064	121.75
571.276	110.75
571.487	113.75
571.698	121.75
571.91	114.75
572.121	118.75
572.333	114.75
572.544	106.75
572.755	105.75
572.966	119.75
573.178	109.75
573.389	113.75
573.6	98.75
573.811	105.75
574.023	111.75
574.234	101.75
574.445	114.75
574.656	114.75
574.867	104.75
575.078	99.75
575.289	113.75
575.501	105.75
575.712	113.75
575.923	105.75
576.134	101.75
576.345	113.75
576.556	123.75
576.767	108.75
576.978	90.75
577.188	97.75
577.399	106.75
577.61	97.75
577.821	98.75
578.032	90.75
578.243	103.75
578.454	109.75
578.665	111.75
578.875	97.75
579.086	106.75
579.297	117.75
579.508	108.75
579.718	104.75
579.929	99.75
580.14	111.75
580.35	119.75
580.561	104.75
580.772	117.75
580.982	105.75
581.193	113.75
581.403	113.75
581.614	108.75
581.825	105.75
582.035	102.75
582.246	114.75
582.456	103.75
582.667	115.75
582.877	121.75
583.087	118.75
583.298	101.75
583.508	104.75
583.719	93.75
583.929	114.75
584.139	105.75
584.35	96.75
584.56	105.75
584.77	101.75
584.981	104.75
585.191	103.75
585.401	109.75
585.611	103.75
585.821	111.75
586.032	101.75
586.242	105.75
586.452	109.75
586.662	101.75
586.872	107.75
587.082	106.75
587.292	113.75
587.502	117.75
587.713	108.75
587.923	112.75
588.133	97.75
588.343	102.75
588.553	105.75
588.762	101.75
588.972	109.75
589.182	114.75
589.392	89.75
589.602	106.75
589.812	111.75
590.022	104.75
590.232	109.75
590.441	107.75
590.651	106.75
590.861	95.75
591.071	115.75
591.281	93.75
591.49	106.75
591.7	118.75
591.91	122.75
592.119	102.75
592.329	108.75
592.539	97.75
592.748	126.75
592.958	114.75
593.167	113.75
593.377	117.75
593.587	117.75
593.796	117.75
594.006	114.75
594.215	99.75
594.424	115.75
594.634	99.75
594.843	116.75
595.053	104.75
595.262	113.75
595.472	114.75
595.681	101.75
595.89	111.75
596.1	108.75
596.309	100.75
596.518	120.75
596.727	106.75
596.937	116.75
597.146	111.75
597.355	109.75
597.564	110.75
597.774	102.75
597.983	108.75
598.192	87.75
598.401	114.75
598.61	99.75
598.819	101.75
599.028	97.75
599.237	106.75
599.446	94.75
599.655	105.75
599.864	89.75
600.073	95.75
600.282	97.75
600.491	96.75
600.7	98.75
600.909	109.75
601.118	99.75
601.327	109.75
601.536	102.75
601.745	123.75
601.953	107.75
602.162	101.75
602.371	102.75
602.58	97.75
602.789	107.75
602.997	116.75
603.206	117.75
603.415	106.75
603.623	93.75
603.832	104.75
604.041	103.75
604.249	109.75
604.458	82.75
604.666	99.75
604.875	100.75
605.084	101.75
605.292	99.75
605.501	83.75
605.709	100.75
605.918	103.75
606.126	106.75
606.334	120.75
606.543	107.75
606.751	100.75
606.96	104.75
607.168	101.75
607.376	100.75
607.585	93.75
607.793	102.75
608.001	106.75
608.21	109.75
608.418	100.75
608.626	92.75
608.834	106.75
609.043	102.75
609.251	107.75
609.459	98.75
609.667	107.75
609.875	104.75
610.083	94.75
610.291	95.75
610.499	104.75
610.707	112.75
610.916	102.75
611.124	115.75
611.332	135.75
611.54	126.75
611.748	112.75
611.955	105.75
612.163	106.75
612.371	114.75
612.579	102.75
612.787	92.75
612.995	96.75
613.203	97.75
613.411	98.75
613.618	109.75
613.826	104.75
614.034	109.75
614.242	106.75
614.449	111.75
614.657	98.75
614.865	96.75
615.072	100.75
615.28	115.75
615.488	103.75
615.695	100.75
615.903	102.75
616.111	115.75
616.318	96.75
616.526	109.75
616.733	96.75
616.941	109.75
617.148	99.75
617.356	95.75
617.563	105.75
617.771	96.75
617.978	104.75
618.185	103.75
618.393	109.75
618.6	76.75
618.807	108.75
619.015	109.75
619.222	98.75
619.429	81.75
619.637	93.75
619.844	103.75
620.051	106.75
620.258	100.75
620.466	90.75
620.673	93.75
620.88	93.75
621.087	105.75
621.294	115.75
621.501	95.75
621.708	112.75
621.915	101.75
622.122	100.75
622.329	116.75
622.536	117.75
622.743	106.75
622.95	97.75
623.157	103.75
623.364	96.75
623.571	96.75
623.778	105.75
623.985	104.75
624.192	101.75
624.399	104.75
624.606	102.75
624.812	99.75
625.019	116.75
625.226	94.75
625.433	90.75
625.639	92.75
625.846	99.75
626.053	107.75
626.259	95.75
626.466	91.75
626.673	107.75
626.879	94.75
627.086	106.75
627.293	100.75
627.499	109.75
627.706	106.75
627.912	96.75
628.119	95.75
628.325	94.75
628.532	97.75
628.738	88.75
628.945	97.75
629.151	95.75
629.357	97.75
629.564	87.75
629.77	82.75
629.976	87.75
630.183	77.75
630.389	93.75
630.595	83.75
630.802	84.75
631.008	104.75
631.214	89.75
631.42	103.75
631.627	98.75
631.833	86.75
632.039	99.75
632.245	93.75
632.451	90.75
632.657	83.75
632.863	93.75
633.069	105.75
633.275	98.75
633.481	92.75
633.688	85.75
633.893	101.75
634.099	95.75
634.305	87.75
634.511	93.75
634.717	93.75
634.923	117.75
635.129	97.75
635.335	107.75
635.541	78.75
635.747	102.75
635.952	101.75
636.158	105.75
636.364	86.75
636.57	79.75
636.775	91.75
636.981	87.75
637.187	90.75
637.392	95.75
637.598	98.75
637.804	90.75
638.009	90.75
638.215	91.75
638.421	95.75
638.626	93.75
638.832	97.75
639.037	106.75
639.243	85.75
639.448	97.75
639.654	94.75
639.859	98.75
640.065	88.75
640.27	97.75
640.475	85.75
640.681	94.75
640.886	94.75
641.091	94.75
641.297	109.75
641.502	85.75
641.707	104.75
641.913	95.75
642.118	103.75
642.323	89.75
642.528	90.75
642.733	95.75
642.939	97.75
643.144	84.75
643.349	97.75
643.554	109.75
643.759	97.75
643.964	92.75
644.169	89.75
644.374	93.75
644.579	99.75
644.784	103.75
644.989	92.75
645.194	95.75
645.399	98.75
645.604	82.75
645.809	90.75
646.014	93.75
646.219	107.75
646.423	94.75
646.628	92.75
646.833	95.75
647.038	88.75
647.243	83.75
647.447	91.75
647.652	105.75
647.857	79.75
648.062	94.75
648.266	81.75
648.471	100.75
648.676	96.75
648.88	85.75
649.085	85.75
649.289	95.75
649.494	93.75
649.698	89.75
649.903	87.75
650.107	84.75
650.312	90.75
650.516	100.75
650.721	86.75
650.925	90.75
651.13	99.75
651.334	94.75
651.539	93.75
651.743	80.75
651.947	102.75
652.152	97.75
652.356	85.75
652.56	90.75
652.764	93.75
652.969	96.75
653.173	91.75
653.377	92.75
653.581	94.75
653.785	101.75
653.99	96.75
654.194	94.75
654.398	94.75
654.602	99.75
654.806	89.75
655.01	87.75
655.214	106.75
655.418	98.75
655.622	78.75
655.826	89.75
656.03	81.75
656.234	101.75
656.438	87.75
656.642	79.75
656.846	93.75
657.049	82.75
657.253	100.75
657.457	85.75
657.661	87.75
657.865	97.75
658.068	92.75
658.272	96.75
658.476	93.75
658.68	77.75
658.883	87.75
659.087	95.75
659.291	88.75
659.494	90.75
659.698	84.75
659.901	91.75
660.105	94.75
660.309	80.75
660.512	59.75
660.716	85.75
660.919	74.75
661.123	91.75
661.326	102.75
661.53	72.75
661.733	82.75
661.936	97.75
662.14	80.75
662.343	73.75
662.546	75.75
662.75	89.75
662.953	85.75
663.156	86.75
663.36	89.75
663.563	84.75
663.766	89.75
663.969	84.75
664.173	80.75
664.376	86.75
664.579	90.75
664.782	69.75
664.985	77.75
665.188	90.75
665.391	83.75
665.594	73.75
665.797	82.75
666	96.75
666.203	84.75
666.406	73.75
666.609	82.75
666.812	94.75
667.015	73.75
667.218	83.75
667.421	65.75
667.624	73.75
667.827	99.75
668.03	86.75
668.232	84.75
668.435	85.75
668.638	62.75
668.841	74.75
669.043	89.75
669.246	84.75
669.449	86.75
669.651	73.75
669.854	96.75
670.057	84.75
670.259	95.75
670.462	89.75
670.665	74.75
670.867	76.75
671.07	93.75
671.272	84.75
671.475	76.75
671.677	83.75
671.88	86.75
672.082	76.75
672.284	75.75
672.487	87.75
672.689	78.75
672.892	69.75
