Data from 1968.PennyLincolnUp.Lamp.En5.5.200Scan.071719.P1._HRD10591_14-50-25-970.txt Node
Date: Thu Jul 18 14:50:25 EDT 2019
User: cochatt
Spectrometer: HR+D1059
Trigger mode: 1
Integration Time (sec): 1.000000E-1
Scans to average: 1
Electric dark correction enabled: true
Nonlinearity correction enabled: false
Boxcar width: 0
XAxis mode: Wavelengths
Number of Pixels in Spectrum: 2048
>>>>>Begin Spectral Data<<<<<
223.165	-32.12
223.4	-32.12
223.635	-32.12
223.869	-13.12
224.104	-12.12
224.338	-17.12
224.573	-6.12
224.808	-11.12
225.042	-9.12
225.277	-7.12
225.511	7.88
225.746	1.88
225.98	6.88
226.215	18.88
226.449	21.88
226.683	11.88
226.918	15.88
227.152	22.88
227.387	29.88
227.621	27.88
227.856	52.88
228.09	22.88
228.324	46.88
228.559	62.88
228.793	65.88
229.027	52.88
229.262	59.88
229.496	62.88
229.73	67.88
229.964	72.88
230.199	68.88
230.433	79.88
230.667	79.88
230.901	92.88
231.136	66.88
231.37	66.88
231.604	93.88
231.838	93.88
232.072	84.88
232.306	80.88
232.541	83.88
232.775	68.88
233.009	92.88
233.243	83.88
233.477	85.88
233.711	90.88
233.945	94.88
234.179	77.88
234.413	73.88
234.647	77.88
234.881	86.88
235.115	84.88
235.349	87.88
235.583	77.88
235.817	81.88
236.051	95.88
236.285	82.88
236.519	76.88
236.753	92.88
236.987	83.88
237.221	86.88
237.455	84.88
237.689	77.88
237.922	79.88
238.156	82.88
238.39	91.88
238.624	80.88
238.858	77.88
239.091	89.88
239.325	72.88
239.559	76.88
239.793	76.88
240.027	87.88
240.26	80.88
240.494	84.88
240.728	78.88
240.961	84.88
241.195	75.88
241.429	69.88
241.662	74.88
241.896	75.88
242.13	92.88
242.363	82.88
242.597	80.88
242.83	78.88
243.064	66.88
243.298	88.88
243.531	78.88
243.765	82.88
243.998	84.88
244.232	70.88
244.465	83.88
244.699	78.88
244.932	79.88
245.166	78.88
245.399	62.88
245.633	77.88
245.866	84.88
246.099	82.88
246.333	91.88
246.566	70.88
246.8	71.88
247.033	77.88
247.266	81.88
247.5	88.88
247.733	95.88
247.966	82.88
248.2	73.88
248.433	97.88
248.666	99.88
248.899	89.88
249.133	84.88
249.366	88.88
249.599	80.88
249.832	96.88
250.066	84.88
250.299	91.88
250.532	94.88
250.765	93.88
250.998	73.88
251.231	77.88
251.465	92.88
251.698	86.88
251.931	79.88
252.164	98.88
252.397	86.88
252.63	72.88
252.863	74.88
253.096	99.88
253.329	94.88
253.562	94.88
253.795	88.88
254.028	79.88
254.261	84.88
254.494	82.88
254.727	92.88
254.96	98.88
255.193	92.88
255.426	79.88
255.659	84.88
255.892	86.88
256.124	85.88
256.357	97.88
256.59	75.88
256.823	88.88
257.056	93.88
257.289	92.88
257.521	86.88
257.754	87.88
257.987	90.88
258.22	93.88
258.452	79.88
258.685	93.88
258.918	80.88
259.151	88.88
259.383	89.88
259.616	86.88
259.849	77.88
260.081	93.88
260.314	91.88
260.547	88.88
260.779	101.88
261.012	96.88
261.244	79.88
261.477	100.88
261.71	82.88
261.942	80.88
262.175	84.88
262.407	84.88
262.64	91.88
262.872	84.88
263.105	89.88
263.337	106.88
263.57	91.88
263.802	97.88
264.035	80.88
264.267	88.88
264.499	92.88
264.732	95.88
264.964	92.88
265.197	96.88
265.429	82.88
265.661	97.88
265.894	90.88
266.126	80.88
266.358	84.88
266.591	93.88
266.823	98.88
267.055	89.88
267.287	106.88
267.52	103.88
267.752	88.88
267.984	100.88
268.216	78.88
268.448	84.88
268.681	84.88
268.913	80.88
269.145	87.88
269.377	94.88
269.609	94.88
269.841	81.88
270.073	100.88
270.306	88.88
270.538	105.88
270.77	79.88
271.002	84.88
271.234	100.88
271.466	86.88
271.698	79.88
271.93	100.88
272.162	91.88
272.394	106.88
272.626	82.88
272.858	97.88
273.09	82.88
273.322	99.88
273.553	89.88
273.785	85.88
274.017	101.88
274.249	86.88
274.481	90.88
274.713	90.88
274.945	94.88
275.176	98.88
275.408	91.88
275.64	93.88
275.872	103.88
276.104	93.88
276.335	106.88
276.567	92.88
276.799	92.88
277.031	95.88
277.262	98.88
277.494	93.88
277.726	93.88
277.957	77.88
278.189	95.88
278.421	100.88
278.652	98.88
278.884	91.88
279.115	100.88
279.347	92.88
279.579	82.88
279.81	94.88
280.042	88.88
280.273	102.88
280.505	99.88
280.736	103.88
280.968	86.88
281.199	89.88
281.431	92.88
281.662	85.88
281.894	104.88
282.125	94.88
282.356	83.88
282.588	99.88
282.819	88.88
283.051	80.88
283.282	89.88
283.513	101.88
283.745	90.88
283.976	85.88
284.207	99.88
284.439	102.88
284.67	110.88
284.901	104.88
285.132	97.88
285.364	92.88
285.595	91.88
285.826	118.88
286.057	113.88
286.288	104.88
286.52	95.88
286.751	100.88
286.982	106.88
287.213	97.88
287.444	103.88
287.675	88.88
287.906	96.88
288.138	87.88
288.369	106.88
288.6	95.88
288.831	88.88
289.062	91.88
289.293	116.88
289.524	103.88
289.755	104.88
289.986	98.88
290.217	104.88
290.448	99.88
290.679	87.88
290.91	93.88
291.141	106.88
291.371	106.88
291.602	114.88
291.833	104.88
292.064	104.88
292.295	109.88
292.526	105.88
292.757	98.88
292.987	103.88
293.218	102.88
293.449	101.88
293.68	110.88
293.91	96.88
294.141	114.88
294.372	95.88
294.603	105.88
294.833	105.88
295.064	109.88
295.295	121.88
295.525	105.88
295.756	101.88
295.987	106.88
296.217	100.88
296.448	103.88
296.679	93.88
296.909	108.88
297.14	96.88
297.37	99.88
297.601	109.88
297.831	103.88
298.062	105.88
298.292	105.88
298.523	100.88
298.753	100.88
298.984	87.88
299.214	91.88
299.445	107.88
299.675	106.88
299.905	106.88
300.136	96.88
300.366	109.88
300.597	107.88
300.827	105.88
301.057	103.88
301.288	107.88
301.518	96.88
301.748	112.88
301.979	114.88
302.209	111.88
302.439	95.88
302.669	106.88
302.9	98.88
303.13	104.88
303.36	92.88
303.59	104.88
303.82	104.88
304.051	110.88
304.281	97.88
304.511	111.88
304.741	121.88
304.971	98.88
305.201	99.88
305.431	98.88
305.661	109.88
305.891	118.88
306.121	98.88
306.352	100.88
306.582	106.88
306.812	102.88
307.042	114.88
307.272	106.88
307.502	109.88
307.731	100.88
307.961	99.88
308.191	102.88
308.421	107.88
308.651	103.88
308.881	101.88
309.111	106.88
309.341	85.88
309.571	93.88
309.8	114.88
310.03	112.88
310.26	105.88
310.49	116.88
310.72	109.88
310.949	90.88
311.179	94.88
311.409	99.88
311.639	110.88
311.868	114.88
312.098	101.88
312.328	96.88
312.557	102.88
312.787	99.88
313.017	109.88
313.246	117.88
313.476	97.88
313.706	98.88
313.935	98.88
314.165	105.88
314.394	104.88
314.624	104.88
314.853	105.88
315.083	104.88
315.312	105.88
315.542	113.88
315.771	118.88
316.001	121.88
316.23	109.88
316.46	113.88
316.689	101.88
316.919	87.88
317.148	98.88
317.377	118.88
317.607	99.88
317.836	101.88
318.065	118.88
318.295	110.88
318.524	92.88
318.753	97.88
318.983	103.88
319.212	89.88
319.441	101.88
319.67	106.88
319.9	90.88
320.129	115.88
320.358	109.88
320.587	120.88
320.816	96.88
321.046	118.88
321.275	99.88
321.504	114.88
321.733	114.88
321.962	94.88
322.191	101.88
322.42	105.88
322.649	97.88
322.878	116.88
323.108	114.88
323.337	127.88
323.566	106.88
323.795	98.88
324.024	101.88
324.253	102.88
324.482	127.88
324.71	157.88
324.939	203.88
325.168	151.88
325.397	110.88
325.626	105.88
325.855	115.88
326.084	105.88
326.313	98.88
326.542	107.88
326.77	113.88
326.999	127.88
327.228	134.88
327.457	138.88
327.686	143.88
327.914	122.88
328.143	110.88
328.372	119.88
328.6	105.88
328.829	119.88
329.058	112.88
329.287	120.88
329.515	107.88
329.744	112.88
329.972	113.88
330.201	112.88
330.43	129.88
330.658	108.88
330.887	90.88
331.115	117.88
331.344	118.88
331.572	114.88
331.801	107.88
332.03	104.88
332.258	112.88
332.486	101.88
332.715	124.88
332.943	129.88
333.172	123.88
333.4	112.88
333.629	123.88
333.857	131.88
334.085	122.88
334.314	120.88
334.542	104.88
334.771	122.88
334.999	122.88
335.227	115.88
335.455	116.88
335.684	100.88
335.912	114.88
336.14	120.88
336.369	125.88
336.597	113.88
336.825	108.88
337.053	105.88
337.281	99.88
337.51	106.88
337.738	107.88
337.966	109.88
338.194	114.88
338.422	106.88
338.65	115.88
338.878	121.88
339.106	117.88
339.334	122.88
339.562	106.88
339.79	105.88
340.018	106.88
340.246	120.88
340.474	108.88
340.702	122.88
340.93	112.88
341.158	112.88
341.386	96.88
341.614	117.88
341.842	114.88
342.07	116.88
342.298	97.88
342.526	112.88
342.754	101.88
342.981	90.88
343.209	128.88
343.437	99.88
343.665	112.88
343.893	125.88
344.12	125.88
344.348	114.88
344.576	124.88
344.804	119.88
345.031	108.88
345.259	119.88
345.487	121.88
345.714	122.88
345.942	111.88
346.17	97.88
346.397	104.88
346.625	105.88
346.853	109.88
347.08	116.88
347.308	105.88
347.535	120.88
347.763	105.88
347.99	116.88
348.218	114.88
348.445	109.88
348.673	112.88
348.9	119.88
349.128	118.88
349.355	107.88
349.583	106.88
349.81	109.88
350.037	109.88
350.265	105.88
350.492	102.88
350.72	106.88
350.947	104.88
351.174	105.88
351.402	110.88
351.629	110.88
351.856	103.88
352.083	112.88
352.311	112.88
352.538	118.88
352.765	109.88
352.992	107.88
353.22	100.88
353.447	100.88
353.674	108.88
353.901	105.88
354.128	107.88
354.355	116.88
354.583	102.88
354.81	119.88
355.037	107.88
355.264	104.88
355.491	101.88
355.718	112.88
355.945	109.88
356.172	114.88
356.399	110.88
356.626	103.88
356.853	107.88
357.08	115.88
357.307	106.88
357.534	106.88
357.761	102.88
357.988	109.88
358.215	99.88
358.441	106.88
358.668	117.88
358.895	115.88
359.122	110.88
359.349	100.88
359.576	98.88
359.802	116.88
360.029	114.88
360.256	119.88
360.483	116.88
360.709	112.88
360.936	110.88
361.163	126.88
361.39	109.88
361.616	102.88
361.843	114.88
362.07	102.88
362.296	108.88
362.523	110.88
362.749	121.88
362.976	112.88
363.203	100.88
363.429	114.88
363.656	104.88
363.882	124.88
364.109	117.88
364.335	86.88
364.562	99.88
364.788	101.88
365.015	113.88
365.241	116.88
365.468	114.88
365.694	98.88
365.92	110.88
366.147	104.88
366.373	118.88
366.599	100.88
366.826	108.88
367.052	106.88
367.278	112.88
367.505	104.88
367.731	114.88
367.957	120.88
368.184	97.88
368.41	104.88
368.636	107.88
368.862	109.88
369.089	112.88
369.315	106.88
369.541	112.88
369.767	89.88
369.993	115.88
370.219	109.88
370.445	97.88
370.672	101.88
370.898	99.88
371.124	88.88
371.35	107.88
371.576	112.88
371.802	118.88
372.028	92.88
372.254	110.88
372.48	114.88
372.706	114.88
372.932	113.88
373.158	112.88
373.384	107.88
373.61	130.88
373.835	112.88
374.061	134.88
374.287	108.88
374.513	112.88
374.739	114.88
374.965	119.88
375.191	120.88
375.416	112.88
375.642	123.88
375.868	93.88
376.094	108.88
376.319	113.88
376.545	120.88
376.771	109.88
376.997	126.88
377.222	118.88
377.448	108.88
377.674	110.88
377.899	103.88
378.125	105.88
378.35	106.88
378.576	125.88
378.802	109.88
379.027	123.88
379.253	116.88
379.478	95.88
379.704	112.88
379.929	92.88
380.155	111.88
380.38	122.88
380.606	112.88
380.831	102.88
381.057	122.88
381.282	120.88
381.507	101.88
381.733	104.88
381.958	117.88
382.184	92.88
382.409	111.88
382.634	120.88
382.86	114.88
383.085	122.88
383.31	110.88
383.535	123.88
383.761	118.88
383.986	101.88
384.211	120.88
384.436	96.88
384.662	124.88
384.887	122.88
385.112	123.88
385.337	119.88
385.562	92.88
385.787	113.88
386.013	119.88
386.238	112.88
386.463	94.88
386.688	111.88
386.913	119.88
387.138	123.88
387.363	122.88
387.588	109.88
387.813	100.88
388.038	117.88
388.263	119.88
388.488	120.88
388.713	109.88
388.938	106.88
389.163	119.88
389.387	109.88
389.612	115.88
389.837	121.88
390.062	116.88
390.287	119.88
390.512	110.88
390.736	108.88
390.961	106.88
391.186	112.88
391.411	116.88
391.636	122.88
391.86	117.88
392.085	118.88
392.31	116.88
392.534	113.88
392.759	112.88
392.984	100.88
393.208	115.88
393.433	111.88
393.658	106.88
393.882	114.88
394.107	112.88
394.331	121.88
394.556	126.88
394.78	120.88
395.005	114.88
395.229	113.88
395.454	113.88
395.678	125.88
395.903	117.88
396.127	130.88
396.352	126.88
396.576	114.88
396.801	116.88
397.025	124.88
397.249	127.88
397.474	138.88
397.698	113.88
397.922	106.88
398.147	102.88
398.371	122.88
398.595	121.88
398.82	126.88
399.044	128.88
399.268	138.88
399.492	129.88
399.717	139.88
399.941	138.88
400.165	138.88
400.389	125.88
400.613	124.88
400.837	132.88
401.062	118.88
401.286	120.88
401.51	132.88
401.734	129.88
401.958	128.88
402.182	127.88
402.406	134.88
402.63	131.88
402.854	126.88
403.078	144.88
403.302	138.88
403.526	136.88
403.75	126.88
403.974	117.88
404.198	134.88
404.422	133.88
404.645	139.88
404.869	125.88
405.093	154.88
405.317	132.88
405.541	134.88
405.765	130.88
405.988	129.88
406.212	132.88
406.436	128.88
406.66	132.88
406.883	123.88
407.107	129.88
407.331	126.88
407.555	142.88
407.778	146.88
408.002	140.88
408.226	137.88
408.449	147.88
408.673	142.88
408.896	148.88
409.12	151.88
409.344	137.88
409.567	128.88
409.791	132.88
410.014	132.88
410.238	128.88
410.461	122.88
410.685	124.88
410.908	114.88
411.132	132.88
411.355	127.88
411.578	127.88
411.802	110.88
412.025	139.88
412.249	125.88
412.472	136.88
412.695	123.88
412.919	151.88
413.142	125.88
413.365	130.88
413.589	127.88
413.812	133.88
414.035	123.88
414.258	134.88
414.482	146.88
414.705	114.88
414.928	114.88
415.151	109.88
415.374	126.88
415.597	120.88
415.821	138.88
416.044	126.88
416.267	129.88
416.49	110.88
416.713	140.88
416.936	126.88
417.159	125.88
417.382	117.88
417.605	124.88
417.828	137.88
418.051	137.88
418.274	148.88
418.497	112.88
418.72	120.88
418.943	138.88
419.166	116.88
419.389	124.88
419.611	140.88
419.834	137.88
420.057	118.88
420.28	122.88
420.503	131.88
420.726	125.88
420.948	122.88
421.171	120.88
421.394	124.88
421.617	132.88
421.839	120.88
422.062	134.88
422.285	117.88
422.507	129.88
422.73	126.88
422.953	130.88
423.175	139.88
423.398	128.88
423.621	142.88
423.843	138.88
424.066	121.88
424.288	142.88
424.511	127.88
424.733	136.88
424.956	137.88
425.178	141.88
425.401	141.88
425.623	152.88
425.846	136.88
426.068	115.88
426.291	126.88
426.513	137.88
426.735	121.88
426.958	130.88
427.18	135.88
427.402	145.88
427.625	150.88
427.847	138.88
428.069	112.88
428.292	136.88
428.514	123.88
428.736	124.88
428.958	117.88
429.181	111.88
429.403	114.88
429.625	124.88
429.847	115.88
430.069	137.88
430.292	130.88
430.514	122.88
430.736	117.88
430.958	131.88
431.18	122.88
431.402	113.88
431.624	118.88
431.846	128.88
432.068	128.88
432.29	135.88
432.512	124.88
432.734	126.88
432.956	115.88
433.178	114.88
433.4	127.88
433.622	124.88
433.844	124.88
434.066	126.88
434.287	133.88
434.509	120.88
434.731	134.88
434.953	129.88
435.175	122.88
435.397	132.88
435.618	126.88
435.84	121.88
436.062	134.88
436.284	137.88
436.505	121.88
436.727	125.88
436.949	141.88
437.17	131.88
437.392	118.88
437.614	122.88
437.835	121.88
438.057	125.88
438.278	144.88
438.5	136.88
438.721	132.88
438.943	134.88
439.165	117.88
439.386	133.88
439.608	132.88
439.829	131.88
440.05	123.88
440.272	120.88
440.493	123.88
440.715	124.88
440.936	138.88
441.158	128.88
441.379	126.88
441.6	134.88
441.822	132.88
442.043	133.88
442.264	136.88
442.486	149.88
442.707	147.88
442.928	122.88
443.149	141.88
443.371	136.88
443.592	136.88
443.813	128.88
444.034	148.88
444.255	122.88
444.476	136.88
444.698	135.88
444.919	145.88
445.14	263.88
445.361	197.88
445.582	138.88
445.803	137.88
446.024	138.88
446.245	131.88
446.466	120.88
446.687	117.88
446.908	132.88
447.129	127.88
447.35	117.88
447.571	125.88
447.792	118.88
448.013	122.88
448.234	130.88
448.455	130.88
448.675	141.88
448.896	148.88
449.117	122.88
449.338	132.88
449.559	136.88
449.779	143.88
450	123.88
450.221	121.88
450.442	120.88
450.662	117.88
450.883	118.88
451.104	108.88
451.324	142.88
451.545	136.88
451.766	123.88
451.986	122.88
452.207	108.88
452.428	128.88
452.648	121.88
452.869	120.88
453.089	116.88
453.31	110.88
453.53	121.88
453.751	108.88
453.971	108.88
454.192	114.88
454.412	116.88
454.633	122.88
454.853	117.88
455.073	108.88
455.294	123.88
455.514	114.88
455.734	116.88
455.955	110.88
456.175	109.88
456.395	118.88
456.616	121.88
456.836	124.88
457.056	120.88
457.276	118.88
457.497	105.88
457.717	125.88
457.937	113.88
458.157	134.88
458.377	132.88
458.598	114.88
458.818	132.88
459.038	121.88
459.258	133.88
459.478	132.88
459.698	125.88
459.918	118.88
460.138	119.88
460.358	134.88
460.578	118.88
460.798	140.88
461.018	115.88
461.238	128.88
461.458	133.88
461.678	112.88
461.898	120.88
462.118	128.88
462.338	137.88
462.558	126.88
462.777	123.88
462.997	134.88
463.217	118.88
463.437	142.88
463.657	123.88
463.876	134.88
464.096	144.88
464.316	110.88
464.536	128.88
464.755	134.88
464.975	128.88
465.195	124.88
465.414	132.88
465.634	125.88
465.854	128.88
466.073	130.88
466.293	119.88
466.512	120.88
466.732	123.88
466.951	122.88
467.171	132.88
467.391	126.88
467.61	120.88
467.829	119.88
468.049	108.88
468.268	112.88
468.488	120.88
468.707	125.88
468.927	126.88
469.146	109.88
469.365	132.88
469.585	112.88
469.804	119.88
470.023	121.88
470.243	123.88
470.462	132.88
470.681	138.88
470.901	124.88
471.12	130.88
471.339	121.88
471.558	121.88
471.777	109.88
471.997	115.88
472.216	121.88
472.435	116.88
472.654	118.88
472.873	117.88
473.092	110.88
473.311	126.88
473.53	116.88
473.749	121.88
473.968	121.88
474.187	129.88
474.406	108.88
474.625	116.88
474.844	126.88
475.063	133.88
475.282	116.88
475.501	124.88
475.72	128.88
475.939	121.88
476.158	129.88
476.377	148.88
476.596	116.88
476.814	123.88
477.033	119.88
477.252	128.88
477.471	129.88
477.69	122.88
477.908	139.88
478.127	134.88
478.346	134.88
478.564	124.88
478.783	133.88
479.002	118.88
479.22	129.88
479.439	134.88
479.658	130.88
479.876	133.88
480.095	136.88
480.313	140.88
480.532	123.88
480.751	138.88
480.969	132.88
481.188	134.88
481.406	140.88
481.624	136.88
481.843	132.88
482.061	126.88
482.28	115.88
482.498	121.88
482.717	137.88
482.935	137.88
483.153	131.88
483.372	120.88
483.59	138.88
483.808	136.88
484.027	130.88
484.245	135.88
484.463	145.88
484.681	125.88
484.9	136.88
485.118	115.88
485.336	133.88
485.554	120.88
485.772	127.88
485.99	122.88
486.209	128.88
486.427	134.88
486.645	133.88
486.863	130.88
487.081	131.88
487.299	136.88
487.517	128.88
487.735	131.88
487.953	136.88
488.171	147.88
488.389	141.88
488.607	133.88
488.825	133.88
489.043	135.88
489.261	130.88
489.479	140.88
489.696	126.88
489.914	132.88
490.132	139.88
490.35	136.88
490.568	124.88
490.786	126.88
491.003	137.88
491.221	152.88
491.439	138.88
491.657	140.88
491.874	134.88
492.092	132.88
492.31	151.88
492.527	131.88
492.745	141.88
492.963	150.88
493.18	143.88
493.398	133.88
493.615	138.88
493.833	136.88
494.05	146.88
494.268	146.88
494.485	138.88
494.703	153.88
494.92	135.88
495.138	143.88
495.355	138.88
495.573	140.88
495.79	146.88
496.008	128.88
496.225	149.88
496.442	141.88
496.66	141.88
496.877	130.88
497.094	170.88
497.312	155.88
497.529	132.88
497.746	155.88
497.963	153.88
498.181	149.88
498.398	153.88
498.615	165.88
498.832	157.88
499.049	165.88
499.267	170.88
499.484	157.88
499.701	184.88
499.918	191.88
500.135	205.88
500.352	215.88
500.569	202.88
500.786	205.88
501.003	213.88
501.22	210.88
501.437	194.88
501.654	197.88
501.871	170.88
502.088	185.88
502.305	155.88
502.522	172.88
502.739	154.88
502.956	136.88
503.172	148.88
503.389	135.88
503.606	146.88
503.823	148.88
504.04	148.88
504.256	150.88
504.473	143.88
504.69	148.88
504.907	146.88
505.123	138.88
505.34	132.88
505.557	136.88
505.773	137.88
505.99	130.88
506.207	132.88
506.423	132.88
506.64	141.88
506.856	116.88
507.073	136.88
507.289	128.88
507.506	148.88
507.722	136.88
507.939	117.88
508.155	124.88
508.372	125.88
508.588	126.88
508.805	132.88
509.021	131.88
509.238	126.88
509.454	122.88
509.67	120.88
509.887	123.88
510.103	124.88
510.319	135.88
510.536	139.88
510.752	161.88
510.968	150.88
511.184	123.88
511.401	129.88
511.617	120.88
511.833	126.88
512.049	124.88
512.265	124.88
512.481	102.88
512.698	134.88
512.914	121.88
513.13	126.88
513.346	131.88
513.562	124.88
513.778	118.88
513.994	128.88
514.21	133.88
514.426	128.88
514.642	132.88
514.858	129.88
515.074	133.88
515.29	124.88
515.506	162.88
515.721	148.88
515.937	125.88
516.153	120.88
516.369	133.88
516.585	127.88
516.801	134.88
517.016	126.88
517.232	150.88
517.448	136.88
517.664	140.88
517.879	131.88
518.095	140.88
518.311	137.88
518.527	137.88
518.742	142.88
518.958	145.88
519.173	130.88
519.389	127.88
519.605	141.88
519.82	120.88
520.036	124.88
520.251	126.88
520.467	118.88
520.682	138.88
520.898	116.88
521.113	122.88
521.329	134.88
521.544	132.88
521.76	137.88
521.975	174.88
522.19	171.88
522.406	135.88
522.621	112.88
522.836	120.88
523.052	121.88
523.267	121.88
523.482	107.88
523.698	124.88
523.913	130.88
524.128	130.88
524.343	125.88
524.559	122.88
524.774	126.88
524.989	130.88
525.204	129.88
525.419	121.88
525.634	148.88
525.849	120.88
526.064	117.88
526.28	134.88
526.495	112.88
526.71	119.88
526.925	116.88
527.14	118.88
527.355	121.88
527.57	130.88
527.785	117.88
527.999	116.88
528.214	123.88
528.429	137.88
528.644	113.88
528.859	125.88
529.074	127.88
529.289	141.88
529.503	134.88
529.718	132.88
529.933	117.88
530.148	123.88
530.363	115.88
530.577	107.88
530.792	120.88
531.007	112.88
531.221	132.88
531.436	109.88
531.651	116.88
531.865	124.88
532.08	116.88
532.295	126.88
532.509	123.88
532.724	120.88
532.938	106.88
533.153	117.88
533.367	134.88
533.582	121.88
533.796	128.88
534.011	122.88
534.225	117.88
534.44	121.88
534.654	129.88
534.868	136.88
535.083	127.88
535.297	109.88
535.511	132.88
535.726	134.88
535.94	107.88
536.154	128.88
536.369	114.88
536.583	121.88
536.797	111.88
537.011	107.88
537.225	115.88
537.44	114.88
537.654	124.88
537.868	112.88
538.082	109.88
538.296	124.88
538.51	105.88
538.724	120.88
538.938	121.88
539.153	135.88
539.367	111.88
539.581	107.88
539.795	124.88
540.009	108.88
540.222	122.88
540.436	117.88
540.65	135.88
540.864	121.88
541.078	114.88
541.292	141.88
541.506	122.88
541.72	120.88
541.934	118.88
542.147	147.88
542.361	133.88
542.575	134.88
542.789	134.88
543.002	124.88
543.216	127.88
543.43	123.88
543.644	130.88
543.857	141.88
544.071	130.88
544.285	139.88
544.498	142.88
544.712	137.88
544.925	132.88
545.139	140.88
545.352	128.88
545.566	138.88
545.779	126.88
545.993	125.88
546.206	133.88
546.42	157.88
546.633	132.88
546.847	122.88
547.06	111.88
547.274	123.88
547.487	117.88
547.7	143.88
547.914	122.88
548.127	116.88
548.34	125.88
548.554	120.88
548.767	121.88
548.98	129.88
549.193	118.88
549.407	135.88
549.62	123.88
549.833	149.88
550.046	116.88
550.259	118.88
550.473	116.88
550.686	126.88
550.899	107.88
551.112	122.88
551.325	138.88
551.538	125.88
551.751	135.88
551.964	128.88
552.177	111.88
552.39	131.88
552.603	116.88
552.816	123.88
553.029	116.88
553.242	141.88
553.455	132.88
553.667	126.88
553.88	123.88
554.093	102.88
554.306	120.88
554.519	142.88
554.732	125.88
554.944	120.88
555.157	122.88
555.37	130.88
555.583	120.88
555.795	119.88
556.008	114.88
556.221	110.88
556.433	120.88
556.646	124.88
556.859	117.88
557.071	120.88
557.284	116.88
557.496	118.88
557.709	116.88
557.921	124.88
558.134	108.88
558.346	112.88
558.559	107.88
558.771	117.88
558.984	98.88
559.196	124.88
559.409	124.88
559.621	120.88
559.833	123.88
560.046	113.88
560.258	117.88
560.47	113.88
560.683	108.88
560.895	121.88
561.107	110.88
561.32	116.88
561.532	114.88
561.744	115.88
561.956	112.88
562.168	104.88
562.381	115.88
562.593	126.88
562.805	110.88
563.017	122.88
563.229	123.88
563.441	129.88
563.653	113.88
563.865	105.88
564.077	120.88
564.289	130.88
564.501	126.88
564.713	125.88
564.925	98.88
565.137	124.88
565.349	118.88
565.561	126.88
565.773	121.88
565.985	115.88
566.197	117.88
566.408	134.88
566.62	148.88
566.832	123.88
567.044	138.88
567.255	129.88
567.467	134.88
567.679	127.88
567.891	137.88
568.102	154.88
568.314	150.88
568.526	144.88
568.737	118.88
568.949	117.88
569.161	112.88
569.372	121.88
569.584	105.88
569.795	112.88
570.007	113.88
570.218	124.88
570.43	114.88
570.641	101.88
570.853	118.88
571.064	125.88
571.276	114.88
571.487	114.88
571.698	115.88
571.91	105.88
572.121	114.88
572.333	99.88
572.544	102.88
572.755	114.88
572.966	106.88
573.178	120.88
573.389	116.88
573.6	112.88
573.811	100.88
574.023	110.88
574.234	114.88
574.445	107.88
574.656	119.88
574.867	105.88
575.078	109.88
575.289	93.88
575.501	120.88
575.712	116.88
575.923	104.88
576.134	109.88
576.345	113.88
576.556	114.88
576.767	108.88
576.978	107.88
577.188	104.88
577.399	105.88
577.61	96.88
577.821	106.88
578.032	99.88
578.243	100.88
578.454	128.88
578.665	108.88
578.875	107.88
579.086	109.88
579.297	93.88
579.508	124.88
579.718	108.88
579.929	114.88
580.14	108.88
580.35	107.88
580.561	99.88
580.772	104.88
580.982	122.88
581.193	118.88
581.403	113.88
581.614	91.88
581.825	103.88
582.035	117.88
582.246	105.88
582.456	108.88
582.667	94.88
582.877	102.88
583.087	102.88
583.298	113.88
583.508	109.88
583.719	94.88
583.929	96.88
584.139	108.88
584.35	99.88
584.56	106.88
584.77	112.88
584.981	92.88
585.191	101.88
585.401	98.88
585.611	107.88
585.821	121.88
586.032	92.88
586.242	98.88
586.452	106.88
586.662	104.88
586.872	108.88
587.082	97.88
587.292	114.88
587.502	107.88
587.713	114.88
587.923	109.88
588.133	116.88
588.343	103.88
588.553	103.88
588.762	110.88
588.972	107.88
589.182	96.88
589.392	100.88
589.602	114.88
589.812	118.88
590.022	103.88
590.232	97.88
590.441	97.88
590.651	100.88
590.861	104.88
591.071	99.88
591.281	86.88
591.49	94.88
591.7	112.88
591.91	114.88
592.119	113.88
592.329	98.88
592.539	102.88
592.748	108.88
592.958	115.88
593.167	114.88
593.377	94.88
593.587	114.88
593.796	121.88
594.006	113.88
594.215	110.88
594.424	114.88
594.634	103.88
594.843	102.88
595.053	108.88
595.262	113.88
595.472	96.88
595.681	111.88
595.89	104.88
596.1	109.88
596.309	109.88
596.518	122.88
596.727	112.88
596.937	105.88
597.146	103.88
597.355	89.88
597.564	96.88
597.774	106.88
597.983	85.88
598.192	103.88
598.401	100.88
598.61	96.88
598.819	106.88
599.028	109.88
599.237	90.88
599.446	109.88
599.655	90.88
599.864	108.88
600.073	104.88
600.282	109.88
600.491	96.88
600.7	98.88
600.909	97.88
601.118	98.88
601.327	91.88
601.536	109.88
601.745	93.88
601.953	95.88
602.162	95.88
602.371	101.88
602.58	106.88
602.789	97.88
602.997	106.88
603.206	121.88
603.415	102.88
603.623	88.88
603.832	97.88
604.041	105.88
604.249	108.88
604.458	104.88
604.666	88.88
604.875	99.88
605.084	99.88
605.292	105.88
605.501	104.88
605.709	92.88
605.918	107.88
606.126	114.88
606.334	95.88
606.543	100.88
606.751	104.88
606.96	94.88
607.168	110.88
607.376	100.88
607.585	112.88
607.793	102.88
608.001	84.88
608.21	105.88
608.418	112.88
608.626	97.88
608.834	103.88
609.043	97.88
609.251	97.88
609.459	103.88
609.667	92.88
609.875	102.88
610.083	105.88
610.291	93.88
610.499	108.88
610.707	89.88
610.916	103.88
611.124	113.88
611.332	114.88
611.54	120.88
611.748	128.88
611.955	113.88
612.163	114.88
612.371	103.88
612.579	101.88
612.787	113.88
612.995	107.88
613.203	112.88
613.411	89.88
613.618	96.88
613.826	96.88
614.034	106.88
614.242	97.88
614.449	101.88
614.657	100.88
614.865	103.88
615.072	95.88
615.28	87.88
615.488	112.88
615.695	102.88
615.903	100.88
616.111	112.88
616.318	104.88
616.526	100.88
616.733	78.88
616.941	100.88
617.148	99.88
617.356	102.88
617.563	101.88
617.771	90.88
617.978	88.88
618.185	99.88
618.393	106.88
618.6	101.88
618.807	83.88
619.015	105.88
619.222	97.88
619.429	93.88
619.637	93.88
619.844	96.88
620.051	109.88
620.258	97.88
620.466	88.88
620.673	100.88
620.88	108.88
621.087	102.88
621.294	86.88
621.501	100.88
621.708	99.88
621.915	103.88
622.122	93.88
622.329	88.88
622.536	102.88
622.743	90.88
622.95	98.88
623.157	101.88
623.364	102.88
623.571	89.88
623.778	102.88
623.985	99.88
624.192	91.88
624.399	90.88
624.606	99.88
624.812	103.88
625.019	88.88
625.226	96.88
625.433	103.88
625.639	105.88
625.846	89.88
626.053	109.88
626.259	91.88
626.466	87.88
626.673	105.88
626.879	94.88
627.086	102.88
627.293	90.88
627.499	93.88
627.706	85.88
627.912	97.88
628.119	96.88
628.325	88.88
628.532	97.88
628.738	97.88
628.945	98.88
629.151	98.88
629.357	97.88
629.564	75.88
629.77	100.88
629.976	106.88
630.183	89.88
630.389	86.88
630.595	96.88
630.802	101.88
631.008	98.88
631.214	101.88
631.42	87.88
631.627	90.88
631.833	94.88
632.039	92.88
632.245	93.88
632.451	90.88
632.657	86.88
632.863	88.88
633.069	99.88
633.275	109.88
633.481	96.88
633.688	89.88
633.893	88.88
634.099	101.88
634.305	89.88
634.511	99.88
634.717	84.88
634.923	82.88
635.129	87.88
635.335	102.88
635.541	88.88
635.747	89.88
635.952	97.88
636.158	88.88
636.364	96.88
636.57	77.88
636.775	98.88
636.981	99.88
637.187	91.88
637.392	95.88
637.598	90.88
637.804	89.88
638.009	78.88
638.215	104.88
638.421	83.88
638.626	86.88
638.832	98.88
639.037	81.88
639.243	90.88
639.448	82.88
639.654	107.88
639.859	98.88
640.065	82.88
640.27	92.88
640.475	97.88
640.681	91.88
640.886	101.88
641.091	73.88
641.297	98.88
641.502	94.88
641.707	87.88
641.913	99.88
642.118	85.88
642.323	86.88
642.528	94.88
642.733	100.88
642.939	91.88
643.144	98.88
643.349	90.88
643.554	91.88
643.759	97.88
643.964	83.88
644.169	102.88
644.374	81.88
644.579	93.88
644.784	81.88
644.989	86.88
645.194	84.88
645.399	97.88
645.604	92.88
645.809	87.88
646.014	90.88
646.219	92.88
646.423	76.88
646.628	104.88
646.833	85.88
647.038	89.88
647.243	98.88
647.447	80.88
647.652	89.88
647.857	89.88
648.062	92.88
648.266	89.88
648.471	86.88
648.676	99.88
648.88	78.88
649.085	96.88
649.289	91.88
649.494	79.88
649.698	84.88
649.903	88.88
650.107	92.88
650.312	101.88
650.516	93.88
650.721	98.88
650.925	99.88
651.13	85.88
651.334	92.88
651.539	94.88
651.743	101.88
651.947	82.88
652.152	90.88
652.356	95.88
652.56	84.88
652.764	81.88
652.969	93.88
653.173	91.88
653.377	85.88
653.581	94.88
653.785	86.88
653.99	80.88
654.194	84.88
654.398	77.88
654.602	79.88
654.806	86.88
655.01	103.88
655.214	79.88
655.418	95.88
655.622	86.88
655.826	96.88
656.03	84.88
656.234	98.88
656.438	89.88
656.642	89.88
656.846	76.88
657.049	83.88
657.253	100.88
657.457	95.88
657.661	93.88
657.865	73.88
658.068	74.88
658.272	91.88
658.476	86.88
658.68	93.88
658.883	71.88
659.087	90.88
659.291	83.88
659.494	92.88
659.698	72.88
659.901	91.88
660.105	72.88
660.309	75.88
660.512	97.88
660.716	82.88
660.919	81.88
661.123	83.88
661.326	84.88
661.53	91.88
661.733	76.88
661.936	84.88
662.14	77.88
662.343	82.88
662.546	92.88
662.75	92.88
662.953	74.88
663.156	82.88
663.36	90.88
663.563	73.88
663.766	83.88
663.969	84.88
664.173	83.88
664.376	83.88
664.579	76.88
664.782	75.88
664.985	76.88
665.188	80.88
665.391	84.88
665.594	76.88
665.797	78.88
666	86.88
666.203	75.88
666.406	93.88
666.609	70.88
666.812	71.88
667.015	77.88
667.218	77.88
667.421	81.88
667.624	85.88
667.827	82.88
668.03	68.88
668.232	83.88
668.435	85.88
668.638	79.88
668.841	88.88
669.043	82.88
669.246	77.88
669.449	73.88
669.651	84.88
669.854	80.88
670.057	77.88
670.259	72.88
670.462	82.88
670.665	72.88
670.867	78.88
671.07	92.88
671.272	86.88
671.475	78.88
671.677	78.88
671.88	73.88
672.082	86.88
672.284	84.88
672.487	79.88
672.689	77.88
672.892	58.88
