Data from 1968.PennyLincolnUp.Lamp.En5.5.200Scan.071719.P1._HRD10591_14-51-28-969.txt Node
Date: Thu Jul 18 14:51:28 EDT 2019
User: cochatt
Spectrometer: HR+D1059
Trigger mode: 1
Integration Time (sec): 1.000000E-1
Scans to average: 1
Electric dark correction enabled: true
Nonlinearity correction enabled: false
Boxcar width: 0
XAxis mode: Wavelengths
Number of Pixels in Spectrum: 2048
>>>>>Begin Spectral Data<<<<<
223.165	-13.12
223.4	-13.12
223.635	-13.12
223.869	-30.12
224.104	-27.12
224.338	-18.12
224.573	-13.12
224.808	-17.12
225.042	5.88
225.277	-5.12
225.511	0.88
225.746	7.88
225.98	3.88
226.215	16.88
226.449	8.88
226.683	21.88
226.918	28.88
227.152	28.88
227.387	22.88
227.621	33.88
227.856	42.88
228.09	47.88
228.324	51.88
228.559	43.88
228.793	60.88
229.027	70.88
229.262	76.88
229.496	62.88
229.73	75.88
229.964	68.88
230.199	62.88
230.433	68.88
230.667	71.88
230.901	68.88
231.136	86.88
231.37	63.88
231.604	80.88
231.838	91.88
232.072	84.88
232.306	83.88
232.541	88.88
232.775	95.88
233.009	92.88
233.243	82.88
233.477	81.88
233.711	90.88
233.945	76.88
234.179	81.88
234.413	80.88
234.647	70.88
234.881	74.88
235.115	85.88
235.349	86.88
235.583	98.88
235.817	78.88
236.051	91.88
236.285	70.88
236.519	83.88
236.753	68.88
236.987	91.88
237.221	84.88
237.455	86.88
237.689	99.88
237.922	85.88
238.156	76.88
238.39	82.88
238.624	88.88
238.858	91.88
239.091	73.88
239.325	81.88
239.559	87.88
239.793	86.88
240.027	71.88
240.26	79.88
240.494	83.88
240.728	73.88
240.961	86.88
241.195	69.88
241.429	83.88
241.662	77.88
241.896	75.88
242.13	67.88
242.363	92.88
242.597	97.88
242.83	84.88
243.064	76.88
243.298	87.88
243.531	85.88
243.765	75.88
243.998	79.88
244.232	78.88
244.465	89.88
244.699	83.88
244.932	95.88
245.166	104.88
245.399	83.88
245.633	92.88
245.866	83.88
246.099	76.88
246.333	95.88
246.566	88.88
246.8	83.88
247.033	103.88
247.266	80.88
247.5	89.88
247.733	82.88
247.966	90.88
248.2	96.88
248.433	91.88
248.666	88.88
248.899	80.88
249.133	90.88
249.366	89.88
249.599	99.88
249.832	91.88
250.066	85.88
250.299	73.88
250.532	76.88
250.765	87.88
250.998	90.88
251.231	90.88
251.465	67.88
251.698	90.88
251.931	88.88
252.164	92.88
252.397	92.88
252.63	77.88
252.863	78.88
253.096	92.88
253.329	87.88
253.562	89.88
253.795	88.88
254.028	91.88
254.261	90.88
254.494	93.88
254.727	89.88
254.96	94.88
255.193	104.88
255.426	102.88
255.659	85.88
255.892	88.88
256.124	84.88
256.357	88.88
256.59	80.88
256.823	83.88
257.056	84.88
257.289	94.88
257.521	93.88
257.754	91.88
257.987	90.88
258.22	93.88
258.452	96.88
258.685	83.88
258.918	82.88
259.151	91.88
259.383	89.88
259.616	97.88
259.849	108.88
260.081	79.88
260.314	92.88
260.547	85.88
260.779	108.88
261.012	84.88
261.244	85.88
261.477	108.88
261.71	94.88
261.942	77.88
262.175	86.88
262.407	105.88
262.64	93.88
262.872	100.88
263.105	90.88
263.337	88.88
263.57	106.88
263.802	100.88
264.035	83.88
264.267	86.88
264.499	98.88
264.732	98.88
264.964	95.88
265.197	83.88
265.429	82.88
265.661	94.88
265.894	95.88
266.126	87.88
266.358	108.88
266.591	97.88
266.823	91.88
267.055	100.88
267.287	94.88
267.52	90.88
267.752	90.88
267.984	83.88
268.216	93.88
268.448	95.88
268.681	97.88
268.913	87.88
269.145	94.88
269.377	80.88
269.609	90.88
269.841	103.88
270.073	98.88
270.306	101.88
270.538	98.88
270.77	92.88
271.002	94.88
271.234	98.88
271.466	95.88
271.698	79.88
271.93	86.88
272.162	94.88
272.394	92.88
272.626	76.88
272.858	101.88
273.09	92.88
273.322	93.88
273.553	92.88
273.785	93.88
274.017	91.88
274.249	100.88
274.481	99.88
274.713	98.88
274.945	90.88
275.176	86.88
275.408	104.88
275.64	117.88
275.872	90.88
276.104	105.88
276.335	101.88
276.567	86.88
276.799	93.88
277.031	110.88
277.262	94.88
277.494	111.88
277.726	90.88
277.957	102.88
278.189	87.88
278.421	110.88
278.652	99.88
278.884	107.88
279.115	95.88
279.347	86.88
279.579	116.88
279.81	103.88
280.042	102.88
280.273	106.88
280.505	93.88
280.736	92.88
280.968	95.88
281.199	105.88
281.431	99.88
281.662	106.88
281.894	88.88
282.125	93.88
282.356	95.88
282.588	110.88
282.819	108.88
283.051	116.88
283.282	102.88
283.513	107.88
283.745	108.88
283.976	99.88
284.207	112.88
284.439	95.88
284.67	100.88
284.901	107.88
285.132	97.88
285.364	102.88
285.595	116.88
285.826	98.88
286.057	102.88
286.288	100.88
286.52	90.88
286.751	97.88
286.982	100.88
287.213	110.88
287.444	108.88
287.675	111.88
287.906	112.88
288.138	105.88
288.369	100.88
288.6	101.88
288.831	100.88
289.062	100.88
289.293	100.88
289.524	97.88
289.755	104.88
289.986	85.88
290.217	92.88
290.448	87.88
290.679	96.88
290.91	99.88
291.141	100.88
291.371	110.88
291.602	97.88
291.833	95.88
292.064	112.88
292.295	99.88
292.526	108.88
292.757	94.88
292.987	96.88
293.218	100.88
293.449	96.88
293.68	113.88
293.91	106.88
294.141	105.88
294.372	96.88
294.603	107.88
294.833	121.88
295.064	101.88
295.295	114.88
295.525	93.88
295.756	109.88
295.987	92.88
296.217	101.88
296.448	118.88
296.679	110.88
296.909	106.88
297.14	114.88
297.37	86.88
297.601	96.88
297.831	102.88
298.062	124.88
298.292	102.88
298.523	105.88
298.753	100.88
298.984	98.88
299.214	115.88
299.445	94.88
299.675	104.88
299.905	99.88
300.136	104.88
300.366	117.88
300.597	114.88
300.827	109.88
301.057	104.88
301.288	92.88
301.518	103.88
301.748	114.88
301.979	116.88
302.209	95.88
302.439	118.88
302.669	113.88
302.9	107.88
303.13	98.88
303.36	128.88
303.59	105.88
303.82	125.88
304.051	111.88
304.281	102.88
304.511	109.88
304.741	116.88
304.971	112.88
305.201	96.88
305.431	109.88
305.661	109.88
305.891	109.88
306.121	113.88
306.352	100.88
306.582	104.88
306.812	101.88
307.042	102.88
307.272	111.88
307.502	116.88
307.731	104.88
307.961	114.88
308.191	107.88
308.421	107.88
308.651	112.88
308.881	112.88
309.111	111.88
309.341	107.88
309.571	100.88
309.8	113.88
310.03	108.88
310.26	120.88
310.49	103.88
310.72	102.88
310.949	100.88
311.179	96.88
311.409	110.88
311.639	111.88
311.868	110.88
312.098	92.88
312.328	104.88
312.557	119.88
312.787	106.88
313.017	102.88
313.246	109.88
313.476	101.88
313.706	93.88
313.935	98.88
314.165	121.88
314.394	100.88
314.624	110.88
314.853	107.88
315.083	114.88
315.312	125.88
315.542	103.88
315.771	109.88
316.001	120.88
316.23	109.88
316.46	112.88
316.689	116.88
316.919	108.88
317.148	105.88
317.377	121.88
317.607	114.88
317.836	96.88
318.065	108.88
318.295	123.88
318.524	116.88
318.753	100.88
318.983	98.88
319.212	105.88
319.441	119.88
319.67	111.88
319.9	119.88
320.129	122.88
320.358	110.88
320.587	116.88
320.816	107.88
321.046	110.88
321.275	124.88
321.504	108.88
321.733	114.88
321.962	103.88
322.191	120.88
322.42	105.88
322.649	100.88
322.878	122.88
323.108	107.88
323.337	109.88
323.566	110.88
323.795	114.88
324.024	124.88
324.253	124.88
324.482	137.88
324.71	152.88
324.939	179.88
325.168	179.88
325.397	137.88
325.626	130.88
325.855	112.88
326.084	111.88
326.313	115.88
326.542	127.88
326.77	125.88
326.999	117.88
327.228	134.88
327.457	165.88
327.686	152.88
327.914	130.88
328.143	142.88
328.372	125.88
328.6	122.88
328.829	124.88
329.058	127.88
329.287	115.88
329.515	121.88
329.744	110.88
329.972	122.88
330.201	108.88
330.43	119.88
330.658	130.88
330.887	115.88
331.115	117.88
331.344	104.88
331.572	107.88
331.801	122.88
332.03	112.88
332.258	126.88
332.486	130.88
332.715	106.88
332.943	119.88
333.172	109.88
333.4	122.88
333.629	126.88
333.857	130.88
334.085	116.88
334.314	127.88
334.542	119.88
334.771	124.88
334.999	123.88
335.227	125.88
335.455	117.88
335.684	104.88
335.912	120.88
336.14	117.88
336.369	104.88
336.597	114.88
336.825	114.88
337.053	107.88
337.281	116.88
337.51	117.88
337.738	124.88
337.966	101.88
338.194	122.88
338.422	121.88
338.65	109.88
338.878	123.88
339.106	121.88
339.334	119.88
339.562	117.88
339.79	116.88
340.018	117.88
340.246	105.88
340.474	117.88
340.702	101.88
340.93	104.88
341.158	100.88
341.386	111.88
341.614	119.88
341.842	111.88
342.07	118.88
342.298	116.88
342.526	122.88
342.754	115.88
342.981	107.88
343.209	130.88
343.437	126.88
343.665	113.88
343.893	108.88
344.12	126.88
344.348	120.88
344.576	118.88
344.804	110.88
345.031	124.88
345.259	106.88
345.487	114.88
345.714	104.88
345.942	106.88
346.17	111.88
346.397	99.88
346.625	122.88
346.853	111.88
347.08	103.88
347.308	99.88
347.535	99.88
347.763	105.88
347.99	114.88
348.218	116.88
348.445	107.88
348.673	120.88
348.9	123.88
349.128	127.88
349.355	107.88
349.583	123.88
349.81	126.88
350.037	123.88
350.265	105.88
350.492	118.88
350.72	120.88
350.947	107.88
351.174	130.88
351.402	104.88
351.629	110.88
351.856	110.88
352.083	103.88
352.311	121.88
352.538	103.88
352.765	95.88
352.992	117.88
353.22	110.88
353.447	111.88
353.674	122.88
353.901	120.88
354.128	112.88
354.355	116.88
354.583	110.88
354.81	117.88
355.037	104.88
355.264	103.88
355.491	123.88
355.718	107.88
355.945	100.88
356.172	99.88
356.399	128.88
356.626	119.88
356.853	99.88
357.08	108.88
357.307	114.88
357.534	116.88
357.761	118.88
357.988	118.88
358.215	116.88
358.441	122.88
358.668	114.88
358.895	109.88
359.122	108.88
359.349	103.88
359.576	110.88
359.802	114.88
360.029	96.88
360.256	111.88
360.483	108.88
360.709	119.88
360.936	103.88
361.163	113.88
361.39	106.88
361.616	101.88
361.843	121.88
362.07	115.88
362.296	124.88
362.523	120.88
362.749	116.88
362.976	114.88
363.203	92.88
363.429	109.88
363.656	127.88
363.882	111.88
364.109	119.88
364.335	112.88
364.562	105.88
364.788	102.88
365.015	102.88
365.241	118.88
365.468	111.88
365.694	110.88
365.92	115.88
366.147	114.88
366.373	105.88
366.599	102.88
366.826	111.88
367.052	114.88
367.278	112.88
367.505	119.88
367.731	119.88
367.957	91.88
368.184	110.88
368.41	98.88
368.636	128.88
368.862	122.88
369.089	101.88
369.315	102.88
369.541	98.88
369.767	107.88
369.993	102.88
370.219	119.88
370.445	114.88
370.672	113.88
370.898	108.88
371.124	110.88
371.35	110.88
371.576	119.88
371.802	115.88
372.028	118.88
372.254	94.88
372.48	114.88
372.706	123.88
372.932	114.88
373.158	115.88
373.384	98.88
373.61	112.88
373.835	121.88
374.061	112.88
374.287	95.88
374.513	99.88
374.739	117.88
374.965	114.88
375.191	118.88
375.416	126.88
375.642	107.88
375.868	122.88
376.094	101.88
376.319	110.88
376.545	103.88
376.771	104.88
376.997	105.88
377.222	114.88
377.448	100.88
377.674	111.88
377.899	112.88
378.125	108.88
378.35	120.88
378.576	118.88
378.802	112.88
379.027	111.88
379.253	122.88
379.478	124.88
379.704	113.88
379.929	124.88
380.155	121.88
380.38	123.88
380.606	115.88
380.831	115.88
381.057	103.88
381.282	118.88
381.507	119.88
381.733	110.88
381.958	94.88
382.184	111.88
382.409	111.88
382.634	127.88
382.86	114.88
383.085	121.88
383.31	116.88
383.535	106.88
383.761	111.88
383.986	123.88
384.211	104.88
384.436	115.88
384.662	111.88
384.887	113.88
385.112	128.88
385.337	117.88
385.562	111.88
385.787	122.88
386.013	136.88
386.238	128.88
386.463	129.88
386.688	127.88
386.913	104.88
387.138	122.88
387.363	107.88
387.588	128.88
387.813	125.88
388.038	126.88
388.263	118.88
388.488	125.88
388.713	117.88
388.938	111.88
389.163	100.88
389.387	115.88
389.612	122.88
389.837	119.88
390.062	106.88
390.287	130.88
390.512	109.88
390.736	122.88
390.961	110.88
391.186	142.88
391.411	144.88
391.636	120.88
391.86	115.88
392.085	112.88
392.31	128.88
392.534	130.88
392.759	105.88
392.984	128.88
393.208	124.88
393.433	123.88
393.658	109.88
393.882	107.88
394.107	106.88
394.331	112.88
394.556	124.88
394.78	123.88
395.005	121.88
395.229	119.88
395.454	123.88
395.678	124.88
395.903	121.88
396.127	128.88
396.352	129.88
396.576	138.88
396.801	115.88
397.025	111.88
397.249	126.88
397.474	122.88
397.698	120.88
397.922	121.88
398.147	122.88
398.371	123.88
398.595	127.88
398.82	139.88
399.044	133.88
399.268	154.88
399.492	151.88
399.717	144.88
399.941	156.88
400.165	136.88
400.389	129.88
400.613	126.88
400.837	142.88
401.062	122.88
401.286	128.88
401.51	139.88
401.734	116.88
401.958	124.88
402.182	133.88
402.406	131.88
402.63	136.88
402.854	124.88
403.078	126.88
403.302	122.88
403.526	135.88
403.75	134.88
403.974	136.88
404.198	130.88
404.422	134.88
404.645	127.88
404.869	128.88
405.093	136.88
405.317	144.88
405.541	127.88
405.765	146.88
405.988	136.88
406.212	134.88
406.436	138.88
406.66	157.88
406.883	133.88
407.107	137.88
407.331	144.88
407.555	144.88
407.778	135.88
408.002	134.88
408.226	133.88
408.449	149.88
408.673	155.88
408.896	128.88
409.12	148.88
409.344	150.88
409.567	145.88
409.791	120.88
410.014	140.88
410.238	131.88
410.461	134.88
410.685	140.88
410.908	129.88
411.132	136.88
411.355	127.88
411.578	134.88
411.802	132.88
412.025	134.88
412.249	139.88
412.472	127.88
412.695	142.88
412.919	157.88
413.142	138.88
413.365	136.88
413.589	139.88
413.812	140.88
414.035	138.88
414.258	112.88
414.482	119.88
414.705	127.88
414.928	129.88
415.151	142.88
415.374	132.88
415.597	127.88
415.821	125.88
416.044	159.88
416.267	131.88
416.49	128.88
416.713	137.88
416.936	134.88
417.159	114.88
417.382	139.88
417.605	132.88
417.828	127.88
418.051	124.88
418.274	131.88
418.497	139.88
418.72	142.88
418.943	130.88
419.166	127.88
419.389	128.88
419.611	132.88
419.834	130.88
420.057	138.88
420.28	140.88
420.503	137.88
420.726	135.88
420.948	136.88
421.171	131.88
421.394	119.88
421.617	116.88
421.839	131.88
422.062	136.88
422.285	137.88
422.507	147.88
422.73	129.88
422.953	139.88
423.175	141.88
423.398	126.88
423.621	130.88
423.843	150.88
424.066	140.88
424.288	132.88
424.511	141.88
424.733	135.88
424.956	149.88
425.178	143.88
425.401	138.88
425.623	133.88
425.846	122.88
426.068	135.88
426.291	137.88
426.513	142.88
426.735	131.88
426.958	142.88
427.18	147.88
427.402	163.88
427.625	159.88
427.847	129.88
428.069	130.88
428.292	135.88
428.514	112.88
428.736	112.88
428.958	132.88
429.181	132.88
429.403	122.88
429.625	132.88
429.847	131.88
430.069	132.88
430.292	136.88
430.514	119.88
430.736	110.88
430.958	132.88
431.18	137.88
431.402	118.88
431.624	130.88
431.846	106.88
432.068	114.88
432.29	128.88
432.512	140.88
432.734	122.88
432.956	117.88
433.178	130.88
433.4	119.88
433.622	134.88
433.844	129.88
434.066	123.88
434.287	131.88
434.509	114.88
434.731	131.88
434.953	133.88
435.175	136.88
435.397	135.88
435.618	130.88
435.84	140.88
436.062	153.88
436.284	143.88
436.505	121.88
436.727	125.88
436.949	129.88
437.17	118.88
437.392	127.88
437.614	131.88
437.835	132.88
438.057	119.88
438.278	138.88
438.5	132.88
438.721	131.88
438.943	147.88
439.165	124.88
439.386	147.88
439.608	139.88
439.829	140.88
440.05	137.88
440.272	155.88
440.493	141.88
440.715	128.88
440.936	130.88
441.158	126.88
441.379	138.88
441.6	150.88
441.822	154.88
442.043	139.88
442.264	145.88
442.486	150.88
442.707	135.88
442.928	134.88
443.149	132.88
443.371	142.88
443.592	138.88
443.813	142.88
444.034	146.88
444.255	156.88
444.476	143.88
444.698	133.88
444.919	127.88
445.14	242.88
445.361	200.88
445.582	143.88
445.803	145.88
446.024	130.88
446.245	153.88
446.466	130.88
446.687	135.88
446.908	128.88
447.129	113.88
447.35	110.88
447.571	115.88
447.792	119.88
448.013	140.88
448.234	136.88
448.455	132.88
448.675	130.88
448.896	138.88
449.117	139.88
449.338	138.88
449.559	138.88
449.779	163.88
450	130.88
450.221	130.88
450.442	132.88
450.662	112.88
450.883	125.88
451.104	128.88
451.324	135.88
451.545	124.88
451.766	123.88
451.986	124.88
452.207	131.88
452.428	131.88
452.648	129.88
452.869	127.88
453.089	119.88
453.31	115.88
453.53	121.88
453.751	121.88
453.971	109.88
454.192	117.88
454.412	110.88
454.633	127.88
454.853	130.88
455.073	124.88
455.294	124.88
455.514	123.88
455.734	125.88
455.955	119.88
456.175	139.88
456.395	131.88
456.616	123.88
456.836	124.88
457.056	119.88
457.276	105.88
457.497	113.88
457.717	120.88
457.937	121.88
458.157	113.88
458.377	121.88
458.598	119.88
458.818	124.88
459.038	130.88
459.258	138.88
459.478	128.88
459.698	131.88
459.918	149.88
460.138	128.88
460.358	128.88
460.578	142.88
460.798	148.88
461.018	145.88
461.238	123.88
461.458	123.88
461.678	141.88
461.898	132.88
462.118	122.88
462.338	139.88
462.558	125.88
462.777	109.88
462.997	126.88
463.217	132.88
463.437	140.88
463.657	133.88
463.876	125.88
464.096	139.88
464.316	151.88
464.536	134.88
464.755	136.88
464.975	146.88
465.195	118.88
465.414	134.88
465.634	142.88
465.854	145.88
466.073	117.88
466.293	133.88
466.512	112.88
466.732	118.88
466.951	124.88
467.171	135.88
467.391	110.88
467.61	117.88
467.829	116.88
468.049	132.88
468.268	136.88
468.488	124.88
468.707	122.88
468.927	134.88
469.146	117.88
469.365	118.88
469.585	123.88
469.804	119.88
470.023	117.88
470.243	123.88
470.462	118.88
470.681	140.88
470.901	136.88
471.12	134.88
471.339	126.88
471.558	123.88
471.777	128.88
471.997	130.88
472.216	117.88
472.435	118.88
472.654	122.88
472.873	131.88
473.092	126.88
473.311	129.88
473.53	122.88
473.749	127.88
473.968	118.88
474.187	132.88
474.406	126.88
474.625	134.88
474.844	134.88
475.063	132.88
475.282	127.88
475.501	134.88
475.72	128.88
475.939	115.88
476.158	120.88
476.377	109.88
476.596	127.88
476.814	119.88
477.033	126.88
477.252	138.88
477.471	130.88
477.69	135.88
477.908	118.88
478.127	121.88
478.346	134.88
478.564	128.88
478.783	133.88
479.002	123.88
479.22	137.88
479.439	133.88
479.658	137.88
479.876	125.88
480.095	132.88
480.313	145.88
480.532	141.88
480.751	150.88
480.969	125.88
481.188	141.88
481.406	147.88
481.624	112.88
481.843	132.88
482.061	140.88
482.28	130.88
482.498	136.88
482.717	138.88
482.935	134.88
483.153	146.88
483.372	118.88
483.59	124.88
483.808	123.88
484.027	123.88
484.245	134.88
484.463	131.88
484.681	141.88
484.9	137.88
485.118	138.88
485.336	140.88
485.554	137.88
485.772	138.88
485.99	132.88
486.209	142.88
486.427	134.88
486.645	153.88
486.863	128.88
487.081	144.88
487.299	150.88
487.517	156.88
487.735	139.88
487.953	142.88
488.171	129.88
488.389	140.88
488.607	122.88
488.825	128.88
489.043	125.88
489.261	127.88
489.479	144.88
489.696	132.88
489.914	142.88
490.132	134.88
490.35	149.88
490.568	135.88
490.786	144.88
491.003	153.88
491.221	156.88
491.439	166.88
491.657	130.88
491.874	156.88
492.092	136.88
492.31	153.88
492.527	148.88
492.745	155.88
492.963	150.88
493.18	143.88
493.398	155.88
493.615	143.88
493.833	162.88
494.05	143.88
494.268	148.88
494.485	162.88
494.703	135.88
494.92	146.88
495.138	157.88
495.355	138.88
495.573	141.88
495.79	157.88
496.008	145.88
496.225	138.88
496.442	142.88
496.66	142.88
496.877	138.88
497.094	137.88
497.312	152.88
497.529	136.88
497.746	139.88
497.963	159.88
498.181	151.88
498.398	155.88
498.615	149.88
498.832	163.88
499.049	163.88
499.267	166.88
499.484	168.88
499.701	207.88
499.918	200.88
500.135	200.88
500.352	227.88
500.569	224.88
500.786	205.88
501.003	192.88
501.22	202.88
501.437	196.88
501.654	168.88
501.871	165.88
502.088	155.88
502.305	175.88
502.522	172.88
502.739	170.88
502.956	150.88
503.172	157.88
503.389	139.88
503.606	156.88
503.823	158.88
504.04	159.88
504.256	151.88
504.473	154.88
504.69	156.88
504.907	141.88
505.123	143.88
505.34	151.88
505.557	142.88
505.773	154.88
505.99	135.88
506.207	143.88
506.423	142.88
506.64	136.88
506.856	136.88
507.073	141.88
507.289	154.88
507.506	143.88
507.722	131.88
507.939	139.88
508.155	142.88
508.372	123.88
508.588	128.88
508.805	126.88
509.021	137.88
509.238	135.88
509.454	138.88
509.67	127.88
509.887	126.88
510.103	131.88
510.319	133.88
510.536	139.88
510.752	173.88
510.968	164.88
511.184	138.88
511.401	136.88
511.617	136.88
511.833	143.88
512.049	143.88
512.265	127.88
512.481	130.88
512.698	130.88
512.914	131.88
513.13	136.88
513.346	144.88
513.562	135.88
513.778	140.88
513.994	128.88
514.21	118.88
514.426	121.88
514.642	137.88
514.858	138.88
515.074	138.88
515.29	141.88
515.506	180.88
515.721	158.88
515.937	138.88
516.153	145.88
516.369	150.88
516.585	133.88
516.801	148.88
517.016	142.88
517.232	132.88
517.448	150.88
517.664	135.88
517.879	136.88
518.095	147.88
518.311	142.88
518.527	129.88
518.742	139.88
518.958	109.88
519.173	137.88
519.389	115.88
519.605	146.88
519.82	126.88
520.036	126.88
520.251	124.88
520.467	131.88
520.682	138.88
520.898	122.88
521.113	128.88
521.329	137.88
521.544	142.88
521.76	145.88
521.975	210.88
522.19	197.88
522.406	150.88
522.621	134.88
522.836	129.88
523.052	123.88
523.267	131.88
523.482	119.88
523.698	126.88
523.913	129.88
524.128	134.88
524.343	129.88
524.559	130.88
524.774	138.88
524.989	133.88
525.204	122.88
525.419	132.88
525.634	127.88
525.849	122.88
526.064	122.88
526.28	125.88
526.495	127.88
526.71	115.88
526.925	118.88
527.14	106.88
527.355	116.88
527.57	123.88
527.785	121.88
527.999	120.88
528.214	115.88
528.429	132.88
528.644	130.88
528.859	122.88
529.074	131.88
529.289	126.88
529.503	143.88
529.718	148.88
529.933	125.88
530.148	116.88
530.363	122.88
530.577	125.88
530.792	133.88
531.007	141.88
531.221	127.88
531.436	118.88
531.651	122.88
531.865	112.88
532.08	116.88
532.295	120.88
532.509	123.88
532.724	133.88
532.938	121.88
533.153	122.88
533.367	118.88
533.582	131.88
533.796	126.88
534.011	132.88
534.225	120.88
534.44	124.88
534.654	126.88
534.868	125.88
535.083	116.88
535.297	117.88
535.511	133.88
535.726	127.88
535.94	127.88
536.154	123.88
536.369	132.88
536.583	126.88
536.797	124.88
537.011	134.88
537.225	117.88
537.44	121.88
537.654	128.88
537.868	129.88
538.082	122.88
538.296	108.88
538.51	135.88
538.724	125.88
538.938	132.88
539.153	130.88
539.367	141.88
539.581	115.88
539.795	127.88
540.009	128.88
540.222	119.88
540.436	126.88
540.65	128.88
540.864	117.88
541.078	135.88
541.292	138.88
541.506	138.88
541.72	125.88
541.934	126.88
542.147	147.88
542.361	133.88
542.575	136.88
542.789	134.88
543.002	126.88
543.216	128.88
543.43	135.88
543.644	140.88
543.857	146.88
544.071	138.88
544.285	137.88
544.498	138.88
544.712	139.88
544.925	152.88
545.139	139.88
545.352	127.88
545.566	149.88
545.779	130.88
545.993	127.88
546.206	162.88
546.42	169.88
546.633	142.88
546.847	128.88
547.06	128.88
547.274	133.88
547.487	128.88
547.7	114.88
547.914	126.88
548.127	130.88
548.34	122.88
548.554	134.88
548.767	136.88
548.98	123.88
549.193	140.88
549.407	130.88
549.62	126.88
549.833	127.88
550.046	130.88
550.259	126.88
550.473	124.88
550.686	132.88
550.899	126.88
551.112	118.88
551.325	124.88
551.538	122.88
551.751	128.88
551.964	132.88
552.177	109.88
552.39	116.88
552.603	123.88
552.816	131.88
553.029	123.88
553.242	126.88
553.455	121.88
553.667	164.88
553.88	134.88
554.093	130.88
554.306	131.88
554.519	124.88
554.732	126.88
554.944	117.88
555.157	136.88
555.37	119.88
555.583	114.88
555.795	125.88
556.008	127.88
556.221	126.88
556.433	118.88
556.646	119.88
556.859	117.88
557.071	115.88
557.284	133.88
557.496	120.88
557.709	130.88
557.921	119.88
558.134	112.88
558.346	124.88
558.559	126.88
558.771	111.88
558.984	125.88
559.196	113.88
559.409	111.88
559.621	124.88
559.833	108.88
560.046	121.88
560.258	114.88
560.47	126.88
560.683	134.88
560.895	122.88
561.107	103.88
561.32	113.88
561.532	113.88
561.744	115.88
561.956	120.88
562.168	112.88
562.381	108.88
562.593	135.88
562.805	129.88
563.017	120.88
563.229	120.88
563.441	112.88
563.653	102.88
563.865	118.88
564.077	114.88
564.289	121.88
564.501	123.88
564.713	131.88
564.925	124.88
565.137	133.88
565.349	128.88
565.561	114.88
565.773	128.88
565.985	134.88
566.197	124.88
566.408	138.88
566.62	136.88
566.832	118.88
567.044	128.88
567.255	138.88
567.467	131.88
567.679	148.88
567.891	140.88
568.102	143.88
568.314	143.88
568.526	140.88
568.737	132.88
568.949	138.88
569.161	127.88
569.372	114.88
569.584	136.88
569.795	114.88
570.007	117.88
570.218	121.88
570.43	115.88
570.641	113.88
570.853	124.88
571.064	122.88
571.276	115.88
571.487	103.88
571.698	118.88
571.91	120.88
572.121	116.88
572.333	115.88
572.544	117.88
572.755	118.88
572.966	116.88
573.178	111.88
573.389	110.88
573.6	109.88
573.811	110.88
574.023	105.88
574.234	119.88
574.445	114.88
574.656	120.88
574.867	103.88
575.078	99.88
575.289	110.88
575.501	105.88
575.712	118.88
575.923	114.88
576.134	110.88
576.345	122.88
576.556	96.88
576.767	102.88
576.978	115.88
577.188	121.88
577.399	108.88
577.61	110.88
577.821	109.88
578.032	115.88
578.243	108.88
578.454	132.88
578.665	109.88
578.875	105.88
579.086	100.88
579.297	108.88
579.508	111.88
579.718	120.88
579.929	98.88
580.14	102.88
580.35	95.88
580.561	122.88
580.772	102.88
580.982	118.88
581.193	104.88
581.403	116.88
581.614	109.88
581.825	96.88
582.035	105.88
582.246	110.88
582.456	87.88
582.667	105.88
582.877	92.88
583.087	123.88
583.298	98.88
583.508	118.88
583.719	110.88
583.929	112.88
584.139	108.88
584.35	93.88
584.56	107.88
584.77	94.88
584.981	105.88
585.191	118.88
585.401	112.88
585.611	104.88
585.821	119.88
586.032	124.88
586.242	116.88
586.452	107.88
586.662	100.88
586.872	107.88
587.082	119.88
587.292	112.88
587.502	107.88
587.713	120.88
587.923	100.88
588.133	102.88
588.343	81.88
588.553	106.88
588.762	103.88
588.972	118.88
589.182	96.88
589.392	102.88
589.602	119.88
589.812	104.88
590.022	108.88
590.232	91.88
590.441	118.88
590.651	101.88
590.861	102.88
591.071	122.88
591.281	106.88
591.49	102.88
591.7	108.88
591.91	110.88
592.119	110.88
592.329	122.88
592.539	111.88
592.748	123.88
592.958	123.88
593.167	131.88
593.377	110.88
593.587	120.88
593.796	105.88
594.006	117.88
594.215	128.88
594.424	110.88
594.634	112.88
594.843	123.88
595.053	109.88
595.262	117.88
595.472	111.88
595.681	98.88
595.89	103.88
596.1	110.88
596.309	104.88
596.518	100.88
596.727	99.88
596.937	95.88
597.146	87.88
597.355	100.88
597.564	99.88
597.774	86.88
597.983	103.88
598.192	100.88
598.401	98.88
598.61	101.88
598.819	106.88
599.028	118.88
599.237	94.88
599.446	100.88
599.655	85.88
599.864	110.88
600.073	101.88
600.282	99.88
600.491	106.88
600.7	106.88
600.909	109.88
601.118	103.88
601.327	102.88
601.536	108.88
601.745	97.88
601.953	97.88
602.162	107.88
602.371	102.88
602.58	102.88
602.789	98.88
602.997	87.88
603.206	107.88
603.415	111.88
603.623	105.88
603.832	109.88
604.041	115.88
604.249	104.88
604.458	100.88
604.666	89.88
604.875	116.88
605.084	95.88
605.292	95.88
605.501	100.88
605.709	103.88
605.918	115.88
606.126	98.88
606.334	98.88
606.543	107.88
606.751	105.88
606.96	100.88
607.168	96.88
607.376	94.88
607.585	100.88
607.793	102.88
608.001	110.88
608.21	96.88
608.418	115.88
608.626	95.88
608.834	100.88
609.043	108.88
609.251	111.88
609.459	96.88
609.667	95.88
609.875	104.88
610.083	114.88
610.291	124.88
610.499	93.88
610.707	91.88
610.916	84.88
611.124	110.88
611.332	102.88
611.54	115.88
611.748	98.88
611.955	111.88
612.163	101.88
612.371	102.88
612.579	96.88
612.787	112.88
612.995	115.88
613.203	85.88
613.411	107.88
613.618	90.88
613.826	115.88
614.034	113.88
614.242	115.88
614.449	104.88
614.657	82.88
614.865	95.88
615.072	103.88
615.28	101.88
615.488	91.88
615.695	115.88
615.903	116.88
616.111	98.88
616.318	96.88
616.526	105.88
616.733	115.88
616.941	103.88
617.148	104.88
617.356	106.88
617.563	114.88
617.771	116.88
617.978	98.88
618.185	96.88
618.393	93.88
618.6	115.88
618.807	91.88
619.015	104.88
619.222	97.88
619.429	111.88
619.637	87.88
619.844	92.88
620.051	97.88
620.258	98.88
620.466	113.88
620.673	94.88
620.88	95.88
621.087	99.88
621.294	106.88
621.501	105.88
621.708	111.88
621.915	103.88
622.122	97.88
622.329	87.88
622.536	102.88
622.743	87.88
622.95	84.88
623.157	96.88
623.364	103.88
623.571	116.88
623.778	98.88
623.985	120.88
624.192	92.88
624.399	99.88
624.606	110.88
624.812	92.88
625.019	94.88
625.226	106.88
625.433	89.88
625.639	94.88
625.846	116.88
626.053	102.88
626.259	94.88
626.466	106.88
626.673	91.88
626.879	101.88
627.086	94.88
627.293	102.88
627.499	110.88
627.706	107.88
627.912	109.88
628.119	94.88
628.325	101.88
628.532	88.88
628.738	103.88
628.945	86.88
629.151	101.88
629.357	104.88
629.564	93.88
629.77	85.88
629.976	108.88
630.183	103.88
630.389	102.88
630.595	109.88
630.802	100.88
631.008	102.88
631.214	100.88
631.42	88.88
631.627	93.88
631.833	103.88
632.039	92.88
632.245	102.88
632.451	92.88
632.657	110.88
632.863	88.88
633.069	100.88
633.275	82.88
633.481	93.88
633.688	104.88
633.893	101.88
634.099	98.88
634.305	89.88
634.511	98.88
634.717	94.88
634.923	98.88
635.129	90.88
635.335	103.88
635.541	84.88
635.747	91.88
635.952	90.88
636.158	99.88
636.364	89.88
636.57	89.88
636.775	94.88
636.981	93.88
637.187	95.88
637.392	101.88
637.598	84.88
637.804	86.88
638.009	88.88
638.215	85.88
638.421	78.88
638.626	95.88
638.832	97.88
639.037	101.88
639.243	100.88
639.448	106.88
639.654	94.88
639.859	91.88
640.065	85.88
640.27	88.88
640.475	87.88
640.681	85.88
640.886	84.88
641.091	92.88
641.297	103.88
641.502	105.88
641.707	92.88
641.913	100.88
642.118	101.88
642.323	103.88
642.528	86.88
642.733	96.88
642.939	90.88
643.144	88.88
643.349	97.88
643.554	88.88
643.759	108.88
643.964	86.88
644.169	102.88
644.374	94.88
644.579	77.88
644.784	91.88
644.989	92.88
645.194	98.88
645.399	102.88
645.604	96.88
645.809	85.88
646.014	100.88
646.219	86.88
646.423	108.88
646.628	100.88
646.833	107.88
647.038	86.88
647.243	103.88
647.447	98.88
647.652	105.88
647.857	92.88
648.062	108.88
648.266	95.88
648.471	93.88
648.676	98.88
648.88	103.88
649.085	97.88
649.289	85.88
649.494	96.88
649.698	98.88
649.903	88.88
650.107	79.88
650.312	96.88
650.516	98.88
650.721	87.88
650.925	90.88
651.13	96.88
651.334	89.88
651.539	83.88
651.743	108.88
651.947	102.88
652.152	86.88
652.356	92.88
652.56	97.88
652.764	97.88
652.969	85.88
653.173	91.88
653.377	75.88
653.581	84.88
653.785	80.88
653.99	82.88
654.194	92.88
654.398	92.88
654.602	93.88
654.806	91.88
655.01	90.88
655.214	87.88
655.418	90.88
655.622	90.88
655.826	83.88
656.03	84.88
656.234	79.88
656.438	98.88
656.642	85.88
656.846	88.88
657.049	86.88
657.253	90.88
657.457	82.88
657.661	99.88
657.865	92.88
658.068	100.88
658.272	84.88
658.476	88.88
658.68	91.88
658.883	87.88
659.087	95.88
659.291	81.88
659.494	95.88
659.698	74.88
659.901	92.88
660.105	87.88
660.309	72.88
660.512	85.88
660.716	75.88
660.919	84.88
661.123	91.88
661.326	76.88
661.53	95.88
661.733	83.88
661.936	84.88
662.14	75.88
662.343	87.88
662.546	79.88
662.75	93.88
662.953	86.88
663.156	91.88
663.36	77.88
663.563	80.88
663.766	80.88
663.969	73.88
664.173	80.88
664.376	82.88
664.579	83.88
664.782	73.88
664.985	83.88
665.188	78.88
665.391	80.88
665.594	88.88
665.797	109.88
666	83.88
666.203	88.88
666.406	83.88
666.609	79.88
666.812	78.88
667.015	99.88
667.218	90.88
667.421	85.88
667.624	80.88
667.827	85.88
668.03	82.88
668.232	88.88
668.435	90.88
668.638	82.88
668.841	86.88
669.043	77.88
669.246	88.88
669.449	85.88
669.651	68.88
669.854	99.88
670.057	76.88
670.259	76.88
670.462	80.88
670.665	87.88
670.867	80.88
671.07	81.88
671.272	77.88
671.475	82.88
671.677	79.88
671.88	79.88
672.082	89.88
672.284	86.88
672.487	83.88
672.689	78.88
672.892	84.88
