Data from 1968.PennyLincolnUp.Lamp.En5.5.200Scan.071719.P1._HRD10591_14-49-34-969.txt Node
Date: Thu Jul 18 14:49:34 EDT 2019
User: cochatt
Spectrometer: HR+D1059
Trigger mode: 1
Integration Time (sec): 1.000000E-1
Scans to average: 1
Electric dark correction enabled: true
Nonlinearity correction enabled: false
Boxcar width: 0
XAxis mode: Wavelengths
Number of Pixels in Spectrum: 2048
>>>>>Begin Spectral Data<<<<<
223.165	-14.25
223.4	-14.25
223.635	-14.25
223.869	-16.25
224.104	-21.25
224.338	-9.25
224.573	-11.25
224.808	-9.25
225.042	-6.25
225.277	0.75
225.511	-3.25
225.746	12.75
225.98	-0.25
226.215	18.75
226.449	5.75
226.683	9.75
226.918	27.75
227.152	15.75
227.387	44.75
227.621	29.75
227.856	41.75
228.09	45.75
228.324	53.75
228.559	47.75
228.793	53.75
229.027	63.75
229.262	87.75
229.496	58.75
229.73	81.75
229.964	75.75
230.199	74.75
230.433	78.75
230.667	66.75
230.901	82.75
231.136	78.75
231.37	94.75
231.604	82.75
231.838	77.75
232.072	83.75
232.306	73.75
232.541	88.75
232.775	79.75
233.009	88.75
233.243	93.75
233.477	85.75
233.711	78.75
233.945	76.75
234.179	92.75
234.413	87.75
234.647	81.75
234.881	94.75
235.115	85.75
235.349	87.75
235.583	88.75
235.817	78.75
236.051	79.75
236.285	87.75
236.519	95.75
236.753	77.75
236.987	84.75
237.221	80.75
237.455	82.75
237.689	88.75
237.922	95.75
238.156	85.75
238.39	77.75
238.624	79.75
238.858	84.75
239.091	89.75
239.325	84.75
239.559	72.75
239.793	78.75
240.027	87.75
240.26	82.75
240.494	93.75
240.728	90.75
240.961	89.75
241.195	92.75
241.429	81.75
241.662	81.75
241.896	83.75
242.13	85.75
242.363	84.75
242.597	87.75
242.83	86.75
243.064	75.75
243.298	88.75
243.531	91.75
243.765	86.75
243.998	77.75
244.232	84.75
244.465	75.75
244.699	82.75
244.932	91.75
245.166	95.75
245.399	88.75
245.633	79.75
245.866	80.75
246.099	86.75
246.333	81.75
246.566	88.75
246.8	94.75
247.033	88.75
247.266	79.75
247.5	81.75
247.733	78.75
247.966	88.75
248.2	95.75
248.433	80.75
248.666	67.75
248.899	79.75
249.133	92.75
249.366	94.75
249.599	91.75
249.832	74.75
250.066	82.75
250.299	91.75
250.532	87.75
250.765	78.75
250.998	85.75
251.231	94.75
251.465	90.75
251.698	79.75
251.931	91.75
252.164	92.75
252.397	92.75
252.63	93.75
252.863	89.75
253.096	91.75
253.329	92.75
253.562	93.75
253.795	88.75
254.028	77.75
254.261	94.75
254.494	99.75
254.727	93.75
254.96	94.75
255.193	94.75
255.426	99.75
255.659	90.75
255.892	94.75
256.124	96.75
256.357	85.75
256.59	93.75
256.823	93.75
257.056	100.75
257.289	77.75
257.521	90.75
257.754	79.75
257.987	87.75
258.22	101.75
258.452	82.75
258.685	100.75
258.918	75.75
259.151	76.75
259.383	95.75
259.616	95.75
259.849	102.75
260.081	90.75
260.314	86.75
260.547	82.75
260.779	95.75
261.012	91.75
261.244	86.75
261.477	100.75
261.71	95.75
261.942	90.75
262.175	94.75
262.407	99.75
262.64	85.75
262.872	95.75
263.105	104.75
263.337	94.75
263.57	90.75
263.802	90.75
264.035	91.75
264.267	104.75
264.499	77.75
264.732	104.75
264.964	92.75
265.197	101.75
265.429	108.75
265.661	89.75
265.894	93.75
266.126	100.75
266.358	111.75
266.591	102.75
266.823	93.75
267.055	82.75
267.287	92.75
267.52	93.75
267.752	86.75
267.984	91.75
268.216	91.75
268.448	79.75
268.681	102.75
268.913	94.75
269.145	95.75
269.377	95.75
269.609	94.75
269.841	92.75
270.073	80.75
270.306	95.75
270.538	85.75
270.77	96.75
271.002	110.75
271.234	102.75
271.466	110.75
271.698	93.75
271.93	92.75
272.162	102.75
272.394	93.75
272.626	106.75
272.858	113.75
273.09	93.75
273.322	103.75
273.553	92.75
273.785	93.75
274.017	95.75
274.249	90.75
274.481	86.75
274.713	107.75
274.945	95.75
275.176	95.75
275.408	100.75
275.64	107.75
275.872	109.75
276.104	97.75
276.335	103.75
276.567	96.75
276.799	103.75
277.031	81.75
277.262	88.75
277.494	113.75
277.726	89.75
277.957	101.75
278.189	81.75
278.421	88.75
278.652	98.75
278.884	87.75
279.115	81.75
279.347	91.75
279.579	87.75
279.81	92.75
280.042	97.75
280.273	93.75
280.505	113.75
280.736	105.75
280.968	103.75
281.199	95.75
281.431	108.75
281.662	105.75
281.894	100.75
282.125	106.75
282.356	120.75
282.588	110.75
282.819	97.75
283.051	92.75
283.282	99.75
283.513	93.75
283.745	96.75
283.976	94.75
284.207	91.75
284.439	83.75
284.67	100.75
284.901	99.75
285.132	93.75
285.364	94.75
285.595	99.75
285.826	108.75
286.057	94.75
286.288	104.75
286.52	111.75
286.751	96.75
286.982	115.75
287.213	94.75
287.444	104.75
287.675	98.75
287.906	97.75
288.138	99.75
288.369	99.75
288.6	99.75
288.831	95.75
289.062	93.75
289.293	105.75
289.524	113.75
289.755	104.75
289.986	106.75
290.217	124.75
290.448	99.75
290.679	97.75
290.91	117.75
291.141	94.75
291.371	97.75
291.602	100.75
291.833	101.75
292.064	108.75
292.295	100.75
292.526	100.75
292.757	110.75
292.987	96.75
293.218	96.75
293.449	99.75
293.68	98.75
293.91	90.75
294.141	97.75
294.372	109.75
294.603	102.75
294.833	103.75
295.064	85.75
295.295	101.75
295.525	98.75
295.756	104.75
295.987	114.75
296.217	103.75
296.448	102.75
296.679	117.75
296.909	99.75
297.14	108.75
297.37	98.75
297.601	104.75
297.831	102.75
298.062	102.75
298.292	103.75
298.523	104.75
298.753	115.75
298.984	95.75
299.214	97.75
299.445	100.75
299.675	88.75
299.905	101.75
300.136	109.75
300.366	93.75
300.597	95.75
300.827	97.75
301.057	113.75
301.288	115.75
301.518	101.75
301.748	99.75
301.979	97.75
302.209	103.75
302.439	107.75
302.669	111.75
302.9	95.75
303.13	107.75
303.36	98.75
303.59	105.75
303.82	111.75
304.051	112.75
304.281	104.75
304.511	105.75
304.741	97.75
304.971	123.75
305.201	109.75
305.431	103.75
305.661	110.75
305.891	97.75
306.121	100.75
306.352	105.75
306.582	111.75
306.812	115.75
307.042	107.75
307.272	117.75
307.502	107.75
307.731	107.75
307.961	105.75
308.191	105.75
308.421	115.75
308.651	105.75
308.881	109.75
309.111	97.75
309.341	114.75
309.571	100.75
309.8	95.75
310.03	112.75
310.26	110.75
310.49	125.75
310.72	109.75
310.949	97.75
311.179	100.75
311.409	106.75
311.639	111.75
311.868	91.75
312.098	117.75
312.328	108.75
312.557	110.75
312.787	99.75
313.017	117.75
313.246	109.75
313.476	108.75
313.706	109.75
313.935	113.75
314.165	112.75
314.394	111.75
314.624	119.75
314.853	117.75
315.083	100.75
315.312	101.75
315.542	107.75
315.771	109.75
316.001	103.75
316.23	94.75
316.46	118.75
316.689	95.75
316.919	106.75
317.148	127.75
317.377	123.75
317.607	123.75
317.836	107.75
318.065	109.75
318.295	105.75
318.524	110.75
318.753	102.75
318.983	102.75
319.212	109.75
319.441	105.75
319.67	119.75
319.9	111.75
320.129	93.75
320.358	111.75
320.587	101.75
320.816	101.75
321.046	126.75
321.275	113.75
321.504	106.75
321.733	112.75
321.962	109.75
322.191	90.75
322.42	111.75
322.649	102.75
322.878	103.75
323.108	108.75
323.337	116.75
323.566	129.75
323.795	104.75
324.024	109.75
324.253	110.75
324.482	122.75
324.71	149.75
324.939	179.75
325.168	160.75
325.397	131.75
325.626	112.75
325.855	115.75
326.084	127.75
326.313	111.75
326.542	126.75
326.77	115.75
326.999	108.75
327.228	127.75
327.457	145.75
327.686	142.75
327.914	119.75
328.143	116.75
328.372	127.75
328.6	113.75
328.829	127.75
329.058	95.75
329.287	117.75
329.515	103.75
329.744	120.75
329.972	109.75
330.201	115.75
330.43	113.75
330.658	115.75
330.887	96.75
331.115	125.75
331.344	118.75
331.572	116.75
331.801	113.75
332.03	107.75
332.258	123.75
332.486	107.75
332.715	92.75
332.943	120.75
333.172	128.75
333.4	117.75
333.629	123.75
333.857	127.75
334.085	113.75
334.314	129.75
334.542	119.75
334.771	130.75
334.999	117.75
335.227	106.75
335.455	120.75
335.684	117.75
335.912	120.75
336.14	139.75
336.369	122.75
336.597	119.75
336.825	126.75
337.053	107.75
337.281	121.75
337.51	123.75
337.738	123.75
337.966	118.75
338.194	119.75
338.422	126.75
338.65	109.75
338.878	127.75
339.106	113.75
339.334	109.75
339.562	115.75
339.79	106.75
340.018	115.75
340.246	107.75
340.474	113.75
340.702	121.75
340.93	117.75
341.158	112.75
341.386	117.75
341.614	118.75
341.842	99.75
342.07	108.75
342.298	109.75
342.526	92.75
342.754	111.75
342.981	110.75
343.209	110.75
343.437	117.75
343.665	115.75
343.893	106.75
344.12	133.75
344.348	113.75
344.576	118.75
344.804	125.75
345.031	110.75
345.259	115.75
345.487	115.75
345.714	128.75
345.942	127.75
346.17	112.75
346.397	115.75
346.625	104.75
346.853	108.75
347.08	101.75
347.308	109.75
347.535	94.75
347.763	114.75
347.99	105.75
348.218	117.75
348.445	110.75
348.673	106.75
348.9	126.75
349.128	102.75
349.355	107.75
349.583	106.75
349.81	104.75
350.037	101.75
350.265	117.75
350.492	108.75
350.72	101.75
350.947	123.75
351.174	108.75
351.402	106.75
351.629	118.75
351.856	101.75
352.083	99.75
352.311	112.75
352.538	96.75
352.765	100.75
352.992	118.75
353.22	102.75
353.447	101.75
353.674	108.75
353.901	115.75
354.128	122.75
354.355	107.75
354.583	113.75
354.81	108.75
355.037	105.75
355.264	126.75
355.491	117.75
355.718	110.75
355.945	119.75
356.172	107.75
356.399	115.75
356.626	109.75
356.853	115.75
357.08	105.75
357.307	111.75
357.534	111.75
357.761	121.75
357.988	115.75
358.215	120.75
358.441	116.75
358.668	101.75
358.895	115.75
359.122	104.75
359.349	97.75
359.576	100.75
359.802	114.75
360.029	91.75
360.256	110.75
360.483	126.75
360.709	111.75
360.936	109.75
361.163	97.75
361.39	103.75
361.616	121.75
361.843	119.75
362.07	104.75
362.296	104.75
362.523	111.75
362.749	106.75
362.976	99.75
363.203	104.75
363.429	105.75
363.656	119.75
363.882	121.75
364.109	107.75
364.335	117.75
364.562	116.75
364.788	125.75
365.015	116.75
365.241	105.75
365.468	122.75
365.694	127.75
365.92	109.75
366.147	119.75
366.373	113.75
366.599	106.75
366.826	117.75
367.052	115.75
367.278	100.75
367.505	104.75
367.731	103.75
367.957	97.75
368.184	114.75
368.41	112.75
368.636	106.75
368.862	121.75
369.089	120.75
369.315	110.75
369.541	114.75
369.767	95.75
369.993	106.75
370.219	102.75
370.445	111.75
370.672	100.75
370.898	111.75
371.124	105.75
371.35	91.75
371.576	102.75
371.802	125.75
372.028	109.75
372.254	116.75
372.48	116.75
372.706	104.75
372.932	120.75
373.158	133.75
373.384	107.75
373.61	115.75
373.835	104.75
374.061	120.75
374.287	123.75
374.513	118.75
374.739	108.75
374.965	98.75
375.191	121.75
375.416	120.75
375.642	119.75
375.868	127.75
376.094	109.75
376.319	117.75
376.545	109.75
376.771	120.75
376.997	108.75
377.222	127.75
377.448	115.75
377.674	110.75
377.899	112.75
378.125	123.75
378.35	118.75
378.576	119.75
378.802	102.75
379.027	113.75
379.253	108.75
379.478	102.75
379.704	120.75
379.929	117.75
380.155	119.75
380.38	104.75
380.606	106.75
380.831	108.75
381.057	127.75
381.282	106.75
381.507	95.75
381.733	128.75
381.958	122.75
382.184	109.75
382.409	126.75
382.634	112.75
382.86	117.75
383.085	116.75
383.31	123.75
383.535	118.75
383.761	123.75
383.986	125.75
384.211	123.75
384.436	114.75
384.662	113.75
384.887	124.75
385.112	107.75
385.337	122.75
385.562	111.75
385.787	111.75
386.013	132.75
386.238	131.75
386.463	117.75
386.688	107.75
386.913	112.75
387.138	113.75
387.363	112.75
387.588	127.75
387.813	105.75
388.038	127.75
388.263	118.75
388.488	131.75
388.713	115.75
388.938	120.75
389.163	120.75
389.387	120.75
389.612	123.75
389.837	119.75
390.062	127.75
390.287	129.75
390.512	119.75
390.736	113.75
390.961	124.75
391.186	123.75
391.411	126.75
391.636	120.75
391.86	117.75
392.085	129.75
392.31	132.75
392.534	139.75
392.759	126.75
392.984	112.75
393.208	120.75
393.433	131.75
393.658	132.75
393.882	123.75
394.107	117.75
394.331	104.75
394.556	115.75
394.78	96.75
395.005	112.75
395.229	133.75
395.454	131.75
395.678	120.75
395.903	115.75
396.127	127.75
396.352	122.75
396.576	130.75
396.801	118.75
397.025	134.75
397.249	120.75
397.474	119.75
397.698	117.75
397.922	125.75
398.147	120.75
398.371	135.75
398.595	133.75
398.82	119.75
399.044	123.75
399.268	141.75
399.492	144.75
399.717	146.75
399.941	151.75
400.165	160.75
400.389	130.75
400.613	133.75
400.837	150.75
401.062	139.75
401.286	129.75
401.51	124.75
401.734	128.75
401.958	136.75
402.182	126.75
402.406	126.75
402.63	138.75
402.854	129.75
403.078	137.75
403.302	123.75
403.526	119.75
403.75	126.75
403.974	135.75
404.198	140.75
404.422	138.75
404.645	142.75
404.869	122.75
405.093	137.75
405.317	127.75
405.541	124.75
405.765	127.75
405.988	141.75
406.212	149.75
406.436	132.75
406.66	141.75
406.883	130.75
407.107	123.75
407.331	137.75
407.555	143.75
407.778	139.75
408.002	143.75
408.226	116.75
408.449	139.75
408.673	139.75
408.896	136.75
409.12	125.75
409.344	126.75
409.567	139.75
409.791	126.75
410.014	141.75
410.238	127.75
410.461	141.75
410.685	131.75
410.908	126.75
411.132	127.75
411.355	128.75
411.578	126.75
411.802	123.75
412.025	135.75
412.249	138.75
412.472	130.75
412.695	149.75
412.919	116.75
413.142	123.75
413.365	127.75
413.589	125.75
413.812	123.75
414.035	125.75
414.258	114.75
414.482	122.75
414.705	139.75
414.928	134.75
415.151	124.75
415.374	129.75
415.597	141.75
415.821	135.75
416.044	115.75
416.267	127.75
416.49	132.75
416.713	122.75
416.936	131.75
417.159	124.75
417.382	136.75
417.605	131.75
417.828	122.75
418.051	131.75
418.274	130.75
418.497	116.75
418.72	112.75
418.943	129.75
419.166	125.75
419.389	130.75
419.611	130.75
419.834	135.75
420.057	140.75
420.28	131.75
420.503	143.75
420.726	142.75
420.948	128.75
421.171	126.75
421.394	111.75
421.617	129.75
421.839	133.75
422.062	130.75
422.285	122.75
422.507	133.75
422.73	128.75
422.953	146.75
423.175	127.75
423.398	127.75
423.621	124.75
423.843	135.75
424.066	118.75
424.288	118.75
424.511	137.75
424.733	136.75
424.956	136.75
425.178	127.75
425.401	127.75
425.623	145.75
425.846	141.75
426.068	127.75
426.291	128.75
426.513	136.75
426.735	123.75
426.958	133.75
427.18	138.75
427.402	145.75
427.625	139.75
427.847	130.75
428.069	128.75
428.292	126.75
428.514	133.75
428.736	123.75
428.958	130.75
429.181	131.75
429.403	131.75
429.625	134.75
429.847	131.75
430.069	129.75
430.292	125.75
430.514	128.75
430.736	127.75
430.958	131.75
431.18	127.75
431.402	124.75
431.624	119.75
431.846	118.75
432.068	125.75
432.29	128.75
432.512	120.75
432.734	135.75
432.956	131.75
433.178	133.75
433.4	127.75
433.622	139.75
433.844	115.75
434.066	116.75
434.287	121.75
434.509	124.75
434.731	135.75
434.953	125.75
435.175	111.75
435.397	125.75
435.618	136.75
435.84	119.75
436.062	129.75
436.284	143.75
436.505	126.75
436.727	125.75
436.949	131.75
437.17	131.75
437.392	118.75
437.614	121.75
437.835	127.75
438.057	135.75
438.278	141.75
438.5	134.75
438.721	137.75
438.943	147.75
439.165	128.75
439.386	139.75
439.608	114.75
439.829	141.75
440.05	150.75
440.272	139.75
440.493	131.75
440.715	138.75
440.936	133.75
441.158	125.75
441.379	129.75
441.6	138.75
441.822	135.75
442.043	142.75
442.264	137.75
442.486	142.75
442.707	120.75
442.928	123.75
443.149	131.75
443.371	126.75
443.592	126.75
443.813	149.75
444.034	145.75
444.255	142.75
444.476	143.75
444.698	133.75
444.919	140.75
445.14	260.75
445.361	195.75
445.582	137.75
445.803	145.75
446.024	137.75
446.245	151.75
446.466	144.75
446.687	132.75
446.908	131.75
447.129	125.75
447.35	123.75
447.571	127.75
447.792	116.75
448.013	129.75
448.234	133.75
448.455	121.75
448.675	137.75
448.896	136.75
449.117	120.75
449.338	117.75
449.559	136.75
449.779	148.75
450	115.75
450.221	131.75
450.442	124.75
450.662	120.75
450.883	133.75
451.104	122.75
451.324	111.75
451.545	115.75
451.766	127.75
451.986	125.75
452.207	116.75
452.428	125.75
452.648	125.75
452.869	120.75
453.089	112.75
453.31	127.75
453.53	119.75
453.751	120.75
453.971	132.75
454.192	123.75
454.412	118.75
454.633	133.75
454.853	133.75
455.073	113.75
455.294	122.75
455.514	123.75
455.734	122.75
455.955	114.75
456.175	126.75
456.395	119.75
456.616	116.75
456.836	118.75
457.056	121.75
457.276	125.75
457.497	126.75
457.717	117.75
457.937	118.75
458.157	110.75
458.377	117.75
458.598	131.75
458.818	126.75
459.038	133.75
459.258	125.75
459.478	131.75
459.698	131.75
459.918	120.75
460.138	117.75
460.358	133.75
460.578	128.75
460.798	131.75
461.018	126.75
461.238	123.75
461.458	137.75
461.678	129.75
461.898	125.75
462.118	136.75
462.338	135.75
462.558	131.75
462.777	131.75
462.997	132.75
463.217	141.75
463.437	131.75
463.657	148.75
463.876	148.75
464.096	152.75
464.316	140.75
464.536	136.75
464.755	141.75
464.975	123.75
465.195	127.75
465.414	126.75
465.634	130.75
465.854	143.75
466.073	140.75
466.293	123.75
466.512	123.75
466.732	119.75
466.951	116.75
467.171	134.75
467.391	128.75
467.61	124.75
467.829	110.75
468.049	128.75
468.268	122.75
468.488	133.75
468.707	121.75
468.927	110.75
469.146	119.75
469.365	121.75
469.585	120.75
469.804	117.75
470.023	116.75
470.243	129.75
470.462	131.75
470.681	128.75
470.901	127.75
471.12	121.75
471.339	136.75
471.558	136.75
471.777	132.75
471.997	117.75
472.216	111.75
472.435	121.75
472.654	135.75
472.873	123.75
473.092	121.75
473.311	113.75
473.53	131.75
473.749	125.75
473.968	128.75
474.187	123.75
474.406	123.75
474.625	130.75
474.844	125.75
475.063	127.75
475.282	130.75
475.501	119.75
475.72	136.75
475.939	126.75
476.158	130.75
476.377	124.75
476.596	125.75
476.814	108.75
477.033	132.75
477.252	141.75
477.471	135.75
477.69	124.75
477.908	126.75
478.127	136.75
478.346	124.75
478.564	143.75
478.783	125.75
479.002	133.75
479.22	135.75
479.439	137.75
479.658	139.75
479.876	133.75
480.095	117.75
480.313	146.75
480.532	142.75
480.751	130.75
480.969	124.75
481.188	128.75
481.406	136.75
481.624	132.75
481.843	123.75
482.061	117.75
482.28	126.75
482.498	134.75
482.717	126.75
482.935	121.75
483.153	124.75
483.372	133.75
483.59	125.75
483.808	136.75
484.027	131.75
484.245	139.75
484.463	151.75
484.681	125.75
484.9	127.75
485.118	134.75
485.336	127.75
485.554	150.75
485.772	130.75
485.99	139.75
486.209	140.75
486.427	128.75
486.645	145.75
486.863	137.75
487.081	133.75
487.299	134.75
487.517	124.75
487.735	127.75
487.953	137.75
488.171	135.75
488.389	125.75
488.607	139.75
488.825	139.75
489.043	134.75
489.261	151.75
489.479	127.75
489.696	121.75
489.914	132.75
490.132	137.75
490.35	137.75
490.568	140.75
490.786	134.75
491.003	141.75
491.221	141.75
491.439	136.75
491.657	157.75
491.874	152.75
492.092	130.75
492.31	145.75
492.527	145.75
492.745	141.75
492.963	140.75
493.18	127.75
493.398	162.75
493.615	141.75
493.833	137.75
494.05	146.75
494.268	143.75
494.485	151.75
494.703	139.75
494.92	137.75
495.138	140.75
495.355	150.75
495.573	146.75
495.79	144.75
496.008	159.75
496.225	139.75
496.442	140.75
496.66	147.75
496.877	143.75
497.094	155.75
497.312	137.75
497.529	149.75
497.746	152.75
497.963	158.75
498.181	150.75
498.398	156.75
498.615	165.75
498.832	167.75
499.049	161.75
499.267	176.75
499.484	169.75
499.701	193.75
499.918	200.75
500.135	187.75
500.352	207.75
500.569	202.75
500.786	213.75
501.003	210.75
501.22	181.75
501.437	172.75
501.654	175.75
501.871	163.75
502.088	163.75
502.305	148.75
502.522	151.75
502.739	150.75
502.956	142.75
503.172	140.75
503.389	137.75
503.606	143.75
503.823	143.75
504.04	157.75
504.256	155.75
504.473	148.75
504.69	144.75
504.907	135.75
505.123	141.75
505.34	132.75
505.557	137.75
505.773	128.75
505.99	133.75
506.207	151.75
506.423	135.75
506.64	139.75
506.856	123.75
507.073	140.75
507.289	141.75
507.506	119.75
507.722	135.75
507.939	132.75
508.155	122.75
508.372	132.75
508.588	138.75
508.805	121.75
509.021	122.75
509.238	129.75
509.454	121.75
509.67	127.75
509.887	134.75
510.103	129.75
510.319	126.75
510.536	129.75
510.752	159.75
510.968	140.75
511.184	128.75
511.401	127.75
511.617	129.75
511.833	126.75
512.049	133.75
512.265	123.75
512.481	126.75
512.698	113.75
512.914	111.75
513.13	129.75
513.346	129.75
513.562	132.75
513.778	122.75
513.994	139.75
514.21	123.75
514.426	119.75
514.642	134.75
514.858	128.75
515.074	139.75
515.29	154.75
515.506	144.75
515.721	129.75
515.937	121.75
516.153	131.75
516.369	131.75
516.585	131.75
516.801	124.75
517.016	135.75
517.232	155.75
517.448	151.75
517.664	142.75
517.879	140.75
518.095	152.75
518.311	145.75
518.527	134.75
518.742	144.75
518.958	137.75
519.173	135.75
519.389	123.75
519.605	127.75
519.82	128.75
520.036	145.75
520.251	129.75
520.467	128.75
520.682	125.75
520.898	123.75
521.113	127.75
521.329	143.75
521.544	143.75
521.76	143.75
521.975	165.75
522.19	166.75
522.406	124.75
522.621	133.75
522.836	136.75
523.052	127.75
523.267	131.75
523.482	133.75
523.698	132.75
523.913	121.75
524.128	125.75
524.343	122.75
524.559	124.75
524.774	113.75
524.989	121.75
525.204	132.75
525.419	122.75
525.634	118.75
525.849	125.75
526.064	129.75
526.28	127.75
526.495	109.75
526.71	133.75
526.925	119.75
527.14	113.75
527.355	124.75
527.57	133.75
527.785	128.75
527.999	124.75
528.214	120.75
528.429	132.75
528.644	127.75
528.859	136.75
529.074	125.75
529.289	131.75
529.503	108.75
529.718	125.75
529.933	131.75
530.148	132.75
530.363	131.75
530.577	125.75
530.792	101.75
531.007	114.75
531.221	122.75
531.436	121.75
531.651	117.75
531.865	127.75
532.08	120.75
532.295	118.75
532.509	128.75
532.724	133.75
532.938	127.75
533.153	111.75
533.367	112.75
533.582	122.75
533.796	131.75
534.011	127.75
534.225	121.75
534.44	124.75
534.654	127.75
534.868	119.75
535.083	122.75
535.297	116.75
535.511	131.75
535.726	116.75
535.94	127.75
536.154	125.75
536.369	127.75
536.583	112.75
536.797	120.75
537.011	116.75
537.225	111.75
537.44	128.75
537.654	115.75
537.868	113.75
538.082	123.75
538.296	126.75
538.51	127.75
538.724	124.75
538.938	125.75
539.153	147.75
539.367	132.75
539.581	125.75
539.795	125.75
540.009	117.75
540.222	116.75
540.436	116.75
540.65	117.75
540.864	118.75
541.078	132.75
541.292	128.75
541.506	124.75
541.72	128.75
541.934	133.75
542.147	119.75
542.361	130.75
542.575	128.75
542.789	127.75
543.002	121.75
543.216	129.75
543.43	122.75
543.644	129.75
543.857	122.75
544.071	137.75
544.285	120.75
544.498	153.75
544.712	129.75
544.925	135.75
545.139	136.75
545.352	129.75
545.566	146.75
545.779	120.75
545.993	133.75
546.206	151.75
546.42	139.75
546.633	146.75
546.847	108.75
547.06	129.75
547.274	121.75
547.487	135.75
547.7	130.75
547.914	124.75
548.127	124.75
548.34	124.75
548.554	136.75
548.767	137.75
548.98	122.75
549.193	115.75
549.407	133.75
549.62	141.75
549.833	140.75
550.046	130.75
550.259	131.75
550.473	127.75
550.686	144.75
550.899	130.75
551.112	110.75
551.325	108.75
551.538	110.75
551.751	125.75
551.964	108.75
552.177	138.75
552.39	128.75
552.603	135.75
552.816	132.75
553.029	116.75
553.242	132.75
553.455	124.75
553.667	130.75
553.88	129.75
554.093	127.75
554.306	134.75
554.519	131.75
554.732	116.75
554.944	119.75
555.157	125.75
555.37	127.75
555.583	136.75
555.795	135.75
556.008	124.75
556.221	126.75
556.433	136.75
556.646	124.75
556.859	131.75
557.071	127.75
557.284	110.75
557.496	129.75
557.709	127.75
557.921	132.75
558.134	127.75
558.346	115.75
558.559	116.75
558.771	121.75
558.984	110.75
559.196	116.75
559.409	115.75
559.621	121.75
559.833	103.75
560.046	119.75
560.258	119.75
560.47	103.75
560.683	135.75
560.895	128.75
561.107	125.75
561.32	113.75
561.532	99.75
561.744	129.75
561.956	120.75
562.168	110.75
562.381	117.75
562.593	115.75
562.805	126.75
563.017	125.75
563.229	121.75
563.441	102.75
563.653	116.75
563.865	126.75
564.077	117.75
564.289	126.75
564.501	111.75
564.713	108.75
564.925	126.75
565.137	125.75
565.349	129.75
565.561	121.75
565.773	124.75
565.985	116.75
566.197	145.75
566.408	117.75
566.62	132.75
566.832	128.75
567.044	141.75
567.255	142.75
567.467	128.75
567.679	140.75
567.891	143.75
568.102	140.75
568.314	149.75
568.526	132.75
568.737	129.75
568.949	129.75
569.161	117.75
569.372	124.75
569.584	120.75
569.795	111.75
570.007	125.75
570.218	101.75
570.43	109.75
570.641	124.75
570.853	97.75
571.064	130.75
571.276	119.75
571.487	104.75
571.698	110.75
571.91	109.75
572.121	109.75
572.333	124.75
572.544	105.75
572.755	107.75
572.966	111.75
573.178	121.75
573.389	104.75
573.6	111.75
573.811	113.75
574.023	113.75
574.234	116.75
574.445	110.75
574.656	113.75
574.867	111.75
575.078	100.75
575.289	109.75
575.501	123.75
575.712	112.75
575.923	111.75
576.134	125.75
576.345	99.75
576.556	106.75
576.767	123.75
576.978	106.75
577.188	117.75
577.399	112.75
577.61	107.75
577.821	110.75
578.032	87.75
578.243	102.75
578.454	130.75
578.665	115.75
578.875	107.75
579.086	106.75
579.297	107.75
579.508	104.75
579.718	108.75
579.929	106.75
580.14	92.75
580.35	110.75
580.561	105.75
580.772	122.75
580.982	100.75
581.193	111.75
581.403	109.75
581.614	115.75
581.825	111.75
582.035	102.75
582.246	104.75
582.456	106.75
582.667	112.75
582.877	97.75
583.087	107.75
583.298	117.75
583.508	121.75
583.719	101.75
583.929	104.75
584.139	95.75
584.35	93.75
584.56	116.75
584.77	121.75
584.981	116.75
585.191	101.75
585.401	106.75
585.611	107.75
585.821	100.75
586.032	121.75
586.242	117.75
586.452	104.75
586.662	102.75
586.872	111.75
587.082	118.75
587.292	90.75
587.502	112.75
587.713	120.75
587.923	107.75
588.133	96.75
588.343	105.75
588.553	100.75
588.762	100.75
588.972	100.75
589.182	99.75
589.392	105.75
589.602	117.75
589.812	112.75
590.022	105.75
590.232	104.75
590.441	110.75
590.651	102.75
590.861	113.75
591.071	105.75
591.281	105.75
591.49	96.75
591.7	119.75
591.91	116.75
592.119	106.75
592.329	102.75
592.539	106.75
592.748	118.75
592.958	119.75
593.167	120.75
593.377	119.75
593.587	124.75
593.796	111.75
594.006	108.75
594.215	114.75
594.424	125.75
594.634	118.75
594.843	127.75
595.053	115.75
595.262	118.75
595.472	102.75
595.681	113.75
595.89	96.75
596.1	96.75
596.309	102.75
596.518	103.75
596.727	110.75
596.937	99.75
597.146	93.75
597.355	107.75
597.564	109.75
597.774	102.75
597.983	111.75
598.192	104.75
598.401	97.75
598.61	103.75
598.819	106.75
599.028	96.75
599.237	115.75
599.446	109.75
599.655	99.75
599.864	116.75
600.073	108.75
600.282	95.75
600.491	95.75
600.7	102.75
600.909	109.75
601.118	105.75
601.327	100.75
601.536	103.75
601.745	111.75
601.953	108.75
602.162	86.75
602.371	99.75
602.58	106.75
602.789	110.75
602.997	99.75
603.206	106.75
603.415	94.75
603.623	112.75
603.832	102.75
604.041	107.75
604.249	113.75
604.458	96.75
604.666	91.75
604.875	102.75
605.084	95.75
605.292	104.75
605.501	96.75
605.709	100.75
605.918	93.75
606.126	93.75
606.334	94.75
606.543	105.75
606.751	101.75
606.96	98.75
607.168	91.75
607.376	118.75
607.585	115.75
607.793	103.75
608.001	118.75
608.21	101.75
608.418	100.75
608.626	108.75
608.834	96.75
609.043	119.75
609.251	119.75
609.459	110.75
609.667	95.75
609.875	102.75
610.083	103.75
610.291	100.75
610.499	99.75
610.707	101.75
610.916	118.75
611.124	97.75
611.332	115.75
611.54	122.75
611.748	123.75
611.955	117.75
612.163	109.75
612.371	109.75
612.579	99.75
612.787	110.75
612.995	108.75
613.203	93.75
613.411	98.75
613.618	101.75
613.826	94.75
614.034	101.75
614.242	121.75
614.449	109.75
614.657	127.75
614.865	105.75
615.072	98.75
615.28	121.75
615.488	104.75
615.695	107.75
615.903	101.75
616.111	116.75
616.318	104.75
616.526	104.75
616.733	115.75
616.941	94.75
617.148	107.75
617.356	99.75
617.563	112.75
617.771	90.75
617.978	93.75
618.185	107.75
618.393	116.75
618.6	117.75
618.807	97.75
619.015	108.75
619.222	107.75
619.429	97.75
619.637	102.75
619.844	103.75
620.051	93.75
620.258	99.75
620.466	104.75
620.673	84.75
620.88	106.75
621.087	99.75
621.294	103.75
621.501	115.75
621.708	93.75
621.915	95.75
622.122	94.75
622.329	106.75
622.536	81.75
622.743	110.75
622.95	105.75
623.157	101.75
623.364	97.75
623.571	96.75
623.778	105.75
623.985	108.75
624.192	104.75
624.399	103.75
624.606	108.75
624.812	102.75
625.019	104.75
625.226	116.75
625.433	93.75
625.639	93.75
625.846	100.75
626.053	98.75
626.259	99.75
626.466	103.75
626.673	103.75
626.879	106.75
627.086	108.75
627.293	108.75
627.499	94.75
627.706	109.75
627.912	104.75
628.119	97.75
628.325	107.75
628.532	96.75
628.738	105.75
628.945	104.75
629.151	99.75
629.357	100.75
629.564	102.75
629.77	91.75
629.976	96.75
630.183	100.75
630.389	92.75
630.595	98.75
630.802	105.75
631.008	108.75
631.214	115.75
631.42	103.75
631.627	103.75
631.833	92.75
632.039	96.75
632.245	111.75
632.451	93.75
632.657	89.75
632.863	101.75
633.069	88.75
633.275	90.75
633.481	97.75
633.688	110.75
633.893	111.75
634.099	96.75
634.305	88.75
634.511	86.75
634.717	102.75
634.923	110.75
635.129	104.75
635.335	87.75
635.541	89.75
635.747	91.75
635.952	89.75
636.158	99.75
636.364	92.75
636.57	95.75
636.775	117.75
636.981	94.75
637.187	107.75
637.392	92.75
637.598	97.75
637.804	99.75
638.009	96.75
638.215	96.75
638.421	89.75
638.626	92.75
638.832	103.75
639.037	105.75
639.243	96.75
639.448	103.75
639.654	90.75
639.859	90.75
640.065	89.75
640.27	107.75
640.475	80.75
640.681	107.75
640.886	105.75
641.091	103.75
641.297	96.75
641.502	93.75
641.707	93.75
641.913	100.75
642.118	103.75
642.323	93.75
642.528	93.75
642.733	89.75
642.939	100.75
643.144	96.75
643.349	89.75
643.554	104.75
643.759	87.75
643.964	85.75
644.169	101.75
644.374	107.75
644.579	104.75
644.784	94.75
644.989	89.75
645.194	91.75
645.399	98.75
645.604	94.75
645.809	89.75
646.014	96.75
646.219	88.75
646.423	93.75
646.628	97.75
646.833	93.75
647.038	100.75
647.243	105.75
647.447	89.75
647.652	99.75
647.857	83.75
648.062	88.75
648.266	96.75
648.471	86.75
648.676	100.75
648.88	91.75
649.085	89.75
649.289	108.75
649.494	93.75
649.698	100.75
649.903	81.75
650.107	89.75
650.312	83.75
650.516	74.75
650.721	107.75
650.925	78.75
651.13	102.75
651.334	89.75
651.539	88.75
651.743	107.75
651.947	87.75
652.152	91.75
652.356	92.75
652.56	102.75
652.764	99.75
652.969	89.75
653.173	95.75
653.377	109.75
653.581	90.75
653.785	89.75
653.99	97.75
654.194	83.75
654.398	83.75
654.602	90.75
654.806	89.75
655.01	85.75
655.214	93.75
655.418	91.75
655.622	90.75
655.826	85.75
656.03	90.75
656.234	96.75
656.438	88.75
656.642	69.75
656.846	78.75
657.049	74.75
657.253	84.75
657.457	87.75
657.661	79.75
657.865	87.75
658.068	96.75
658.272	92.75
658.476	77.75
658.68	97.75
658.883	101.75
659.087	88.75
659.291	95.75
659.494	89.75
659.698	80.75
659.901	82.75
660.105	84.75
660.309	78.75
660.512	78.75
660.716	101.75
660.919	80.75
661.123	78.75
661.326	84.75
661.53	80.75
661.733	83.75
661.936	95.75
662.14	80.75
662.343	91.75
662.546	77.75
662.75	92.75
662.953	82.75
663.156	80.75
663.36	80.75
663.563	90.75
663.766	79.75
663.969	84.75
664.173	77.75
664.376	87.75
664.579	81.75
664.782	89.75
664.985	81.75
665.188	88.75
665.391	97.75
665.594	72.75
665.797	82.75
666	69.75
666.203	86.75
666.406	89.75
666.609	65.75
666.812	81.75
667.015	102.75
667.218	83.75
667.421	89.75
667.624	79.75
667.827	74.75
668.03	85.75
668.232	87.75
668.435	91.75
668.638	91.75
668.841	77.75
669.043	86.75
669.246	81.75
669.449	74.75
669.651	86.75
669.854	85.75
670.057	90.75
670.259	80.75
670.462	85.75
670.665	77.75
670.867	78.75
671.07	87.75
671.272	83.75
671.475	86.75
671.677	81.75
671.88	81.75
672.082	81.75
672.284	86.75
672.487	86.75
672.689	85.75
672.892	76.75
