Data from 1969.PennyLincolnUp.Lamp.En5.5.200Scan.071719.P1._HRD10591_14-55-22-972.txt Node
Date: Thu Jul 18 14:55:22 EDT 2019
User: cochatt
Spectrometer: HR+D1059
Trigger mode: 1
Integration Time (sec): 1.000000E-1
Scans to average: 1
Electric dark correction enabled: true
Nonlinearity correction enabled: false
Boxcar width: 0
XAxis mode: Wavelengths
Number of Pixels in Spectrum: 2048
>>>>>Begin Spectral Data<<<<<
223.165	-3.94
223.4	-3.94
223.635	-3.94
223.869	-8.94
224.104	-28.94
224.338	-12.94
224.573	-14.94
224.808	-14.94
225.042	-5.94
225.277	-18.94
225.511	-3.94
225.746	1.06
225.98	14.06
226.215	6.06
226.449	15.06
226.683	22.06
226.918	12.06
227.152	43.06
227.387	37.06
227.621	36.06
227.856	45.06
228.09	40.06
228.324	36.06
228.559	57.06
228.793	61.06
229.027	75.06
229.262	100.06
229.496	70.06
229.73	101.06
229.964	122.06
230.199	93.06
230.433	84.06
230.667	93.06
230.901	106.06
231.136	100.06
231.37	102.06
231.604	100.06
231.838	103.06
232.072	101.06
232.306	98.06
232.541	84.06
232.775	90.06
233.009	110.06
233.243	106.06
233.477	95.06
233.711	100.06
233.945	91.06
234.179	98.06
234.413	109.06
234.647	119.06
234.881	122.06
235.115	95.06
235.349	104.06
235.583	115.06
235.817	107.06
236.051	116.06
236.285	110.06
236.519	104.06
236.753	112.06
236.987	116.06
237.221	148.06
237.455	155.06
237.689	140.06
237.922	116.06
238.156	117.06
238.39	114.06
238.624	116.06
238.858	127.06
239.091	120.06
239.325	105.06
239.559	129.06
239.793	112.06
240.027	100.06
240.26	114.06
240.494	134.06
240.728	121.06
240.961	130.06
241.195	118.06
241.429	121.06
241.662	125.06
241.896	119.06
242.13	130.06
242.363	112.06
242.597	98.06
242.83	119.06
243.064	113.06
243.298	124.06
243.531	120.06
243.765	126.06
243.998	132.06
244.232	134.06
244.465	121.06
244.699	127.06
244.932	126.06
245.166	127.06
245.399	110.06
245.633	118.06
245.866	126.06
246.099	126.06
246.333	128.06
246.566	114.06
246.8	125.06
247.033	131.06
247.266	132.06
247.5	138.06
247.733	138.06
247.966	142.06
248.2	121.06
248.433	134.06
248.666	144.06
248.899	155.06
249.133	165.06
249.366	162.06
249.599	162.06
249.832	168.06
250.066	149.06
250.299	140.06
250.532	159.06
250.765	172.06
250.998	166.06
251.231	169.06
251.465	165.06
251.698	169.06
251.931	172.06
252.164	163.06
252.397	167.06
252.63	156.06
252.863	174.06
253.096	173.06
253.329	189.06
253.562	186.06
253.795	177.06
254.028	183.06
254.261	157.06
254.494	186.06
254.727	205.06
254.96	202.06
255.193	203.06
255.426	181.06
255.659	174.06
255.892	186.06
256.124	188.06
256.357	166.06
256.59	179.06
256.823	168.06
257.056	196.06
257.289	182.06
257.521	170.06
257.754	170.06
257.987	177.06
258.22	162.06
258.452	170.06
258.685	167.06
258.918	166.06
259.151	171.06
259.383	182.06
259.616	179.06
259.849	183.06
260.081	190.06
260.314	209.06
260.547	207.06
260.779	184.06
261.012	190.06
261.244	170.06
261.477	170.06
261.71	183.06
261.942	176.06
262.175	184.06
262.407	184.06
262.64	185.06
262.872	171.06
263.105	163.06
263.337	185.06
263.57	168.06
263.802	176.06
264.035	178.06
264.267	178.06
264.499	174.06
264.732	180.06
264.964	180.06
265.197	179.06
265.429	192.06
265.661	160.06
265.894	181.06
266.126	188.06
266.358	165.06
266.591	180.06
266.823	178.06
267.055	205.06
267.287	200.06
267.52	193.06
267.752	198.06
267.984	187.06
268.216	192.06
268.448	184.06
268.681	187.06
268.913	202.06
269.145	217.06
269.377	212.06
269.609	204.06
269.841	226.06
270.073	222.06
270.306	240.06
270.538	246.06
270.77	229.06
271.002	215.06
271.234	242.06
271.466	218.06
271.698	250.06
271.93	259.06
272.162	234.06
272.394	240.06
272.626	233.06
272.858	232.06
273.09	219.06
273.322	225.06
273.553	212.06
273.785	212.06
274.017	216.06
274.249	212.06
274.481	222.06
274.713	217.06
274.945	220.06
275.176	205.06
275.408	195.06
275.64	213.06
275.872	215.06
276.104	220.06
276.335	216.06
276.567	227.06
276.799	226.06
277.031	235.06
277.262	261.06
277.494	258.06
277.726	214.06
277.957	227.06
278.189	230.06
278.421	236.06
278.652	246.06
278.884	221.06
279.115	214.06
279.347	224.06
279.579	231.06
279.81	231.06
280.042	211.06
280.273	207.06
280.505	244.06
280.736	226.06
280.968	223.06
281.199	230.06
281.431	227.06
281.662	229.06
281.894	232.06
282.125	248.06
282.356	226.06
282.588	246.06
282.819	260.06
283.051	233.06
283.282	217.06
283.513	233.06
283.745	233.06
283.976	223.06
284.207	245.06
284.439	230.06
284.67	250.06
284.901	237.06
285.132	243.06
285.364	254.06
285.595	249.06
285.826	258.06
286.057	233.06
286.288	237.06
286.52	226.06
286.751	245.06
286.982	235.06
287.213	255.06
287.444	252.06
287.675	232.06
287.906	262.06
288.138	254.06
288.369	256.06
288.6	261.06
288.831	264.06
289.062	242.06
289.293	266.06
289.524	245.06
289.755	253.06
289.986	255.06
290.217	253.06
290.448	261.06
290.679	245.06
290.91	259.06
291.141	227.06
291.371	235.06
291.602	246.06
291.833	244.06
292.064	246.06
292.295	271.06
292.526	261.06
292.757	249.06
292.987	245.06
293.218	256.06
293.449	250.06
293.68	253.06
293.91	257.06
294.141	253.06
294.372	263.06
294.603	258.06
294.833	261.06
295.064	250.06
295.295	237.06
295.525	269.06
295.756	269.06
295.987	256.06
296.217	268.06
296.448	273.06
296.679	269.06
296.909	257.06
297.14	277.06
297.37	276.06
297.601	263.06
297.831	251.06
298.062	269.06
298.292	272.06
298.523	275.06
298.753	265.06
298.984	274.06
299.214	262.06
299.445	276.06
299.675	265.06
299.905	280.06
300.136	271.06
300.366	284.06
300.597	281.06
300.827	270.06
301.057	279.06
301.288	288.06
301.518	279.06
301.748	269.06
301.979	273.06
302.209	292.06
302.439	286.06
302.669	277.06
302.9	280.06
303.13	272.06
303.36	277.06
303.59	297.06
303.82	286.06
304.051	283.06
304.281	294.06
304.511	276.06
304.741	276.06
304.971	289.06
305.201	309.06
305.431	278.06
305.661	296.06
305.891	294.06
306.121	297.06
306.352	278.06
306.582	280.06
306.812	278.06
307.042	261.06
307.272	284.06
307.502	284.06
307.731	277.06
307.961	277.06
308.191	285.06
308.421	269.06
308.651	286.06
308.881	300.06
309.111	287.06
309.341	280.06
309.571	292.06
309.8	291.06
310.03	285.06
310.26	322.06
310.49	312.06
310.72	304.06
310.949	311.06
311.179	301.06
311.409	304.06
311.639	318.06
311.868	306.06
312.098	309.06
312.328	299.06
312.557	313.06
312.787	326.06
313.017	324.06
313.246	306.06
313.476	301.06
313.706	316.06
313.935	325.06
314.165	310.06
314.394	304.06
314.624	305.06
314.853	317.06
315.083	321.06
315.312	323.06
315.542	313.06
315.771	320.06
316.001	304.06
316.23	310.06
316.46	304.06
316.689	306.06
316.919	312.06
317.148	310.06
317.377	315.06
317.607	302.06
317.836	313.06
318.065	302.06
318.295	298.06
318.524	309.06
318.753	303.06
318.983	313.06
319.212	322.06
319.441	310.06
319.67	304.06
319.9	305.06
320.129	296.06
320.358	306.06
320.587	313.06
320.816	332.06
321.046	323.06
321.275	327.06
321.504	339.06
321.733	332.06
321.962	321.06
322.191	326.06
322.42	340.06
322.649	349.06
322.878	309.06
323.108	323.06
323.337	355.06
323.566	361.06
323.795	390.06
324.024	388.06
324.253	438.06
324.482	565.06
324.71	848.06
324.939	1081.06
325.168	869.06
325.397	496.06
325.626	394.06
325.855	372.06
326.084	382.06
326.313	350.06
326.542	374.06
326.77	409.06
326.999	417.06
327.228	561.06
327.457	720.06
327.686	804.06
327.914	590.06
328.143	445.06
328.372	419.06
328.6	379.06
328.829	388.06
329.058	397.06
329.287	390.06
329.515	375.06
329.744	382.06
329.972	380.06
330.201	406.06
330.43	406.06
330.658	414.06
330.887	408.06
331.115	427.06
331.344	369.06
331.572	390.06
331.801	404.06
332.03	380.06
332.258	379.06
332.486	362.06
332.715	365.06
332.943	389.06
333.172	386.06
333.4	405.06
333.629	414.06
333.857	421.06
334.085	417.06
334.314	424.06
334.542	426.06
334.771	452.06
334.999	398.06
335.227	401.06
335.455	393.06
335.684	370.06
335.912	385.06
336.14	393.06
336.369	367.06
336.597	382.06
336.825	380.06
337.053	358.06
337.281	372.06
337.51	357.06
337.738	362.06
337.966	368.06
338.194	372.06
338.422	358.06
338.65	356.06
338.878	349.06
339.106	346.06
339.334	346.06
339.562	372.06
339.79	360.06
340.018	342.06
340.246	354.06
340.474	349.06
340.702	344.06
340.93	347.06
341.158	357.06
341.386	330.06
341.614	355.06
341.842	339.06
342.07	353.06
342.298	336.06
342.526	336.06
342.754	325.06
342.981	340.06
343.209	344.06
343.437	357.06
343.665	342.06
343.893	355.06
344.12	377.06
344.348	366.06
344.576	377.06
344.804	368.06
345.031	336.06
345.259	352.06
345.487	340.06
345.714	347.06
345.942	348.06
346.17	337.06
346.397	326.06
346.625	331.06
346.853	338.06
347.08	332.06
347.308	320.06
347.535	344.06
347.763	343.06
347.99	345.06
348.218	326.06
348.445	326.06
348.673	320.06
348.9	334.06
349.128	335.06
349.355	342.06
349.583	307.06
349.81	332.06
350.037	324.06
350.265	324.06
350.492	323.06
350.72	317.06
350.947	321.06
351.174	317.06
351.402	324.06
351.629	355.06
351.856	334.06
352.083	332.06
352.311	338.06
352.538	331.06
352.765	324.06
352.992	320.06
353.22	320.06
353.447	325.06
353.674	332.06
353.901	306.06
354.128	304.06
354.355	326.06
354.583	307.06
354.81	327.06
355.037	309.06
355.264	311.06
355.491	304.06
355.718	300.06
355.945	298.06
356.172	321.06
356.399	328.06
356.626	307.06
356.853	301.06
357.08	293.06
357.307	309.06
357.534	302.06
357.761	320.06
357.988	330.06
358.215	323.06
358.441	320.06
358.668	305.06
358.895	322.06
359.122	312.06
359.349	314.06
359.576	334.06
359.802	340.06
360.029	339.06
360.256	355.06
360.483	332.06
360.709	338.06
360.936	320.06
361.163	333.06
361.39	329.06
361.616	331.06
361.843	339.06
362.07	308.06
362.296	292.06
362.523	332.06
362.749	324.06
362.976	326.06
363.203	327.06
363.429	332.06
363.656	329.06
363.882	341.06
364.109	312.06
364.335	314.06
364.562	312.06
364.788	323.06
365.015	324.06
365.241	320.06
365.468	333.06
365.694	323.06
365.92	315.06
366.147	318.06
366.373	319.06
366.599	332.06
366.826	305.06
367.052	312.06
367.278	329.06
367.505	319.06
367.731	327.06
367.957	326.06
368.184	324.06
368.41	325.06
368.636	326.06
368.862	332.06
369.089	308.06
369.315	315.06
369.541	318.06
369.767	311.06
369.993	316.06
370.219	324.06
370.445	330.06
370.672	329.06
370.898	333.06
371.124	311.06
371.35	324.06
371.576	328.06
371.802	324.06
372.028	315.06
372.254	311.06
372.48	334.06
372.706	341.06
372.932	328.06
373.158	332.06
373.384	325.06
373.61	323.06
373.835	323.06
374.061	341.06
374.287	328.06
374.513	335.06
374.739	353.06
374.965	356.06
375.191	365.06
375.416	358.06
375.642	328.06
375.868	331.06
376.094	335.06
376.319	345.06
376.545	337.06
376.771	312.06
376.997	317.06
377.222	325.06
377.448	321.06
377.674	313.06
377.899	320.06
378.125	305.06
378.35	315.06
378.576	326.06
378.802	317.06
379.027	321.06
379.253	323.06
379.478	325.06
379.704	312.06
379.929	311.06
380.155	299.06
380.38	298.06
380.606	326.06
380.831	318.06
381.057	332.06
381.282	312.06
381.507	322.06
381.733	331.06
381.958	326.06
382.184	333.06
382.409	334.06
382.634	342.06
382.86	340.06
383.085	336.06
383.31	342.06
383.535	334.06
383.761	339.06
383.986	357.06
384.211	362.06
384.436	340.06
384.662	361.06
384.887	357.06
385.112	360.06
385.337	377.06
385.562	360.06
385.787	335.06
386.013	343.06
386.238	394.06
386.463	360.06
386.688	350.06
386.913	349.06
387.138	372.06
387.363	358.06
387.588	366.06
387.813	355.06
388.038	355.06
388.263	368.06
388.488	359.06
388.713	356.06
388.938	355.06
389.163	356.06
389.387	354.06
389.612	345.06
389.837	332.06
390.062	343.06
390.287	359.06
390.512	345.06
390.736	355.06
390.961	368.06
391.186	374.06
391.411	371.06
391.636	389.06
391.86	396.06
392.085	384.06
392.31	375.06
392.534	395.06
392.759	367.06
392.984	366.06
393.208	372.06
393.433	354.06
393.658	355.06
393.882	343.06
394.107	362.06
394.331	377.06
394.556	385.06
394.78	373.06
395.005	388.06
395.229	370.06
395.454	381.06
395.678	376.06
395.903	398.06
396.127	388.06
396.352	396.06
396.576	390.06
396.801	357.06
397.025	376.06
397.249	370.06
397.474	387.06
397.698	381.06
397.922	401.06
398.147	396.06
398.371	416.06
398.595	401.06
398.82	427.06
399.044	428.06
399.268	460.06
399.492	490.06
399.717	529.06
399.941	558.06
400.165	533.06
400.389	525.06
400.613	484.06
400.837	463.06
401.062	427.06
401.286	432.06
401.51	446.06
401.734	436.06
401.958	410.06
402.182	437.06
402.406	419.06
402.63	435.06
402.854	439.06
403.078	456.06
403.302	444.06
403.526	451.06
403.75	468.06
403.974	462.06
404.198	456.06
404.422	426.06
404.645	451.06
404.869	434.06
405.093	449.06
405.317	469.06
405.541	499.06
405.765	466.06
405.988	445.06
406.212	470.06
406.436	470.06
406.66	467.06
406.883	484.06
407.107	496.06
407.331	525.06
407.555	569.06
407.778	564.06
408.002	510.06
408.226	499.06
408.449	492.06
408.673	480.06
408.896	502.06
409.12	502.06
409.344	482.06
409.567	438.06
409.791	434.06
410.014	438.06
410.238	455.06
410.461	458.06
410.685	440.06
410.908	441.06
411.132	465.06
411.355	471.06
411.578	448.06
411.802	459.06
412.025	406.06
412.249	448.06
412.472	480.06
412.695	460.06
412.919	459.06
413.142	438.06
413.365	432.06
413.589	417.06
413.812	432.06
414.035	427.06
414.258	407.06
414.482	416.06
414.705	419.06
414.928	413.06
415.151	428.06
415.374	428.06
415.597	411.06
415.821	406.06
416.044	416.06
416.267	400.06
416.49	412.06
416.713	427.06
416.936	411.06
417.159	421.06
417.382	397.06
417.605	404.06
417.828	421.06
418.051	437.06
418.274	416.06
418.497	430.06
418.72	448.06
418.943	429.06
419.166	434.06
419.389	445.06
419.611	461.06
419.834	440.06
420.057	443.06
420.28	441.06
420.503	418.06
420.726	425.06
420.948	442.06
421.171	467.06
421.394	454.06
421.617	437.06
421.839	422.06
422.062	432.06
422.285	422.06
422.507	469.06
422.73	524.06
422.953	484.06
423.175	464.06
423.398	455.06
423.621	443.06
423.843	457.06
424.066	447.06
424.288	456.06
424.511	448.06
424.733	484.06
424.956	523.06
425.178	497.06
425.401	518.06
425.623	489.06
425.846	448.06
426.068	436.06
426.291	428.06
426.513	421.06
426.735	421.06
426.958	449.06
427.18	484.06
427.402	550.06
427.625	582.06
427.847	521.06
428.069	491.06
428.292	433.06
428.514	389.06
428.736	382.06
428.958	414.06
429.181	395.06
429.403	398.06
429.625	379.06
429.847	425.06
430.069	452.06
430.292	460.06
430.514	388.06
430.736	394.06
430.958	376.06
431.18	396.06
431.402	377.06
431.624	391.06
431.846	405.06
432.068	392.06
432.29	393.06
432.512	384.06
432.734	385.06
432.956	384.06
433.178	394.06
433.4	389.06
433.622	390.06
433.844	390.06
434.066	378.06
434.287	378.06
434.509	385.06
434.731	410.06
434.953	410.06
435.175	436.06
435.397	434.06
435.618	427.06
435.84	442.06
436.062	480.06
436.284	534.06
436.505	450.06
436.727	428.06
436.949	409.06
437.17	406.06
437.392	389.06
437.614	398.06
437.835	411.06
438.057	442.06
438.278	516.06
438.5	498.06
438.721	540.06
438.943	531.06
439.165	453.06
439.386	427.06
439.608	446.06
439.829	420.06
440.05	423.06
440.272	449.06
440.493	420.06
440.715	420.06
440.936	405.06
441.158	426.06
441.379	417.06
441.6	420.06
441.822	437.06
442.043	468.06
442.264	486.06
442.486	505.06
442.707	466.06
442.928	438.06
443.149	441.06
443.371	462.06
443.592	481.06
443.813	518.06
444.034	540.06
444.255	482.06
444.476	459.06
444.698	494.06
444.919	485.06
445.14	586.06
445.361	497.06
445.582	468.06
445.803	481.06
446.024	536.06
446.245	535.06
446.466	482.06
446.687	425.06
446.908	426.06
447.129	398.06
447.35	380.06
447.571	415.06
447.792	394.06
448.013	381.06
448.234	382.06
448.455	413.06
448.675	493.06
448.896	531.06
449.117	474.06
449.338	458.06
449.559	525.06
449.779	543.06
450	475.06
450.221	386.06
450.442	376.06
450.662	364.06
450.883	378.06
451.104	389.06
451.324	384.06
451.545	381.06
451.766	385.06
451.986	363.06
452.207	360.06
452.428	364.06
452.648	362.06
452.869	369.06
453.089	345.06
453.31	372.06
453.53	342.06
453.751	359.06
453.971	356.06
454.192	371.06
454.412	380.06
454.633	342.06
454.853	359.06
455.073	340.06
455.294	390.06
455.514	394.06
455.734	400.06
455.955	356.06
456.175	332.06
456.395	326.06
456.616	331.06
456.836	343.06
457.056	336.06
457.276	341.06
457.497	354.06
457.717	352.06
457.937	360.06
458.157	341.06
458.377	355.06
458.598	378.06
458.818	390.06
459.038	455.06
459.258	455.06
459.478	419.06
459.698	381.06
459.918	395.06
460.138	392.06
460.358	409.06
460.578	394.06
460.798	422.06
461.018	411.06
461.238	433.06
461.458	385.06
461.678	426.06
461.898	410.06
462.118	433.06
462.338	428.06
462.558	453.06
462.777	464.06
462.997	468.06
463.217	501.06
463.437	502.06
463.657	480.06
463.876	464.06
464.096	457.06
464.316	466.06
464.536	480.06
464.755	465.06
464.975	446.06
465.195	467.06
465.414	476.06
465.634	411.06
465.854	406.06
466.073	412.06
466.293	404.06
466.512	382.06
466.732	376.06
466.951	382.06
467.171	358.06
467.391	413.06
467.61	378.06
467.829	373.06
468.049	371.06
468.268	380.06
468.488	374.06
468.707	377.06
468.927	386.06
469.146	360.06
469.365	368.06
469.585	361.06
469.804	366.06
470.023	381.06
470.243	380.06
470.462	387.06
470.681	399.06
470.901	415.06
471.12	376.06
471.339	377.06
471.558	395.06
471.777	391.06
471.997	391.06
472.216	397.06
472.435	396.06
472.654	395.06
472.873	374.06
473.092	382.06
473.311	373.06
473.53	373.06
473.749	398.06
473.968	410.06
474.187	441.06
474.406	460.06
474.625	399.06
474.844	382.06
475.063	378.06
475.282	382.06
475.501	384.06
475.72	374.06
475.939	376.06
476.158	398.06
476.377	380.06
476.596	369.06
476.814	385.06
477.033	379.06
477.252	392.06
477.471	405.06
477.69	416.06
477.908	408.06
478.127	417.06
478.346	416.06
478.564	445.06
478.783	436.06
479.002	443.06
479.22	456.06
479.439	455.06
479.658	446.06
479.876	461.06
480.095	461.06
480.313	484.06
480.532	496.06
480.751	492.06
480.969	473.06
481.188	490.06
481.406	507.06
481.624	443.06
481.843	444.06
482.061	439.06
482.28	425.06
482.498	438.06
482.717	438.06
482.935	431.06
483.153	420.06
483.372	441.06
483.59	440.06
483.808	426.06
484.027	428.06
484.245	443.06
484.463	427.06
484.681	441.06
484.9	440.06
485.118	420.06
485.336	432.06
485.554	453.06
485.772	444.06
485.99	459.06
486.209	456.06
486.427	440.06
486.645	425.06
486.863	446.06
487.081	455.06
487.299	449.06
487.517	465.06
487.735	457.06
487.953	464.06
488.171	462.06
488.389	470.06
488.607	450.06
488.825	444.06
489.043	457.06
489.261	445.06
489.479	450.06
489.696	477.06
489.914	460.06
490.132	458.06
490.35	488.06
490.568	477.06
490.786	473.06
491.003	490.06
491.221	473.06
491.439	494.06
491.657	517.06
491.874	526.06
492.092	512.06
492.31	512.06
492.527	520.06
492.745	524.06
492.963	538.06
493.18	510.06
493.398	545.06
493.615	545.06
493.833	522.06
494.05	552.06
494.268	540.06
494.485	550.06
494.703	534.06
494.92	549.06
495.138	529.06
495.355	553.06
495.573	536.06
495.79	539.06
496.008	519.06
496.225	537.06
496.442	529.06
496.66	533.06
496.877	531.06
497.094	586.06
497.312	558.06
497.529	551.06
497.746	592.06
497.963	557.06
498.181	549.06
498.398	613.06
498.615	633.06
498.832	656.06
499.049	677.06
499.267	703.06
499.484	732.06
499.701	783.06
499.918	818.06
500.135	875.06
500.352	929.06
500.569	967.06
500.786	978.06
501.003	911.06
501.22	863.06
501.437	802.06
501.654	787.06
501.871	711.06
502.088	690.06
502.305	638.06
502.522	659.06
502.739	636.06
502.956	618.06
503.172	581.06
503.389	561.06
503.606	566.06
503.823	571.06
504.04	530.06
504.256	542.06
504.473	566.06
504.69	560.06
504.907	582.06
505.123	547.06
505.34	514.06
505.557	491.06
505.773	513.06
505.99	513.06
506.207	521.06
506.423	490.06
506.64	476.06
506.856	478.06
507.073	505.06
507.289	474.06
507.506	476.06
507.722	471.06
507.939	493.06
508.155	461.06
508.372	454.06
508.588	459.06
508.805	467.06
509.021	473.06
509.238	468.06
509.454	475.06
509.67	467.06
509.887	460.06
510.103	441.06
510.319	456.06
510.536	478.06
510.752	685.06
510.968	602.06
511.184	464.06
511.401	445.06
511.617	434.06
511.833	439.06
512.049	463.06
512.265	446.06
512.481	446.06
512.698	442.06
512.914	445.06
513.13	433.06
513.346	442.06
513.562	436.06
513.778	421.06
513.994	432.06
514.21	438.06
514.426	449.06
514.642	479.06
514.858	477.06
515.074	473.06
515.29	527.06
515.506	710.06
515.721	644.06
515.937	498.06
516.153	462.06
516.369	466.06
516.585	472.06
516.801	472.06
517.016	478.06
517.232	497.06
517.448	493.06
517.664	504.06
517.879	494.06
518.095	494.06
518.311	505.06
518.527	501.06
518.742	494.06
518.958	483.06
519.173	450.06
519.389	444.06
519.605	437.06
519.82	449.06
520.036	462.06
520.251	439.06
520.467	449.06
520.682	451.06
520.898	461.06
521.113	470.06
521.329	455.06
521.544	508.06
521.76	591.06
521.975	866.06
522.19	867.06
522.406	545.06
522.621	450.06
522.836	437.06
523.052	422.06
523.267	423.06
523.482	393.06
523.698	406.06
523.913	398.06
524.128	382.06
524.343	379.06
524.559	398.06
524.774	380.06
524.989	395.06
525.204	387.06
525.419	373.06
525.634	366.06
525.849	390.06
526.064	392.06
526.28	379.06
526.495	371.06
526.71	376.06
526.925	360.06
527.14	370.06
527.355	355.06
527.57	362.06
527.785	351.06
527.999	365.06
528.214	373.06
528.429	359.06
528.644	369.06
528.859	361.06
529.074	379.06
529.289	390.06
529.503	418.06
529.718	406.06
529.933	389.06
530.148	375.06
530.363	375.06
530.577	352.06
530.792	343.06
531.007	368.06
531.221	370.06
531.436	363.06
531.651	356.06
531.865	370.06
532.08	367.06
532.295	364.06
532.509	364.06
532.724	345.06
532.938	363.06
533.153	353.06
533.367	344.06
533.582	369.06
533.796	370.06
534.011	352.06
534.225	374.06
534.44	354.06
534.654	367.06
534.868	351.06
535.083	356.06
535.297	338.06
535.511	378.06
535.726	376.06
535.94	355.06
536.154	355.06
536.369	360.06
536.583	364.06
536.797	373.06
537.011	357.06
537.225	352.06
537.44	347.06
537.654	342.06
537.868	348.06
538.082	340.06
538.296	333.06
538.51	341.06
538.724	344.06
538.938	325.06
539.153	354.06
539.367	350.06
539.581	359.06
539.795	344.06
540.009	349.06
540.222	344.06
540.436	349.06
540.65	322.06
540.864	349.06
541.078	360.06
541.292	342.06
541.506	368.06
541.72	332.06
541.934	356.06
542.147	378.06
542.361	356.06
542.575	348.06
542.789	349.06
543.002	339.06
543.216	350.06
543.43	342.06
543.644	332.06
543.857	356.06
544.071	348.06
544.285	345.06
544.498	356.06
544.712	366.06
544.925	349.06
545.139	334.06
545.352	341.06
545.566	333.06
545.779	352.06
545.993	349.06
546.206	361.06
546.42	386.06
546.633	353.06
546.847	357.06
547.06	344.06
547.274	344.06
547.487	337.06
547.7	352.06
547.914	368.06
548.127	341.06
548.34	363.06
548.554	321.06
548.767	352.06
548.98	350.06
549.193	347.06
549.407	341.06
549.62	353.06
549.833	352.06
550.046	342.06
550.259	349.06
550.473	329.06
550.686	333.06
550.899	347.06
551.112	352.06
551.325	355.06
551.538	352.06
551.751	331.06
551.964	339.06
552.177	352.06
552.39	345.06
552.603	339.06
552.816	346.06
553.029	360.06
553.242	380.06
553.455	363.06
553.667	378.06
553.88	374.06
554.093	361.06
554.306	349.06
554.519	350.06
554.732	333.06
554.944	356.06
555.157	352.06
555.37	323.06
555.583	336.06
555.795	328.06
556.008	325.06
556.221	316.06
556.433	311.06
556.646	329.06
556.859	322.06
557.071	304.06
557.284	312.06
557.496	319.06
557.709	297.06
557.921	311.06
558.134	312.06
558.346	298.06
558.559	300.06
558.771	306.06
558.984	308.06
559.196	303.06
559.409	309.06
559.621	315.06
559.833	313.06
560.046	301.06
560.258	309.06
560.47	310.06
560.683	298.06
560.895	286.06
561.107	301.06
561.32	304.06
561.532	320.06
561.744	308.06
561.956	308.06
562.168	304.06
562.381	306.06
562.593	294.06
562.805	311.06
563.017	301.06
563.229	292.06
563.441	299.06
563.653	296.06
563.865	296.06
564.077	308.06
564.289	306.06
564.501	295.06
564.713	301.06
564.925	320.06
565.137	338.06
565.349	336.06
565.561	347.06
565.773	332.06
565.985	342.06
566.197	376.06
566.408	388.06
566.62	407.06
566.832	439.06
567.044	434.06
567.255	429.06
567.467	440.06
567.679	426.06
567.891	470.06
568.102	468.06
568.314	444.06
568.526	411.06
568.737	404.06
568.949	389.06
569.161	355.06
569.372	356.06
569.584	333.06
569.795	327.06
570.007	311.06
570.218	326.06
570.43	336.06
570.641	317.06
570.853	311.06
571.064	305.06
571.276	307.06
571.487	301.06
571.698	307.06
571.91	298.06
572.121	288.06
572.333	288.06
572.544	282.06
572.755	281.06
572.966	263.06
573.178	280.06
573.389	289.06
573.6	285.06
573.811	282.06
574.023	273.06
574.234	260.06
574.445	266.06
574.656	264.06
574.867	256.06
575.078	273.06
575.289	281.06
575.501	263.06
575.712	250.06
575.923	240.06
576.134	278.06
576.345	260.06
576.556	274.06
576.767	254.06
576.978	266.06
577.188	249.06
577.399	261.06
577.61	243.06
577.821	239.06
578.032	249.06
578.243	260.06
578.454	363.06
578.665	311.06
578.875	257.06
579.086	235.06
579.297	246.06
579.508	240.06
579.718	240.06
579.929	229.06
580.14	241.06
580.35	238.06
580.561	241.06
580.772	242.06
580.982	241.06
581.193	227.06
581.403	235.06
581.614	233.06
581.825	243.06
582.035	258.06
582.246	247.06
582.456	225.06
582.667	232.06
582.877	235.06
583.087	227.06
583.298	257.06
583.508	229.06
583.719	244.06
583.929	238.06
584.139	220.06
584.35	223.06
584.56	238.06
584.77	240.06
584.981	230.06
585.191	227.06
585.401	230.06
585.611	226.06
585.821	226.06
586.032	238.06
586.242	227.06
586.452	231.06
586.662	229.06
586.872	248.06
587.082	249.06
587.292	219.06
587.502	218.06
587.713	237.06
587.923	234.06
588.133	225.06
588.343	242.06
588.553	231.06
588.762	225.06
588.972	229.06
589.182	241.06
589.392	238.06
589.602	237.06
589.812	242.06
590.022	235.06
590.232	233.06
590.441	230.06
590.651	232.06
590.861	240.06
591.071	233.06
591.281	260.06
591.49	264.06
591.7	260.06
591.91	244.06
592.119	262.06
592.329	265.06
592.539	237.06
592.748	262.06
592.958	253.06
593.167	266.06
593.377	250.06
593.587	248.06
593.796	284.06
594.006	270.06
594.215	288.06
594.424	270.06
594.634	277.06
594.843	276.06
595.053	270.06
595.262	246.06
595.472	258.06
595.681	245.06
595.89	237.06
596.1	229.06
596.309	226.06
596.518	217.06
596.727	226.06
596.937	236.06
597.146	227.06
597.355	218.06
597.564	210.06
597.774	215.06
597.983	218.06
598.192	228.06
598.401	207.06
598.61	190.06
598.819	202.06
599.028	227.06
599.237	227.06
599.446	209.06
599.655	217.06
599.864	228.06
600.073	203.06
600.282	216.06
600.491	216.06
600.7	207.06
600.909	208.06
601.118	229.06
601.327	211.06
601.536	214.06
601.745	194.06
601.953	208.06
602.162	220.06
602.371	189.06
602.58	216.06
602.789	207.06
602.997	209.06
603.206	218.06
603.415	197.06
603.623	206.06
603.832	206.06
604.041	195.06
604.249	201.06
604.458	203.06
604.666	195.06
604.875	187.06
605.084	197.06
605.292	198.06
605.501	209.06
605.709	193.06
605.918	185.06
606.126	193.06
606.334	205.06
606.543	185.06
606.751	187.06
606.96	181.06
607.168	200.06
607.376	197.06
607.585	195.06
607.793	203.06
608.001	209.06
608.21	188.06
608.418	213.06
608.626	199.06
608.834	192.06
609.043	197.06
609.251	180.06
609.459	186.06
609.667	201.06
609.875	192.06
610.083	194.06
610.291	201.06
610.499	183.06
610.707	205.06
610.916	200.06
611.124	212.06
611.332	211.06
611.54	204.06
611.748	213.06
611.955	210.06
612.163	207.06
612.371	201.06
612.579	183.06
612.787	200.06
612.995	194.06
613.203	192.06
613.411	204.06
613.618	195.06
613.826	200.06
614.034	177.06
614.242	190.06
614.449	204.06
614.657	193.06
614.865	209.06
615.072	209.06
615.28	200.06
615.488	214.06
615.695	196.06
615.903	202.06
616.111	203.06
616.318	183.06
616.526	191.06
616.733	192.06
616.941	202.06
617.148	186.06
617.356	198.06
617.563	194.06
617.771	196.06
617.978	186.06
618.185	214.06
618.393	190.06
618.6	209.06
618.807	196.06
619.015	195.06
619.222	194.06
619.429	188.06
619.637	187.06
619.844	183.06
620.051	189.06
620.258	185.06
620.466	199.06
620.673	198.06
620.88	187.06
621.087	177.06
621.294	204.06
621.501	204.06
621.708	201.06
621.915	184.06
622.122	180.06
622.329	190.06
622.536	196.06
622.743	182.06
622.95	180.06
623.157	189.06
623.364	186.06
623.571	173.06
623.778	174.06
623.985	193.06
624.192	184.06
624.399	186.06
624.606	190.06
624.812	184.06
625.019	168.06
625.226	178.06
625.433	182.06
625.639	174.06
625.846	176.06
626.053	179.06
626.259	175.06
626.466	178.06
626.673	183.06
626.879	174.06
627.086	163.06
627.293	152.06
627.499	160.06
627.706	189.06
627.912	186.06
628.119	176.06
628.325	188.06
628.532	189.06
628.738	176.06
628.945	176.06
629.151	155.06
629.357	168.06
629.564	168.06
629.77	154.06
629.976	170.06
630.183	174.06
630.389	166.06
630.595	172.06
630.802	160.06
631.008	176.06
631.214	167.06
631.42	156.06
631.627	157.06
631.833	160.06
632.039	168.06
632.245	156.06
632.451	176.06
632.657	164.06
632.863	161.06
633.069	153.06
633.275	156.06
633.481	153.06
633.688	165.06
633.893	162.06
634.099	157.06
634.305	170.06
634.511	172.06
634.717	152.06
634.923	156.06
635.129	154.06
635.335	169.06
635.541	171.06
635.747	156.06
635.952	145.06
636.158	167.06
636.364	170.06
636.57	164.06
636.775	171.06
636.981	162.06
637.187	157.06
637.392	147.06
637.598	137.06
637.804	150.06
638.009	146.06
638.215	148.06
638.421	152.06
638.626	157.06
638.832	138.06
639.037	162.06
639.243	155.06
639.448	166.06
639.654	157.06
639.859	162.06
640.065	160.06
640.27	157.06
640.475	146.06
640.681	146.06
640.886	164.06
641.091	140.06
641.297	151.06
641.502	143.06
641.707	165.06
641.913	148.06
642.118	144.06
642.323	152.06
642.528	147.06
642.733	149.06
642.939	138.06
643.144	155.06
643.349	149.06
643.554	160.06
643.759	142.06
643.964	149.06
644.169	146.06
644.374	137.06
644.579	162.06
644.784	141.06
644.989	150.06
645.194	140.06
645.399	143.06
645.604	156.06
645.809	130.06
646.014	138.06
646.219	134.06
646.423	149.06
646.628	143.06
646.833	145.06
647.038	136.06
647.243	154.06
647.447	146.06
647.652	146.06
647.857	145.06
648.062	150.06
648.266	133.06
648.471	170.06
648.676	156.06
648.88	163.06
649.085	150.06
649.289	153.06
649.494	151.06
649.698	156.06
649.903	150.06
650.107	156.06
650.312	157.06
650.516	153.06
650.721	144.06
650.925	128.06
651.13	138.06
651.334	137.06
651.539	134.06
651.743	131.06
651.947	133.06
652.152	130.06
652.356	150.06
652.56	135.06
652.764	133.06
652.969	118.06
653.173	120.06
653.377	136.06
653.581	135.06
653.785	116.06
653.99	114.06
654.194	120.06
654.398	125.06
654.602	124.06
654.806	132.06
655.01	133.06
655.214	136.06
655.418	128.06
655.622	129.06
655.826	134.06
656.03	129.06
656.234	128.06
656.438	130.06
656.642	118.06
656.846	131.06
657.049	113.06
657.253	114.06
657.457	120.06
657.661	123.06
657.865	104.06
658.068	114.06
658.272	107.06
658.476	94.06
658.68	96.06
658.883	103.06
659.087	79.06
659.291	86.06
659.494	91.06
659.698	99.06
659.901	86.06
660.105	104.06
660.309	89.06
660.512	82.06
660.716	86.06
660.919	99.06
661.123	73.06
661.326	85.06
661.53	90.06
661.733	107.06
661.936	91.06
662.14	78.06
662.343	92.06
662.546	94.06
662.75	96.06
662.953	89.06
663.156	76.06
663.36	101.06
663.563	81.06
663.766	90.06
663.969	89.06
664.173	83.06
664.376	87.06
664.579	81.06
664.782	84.06
664.985	92.06
665.188	88.06
665.391	89.06
665.594	77.06
665.797	74.06
666	88.06
666.203	91.06
666.406	80.06
666.609	73.06
666.812	86.06
667.015	67.06
667.218	72.06
667.421	75.06
667.624	72.06
667.827	77.06
668.03	72.06
668.232	89.06
668.435	79.06
668.638	80.06
668.841	66.06
669.043	88.06
669.246	91.06
669.449	68.06
669.651	73.06
669.854	72.06
670.057	74.06
670.259	80.06
670.462	86.06
670.665	76.06
670.867	80.06
671.07	86.06
671.272	84.06
671.475	78.06
671.677	79.06
671.88	94.06
672.082	70.06
672.284	69.06
672.487	86.06
672.689	80.06
672.892	80.06
