Data from 1969.PennyLincolnUp.Lamp.En5.5.200Scan.071719.P1._HRD10591_14-55-44-973.txt Node
Date: Thu Jul 18 14:55:44 EDT 2019
User: cochatt
Spectrometer: HR+D1059
Trigger mode: 1
Integration Time (sec): 1.000000E-1
Scans to average: 1
Electric dark correction enabled: true
Nonlinearity correction enabled: false
Boxcar width: 0
XAxis mode: Wavelengths
Number of Pixels in Spectrum: 2048
>>>>>Begin Spectral Data<<<<<
223.165	-12.31
223.4	-12.31
223.635	-12.31
223.869	-9.31
224.104	-19.31
224.338	-9.31
224.573	-29.31
224.808	-14.31
225.042	-12.31
225.277	-4.31
225.511	-1.31
225.746	2.69
225.98	2.69
226.215	6.69
226.449	25.69
226.683	25.69
226.918	22.69
227.152	25.69
227.387	32.69
227.621	29.69
227.856	47.69
228.09	45.69
228.324	51.69
228.559	57.69
228.793	46.69
229.027	78.69
229.262	99.69
229.496	98.69
229.73	108.69
229.964	112.69
230.199	95.69
230.433	90.69
230.667	99.69
230.901	97.69
231.136	101.69
231.37	109.69
231.604	102.69
231.838	97.69
232.072	110.69
232.306	102.69
232.541	107.69
232.775	117.69
233.009	91.69
233.243	115.69
233.477	102.69
233.711	108.69
233.945	100.69
234.179	97.69
234.413	107.69
234.647	91.69
234.881	115.69
235.115	114.69
235.349	114.69
235.583	99.69
235.817	100.69
236.051	110.69
236.285	110.69
236.519	107.69
236.753	129.69
236.987	129.69
237.221	148.69
237.455	165.69
237.689	147.69
237.922	122.69
238.156	120.69
238.39	121.69
238.624	111.69
238.858	108.69
239.091	108.69
239.325	117.69
239.559	104.69
239.793	97.69
240.027	125.69
240.26	124.69
240.494	119.69
240.728	119.69
240.961	119.69
241.195	126.69
241.429	126.69
241.662	126.69
241.896	118.69
242.13	122.69
242.363	116.69
242.597	125.69
242.83	127.69
243.064	116.69
243.298	117.69
243.531	114.69
243.765	128.69
243.998	115.69
244.232	126.69
244.465	139.69
244.699	123.69
244.932	142.69
245.166	127.69
245.399	125.69
245.633	124.69
245.866	138.69
246.099	126.69
246.333	129.69
246.566	137.69
246.8	136.69
247.033	146.69
247.266	142.69
247.5	141.69
247.733	139.69
247.966	162.69
248.2	128.69
248.433	131.69
248.666	149.69
248.899	154.69
249.133	150.69
249.366	177.69
249.599	161.69
249.832	155.69
250.066	137.69
250.299	128.69
250.532	155.69
250.765	166.69
250.998	181.69
251.231	189.69
251.465	179.69
251.698	169.69
251.931	156.69
252.164	142.69
252.397	158.69
252.63	179.69
252.863	166.69
253.096	174.69
253.329	188.69
253.562	179.69
253.795	180.69
254.028	183.69
254.261	184.69
254.494	181.69
254.727	188.69
254.96	218.69
255.193	215.69
255.426	191.69
255.659	199.69
255.892	180.69
256.124	211.69
256.357	189.69
256.59	173.69
256.823	175.69
257.056	165.69
257.289	185.69
257.521	172.69
257.754	167.69
257.987	181.69
258.22	184.69
258.452	174.69
258.685	184.69
258.918	179.69
259.151	166.69
259.383	189.69
259.616	193.69
259.849	198.69
260.081	197.69
260.314	188.69
260.547	209.69
260.779	193.69
261.012	169.69
261.244	187.69
261.477	197.69
261.71	190.69
261.942	193.69
262.175	203.69
262.407	189.69
262.64	194.69
262.872	193.69
263.105	178.69
263.337	183.69
263.57	186.69
263.802	184.69
264.035	189.69
264.267	182.69
264.499	167.69
264.732	165.69
264.964	187.69
265.197	163.69
265.429	188.69
265.661	190.69
265.894	185.69
266.126	191.69
266.358	194.69
266.591	185.69
266.823	193.69
267.055	188.69
267.287	198.69
267.52	182.69
267.752	188.69
267.984	190.69
268.216	175.69
268.448	207.69
268.681	201.69
268.913	195.69
269.145	226.69
269.377	221.69
269.609	218.69
269.841	216.69
270.073	228.69
270.306	227.69
270.538	234.69
270.77	221.69
271.002	229.69
271.234	235.69
271.466	227.69
271.698	238.69
271.93	252.69
272.162	247.69
272.394	230.69
272.626	243.69
272.858	237.69
273.09	233.69
273.322	212.69
273.553	217.69
273.785	217.69
274.017	242.69
274.249	206.69
274.481	220.69
274.713	231.69
274.945	224.69
275.176	235.69
275.408	232.69
275.64	218.69
275.872	214.69
276.104	229.69
276.335	214.69
276.567	243.69
276.799	241.69
277.031	250.69
277.262	247.69
277.494	257.69
277.726	247.69
277.957	231.69
278.189	236.69
278.421	233.69
278.652	233.69
278.884	247.69
279.115	238.69
279.347	230.69
279.579	218.69
279.81	209.69
280.042	221.69
280.273	236.69
280.505	233.69
280.736	240.69
280.968	219.69
281.199	236.69
281.431	227.69
281.662	234.69
281.894	249.69
282.125	234.69
282.356	241.69
282.588	261.69
282.819	243.69
283.051	234.69
283.282	234.69
283.513	238.69
283.745	229.69
283.976	227.69
284.207	249.69
284.439	238.69
284.67	227.69
284.901	230.69
285.132	223.69
285.364	234.69
285.595	244.69
285.826	232.69
286.057	247.69
286.288	238.69
286.52	233.69
286.751	252.69
286.982	259.69
287.213	236.69
287.444	245.69
287.675	257.69
287.906	263.69
288.138	251.69
288.369	263.69
288.6	262.69
288.831	246.69
289.062	246.69
289.293	254.69
289.524	257.69
289.755	249.69
289.986	246.69
290.217	259.69
290.448	267.69
290.679	266.69
290.91	254.69
291.141	278.69
291.371	244.69
291.602	249.69
291.833	252.69
292.064	261.69
292.295	260.69
292.526	250.69
292.757	258.69
292.987	260.69
293.218	248.69
293.449	259.69
293.68	250.69
293.91	266.69
294.141	259.69
294.372	269.69
294.603	257.69
294.833	237.69
295.064	268.69
295.295	259.69
295.525	239.69
295.756	235.69
295.987	262.69
296.217	280.69
296.448	264.69
296.679	271.69
296.909	261.69
297.14	270.69
297.37	267.69
297.601	274.69
297.831	269.69
298.062	269.69
298.292	257.69
298.523	272.69
298.753	277.69
298.984	260.69
299.214	275.69
299.445	281.69
299.675	278.69
299.905	257.69
300.136	277.69
300.366	270.69
300.597	283.69
300.827	275.69
301.057	267.69
301.288	313.69
301.518	282.69
301.748	290.69
301.979	303.69
302.209	278.69
302.439	276.69
302.669	276.69
302.9	269.69
303.13	288.69
303.36	294.69
303.59	277.69
303.82	299.69
304.051	299.69
304.281	294.69
304.511	285.69
304.741	283.69
304.971	295.69
305.201	314.69
305.431	298.69
305.661	294.69
305.891	288.69
306.121	300.69
306.352	290.69
306.582	292.69
306.812	286.69
307.042	279.69
307.272	284.69
307.502	275.69
307.731	285.69
307.961	269.69
308.191	287.69
308.421	282.69
308.651	286.69
308.881	289.69
309.111	291.69
309.341	303.69
309.571	298.69
309.8	305.69
310.03	306.69
310.26	315.69
310.49	306.69
310.72	298.69
310.949	313.69
311.179	321.69
311.409	294.69
311.639	302.69
311.868	306.69
312.098	294.69
312.328	304.69
312.557	338.69
312.787	324.69
313.017	325.69
313.246	337.69
313.476	300.69
313.706	315.69
313.935	315.69
314.165	323.69
314.394	332.69
314.624	315.69
314.853	324.69
315.083	321.69
315.312	311.69
315.542	313.69
315.771	307.69
316.001	313.69
316.23	318.69
316.46	322.69
316.689	312.69
316.919	296.69
317.148	325.69
317.377	327.69
317.607	322.69
317.836	332.69
318.065	319.69
318.295	318.69
318.524	302.69
318.753	301.69
318.983	302.69
319.212	296.69
319.441	314.69
319.67	317.69
319.9	324.69
320.129	305.69
320.358	313.69
320.587	298.69
320.816	327.69
321.046	317.69
321.275	341.69
321.504	329.69
321.733	319.69
321.962	334.69
322.191	338.69
322.42	349.69
322.649	328.69
322.878	338.69
323.108	350.69
323.337	349.69
323.566	357.69
323.795	372.69
324.024	387.69
324.253	468.69
324.482	582.69
324.71	814.69
324.939	1064.69
325.168	928.69
325.397	528.69
325.626	412.69
325.855	377.69
326.084	369.69
326.313	361.69
326.542	373.69
326.77	394.69
326.999	425.69
327.228	556.69
327.457	737.69
327.686	836.69
327.914	589.69
328.143	463.69
328.372	419.69
328.6	405.69
328.829	412.69
329.058	410.69
329.287	411.69
329.515	409.69
329.744	383.69
329.972	380.69
330.201	403.69
330.43	417.69
330.658	422.69
330.887	418.69
331.115	438.69
331.344	406.69
331.572	391.69
331.801	380.69
332.03	373.69
332.258	377.69
332.486	385.69
332.715	375.69
332.943	402.69
333.172	399.69
333.4	407.69
333.629	398.69
333.857	410.69
334.085	419.69
334.314	417.69
334.542	436.69
334.771	439.69
334.999	404.69
335.227	394.69
335.455	401.69
335.684	395.69
335.912	403.69
336.14	378.69
336.369	381.69
336.597	381.69
336.825	375.69
337.053	378.69
337.281	374.69
337.51	377.69
337.738	382.69
337.966	383.69
338.194	371.69
338.422	350.69
338.65	357.69
338.878	373.69
339.106	354.69
339.334	349.69
339.562	346.69
339.79	354.69
340.018	362.69
340.246	352.69
340.474	358.69
340.702	346.69
340.93	358.69
341.158	344.69
341.386	358.69
341.614	352.69
341.842	362.69
342.07	342.69
342.298	334.69
342.526	342.69
342.754	349.69
342.981	327.69
343.209	345.69
343.437	375.69
343.665	366.69
343.893	389.69
344.12	389.69
344.348	379.69
344.576	376.69
344.804	356.69
345.031	355.69
345.259	362.69
345.487	357.69
345.714	335.69
345.942	336.69
346.17	339.69
346.397	331.69
346.625	336.69
346.853	322.69
347.08	339.69
347.308	334.69
347.535	355.69
347.763	351.69
347.99	359.69
348.218	345.69
348.445	344.69
348.673	327.69
348.9	329.69
349.128	321.69
349.355	317.69
349.583	319.69
349.81	336.69
350.037	346.69
350.265	306.69
350.492	329.69
350.72	330.69
350.947	341.69
351.174	331.69
351.402	337.69
351.629	350.69
351.856	323.69
352.083	337.69
352.311	337.69
352.538	343.69
352.765	342.69
352.992	321.69
353.22	319.69
353.447	310.69
353.674	326.69
353.901	331.69
354.128	327.69
354.355	317.69
354.583	310.69
354.81	314.69
355.037	327.69
355.264	330.69
355.491	316.69
355.718	324.69
355.945	326.69
356.172	314.69
356.399	324.69
356.626	327.69
356.853	302.69
357.08	321.69
357.307	320.69
357.534	309.69
357.761	320.69
357.988	322.69
358.215	324.69
358.441	330.69
358.668	330.69
358.895	330.69
359.122	320.69
359.349	333.69
359.576	345.69
359.802	311.69
360.029	335.69
360.256	367.69
360.483	340.69
360.709	315.69
360.936	330.69
361.163	336.69
361.39	330.69
361.616	317.69
361.843	323.69
362.07	329.69
362.296	322.69
362.523	325.69
362.749	333.69
362.976	337.69
363.203	316.69
363.429	330.69
363.656	335.69
363.882	339.69
364.109	313.69
364.335	331.69
364.562	314.69
364.788	305.69
365.015	320.69
365.241	323.69
365.468	326.69
365.694	310.69
365.92	322.69
366.147	330.69
366.373	308.69
366.599	326.69
366.826	323.69
367.052	316.69
367.278	295.69
367.505	323.69
367.731	306.69
367.957	302.69
368.184	314.69
368.41	311.69
368.636	317.69
368.862	340.69
369.089	330.69
369.315	328.69
369.541	328.69
369.767	328.69
369.993	333.69
370.219	332.69
370.445	318.69
370.672	325.69
370.898	317.69
371.124	309.69
371.35	319.69
371.576	335.69
371.802	334.69
372.028	320.69
372.254	329.69
372.48	341.69
372.706	339.69
372.932	322.69
373.158	335.69
373.384	327.69
373.61	330.69
373.835	315.69
374.061	328.69
374.287	327.69
374.513	331.69
374.739	345.69
374.965	355.69
375.191	335.69
375.416	335.69
375.642	314.69
375.868	331.69
376.094	341.69
376.319	322.69
376.545	322.69
376.771	318.69
376.997	326.69
377.222	315.69
377.448	327.69
377.674	318.69
377.899	326.69
378.125	314.69
378.35	316.69
378.576	308.69
378.802	330.69
379.027	326.69
379.253	314.69
379.478	325.69
379.704	331.69
379.929	326.69
380.155	315.69
380.38	314.69
380.606	319.69
380.831	323.69
381.057	323.69
381.282	336.69
381.507	324.69
381.733	326.69
381.958	322.69
382.184	325.69
382.409	324.69
382.634	331.69
382.86	357.69
383.085	334.69
383.31	347.69
383.535	330.69
383.761	321.69
383.986	348.69
384.211	338.69
384.436	337.69
384.662	349.69
384.887	363.69
385.112	369.69
385.337	349.69
385.562	362.69
385.787	354.69
386.013	371.69
386.238	355.69
386.463	379.69
386.688	356.69
386.913	328.69
387.138	369.69
387.363	341.69
387.588	371.69
387.813	358.69
388.038	359.69
388.263	365.69
388.488	363.69
388.713	351.69
388.938	340.69
389.163	357.69
389.387	359.69
389.612	354.69
389.837	343.69
390.062	362.69
390.287	364.69
390.512	379.69
390.736	369.69
390.961	357.69
391.186	364.69
391.411	370.69
391.636	381.69
391.86	385.69
392.085	402.69
392.31	389.69
392.534	405.69
392.759	392.69
392.984	365.69
393.208	373.69
393.433	355.69
393.658	371.69
393.882	378.69
394.107	358.69
394.331	379.69
394.556	357.69
394.78	362.69
395.005	350.69
395.229	374.69
395.454	378.69
395.678	401.69
395.903	394.69
396.127	387.69
396.352	412.69
396.576	391.69
396.801	385.69
397.025	385.69
397.249	398.69
397.474	392.69
397.698	370.69
397.922	415.69
398.147	400.69
398.371	411.69
398.595	404.69
398.82	401.69
399.044	443.69
399.268	485.69
399.492	521.69
399.717	550.69
399.941	527.69
400.165	530.69
400.389	505.69
400.613	474.69
400.837	441.69
401.062	460.69
401.286	428.69
401.51	410.69
401.734	424.69
401.958	454.69
402.182	435.69
402.406	417.69
402.63	429.69
402.854	426.69
403.078	447.69
403.302	436.69
403.526	451.69
403.75	457.69
403.974	460.69
404.198	461.69
404.422	455.69
404.645	457.69
404.869	453.69
405.093	477.69
405.317	509.69
405.541	525.69
405.765	485.69
405.988	467.69
406.212	469.69
406.436	480.69
406.66	493.69
406.883	476.69
407.107	496.69
407.331	528.69
407.555	562.69
407.778	567.69
408.002	502.69
408.226	499.69
408.449	476.69
408.673	491.69
408.896	479.69
409.12	499.69
409.344	485.69
409.567	431.69
409.791	445.69
410.014	452.69
410.238	424.69
410.461	452.69
410.685	446.69
410.908	484.69
411.132	453.69
411.355	469.69
411.578	452.69
411.802	438.69
412.025	439.69
412.249	457.69
412.472	493.69
412.695	473.69
412.919	456.69
413.142	439.69
413.365	437.69
413.589	446.69
413.812	415.69
414.035	412.69
414.258	401.69
414.482	419.69
414.705	419.69
414.928	437.69
415.151	422.69
415.374	421.69
415.597	424.69
415.821	415.69
416.044	419.69
416.267	419.69
416.49	411.69
416.713	417.69
416.936	429.69
417.159	415.69
417.382	430.69
417.605	425.69
417.828	442.69
418.051	436.69
418.274	425.69
418.497	441.69
418.72	441.69
418.943	411.69
419.166	441.69
419.389	447.69
419.611	455.69
419.834	439.69
420.057	426.69
420.28	433.69
420.503	427.69
420.726	423.69
420.948	444.69
421.171	464.69
421.394	483.69
421.617	441.69
421.839	423.69
422.062	430.69
422.285	447.69
422.507	451.69
422.73	508.69
422.953	484.69
423.175	467.69
423.398	462.69
423.621	445.69
423.843	468.69
424.066	480.69
424.288	449.69
424.511	476.69
424.733	499.69
424.956	520.69
425.178	537.69
425.401	516.69
425.623	501.69
425.846	472.69
426.068	448.69
426.291	460.69
426.513	439.69
426.735	447.69
426.958	469.69
427.18	495.69
427.402	552.69
427.625	584.69
427.847	525.69
428.069	466.69
428.292	433.69
428.514	422.69
428.736	419.69
428.958	405.69
429.181	391.69
429.403	397.69
429.625	417.69
429.847	420.69
430.069	436.69
430.292	436.69
430.514	405.69
430.736	398.69
430.958	393.69
431.18	389.69
431.402	382.69
431.624	386.69
431.846	382.69
432.068	383.69
432.29	401.69
432.512	423.69
432.734	396.69
432.956	394.69
433.178	397.69
433.4	418.69
433.622	395.69
433.844	409.69
434.066	404.69
434.287	401.69
434.509	401.69
434.731	420.69
434.953	430.69
435.175	429.69
435.397	445.69
435.618	442.69
435.84	457.69
436.062	488.69
436.284	528.69
436.505	472.69
436.727	426.69
436.949	422.69
437.17	407.69
437.392	414.69
437.614	413.69
437.835	433.69
438.057	478.69
438.278	521.69
438.5	523.69
438.721	547.69
438.943	532.69
439.165	453.69
439.386	435.69
439.608	434.69
439.829	438.69
440.05	444.69
440.272	487.69
440.493	437.69
440.715	439.69
440.936	423.69
441.158	422.69
441.379	429.69
441.6	420.69
441.822	431.69
442.043	469.69
442.264	519.69
442.486	541.69
442.707	475.69
442.928	455.69
443.149	439.69
443.371	470.69
443.592	477.69
443.813	543.69
444.034	563.69
444.255	509.69
444.476	471.69
444.698	466.69
444.919	480.69
445.14	590.69
445.361	539.69
445.582	446.69
445.803	508.69
446.024	533.69
446.245	535.69
446.466	500.69
446.687	446.69
446.908	430.69
447.129	410.69
447.35	415.69
447.571	392.69
447.792	391.69
448.013	386.69
448.234	400.69
448.455	421.69
448.675	512.69
448.896	518.69
449.117	476.69
449.338	460.69
449.559	545.69
449.779	549.69
450	476.69
450.221	394.69
450.442	397.69
450.662	380.69
450.883	380.69
451.104	394.69
451.324	386.69
451.545	386.69
451.766	380.69
451.986	382.69
452.207	361.69
452.428	372.69
452.648	365.69
452.869	367.69
453.089	359.69
453.31	364.69
453.53	373.69
453.751	356.69
453.971	357.69
454.192	373.69
454.412	361.69
454.633	351.69
454.853	363.69
455.073	374.69
455.294	379.69
455.514	414.69
455.734	415.69
455.955	361.69
456.175	338.69
456.395	357.69
456.616	347.69
456.836	339.69
457.056	346.69
457.276	341.69
457.497	348.69
457.717	355.69
457.937	354.69
458.157	350.69
458.377	332.69
458.598	364.69
458.818	404.69
459.038	440.69
459.258	451.69
459.478	404.69
459.698	395.69
459.918	395.69
460.138	391.69
460.358	419.69
460.578	413.69
460.798	426.69
461.018	418.69
461.238	425.69
461.458	415.69
461.678	417.69
461.898	430.69
462.118	416.69
462.338	447.69
462.558	436.69
462.777	467.69
462.997	491.69
463.217	501.69
463.437	511.69
463.657	468.69
463.876	445.69
464.096	470.69
464.316	449.69
464.536	458.69
464.755	464.69
464.975	443.69
465.195	459.69
465.414	462.69
465.634	426.69
465.854	423.69
466.073	389.69
466.293	392.69
466.512	395.69
466.732	373.69
466.951	383.69
467.171	385.69
467.391	393.69
467.61	384.69
467.829	395.69
468.049	386.69
468.268	372.69
468.488	390.69
468.707	361.69
468.927	377.69
469.146	370.69
469.365	372.69
469.585	366.69
469.804	368.69
470.023	397.69
470.243	381.69
470.462	397.69
470.681	400.69
470.901	388.69
471.12	380.69
471.339	395.69
471.558	389.69
471.777	391.69
471.997	385.69
472.216	383.69
472.435	406.69
472.654	372.69
472.873	367.69
473.092	381.69
473.311	373.69
473.53	375.69
473.749	394.69
473.968	420.69
474.187	466.69
474.406	447.69
474.625	395.69
474.844	377.69
475.063	379.69
475.282	363.69
475.501	381.69
475.72	379.69
475.939	388.69
476.158	383.69
476.377	367.69
476.596	383.69
476.814	387.69
477.033	402.69
477.252	403.69
477.471	411.69
477.69	405.69
477.908	434.69
478.127	415.69
478.346	436.69
478.564	429.69
478.783	439.69
479.002	443.69
479.22	459.69
479.439	436.69
479.658	439.69
479.876	453.69
480.095	479.69
480.313	500.69
480.532	485.69
480.751	449.69
480.969	480.69
481.188	525.69
481.406	507.69
481.624	462.69
481.843	459.69
482.061	451.69
482.28	429.69
482.498	418.69
482.717	433.69
482.935	418.69
483.153	419.69
483.372	442.69
483.59	408.69
483.808	441.69
484.027	442.69
484.245	421.69
484.463	411.69
484.681	449.69
484.9	438.69
485.118	454.69
485.336	437.69
485.554	447.69
485.772	450.69
485.99	436.69
486.209	440.69
486.427	445.69
486.645	456.69
486.863	456.69
487.081	467.69
487.299	455.69
487.517	452.69
487.735	462.69
487.953	469.69
488.171	474.69
488.389	474.69
488.607	466.69
488.825	468.69
489.043	461.69
489.261	469.69
489.479	471.69
489.696	479.69
489.914	467.69
490.132	468.69
490.35	491.69
490.568	489.69
490.786	494.69
491.003	493.69
491.221	494.69
491.439	508.69
491.657	537.69
491.874	508.69
492.092	527.69
492.31	535.69
492.527	546.69
492.745	538.69
492.963	527.69
493.18	538.69
493.398	551.69
493.615	528.69
493.833	526.69
494.05	554.69
494.268	558.69
494.485	562.69
494.703	541.69
494.92	537.69
495.138	550.69
495.355	559.69
495.573	556.69
495.79	537.69
496.008	552.69
496.225	536.69
496.442	549.69
496.66	536.69
496.877	546.69
497.094	544.69
497.312	566.69
497.529	568.69
497.746	586.69
497.963	585.69
498.181	583.69
498.398	596.69
498.615	617.69
498.832	643.69
499.049	694.69
499.267	723.69
499.484	708.69
499.701	763.69
499.918	792.69
500.135	893.69
500.352	971.69
500.569	958.69
500.786	982.69
501.003	919.69
501.22	886.69
501.437	850.69
501.654	778.69
501.871	753.69
502.088	698.69
502.305	662.69
502.522	657.69
502.739	620.69
502.956	606.69
503.172	603.69
503.389	586.69
503.606	553.69
503.823	539.69
504.04	557.69
504.256	572.69
504.473	551.69
504.69	585.69
504.907	556.69
505.123	541.69
505.34	526.69
505.557	531.69
505.773	531.69
505.99	517.69
506.207	502.69
506.423	513.69
506.64	525.69
506.856	504.69
507.073	509.69
507.289	503.69
507.506	472.69
507.722	499.69
507.939	487.69
508.155	476.69
508.372	478.69
508.588	463.69
508.805	456.69
509.021	466.69
509.238	478.69
509.454	492.69
509.67	468.69
509.887	458.69
510.103	460.69
510.319	481.69
510.536	506.69
510.752	737.69
510.968	613.69
511.184	460.69
511.401	449.69
511.617	443.69
511.833	455.69
512.049	444.69
512.265	440.69
512.481	430.69
512.698	414.69
512.914	447.69
513.13	414.69
513.346	442.69
513.562	428.69
513.778	447.69
513.994	446.69
514.21	444.69
514.426	454.69
514.642	475.69
514.858	474.69
515.074	498.69
515.29	572.69
515.506	768.69
515.721	665.69
515.937	509.69
516.153	488.69
516.369	483.69
516.585	469.69
516.801	474.69
517.016	500.69
517.232	499.69
517.448	492.69
517.664	511.69
517.879	513.69
518.095	520.69
518.311	510.69
518.527	490.69
518.742	496.69
518.958	474.69
519.173	463.69
519.389	455.69
519.605	448.69
519.82	454.69
520.036	442.69
520.251	475.69
520.467	479.69
520.682	470.69
520.898	448.69
521.113	460.69
521.329	471.69
521.544	523.69
521.76	607.69
521.975	909.69
522.19	927.69
522.406	558.69
522.621	462.69
522.836	434.69
523.052	412.69
523.267	389.69
523.482	386.69
523.698	383.69
523.913	408.69
524.128	413.69
524.343	403.69
524.559	427.69
524.774	388.69
524.989	379.69
525.204	393.69
525.419	388.69
525.634	397.69
525.849	380.69
526.064	385.69
526.28	365.69
526.495	369.69
526.71	381.69
526.925	373.69
527.14	391.69
527.355	368.69
527.57	363.69
527.785	381.69
527.999	379.69
528.214	366.69
528.429	382.69
528.644	366.69
528.859	382.69
529.074	389.69
529.289	393.69
529.503	439.69
529.718	407.69
529.933	390.69
530.148	385.69
530.363	381.69
530.577	388.69
530.792	364.69
531.007	378.69
531.221	385.69
531.436	361.69
531.651	385.69
531.865	381.69
532.08	362.69
532.295	359.69
532.509	345.69
532.724	362.69
532.938	350.69
533.153	360.69
533.367	370.69
533.582	352.69
533.796	366.69
534.011	362.69
534.225	350.69
534.44	348.69
534.654	387.69
534.868	363.69
535.083	377.69
535.297	365.69
535.511	379.69
535.726	372.69
535.94	370.69
536.154	365.69
536.369	332.69
536.583	351.69
536.797	345.69
537.011	346.69
537.225	347.69
537.44	360.69
537.654	357.69
537.868	348.69
538.082	347.69
538.296	349.69
538.51	342.69
538.724	363.69
538.938	350.69
539.153	345.69
539.367	371.69
539.581	346.69
539.795	332.69
540.009	342.69
540.222	353.69
540.436	353.69
540.65	355.69
540.864	353.69
541.078	346.69
541.292	357.69
541.506	369.69
541.72	350.69
541.934	357.69
542.147	358.69
542.361	365.69
542.575	354.69
542.789	352.69
543.002	344.69
543.216	360.69
543.43	339.69
543.644	347.69
543.857	352.69
544.071	363.69
544.285	362.69
544.498	351.69
544.712	353.69
544.925	359.69
545.139	343.69
545.352	372.69
545.566	360.69
545.779	345.69
545.993	366.69
546.206	371.69
546.42	385.69
546.633	363.69
546.847	365.69
547.06	334.69
547.274	344.69
547.487	338.69
547.7	353.69
547.914	348.69
548.127	347.69
548.34	343.69
548.554	357.69
548.767	357.69
548.98	342.69
549.193	348.69
549.407	344.69
549.62	352.69
549.833	355.69
550.046	362.69
550.259	359.69
550.473	345.69
550.686	344.69
550.899	346.69
551.112	354.69
551.325	339.69
551.538	348.69
551.751	343.69
551.964	346.69
552.177	361.69
552.39	349.69
552.603	366.69
552.816	374.69
553.029	363.69
553.242	360.69
553.455	352.69
553.667	387.69
553.88	381.69
554.093	347.69
554.306	359.69
554.519	358.69
554.732	357.69
554.944	358.69
555.157	348.69
555.37	346.69
555.583	345.69
555.795	334.69
556.008	310.69
556.221	325.69
556.433	319.69
556.646	305.69
556.859	333.69
557.071	314.69
557.284	301.69
557.496	315.69
557.709	325.69
557.921	314.69
558.134	312.69
558.346	312.69
558.559	302.69
558.771	313.69
558.984	310.69
559.196	300.69
559.409	315.69
559.621	302.69
559.833	293.69
560.046	304.69
560.258	321.69
560.47	302.69
560.683	298.69
560.895	295.69
561.107	330.69
561.32	296.69
561.532	314.69
561.744	299.69
561.956	309.69
562.168	294.69
562.381	300.69
562.593	318.69
562.805	312.69
563.017	297.69
563.229	317.69
563.441	302.69
563.653	299.69
563.865	318.69
564.077	311.69
564.289	315.69
564.501	324.69
564.713	314.69
564.925	328.69
565.137	343.69
565.349	335.69
565.561	334.69
565.773	354.69
565.985	363.69
566.197	371.69
566.408	399.69
566.62	399.69
566.832	434.69
567.044	424.69
567.255	429.69
567.467	436.69
567.679	438.69
567.891	449.69
568.102	471.69
568.314	433.69
568.526	410.69
568.737	403.69
568.949	385.69
569.161	364.69
569.372	334.69
569.584	334.69
569.795	325.69
570.007	312.69
570.218	317.69
570.43	324.69
570.641	300.69
570.853	311.69
571.064	322.69
571.276	306.69
571.487	303.69
571.698	300.69
571.91	287.69
572.121	297.69
572.333	302.69
572.544	281.69
572.755	289.69
572.966	273.69
573.178	268.69
573.389	291.69
573.6	275.69
573.811	266.69
574.023	253.69
574.234	256.69
574.445	275.69
574.656	274.69
574.867	260.69
575.078	258.69
575.289	278.69
575.501	283.69
575.712	267.69
575.923	285.69
576.134	265.69
576.345	263.69
576.556	269.69
576.767	251.69
576.978	249.69
577.188	246.69
577.399	262.69
577.61	253.69
577.821	236.69
578.032	253.69
578.243	276.69
578.454	362.69
578.665	307.69
578.875	270.69
579.086	251.69
579.297	251.69
579.508	258.69
579.718	228.69
579.929	247.69
580.14	243.69
580.35	259.69
580.561	245.69
580.772	243.69
580.982	241.69
581.193	245.69
581.403	225.69
581.614	259.69
581.825	248.69
582.035	242.69
582.246	237.69
582.456	247.69
582.667	241.69
582.877	242.69
583.087	236.69
583.298	225.69
583.508	235.69
583.719	241.69
583.929	233.69
584.139	235.69
584.35	237.69
584.56	225.69
584.77	235.69
584.981	223.69
585.191	235.69
585.401	245.69
585.611	249.69
585.821	238.69
586.032	247.69
586.242	244.69
586.452	233.69
586.662	236.69
586.872	227.69
587.082	232.69
587.292	243.69
587.502	242.69
587.713	218.69
587.923	229.69
588.133	233.69
588.343	233.69
588.553	230.69
588.762	228.69
588.972	233.69
589.182	231.69
589.392	213.69
589.602	241.69
589.812	250.69
590.022	243.69
590.232	244.69
590.441	240.69
590.651	213.69
590.861	220.69
591.071	237.69
591.281	243.69
591.49	241.69
591.7	227.69
591.91	252.69
592.119	257.69
592.329	236.69
592.539	257.69
592.748	259.69
592.958	288.69
593.167	281.69
593.377	275.69
593.587	291.69
593.796	279.69
594.006	270.69
594.215	279.69
594.424	261.69
594.634	267.69
594.843	252.69
595.053	249.69
595.262	260.69
595.472	238.69
595.681	251.69
595.89	245.69
596.1	246.69
596.309	235.69
596.518	233.69
596.727	243.69
596.937	234.69
597.146	231.69
597.355	217.69
597.564	215.69
597.774	210.69
597.983	214.69
598.192	206.69
598.401	224.69
598.61	212.69
598.819	216.69
599.028	233.69
599.237	224.69
599.446	211.69
599.655	218.69
599.864	219.69
600.073	203.69
600.282	213.69
600.491	204.69
600.7	210.69
600.909	199.69
601.118	214.69
601.327	221.69
601.536	215.69
601.745	219.69
601.953	222.69
602.162	206.69
602.371	215.69
602.58	213.69
602.789	208.69
602.997	205.69
603.206	209.69
603.415	193.69
603.623	219.69
603.832	209.69
604.041	198.69
604.249	206.69
604.458	198.69
604.666	194.69
604.875	219.69
605.084	197.69
605.292	193.69
605.501	211.69
605.709	206.69
605.918	203.69
606.126	213.69
606.334	218.69
606.543	213.69
606.751	197.69
606.96	201.69
607.168	196.69
607.376	187.69
607.585	203.69
607.793	206.69
608.001	195.69
608.21	219.69
608.418	202.69
608.626	209.69
608.834	217.69
609.043	206.69
609.251	196.69
609.459	201.69
609.667	188.69
609.875	193.69
610.083	190.69
610.291	201.69
610.499	195.69
610.707	195.69
610.916	199.69
611.124	191.69
611.332	218.69
611.54	205.69
611.748	213.69
611.955	207.69
612.163	199.69
612.371	205.69
612.579	185.69
612.787	189.69
612.995	201.69
613.203	216.69
613.411	191.69
613.618	198.69
613.826	187.69
614.034	212.69
614.242	199.69
614.449	198.69
614.657	198.69
614.865	214.69
615.072	200.69
615.28	188.69
615.488	205.69
615.695	207.69
615.903	201.69
616.111	194.69
616.318	217.69
616.526	212.69
616.733	199.69
616.941	198.69
617.148	210.69
617.356	205.69
617.563	193.69
617.771	193.69
617.978	194.69
618.185	196.69
618.393	199.69
618.6	180.69
618.807	213.69
619.015	203.69
619.222	192.69
619.429	183.69
619.637	186.69
619.844	194.69
620.051	201.69
620.258	197.69
620.466	196.69
620.673	188.69
620.88	191.69
621.087	190.69
621.294	187.69
621.501	193.69
621.708	185.69
621.915	197.69
622.122	197.69
622.329	182.69
622.536	204.69
622.743	193.69
622.95	195.69
623.157	193.69
623.364	187.69
623.571	189.69
623.778	178.69
623.985	183.69
624.192	183.69
624.399	173.69
624.606	182.69
624.812	199.69
625.019	189.69
625.226	182.69
625.433	179.69
625.639	173.69
625.846	193.69
626.053	185.69
626.259	193.69
626.466	169.69
626.673	173.69
626.879	194.69
627.086	183.69
627.293	186.69
627.499	194.69
627.706	174.69
627.912	186.69
628.119	181.69
628.325	161.69
628.532	182.69
628.738	171.69
628.945	171.69
629.151	189.69
629.357	176.69
629.564	167.69
629.77	178.69
629.976	170.69
630.183	169.69
630.389	170.69
630.595	179.69
630.802	173.69
631.008	167.69
631.214	164.69
631.42	165.69
631.627	172.69
631.833	173.69
632.039	163.69
632.245	173.69
632.451	175.69
632.657	158.69
632.863	157.69
633.069	159.69
633.275	171.69
633.481	147.69
633.688	182.69
633.893	167.69
634.099	170.69
634.305	161.69
634.511	169.69
634.717	160.69
634.923	150.69
635.129	157.69
635.335	129.69
635.541	143.69
635.747	156.69
635.952	167.69
636.158	157.69
636.364	168.69
636.57	165.69
636.775	165.69
636.981	155.69
637.187	151.69
637.392	166.69
637.598	163.69
637.804	146.69
638.009	168.69
638.215	161.69
638.421	159.69
638.626	165.69
638.832	152.69
639.037	165.69
639.243	161.69
639.448	149.69
639.654	158.69
639.859	150.69
640.065	150.69
640.27	164.69
640.475	149.69
640.681	151.69
640.886	165.69
641.091	153.69
641.297	165.69
641.502	142.69
641.707	142.69
641.913	153.69
642.118	149.69
642.323	157.69
642.528	150.69
642.733	158.69
642.939	157.69
643.144	143.69
643.349	159.69
643.554	154.69
643.759	150.69
643.964	153.69
644.169	153.69
644.374	148.69
644.579	150.69
644.784	140.69
644.989	166.69
645.194	151.69
645.399	147.69
645.604	154.69
645.809	151.69
646.014	147.69
646.219	134.69
646.423	169.69
646.628	155.69
646.833	161.69
647.038	132.69
647.243	133.69
647.447	137.69
647.652	149.69
647.857	157.69
648.062	139.69
648.266	145.69
648.471	135.69
648.676	161.69
648.88	149.69
649.085	150.69
649.289	165.69
649.494	158.69
649.698	170.69
649.903	154.69
650.107	159.69
650.312	152.69
650.516	132.69
650.721	158.69
650.925	149.69
651.13	131.69
651.334	147.69
651.539	148.69
651.743	145.69
651.947	143.69
652.152	131.69
652.356	134.69
652.56	137.69
652.764	131.69
652.969	126.69
653.173	140.69
653.377	133.69
653.581	129.69
653.785	139.69
653.99	129.69
654.194	133.69
654.398	136.69
654.602	119.69
654.806	122.69
655.01	141.69
655.214	122.69
655.418	110.69
655.622	131.69
655.826	140.69
656.03	127.69
656.234	136.69
656.438	126.69
656.642	138.69
656.846	132.69
657.049	128.69
657.253	124.69
657.457	118.69
657.661	116.69
657.865	113.69
658.068	115.69
658.272	114.69
658.476	107.69
658.68	103.69
658.883	108.69
659.087	94.69
659.291	102.69
659.494	93.69
659.698	105.69
659.901	93.69
660.105	89.69
660.309	111.69
660.512	87.69
660.716	98.69
660.919	105.69
661.123	103.69
661.326	91.69
661.53	97.69
661.733	79.69
661.936	94.69
662.14	79.69
662.343	78.69
662.546	79.69
662.75	80.69
662.953	70.69
663.156	83.69
663.36	87.69
663.563	92.69
663.766	99.69
663.969	80.69
664.173	85.69
664.376	93.69
664.579	79.69
664.782	69.69
664.985	89.69
665.188	89.69
665.391	77.69
665.594	79.69
665.797	78.69
666	71.69
666.203	78.69
666.406	85.69
666.609	74.69
666.812	83.69
667.015	81.69
667.218	103.69
667.421	84.69
667.624	88.69
667.827	83.69
668.03	75.69
668.232	82.69
668.435	83.69
668.638	87.69
668.841	95.69
669.043	90.69
669.246	75.69
669.449	77.69
669.651	87.69
669.854	105.69
670.057	90.69
670.259	91.69
670.462	77.69
670.665	78.69
670.867	83.69
671.07	78.69
671.272	81.69
671.475	70.69
671.677	83.69
671.88	84.69
672.082	81.69
672.284	86.69
672.487	93.69
672.689	79.69
672.892	82.69
