Data from 1969.PennyLincolnUp.Lamp.En5.5.200Scan.071719.P1._HRD10591_14-56-31-972.txt Node
Date: Thu Jul 18 14:56:31 EDT 2019
User: cochatt
Spectrometer: HR+D1059
Trigger mode: 1
Integration Time (sec): 1.000000E-1
Scans to average: 1
Electric dark correction enabled: true
Nonlinearity correction enabled: false
Boxcar width: 0
XAxis mode: Wavelengths
Number of Pixels in Spectrum: 2048
>>>>>Begin Spectral Data<<<<<
223.165	-15.31
223.4	-15.31
223.635	-15.31
223.869	-27.31
224.104	-30.31
224.338	-16.31
224.573	-16.31
224.808	-15.31
225.042	5.69
225.277	-0.31
225.511	2.69
225.746	-7.31
225.98	14.69
226.215	10.69
226.449	22.69
226.683	34.69
226.918	9.69
227.152	27.69
227.387	17.69
227.621	28.69
227.856	37.69
228.09	36.69
228.324	24.69
228.559	53.69
228.793	55.69
229.027	91.69
229.262	89.69
229.496	96.69
229.73	105.69
229.964	131.69
230.199	114.69
230.433	96.69
230.667	103.69
230.901	102.69
231.136	95.69
231.37	97.69
231.604	94.69
231.838	96.69
232.072	102.69
232.306	120.69
232.541	120.69
232.775	111.69
233.009	97.69
233.243	118.69
233.477	113.69
233.711	102.69
233.945	105.69
234.179	112.69
234.413	113.69
234.647	112.69
234.881	106.69
235.115	117.69
235.349	113.69
235.583	95.69
235.817	109.69
236.051	131.69
236.285	123.69
236.519	108.69
236.753	101.69
236.987	126.69
237.221	140.69
237.455	178.69
237.689	146.69
237.922	122.69
238.156	121.69
238.39	118.69
238.624	104.69
238.858	115.69
239.091	104.69
239.325	123.69
239.559	100.69
239.793	118.69
240.027	117.69
240.26	122.69
240.494	139.69
240.728	132.69
240.961	132.69
241.195	126.69
241.429	125.69
241.662	124.69
241.896	113.69
242.13	103.69
242.363	125.69
242.597	107.69
242.83	120.69
243.064	120.69
243.298	139.69
243.531	115.69
243.765	115.69
243.998	117.69
244.232	132.69
244.465	124.69
244.699	130.69
244.932	130.69
245.166	132.69
245.399	142.69
245.633	135.69
245.866	128.69
246.099	142.69
246.333	124.69
246.566	137.69
246.8	143.69
247.033	148.69
247.266	146.69
247.5	129.69
247.733	148.69
247.966	155.69
248.2	152.69
248.433	155.69
248.666	151.69
248.899	158.69
249.133	174.69
249.366	172.69
249.599	177.69
249.832	163.69
250.066	163.69
250.299	168.69
250.532	162.69
250.765	176.69
250.998	183.69
251.231	192.69
251.465	180.69
251.698	169.69
251.931	189.69
252.164	161.69
252.397	159.69
252.63	165.69
252.863	192.69
253.096	176.69
253.329	191.69
253.562	200.69
253.795	201.69
254.028	202.69
254.261	190.69
254.494	193.69
254.727	203.69
254.96	219.69
255.193	203.69
255.426	200.69
255.659	196.69
255.892	181.69
256.124	189.69
256.357	181.69
256.59	192.69
256.823	188.69
257.056	177.69
257.289	182.69
257.521	190.69
257.754	188.69
257.987	167.69
258.22	166.69
258.452	176.69
258.685	177.69
258.918	175.69
259.151	170.69
259.383	187.69
259.616	177.69
259.849	192.69
260.081	200.69
260.314	208.69
260.547	209.69
260.779	204.69
261.012	209.69
261.244	185.69
261.477	200.69
261.71	189.69
261.942	201.69
262.175	196.69
262.407	191.69
262.64	187.69
262.872	174.69
263.105	199.69
263.337	187.69
263.57	187.69
263.802	193.69
264.035	194.69
264.267	185.69
264.499	191.69
264.732	173.69
264.964	184.69
265.197	196.69
265.429	179.69
265.661	189.69
265.894	171.69
266.126	187.69
266.358	187.69
266.591	197.69
266.823	202.69
267.055	204.69
267.287	199.69
267.52	194.69
267.752	197.69
267.984	194.69
268.216	224.69
268.448	208.69
268.681	197.69
268.913	212.69
269.145	220.69
269.377	227.69
269.609	229.69
269.841	210.69
270.073	211.69
270.306	249.69
270.538	266.69
270.77	242.69
271.002	234.69
271.234	233.69
271.466	255.69
271.698	264.69
271.93	258.69
272.162	273.69
272.394	270.69
272.626	255.69
272.858	249.69
273.09	241.69
273.322	220.69
273.553	224.69
273.785	215.69
274.017	220.69
274.249	222.69
274.481	234.69
274.713	247.69
274.945	239.69
275.176	227.69
275.408	209.69
275.64	215.69
275.872	227.69
276.104	229.69
276.335	223.69
276.567	223.69
276.799	234.69
277.031	249.69
277.262	281.69
277.494	267.69
277.726	241.69
277.957	222.69
278.189	232.69
278.421	230.69
278.652	236.69
278.884	228.69
279.115	240.69
279.347	239.69
279.579	235.69
279.81	238.69
280.042	226.69
280.273	227.69
280.505	228.69
280.736	231.69
280.968	255.69
281.199	230.69
281.431	250.69
281.662	234.69
281.894	228.69
282.125	256.69
282.356	250.69
282.588	232.69
282.819	252.69
283.051	242.69
283.282	255.69
283.513	250.69
283.745	238.69
283.976	248.69
284.207	258.69
284.439	233.69
284.67	262.69
284.901	236.69
285.132	239.69
285.364	241.69
285.595	251.69
285.826	231.69
286.057	266.69
286.288	245.69
286.52	240.69
286.751	252.69
286.982	246.69
287.213	252.69
287.444	252.69
287.675	255.69
287.906	270.69
288.138	274.69
288.369	275.69
288.6	264.69
288.831	261.69
289.062	267.69
289.293	263.69
289.524	265.69
289.755	272.69
289.986	255.69
290.217	272.69
290.448	271.69
290.679	266.69
290.91	267.69
291.141	237.69
291.371	247.69
291.602	255.69
291.833	276.69
292.064	275.69
292.295	251.69
292.526	263.69
292.757	240.69
292.987	261.69
293.218	264.69
293.449	267.69
293.68	272.69
293.91	263.69
294.141	256.69
294.372	245.69
294.603	263.69
294.833	273.69
295.064	279.69
295.295	259.69
295.525	263.69
295.756	257.69
295.987	262.69
296.217	278.69
296.448	284.69
296.679	278.69
296.909	256.69
297.14	264.69
297.37	258.69
297.601	287.69
297.831	282.69
298.062	257.69
298.292	278.69
298.523	283.69
298.753	285.69
298.984	272.69
299.214	268.69
299.445	269.69
299.675	272.69
299.905	287.69
300.136	263.69
300.366	283.69
300.597	283.69
300.827	279.69
301.057	273.69
301.288	292.69
301.518	293.69
301.748	310.69
301.979	310.69
302.209	298.69
302.439	289.69
302.669	281.69
302.9	298.69
303.13	284.69
303.36	297.69
303.59	280.69
303.82	297.69
304.051	301.69
304.281	299.69
304.511	279.69
304.741	298.69
304.971	309.69
305.201	287.69
305.431	286.69
305.661	288.69
305.891	289.69
306.121	288.69
306.352	280.69
306.582	277.69
306.812	290.69
307.042	283.69
307.272	300.69
307.502	284.69
307.731	299.69
307.961	288.69
308.191	311.69
308.421	287.69
308.651	282.69
308.881	288.69
309.111	293.69
309.341	291.69
309.571	280.69
309.8	309.69
310.03	310.69
310.26	311.69
310.49	323.69
310.72	328.69
310.949	319.69
311.179	309.69
311.409	296.69
311.639	315.69
311.868	325.69
312.098	320.69
312.328	319.69
312.557	354.69
312.787	343.69
313.017	329.69
313.246	334.69
313.476	308.69
313.706	312.69
313.935	312.69
314.165	332.69
314.394	319.69
314.624	328.69
314.853	331.69
315.083	325.69
315.312	330.69
315.542	315.69
315.771	322.69
316.001	311.69
316.23	295.69
316.46	324.69
316.689	326.69
316.919	327.69
317.148	320.69
317.377	322.69
317.607	329.69
317.836	311.69
318.065	325.69
318.295	333.69
318.524	320.69
318.753	315.69
318.983	327.69
319.212	341.69
319.441	330.69
319.67	337.69
319.9	341.69
320.129	307.69
320.358	338.69
320.587	336.69
320.816	328.69
321.046	329.69
321.275	336.69
321.504	333.69
321.733	341.69
321.962	344.69
322.191	353.69
322.42	364.69
322.649	356.69
322.878	364.69
323.108	362.69
323.337	359.69
323.566	374.69
323.795	405.69
324.024	425.69
324.253	503.69
324.482	663.69
324.71	931.69
324.939	1226.69
325.168	1053.69
325.397	567.69
325.626	431.69
325.855	397.69
326.084	395.69
326.313	391.69
326.542	396.69
326.77	423.69
326.999	467.69
327.228	598.69
327.457	821.69
327.686	947.69
327.914	652.69
328.143	479.69
328.372	441.69
328.6	442.69
328.829	432.69
329.058	437.69
329.287	457.69
329.515	424.69
329.744	380.69
329.972	404.69
330.201	397.69
330.43	428.69
330.658	464.69
330.887	462.69
331.115	461.69
331.344	419.69
331.572	385.69
331.801	408.69
332.03	401.69
332.258	408.69
332.486	397.69
332.715	413.69
332.943	406.69
333.172	402.69
333.4	414.69
333.629	431.69
333.857	442.69
334.085	422.69
334.314	447.69
334.542	454.69
334.771	473.69
334.999	451.69
335.227	397.69
335.455	412.69
335.684	395.69
335.912	399.69
336.14	383.69
336.369	403.69
336.597	387.69
336.825	387.69
337.053	407.69
337.281	380.69
337.51	372.69
337.738	395.69
337.966	354.69
338.194	383.69
338.422	384.69
338.65	375.69
338.878	369.69
339.106	366.69
339.334	364.69
339.562	361.69
339.79	357.69
340.018	348.69
340.246	377.69
340.474	376.69
340.702	366.69
340.93	368.69
341.158	361.69
341.386	369.69
341.614	353.69
341.842	365.69
342.07	345.69
342.298	341.69
342.526	349.69
342.754	343.69
342.981	334.69
343.209	347.69
343.437	367.69
343.665	352.69
343.893	369.69
344.12	391.69
344.348	382.69
344.576	393.69
344.804	371.69
345.031	361.69
345.259	375.69
345.487	379.69
345.714	364.69
345.942	373.69
346.17	355.69
346.397	339.69
346.625	342.69
346.853	352.69
347.08	348.69
347.308	344.69
347.535	365.69
347.763	339.69
347.99	343.69
348.218	351.69
348.445	373.69
348.673	363.69
348.9	344.69
349.128	333.69
349.355	324.69
349.583	320.69
349.81	331.69
350.037	337.69
350.265	317.69
350.492	339.69
350.72	336.69
350.947	342.69
351.174	328.69
351.402	329.69
351.629	359.69
351.856	340.69
352.083	356.69
352.311	353.69
352.538	365.69
352.765	353.69
352.992	350.69
353.22	324.69
353.447	331.69
353.674	333.69
353.901	350.69
354.128	324.69
354.355	325.69
354.583	317.69
354.81	334.69
355.037	332.69
355.264	331.69
355.491	332.69
355.718	325.69
355.945	317.69
356.172	334.69
356.399	331.69
356.626	355.69
356.853	312.69
357.08	320.69
357.307	336.69
357.534	331.69
357.761	308.69
357.988	337.69
358.215	318.69
358.441	339.69
358.668	341.69
358.895	329.69
359.122	326.69
359.349	324.69
359.576	336.69
359.802	341.69
360.029	382.69
360.256	375.69
360.483	350.69
360.709	335.69
360.936	329.69
361.163	341.69
361.39	331.69
361.616	346.69
361.843	351.69
362.07	333.69
362.296	347.69
362.523	341.69
362.749	351.69
362.976	348.69
363.203	343.69
363.429	324.69
363.656	320.69
363.882	323.69
364.109	328.69
364.335	340.69
364.562	331.69
364.788	335.69
365.015	321.69
365.241	325.69
365.468	327.69
365.694	317.69
365.92	329.69
366.147	346.69
366.373	320.69
366.599	325.69
366.826	317.69
367.052	353.69
367.278	328.69
367.505	321.69
367.731	332.69
367.957	333.69
368.184	327.69
368.41	337.69
368.636	318.69
368.862	317.69
369.089	339.69
369.315	350.69
369.541	342.69
369.767	324.69
369.993	339.69
370.219	347.69
370.445	321.69
370.672	337.69
370.898	330.69
371.124	339.69
371.35	348.69
371.576	348.69
371.802	339.69
372.028	322.69
372.254	333.69
372.48	308.69
372.706	327.69
372.932	343.69
373.158	331.69
373.384	343.69
373.61	349.69
373.835	328.69
374.061	331.69
374.287	342.69
374.513	353.69
374.739	364.69
374.965	340.69
375.191	348.69
375.416	341.69
375.642	349.69
375.868	348.69
376.094	344.69
376.319	366.69
376.545	351.69
376.771	354.69
376.997	317.69
377.222	326.69
377.448	350.69
377.674	346.69
377.899	349.69
378.125	330.69
378.35	320.69
378.576	316.69
378.802	308.69
379.027	331.69
379.253	333.69
379.478	330.69
379.704	325.69
379.929	344.69
380.155	335.69
380.38	296.69
380.606	337.69
380.831	333.69
381.057	352.69
381.282	343.69
381.507	325.69
381.733	347.69
381.958	316.69
382.184	328.69
382.409	347.69
382.634	343.69
382.86	310.69
383.085	340.69
383.31	328.69
383.535	349.69
383.761	352.69
383.986	338.69
384.211	361.69
384.436	357.69
384.662	374.69
384.887	346.69
385.112	356.69
385.337	362.69
385.562	385.69
385.787	365.69
386.013	396.69
386.238	357.69
386.463	351.69
386.688	390.69
386.913	367.69
387.138	355.69
387.363	361.69
387.588	377.69
387.813	361.69
388.038	383.69
388.263	375.69
388.488	359.69
388.713	362.69
388.938	376.69
389.163	362.69
389.387	348.69
389.612	379.69
389.837	363.69
390.062	376.69
390.287	361.69
390.512	377.69
390.736	381.69
390.961	372.69
391.186	388.69
391.411	384.69
391.636	379.69
391.86	399.69
392.085	403.69
392.31	398.69
392.534	404.69
392.759	395.69
392.984	381.69
393.208	391.69
393.433	377.69
393.658	371.69
393.882	378.69
394.107	375.69
394.331	371.69
394.556	383.69
394.78	392.69
395.005	391.69
395.229	378.69
395.454	414.69
395.678	394.69
395.903	402.69
396.127	403.69
396.352	397.69
396.576	385.69
396.801	373.69
397.025	390.69
397.249	393.69
397.474	389.69
397.698	397.69
397.922	406.69
398.147	424.69
398.371	419.69
398.595	405.69
398.82	437.69
399.044	463.69
399.268	467.69
399.492	523.69
399.717	545.69
399.941	565.69
400.165	541.69
400.389	501.69
400.613	503.69
400.837	472.69
401.062	428.69
401.286	445.69
401.51	435.69
401.734	433.69
401.958	422.69
402.182	452.69
402.406	471.69
402.63	458.69
402.854	459.69
403.078	473.69
403.302	455.69
403.526	481.69
403.75	471.69
403.974	480.69
404.198	476.69
404.422	487.69
404.645	480.69
404.869	464.69
405.093	488.69
405.317	524.69
405.541	521.69
405.765	501.69
405.988	461.69
406.212	491.69
406.436	495.69
406.66	520.69
406.883	477.69
407.107	517.69
407.331	552.69
407.555	601.69
407.778	584.69
408.002	518.69
408.226	512.69
408.449	496.69
408.673	498.69
408.896	488.69
409.12	507.69
409.344	486.69
409.567	459.69
409.791	461.69
410.014	456.69
410.238	457.69
410.461	443.69
410.685	466.69
410.908	460.69
411.132	474.69
411.355	503.69
411.578	481.69
411.802	460.69
412.025	442.69
412.249	447.69
412.472	476.69
412.695	492.69
412.919	461.69
413.142	455.69
413.365	433.69
413.589	442.69
413.812	432.69
414.035	428.69
414.258	448.69
414.482	435.69
414.705	431.69
414.928	418.69
415.151	425.69
415.374	426.69
415.597	411.69
415.821	436.69
416.044	447.69
416.267	424.69
416.49	415.69
416.713	414.69
416.936	417.69
417.159	420.69
417.382	433.69
417.605	425.69
417.828	460.69
418.051	454.69
418.274	447.69
418.497	432.69
418.72	417.69
418.943	417.69
419.166	460.69
419.389	472.69
419.611	460.69
419.834	470.69
420.057	481.69
420.28	460.69
420.503	472.69
420.726	454.69
420.948	449.69
421.171	464.69
421.394	486.69
421.617	460.69
421.839	449.69
422.062	449.69
422.285	456.69
422.507	492.69
422.73	523.69
422.953	512.69
423.175	479.69
423.398	459.69
423.621	459.69
423.843	469.69
424.066	474.69
424.288	462.69
424.511	485.69
424.733	506.69
424.956	566.69
425.178	534.69
425.401	543.69
425.623	532.69
425.846	484.69
426.068	450.69
426.291	445.69
426.513	455.69
426.735	451.69
426.958	455.69
427.18	514.69
427.402	603.69
427.625	643.69
427.847	569.69
428.069	483.69
428.292	443.69
428.514	442.69
428.736	417.69
428.958	418.69
429.181	406.69
429.403	427.69
429.625	452.69
429.847	447.69
430.069	473.69
430.292	482.69
430.514	417.69
430.736	435.69
430.958	393.69
431.18	413.69
431.402	412.69
431.624	395.69
431.846	391.69
432.068	393.69
432.29	400.69
432.512	413.69
432.734	412.69
432.956	403.69
433.178	419.69
433.4	418.69
433.622	421.69
433.844	411.69
434.066	393.69
434.287	396.69
434.509	432.69
434.731	442.69
434.953	440.69
435.175	439.69
435.397	452.69
435.618	428.69
435.84	472.69
436.062	511.69
436.284	559.69
436.505	447.69
436.727	450.69
436.949	453.69
437.17	421.69
437.392	396.69
437.614	425.69
437.835	435.69
438.057	507.69
438.278	556.69
438.5	546.69
438.721	582.69
438.943	583.69
439.165	456.69
439.386	444.69
439.608	444.69
439.829	457.69
440.05	472.69
440.272	474.69
440.493	458.69
440.715	441.69
440.936	453.69
441.158	429.69
441.379	424.69
441.6	430.69
441.822	471.69
442.043	498.69
442.264	541.69
442.486	527.69
442.707	481.69
442.928	450.69
443.149	464.69
443.371	496.69
443.592	513.69
443.813	570.69
444.034	593.69
444.255	535.69
444.476	482.69
444.698	516.69
444.919	499.69
445.14	568.69
445.361	543.69
445.582	511.69
445.803	532.69
446.024	562.69
446.245	570.69
446.466	526.69
446.687	439.69
446.908	464.69
447.129	444.69
447.35	409.69
447.571	407.69
447.792	424.69
448.013	395.69
448.234	437.69
448.455	456.69
448.675	545.69
448.896	605.69
449.117	512.69
449.338	482.69
449.559	566.69
449.779	597.69
450	491.69
450.221	428.69
450.442	393.69
450.662	422.69
450.883	400.69
451.104	413.69
451.324	419.69
451.545	397.69
451.766	379.69
451.986	384.69
452.207	403.69
452.428	340.69
452.648	363.69
452.869	380.69
453.089	385.69
453.31	390.69
453.53	368.69
453.751	382.69
453.971	381.69
454.192	393.69
454.412	361.69
454.633	358.69
454.853	368.69
455.073	376.69
455.294	397.69
455.514	421.69
455.734	409.69
455.955	363.69
456.175	341.69
456.395	337.69
456.616	361.69
456.836	378.69
457.056	371.69
457.276	336.69
457.497	353.69
457.717	354.69
457.937	369.69
458.157	365.69
458.377	389.69
458.598	398.69
458.818	419.69
459.038	469.69
459.258	473.69
459.478	411.69
459.698	421.69
459.918	427.69
460.138	420.69
460.358	437.69
460.578	417.69
460.798	437.69
461.018	430.69
461.238	440.69
461.458	442.69
461.678	420.69
461.898	449.69
462.118	452.69
462.338	464.69
462.558	464.69
462.777	450.69
462.997	499.69
463.217	511.69
463.437	518.69
463.657	492.69
463.876	473.69
464.096	479.69
464.316	466.69
464.536	481.69
464.755	483.69
464.975	475.69
465.195	478.69
465.414	504.69
465.634	463.69
465.854	411.69
466.073	395.69
466.293	397.69
466.512	380.69
466.732	398.69
466.951	403.69
467.171	396.69
467.391	396.69
467.61	416.69
467.829	419.69
468.049	387.69
468.268	377.69
468.488	396.69
468.707	364.69
468.927	392.69
469.146	404.69
469.365	363.69
469.585	392.69
469.804	383.69
470.023	410.69
470.243	400.69
470.462	425.69
470.681	415.69
470.901	410.69
471.12	394.69
471.339	402.69
471.558	407.69
471.777	405.69
471.997	371.69
472.216	386.69
472.435	433.69
472.654	402.69
472.873	397.69
473.092	387.69
473.311	385.69
473.53	393.69
473.749	369.69
473.968	404.69
474.187	475.69
474.406	467.69
474.625	408.69
474.844	388.69
475.063	404.69
475.282	398.69
475.501	372.69
475.72	400.69
475.939	398.69
476.158	386.69
476.377	397.69
476.596	405.69
476.814	403.69
477.033	393.69
477.252	407.69
477.471	417.69
477.69	413.69
477.908	413.69
478.127	434.69
478.346	430.69
478.564	447.69
478.783	445.69
479.002	460.69
479.22	444.69
479.439	470.69
479.658	460.69
479.876	475.69
480.095	470.69
480.313	500.69
480.532	518.69
480.751	479.69
480.969	482.69
481.188	535.69
481.406	557.69
481.624	494.69
481.843	457.69
482.061	459.69
482.28	456.69
482.498	447.69
482.717	431.69
482.935	459.69
483.153	440.69
483.372	434.69
483.59	440.69
483.808	443.69
484.027	461.69
484.245	453.69
484.463	461.69
484.681	433.69
484.9	437.69
485.118	477.69
485.336	444.69
485.554	465.69
485.772	464.69
485.99	480.69
486.209	456.69
486.427	463.69
486.645	456.69
486.863	464.69
487.081	501.69
487.299	492.69
487.517	480.69
487.735	484.69
487.953	472.69
488.171	486.69
488.389	478.69
488.607	507.69
488.825	499.69
489.043	460.69
489.261	463.69
489.479	495.69
489.696	491.69
489.914	507.69
490.132	505.69
490.35	488.69
490.568	519.69
490.786	490.69
491.003	538.69
491.221	541.69
491.439	531.69
491.657	552.69
491.874	541.69
492.092	554.69
492.31	538.69
492.527	545.69
492.745	559.69
492.963	551.69
493.18	552.69
493.398	543.69
493.615	568.69
493.833	587.69
494.05	577.69
494.268	578.69
494.485	581.69
494.703	560.69
494.92	557.69
495.138	580.69
495.355	562.69
495.573	565.69
495.79	583.69
496.008	563.69
496.225	560.69
496.442	581.69
496.66	572.69
496.877	573.69
497.094	587.69
497.312	600.69
497.529	581.69
497.746	613.69
497.963	619.69
498.181	606.69
498.398	618.69
498.615	658.69
498.832	687.69
499.049	721.69
499.267	703.69
499.484	751.69
499.701	805.69
499.918	854.69
500.135	949.69
500.352	965.69
500.569	985.69
500.786	987.69
501.003	955.69
501.22	918.69
501.437	856.69
501.654	808.69
501.871	746.69
502.088	711.69
502.305	702.69
502.522	666.69
502.739	665.69
502.956	617.69
503.172	598.69
503.389	574.69
503.606	599.69
503.823	588.69
504.04	585.69
504.256	565.69
504.473	587.69
504.69	596.69
504.907	575.69
505.123	585.69
505.34	535.69
505.557	545.69
505.773	533.69
505.99	529.69
506.207	532.69
506.423	512.69
506.64	544.69
506.856	540.69
507.073	511.69
507.289	501.69
507.506	517.69
507.722	508.69
507.939	508.69
508.155	524.69
508.372	484.69
508.588	490.69
508.805	482.69
509.021	493.69
509.238	498.69
509.454	500.69
509.67	501.69
509.887	474.69
510.103	459.69
510.319	490.69
510.536	524.69
510.752	792.69
510.968	657.69
511.184	477.69
511.401	467.69
511.617	479.69
511.833	472.69
512.049	467.69
512.265	445.69
512.481	459.69
512.698	456.69
512.914	466.69
513.13	447.69
513.346	451.69
513.562	461.69
513.778	454.69
513.994	464.69
514.21	442.69
514.426	490.69
514.642	502.69
514.858	509.69
515.074	522.69
515.29	622.69
515.506	863.69
515.721	736.69
515.937	529.69
516.153	491.69
516.369	500.69
516.585	486.69
516.801	492.69
517.016	505.69
517.232	513.69
517.448	535.69
517.664	529.69
517.879	517.69
518.095	562.69
518.311	500.69
518.527	496.69
518.742	494.69
518.958	491.69
519.173	467.69
519.389	468.69
519.605	459.69
519.82	483.69
520.036	475.69
520.251	490.69
520.467	487.69
520.682	487.69
520.898	481.69
521.113	474.69
521.329	493.69
521.544	545.69
521.76	674.69
521.975	1050.69
522.19	1055.69
522.406	633.69
522.621	491.69
522.836	457.69
523.052	435.69
523.267	439.69
523.482	436.69
523.698	407.69
523.913	421.69
524.128	409.69
524.343	426.69
524.559	406.69
524.774	406.69
524.989	412.69
525.204	408.69
525.419	390.69
525.634	411.69
525.849	383.69
526.064	396.69
526.28	382.69
526.495	393.69
526.71	409.69
526.925	392.69
527.14	379.69
527.355	388.69
527.57	375.69
527.785	383.69
527.999	402.69
528.214	396.69
528.429	409.69
528.644	391.69
528.859	384.69
529.074	390.69
529.289	404.69
529.503	473.69
529.718	432.69
529.933	403.69
530.148	391.69
530.363	377.69
530.577	359.69
530.792	387.69
531.007	386.69
531.221	381.69
531.436	347.69
531.651	377.69
531.865	351.69
532.08	371.69
532.295	392.69
532.509	372.69
532.724	385.69
532.938	369.69
533.153	375.69
533.367	360.69
533.582	366.69
533.796	383.69
534.011	385.69
534.225	355.69
534.44	386.69
534.654	369.69
534.868	375.69
535.083	380.69
535.297	370.69
535.511	369.69
535.726	377.69
535.94	368.69
536.154	381.69
536.369	377.69
536.583	359.69
536.797	339.69
537.011	357.69
537.225	354.69
537.44	346.69
537.654	376.69
537.868	359.69
538.082	354.69
538.296	362.69
538.51	371.69
538.724	364.69
538.938	367.69
539.153	372.69
539.367	359.69
539.581	373.69
539.795	338.69
540.009	371.69
540.222	367.69
540.436	353.69
540.65	363.69
540.864	366.69
541.078	373.69
541.292	378.69
541.506	349.69
541.72	353.69
541.934	363.69
542.147	354.69
542.361	373.69
542.575	377.69
542.789	357.69
543.002	370.69
543.216	365.69
543.43	348.69
543.644	361.69
543.857	360.69
544.071	381.69
544.285	370.69
544.498	370.69
544.712	361.69
544.925	370.69
545.139	351.69
545.352	366.69
545.566	363.69
545.779	366.69
545.993	393.69
546.206	358.69
546.42	380.69
546.633	355.69
546.847	359.69
547.06	364.69
547.274	367.69
547.487	351.69
547.7	358.69
547.914	361.69
548.127	357.69
548.34	368.69
548.554	367.69
548.767	367.69
548.98	362.69
549.193	364.69
549.407	375.69
549.62	366.69
549.833	344.69
550.046	355.69
550.259	361.69
550.473	348.69
550.686	368.69
550.899	337.69
551.112	363.69
551.325	340.69
551.538	352.69
551.751	337.69
551.964	345.69
552.177	357.69
552.39	372.69
552.603	358.69
552.816	363.69
553.029	375.69
553.242	361.69
553.455	358.69
553.667	387.69
553.88	385.69
554.093	372.69
554.306	364.69
554.519	365.69
554.732	354.69
554.944	341.69
555.157	354.69
555.37	346.69
555.583	336.69
555.795	358.69
556.008	342.69
556.221	327.69
556.433	331.69
556.646	339.69
556.859	338.69
557.071	319.69
557.284	312.69
557.496	334.69
557.709	321.69
557.921	332.69
558.134	323.69
558.346	315.69
558.559	323.69
558.771	312.69
558.984	312.69
559.196	316.69
559.409	322.69
559.621	329.69
559.833	304.69
560.046	319.69
560.258	322.69
560.47	320.69
560.683	306.69
560.895	303.69
561.107	315.69
561.32	307.69
561.532	290.69
561.744	298.69
561.956	291.69
562.168	315.69
562.381	320.69
562.593	316.69
562.805	319.69
563.017	318.69
563.229	337.69
563.441	304.69
563.653	308.69
563.865	308.69
564.077	323.69
564.289	309.69
564.501	326.69
564.713	321.69
564.925	331.69
565.137	327.69
565.349	349.69
565.561	351.69
565.773	344.69
565.985	375.69
566.197	368.69
566.408	391.69
566.62	416.69
566.832	406.69
567.044	433.69
567.255	431.69
567.467	447.69
567.679	463.69
567.891	470.69
568.102	471.69
568.314	456.69
568.526	443.69
568.737	394.69
568.949	371.69
569.161	365.69
569.372	350.69
569.584	347.69
569.795	334.69
570.007	325.69
570.218	351.69
570.43	320.69
570.641	315.69
570.853	329.69
571.064	309.69
571.276	316.69
571.487	308.69
571.698	311.69
571.91	310.69
572.121	282.69
572.333	305.69
572.544	288.69
572.755	292.69
572.966	276.69
573.178	249.69
573.389	278.69
573.6	271.69
573.811	271.69
574.023	287.69
574.234	279.69
574.445	276.69
574.656	281.69
574.867	287.69
575.078	284.69
575.289	272.69
575.501	281.69
575.712	278.69
575.923	259.69
576.134	263.69
576.345	257.69
576.556	252.69
576.767	265.69
576.978	242.69
577.188	256.69
577.399	281.69
577.61	259.69
577.821	255.69
578.032	255.69
578.243	260.69
578.454	396.69
578.665	326.69
578.875	264.69
579.086	248.69
579.297	249.69
579.508	246.69
579.718	272.69
579.929	251.69
580.14	240.69
580.35	232.69
580.561	238.69
580.772	259.69
580.982	245.69
581.193	260.69
581.403	241.69
581.614	249.69
581.825	253.69
582.035	228.69
582.246	231.69
582.456	261.69
582.667	249.69
582.877	244.69
583.087	237.69
583.298	242.69
583.508	247.69
583.719	231.69
583.929	251.69
584.139	237.69
584.35	243.69
584.56	240.69
584.77	246.69
584.981	244.69
585.191	252.69
585.401	224.69
585.611	232.69
585.821	246.69
586.032	224.69
586.242	227.69
586.452	229.69
586.662	239.69
586.872	213.69
587.082	241.69
587.292	244.69
587.502	237.69
587.713	250.69
587.923	237.69
588.133	248.69
588.343	253.69
588.553	242.69
588.762	251.69
588.972	235.69
589.182	233.69
589.392	236.69
589.602	240.69
589.812	240.69
590.022	248.69
590.232	246.69
590.441	250.69
590.651	245.69
590.861	245.69
591.071	241.69
591.281	243.69
591.49	256.69
591.7	243.69
591.91	254.69
592.119	252.69
592.329	258.69
592.539	264.69
592.748	289.69
592.958	260.69
593.167	260.69
593.377	268.69
593.587	289.69
593.796	273.69
594.006	274.69
594.215	298.69
594.424	284.69
594.634	274.69
594.843	279.69
595.053	268.69
595.262	251.69
595.472	247.69
595.681	257.69
595.89	237.69
596.1	257.69
596.309	234.69
596.518	236.69
596.727	236.69
596.937	224.69
597.146	226.69
597.355	245.69
597.564	220.69
597.774	225.69
597.983	211.69
598.192	214.69
598.401	210.69
598.61	219.69
598.819	232.69
599.028	219.69
599.237	224.69
599.446	220.69
599.655	231.69
599.864	206.69
600.073	218.69
600.282	216.69
600.491	216.69
600.7	213.69
600.909	215.69
601.118	193.69
601.327	214.69
601.536	211.69
601.745	219.69
601.953	223.69
602.162	222.69
602.371	200.69
602.58	226.69
602.789	223.69
602.997	208.69
603.206	212.69
603.415	227.69
603.623	205.69
603.832	211.69
604.041	209.69
604.249	206.69
604.458	205.69
604.666	202.69
604.875	205.69
605.084	210.69
605.292	209.69
605.501	202.69
605.709	211.69
605.918	201.69
606.126	194.69
606.334	225.69
606.543	217.69
606.751	209.69
606.96	209.69
607.168	200.69
607.376	203.69
607.585	193.69
607.793	209.69
608.001	208.69
608.21	214.69
608.418	216.69
608.626	193.69
608.834	208.69
609.043	208.69
609.251	191.69
609.459	205.69
609.667	198.69
609.875	215.69
610.083	211.69
610.291	218.69
610.499	199.69
610.707	204.69
610.916	209.69
611.124	212.69
611.332	212.69
611.54	216.69
611.748	222.69
611.955	216.69
612.163	211.69
612.371	213.69
612.579	207.69
612.787	209.69
612.995	202.69
613.203	204.69
613.411	196.69
613.618	216.69
613.826	202.69
614.034	183.69
614.242	194.69
614.449	185.69
614.657	196.69
614.865	199.69
615.072	213.69
615.28	192.69
615.488	199.69
615.695	209.69
615.903	201.69
616.111	196.69
616.318	218.69
616.526	214.69
616.733	196.69
616.941	192.69
617.148	192.69
617.356	206.69
617.563	193.69
617.771	201.69
617.978	202.69
618.185	217.69
618.393	204.69
618.6	207.69
618.807	195.69
619.015	191.69
619.222	210.69
619.429	199.69
619.637	183.69
619.844	202.69
620.051	198.69
620.258	192.69
620.466	202.69
620.673	175.69
620.88	200.69
621.087	197.69
621.294	196.69
621.501	188.69
621.708	194.69
621.915	180.69
622.122	201.69
622.329	194.69
622.536	212.69
622.743	188.69
622.95	178.69
623.157	187.69
623.364	190.69
623.571	191.69
623.778	181.69
623.985	192.69
624.192	184.69
624.399	181.69
624.606	178.69
624.812	189.69
625.019	172.69
625.226	172.69
625.433	172.69
625.639	171.69
625.846	181.69
626.053	161.69
626.259	169.69
626.466	180.69
626.673	179.69
626.879	193.69
627.086	183.69
627.293	203.69
627.499	187.69
627.706	180.69
627.912	184.69
628.119	180.69
628.325	188.69
628.532	177.69
628.738	175.69
628.945	193.69
629.151	170.69
629.357	163.69
629.564	177.69
629.77	180.69
629.976	163.69
630.183	170.69
630.389	169.69
630.595	171.69
630.802	172.69
631.008	162.69
631.214	187.69
631.42	179.69
631.627	159.69
631.833	149.69
632.039	193.69
632.245	155.69
632.451	159.69
632.657	187.69
632.863	167.69
633.069	171.69
633.275	160.69
633.481	163.69
633.688	165.69
633.893	160.69
634.099	152.69
634.305	168.69
634.511	184.69
634.717	169.69
634.923	149.69
635.129	161.69
635.335	160.69
635.541	153.69
635.747	147.69
635.952	154.69
636.158	149.69
636.364	160.69
636.57	183.69
636.775	161.69
636.981	159.69
637.187	171.69
637.392	151.69
637.598	159.69
637.804	154.69
638.009	140.69
638.215	147.69
638.421	153.69
638.626	167.69
638.832	162.69
639.037	168.69
639.243	151.69
639.448	152.69
639.654	150.69
639.859	140.69
640.065	159.69
640.27	165.69
640.475	159.69
640.681	152.69
640.886	149.69
641.091	165.69
641.297	152.69
641.502	133.69
641.707	147.69
641.913	158.69
642.118	146.69
642.323	160.69
642.528	160.69
642.733	160.69
642.939	163.69
643.144	168.69
643.349	148.69
643.554	147.69
643.759	174.69
643.964	141.69
644.169	151.69
644.374	156.69
644.579	149.69
644.784	162.69
644.989	164.69
645.194	154.69
645.399	154.69
645.604	140.69
645.809	161.69
646.014	149.69
646.219	139.69
646.423	150.69
646.628	140.69
646.833	150.69
647.038	143.69
647.243	147.69
647.447	145.69
647.652	156.69
647.857	156.69
648.062	157.69
648.266	142.69
648.471	143.69
648.676	164.69
648.88	155.69
649.085	146.69
649.289	162.69
649.494	161.69
649.698	141.69
649.903	142.69
650.107	157.69
650.312	139.69
650.516	131.69
650.721	154.69
650.925	139.69
651.13	138.69
651.334	143.69
651.539	119.69
651.743	143.69
651.947	147.69
652.152	124.69
652.356	147.69
652.56	132.69
652.764	123.69
652.969	135.69
653.173	139.69
653.377	134.69
653.581	140.69
653.785	131.69
653.99	130.69
654.194	120.69
654.398	137.69
654.602	127.69
654.806	124.69
655.01	129.69
655.214	120.69
655.418	133.69
655.622	106.69
655.826	131.69
656.03	143.69
656.234	127.69
656.438	130.69
656.642	142.69
656.846	124.69
657.049	130.69
657.253	124.69
657.457	121.69
657.661	107.69
657.865	122.69
658.068	112.69
658.272	91.69
658.476	98.69
658.68	100.69
658.883	101.69
659.087	98.69
659.291	90.69
659.494	104.69
659.698	101.69
659.901	99.69
660.105	92.69
660.309	93.69
660.512	85.69
660.716	98.69
660.919	102.69
661.123	101.69
661.326	83.69
661.53	88.69
661.733	100.69
661.936	89.69
662.14	83.69
662.343	80.69
662.546	85.69
662.75	80.69
662.953	88.69
663.156	88.69
663.36	69.69
663.563	79.69
663.766	76.69
663.969	83.69
664.173	82.69
664.376	84.69
664.579	74.69
664.782	83.69
664.985	76.69
665.188	87.69
665.391	82.69
665.594	70.69
665.797	84.69
666	83.69
666.203	72.69
666.406	79.69
666.609	80.69
666.812	73.69
667.015	88.69
667.218	70.69
667.421	70.69
667.624	84.69
667.827	73.69
668.03	72.69
668.232	87.69
668.435	73.69
668.638	74.69
668.841	83.69
669.043	101.69
669.246	79.69
669.449	72.69
669.651	70.69
669.854	72.69
670.057	77.69
670.259	81.69
670.462	81.69
670.665	70.69
670.867	69.69
671.07	95.69
671.272	80.69
671.475	87.69
671.677	90.69
671.88	78.69
672.082	74.69
672.284	68.69
672.487	76.69
672.689	72.69
672.892	92.69
