Data from 1969.PennyLincolnUp.Lamp.En5.5.200Scan.071719.P1._HRD10591_14-54-06-972.txt Node
Date: Thu Jul 18 14:54:06 EDT 2019
User: cochatt
Spectrometer: HR+D1059
Trigger mode: 1
Integration Time (sec): 1.000000E-1
Scans to average: 1
Electric dark correction enabled: true
Nonlinearity correction enabled: false
Boxcar width: 0
XAxis mode: Wavelengths
Number of Pixels in Spectrum: 2048
>>>>>Begin Spectral Data<<<<<
223.165	-2.62
223.4	-2.62
223.635	-2.62
223.869	-7.62
224.104	-19.62
224.338	-20.62
224.573	-1.62
224.808	-20.62
225.042	2.38
225.277	-8.62
225.511	-7.62
225.746	7.38
225.98	-7.62
226.215	13.38
226.449	9.38
226.683	20.38
226.918	26.38
227.152	17.38
227.387	24.38
227.621	32.38
227.856	37.38
228.09	32.38
228.324	36.38
228.559	57.38
228.793	58.38
229.027	68.38
229.262	77.38
229.496	85.38
229.73	86.38
229.964	106.38
230.199	102.38
230.433	96.38
230.667	80.38
230.901	98.38
231.136	101.38
231.37	101.38
231.604	94.38
231.838	93.38
232.072	96.38
232.306	93.38
232.541	97.38
232.775	94.38
233.009	101.38
233.243	105.38
233.477	100.38
233.711	90.38
233.945	108.38
234.179	98.38
234.413	113.38
234.647	103.38
234.881	92.38
235.115	108.38
235.349	88.38
235.583	116.38
235.817	115.38
236.051	115.38
236.285	114.38
236.519	123.38
236.753	113.38
236.987	109.38
237.221	123.38
237.455	139.38
237.689	128.38
237.922	109.38
238.156	114.38
238.39	113.38
238.624	104.38
238.858	106.38
239.091	118.38
239.325	105.38
239.559	95.38
239.793	110.38
240.027	119.38
240.26	115.38
240.494	134.38
240.728	130.38
240.961	109.38
241.195	125.38
241.429	109.38
241.662	119.38
241.896	118.38
242.13	98.38
242.363	104.38
242.597	110.38
242.83	111.38
243.064	124.38
243.298	114.38
243.531	114.38
243.765	125.38
243.998	121.38
244.232	118.38
244.465	128.38
244.699	133.38
244.932	108.38
245.166	126.38
245.399	121.38
245.633	132.38
245.866	136.38
246.099	124.38
246.333	124.38
246.566	121.38
246.8	119.38
247.033	129.38
247.266	132.38
247.5	128.38
247.733	140.38
247.966	134.38
248.2	134.38
248.433	148.38
248.666	129.38
248.899	145.38
249.133	143.38
249.366	142.38
249.599	149.38
249.832	149.38
250.066	157.38
250.299	147.38
250.532	159.38
250.765	149.38
250.998	152.38
251.231	160.38
251.465	153.38
251.698	161.38
251.931	155.38
252.164	147.38
252.397	153.38
252.63	158.38
252.863	153.38
253.096	165.38
253.329	168.38
253.562	175.38
253.795	171.38
254.028	173.38
254.261	169.38
254.494	178.38
254.727	179.38
254.96	208.38
255.193	202.38
255.426	175.38
255.659	160.38
255.892	183.38
256.124	173.38
256.357	181.38
256.59	165.38
256.823	168.38
257.056	161.38
257.289	163.38
257.521	166.38
257.754	173.38
257.987	170.38
258.22	164.38
258.452	169.38
258.685	166.38
258.918	165.38
259.151	157.38
259.383	163.38
259.616	173.38
259.849	163.38
260.081	176.38
260.314	184.38
260.547	191.38
260.779	162.38
261.012	159.38
261.244	192.38
261.477	171.38
261.71	162.38
261.942	179.38
262.175	186.38
262.407	184.38
262.64	169.38
262.872	180.38
263.105	173.38
263.337	190.38
263.57	171.38
263.802	178.38
264.035	173.38
264.267	164.38
264.499	169.38
264.732	183.38
264.964	176.38
265.197	166.38
265.429	180.38
265.661	180.38
265.894	166.38
266.126	177.38
266.358	178.38
266.591	179.38
266.823	170.38
267.055	181.38
267.287	199.38
267.52	166.38
267.752	179.38
267.984	173.38
268.216	196.38
268.448	189.38
268.681	186.38
268.913	209.38
269.145	201.38
269.377	216.38
269.609	192.38
269.841	200.38
270.073	196.38
270.306	211.38
270.538	218.38
270.77	212.38
271.002	234.38
271.234	216.38
271.466	213.38
271.698	224.38
271.93	222.38
272.162	242.38
272.394	211.38
272.626	224.38
272.858	205.38
273.09	200.38
273.322	219.38
273.553	218.38
273.785	214.38
274.017	202.38
274.249	205.38
274.481	217.38
274.713	212.38
274.945	216.38
275.176	226.38
275.408	202.38
275.64	212.38
275.872	196.38
276.104	205.38
276.335	194.38
276.567	221.38
276.799	229.38
277.031	208.38
277.262	232.38
277.494	247.38
277.726	234.38
277.957	211.38
278.189	230.38
278.421	205.38
278.652	209.38
278.884	208.38
279.115	218.38
279.347	226.38
279.579	207.38
279.81	217.38
280.042	214.38
280.273	203.38
280.505	224.38
280.736	225.38
280.968	209.38
281.199	217.38
281.431	215.38
281.662	220.38
281.894	218.38
282.125	225.38
282.356	216.38
282.588	235.38
282.819	231.38
283.051	225.38
283.282	220.38
283.513	204.38
283.745	217.38
283.976	205.38
284.207	217.38
284.439	230.38
284.67	233.38
284.901	234.38
285.132	232.38
285.364	234.38
285.595	238.38
285.826	234.38
286.057	246.38
286.288	222.38
286.52	243.38
286.751	214.38
286.982	236.38
287.213	233.38
287.444	225.38
287.675	232.38
287.906	237.38
288.138	235.38
288.369	239.38
288.6	228.38
288.831	244.38
289.062	260.38
289.293	249.38
289.524	248.38
289.755	249.38
289.986	233.38
290.217	240.38
290.448	243.38
290.679	221.38
290.91	225.38
291.141	231.38
291.371	247.38
291.602	231.38
291.833	240.38
292.064	240.38
292.295	234.38
292.526	243.38
292.757	223.38
292.987	226.38
293.218	243.38
293.449	237.38
293.68	260.38
293.91	232.38
294.141	238.38
294.372	258.38
294.603	263.38
294.833	256.38
295.064	240.38
295.295	256.38
295.525	246.38
295.756	248.38
295.987	249.38
296.217	276.38
296.448	270.38
296.679	248.38
296.909	248.38
297.14	244.38
297.37	264.38
297.601	257.38
297.831	259.38
298.062	259.38
298.292	260.38
298.523	242.38
298.753	256.38
298.984	261.38
299.214	257.38
299.445	243.38
299.675	266.38
299.905	247.38
300.136	244.38
300.366	244.38
300.597	256.38
300.827	260.38
301.057	264.38
301.288	265.38
301.518	265.38
301.748	267.38
301.979	275.38
302.209	271.38
302.439	275.38
302.669	284.38
302.9	279.38
303.13	273.38
303.36	267.38
303.59	274.38
303.82	290.38
304.051	286.38
304.281	288.38
304.511	260.38
304.741	267.38
304.971	270.38
305.201	274.38
305.431	274.38
305.661	274.38
305.891	281.38
306.121	277.38
306.352	266.38
306.582	257.38
306.812	262.38
307.042	290.38
307.272	276.38
307.502	276.38
307.731	281.38
307.961	277.38
308.191	285.38
308.421	264.38
308.651	268.38
308.881	279.38
309.111	273.38
309.341	261.38
309.571	276.38
309.8	273.38
310.03	279.38
310.26	273.38
310.49	283.38
310.72	293.38
310.949	301.38
311.179	286.38
311.409	286.38
311.639	277.38
311.868	286.38
312.098	310.38
312.328	295.38
312.557	312.38
312.787	306.38
313.017	291.38
313.246	304.38
313.476	284.38
313.706	289.38
313.935	314.38
314.165	308.38
314.394	301.38
314.624	283.38
314.853	293.38
315.083	309.38
315.312	284.38
315.542	284.38
315.771	277.38
316.001	291.38
316.23	296.38
316.46	289.38
316.689	297.38
316.919	296.38
317.148	315.38
317.377	297.38
317.607	307.38
317.836	285.38
318.065	291.38
318.295	291.38
318.524	293.38
318.753	291.38
318.983	292.38
319.212	300.38
319.441	293.38
319.67	306.38
319.9	308.38
320.129	301.38
320.358	310.38
320.587	306.38
320.816	286.38
321.046	276.38
321.275	312.38
321.504	297.38
321.733	295.38
321.962	296.38
322.191	293.38
322.42	312.38
322.649	313.38
322.878	323.38
323.108	324.38
323.337	329.38
323.566	334.38
323.795	340.38
324.024	358.38
324.253	396.38
324.482	492.38
324.71	709.38
324.939	934.38
325.168	768.38
325.397	485.38
325.626	363.38
325.855	352.38
326.084	352.38
326.313	325.38
326.542	324.38
326.77	361.38
326.999	376.38
327.228	487.38
327.457	618.38
327.686	715.38
327.914	520.38
328.143	408.38
328.372	382.38
328.6	360.38
328.829	350.38
329.058	355.38
329.287	361.38
329.515	364.38
329.744	369.38
329.972	340.38
330.201	343.38
330.43	396.38
330.658	378.38
330.887	392.38
331.115	389.38
331.344	356.38
331.572	376.38
331.801	353.38
332.03	354.38
332.258	349.38
332.486	350.38
332.715	365.38
332.943	351.38
333.172	369.38
333.4	373.38
333.629	385.38
333.857	381.38
334.085	386.38
334.314	396.38
334.542	392.38
334.771	404.38
334.999	394.38
335.227	387.38
335.455	369.38
335.684	368.38
335.912	365.38
336.14	378.38
336.369	368.38
336.597	340.38
336.825	353.38
337.053	350.38
337.281	345.38
337.51	318.38
337.738	336.38
337.966	346.38
338.194	341.38
338.422	331.38
338.65	349.38
338.878	320.38
339.106	327.38
339.334	343.38
339.562	321.38
339.79	339.38
340.018	315.38
340.246	331.38
340.474	341.38
340.702	327.38
340.93	306.38
341.158	329.38
341.386	322.38
341.614	329.38
341.842	333.38
342.07	325.38
342.298	334.38
342.526	326.38
342.754	316.38
342.981	327.38
343.209	331.38
343.437	340.38
343.665	344.38
343.893	348.38
344.12	339.38
344.348	355.38
344.576	358.38
344.804	353.38
345.031	329.38
345.259	333.38
345.487	338.38
345.714	328.38
345.942	321.38
346.17	308.38
346.397	312.38
346.625	310.38
346.853	298.38
347.08	310.38
347.308	307.38
347.535	321.38
347.763	311.38
347.99	313.38
348.218	313.38
348.445	326.38
348.673	337.38
348.9	338.38
349.128	319.38
349.355	308.38
349.583	314.38
349.81	310.38
350.037	293.38
350.265	291.38
350.492	326.38
350.72	312.38
350.947	327.38
351.174	322.38
351.402	321.38
351.629	320.38
351.856	300.38
352.083	309.38
352.311	316.38
352.538	305.38
352.765	297.38
352.992	312.38
353.22	319.38
353.447	300.38
353.674	309.38
353.901	301.38
354.128	304.38
354.355	303.38
354.583	309.38
354.81	301.38
355.037	306.38
355.264	296.38
355.491	304.38
355.718	305.38
355.945	288.38
356.172	285.38
356.399	292.38
356.626	294.38
356.853	313.38
357.08	296.38
357.307	299.38
357.534	294.38
357.761	316.38
357.988	314.38
358.215	299.38
358.441	285.38
358.668	322.38
358.895	319.38
359.122	308.38
359.349	286.38
359.576	313.38
359.802	327.38
360.029	323.38
360.256	318.38
360.483	333.38
360.709	302.38
360.936	310.38
361.163	301.38
361.39	312.38
361.616	312.38
361.843	317.38
362.07	320.38
362.296	301.38
362.523	334.38
362.749	313.38
362.976	294.38
363.203	306.38
363.429	300.38
363.656	308.38
363.882	317.38
364.109	301.38
364.335	313.38
364.562	295.38
364.788	292.38
365.015	293.38
365.241	295.38
365.468	311.38
365.694	300.38
365.92	290.38
366.147	308.38
366.373	298.38
366.599	296.38
366.826	304.38
367.052	304.38
367.278	312.38
367.505	310.38
367.731	299.38
367.957	304.38
368.184	296.38
368.41	313.38
368.636	313.38
368.862	318.38
369.089	294.38
369.315	270.38
369.541	318.38
369.767	313.38
369.993	297.38
370.219	294.38
370.445	295.38
370.672	308.38
370.898	317.38
371.124	322.38
371.35	314.38
371.576	294.38
371.802	306.38
372.028	304.38
372.254	325.38
372.48	325.38
372.706	318.38
372.932	314.38
373.158	327.38
373.384	318.38
373.61	310.38
373.835	303.38
374.061	294.38
374.287	317.38
374.513	310.38
374.739	326.38
374.965	331.38
375.191	319.38
375.416	316.38
375.642	320.38
375.868	306.38
376.094	312.38
376.319	297.38
376.545	297.38
376.771	314.38
376.997	318.38
377.222	313.38
377.448	322.38
377.674	313.38
377.899	307.38
378.125	312.38
378.35	308.38
378.576	318.38
378.802	314.38
379.027	306.38
379.253	295.38
379.478	308.38
379.704	325.38
379.929	325.38
380.155	322.38
380.38	299.38
380.606	324.38
380.831	304.38
381.057	306.38
381.282	327.38
381.507	320.38
381.733	312.38
381.958	317.38
382.184	315.38
382.409	315.38
382.634	324.38
382.86	322.38
383.085	321.38
383.31	327.38
383.535	333.38
383.761	324.38
383.986	337.38
384.211	332.38
384.436	318.38
384.662	337.38
384.887	350.38
385.112	346.38
385.337	341.38
385.562	338.38
385.787	348.38
386.013	349.38
386.238	359.38
386.463	349.38
386.688	353.38
386.913	355.38
387.138	336.38
387.363	323.38
387.588	361.38
387.813	337.38
388.038	356.38
388.263	346.38
388.488	369.38
388.713	364.38
388.938	338.38
389.163	350.38
389.387	338.38
389.612	330.38
389.837	351.38
390.062	348.38
390.287	325.38
390.512	347.38
390.736	342.38
390.961	335.38
391.186	360.38
391.411	350.38
391.636	380.38
391.86	384.38
392.085	365.38
392.31	378.38
392.534	358.38
392.759	354.38
392.984	372.38
393.208	353.38
393.433	365.38
393.658	359.38
393.882	364.38
394.107	353.38
394.331	366.38
394.556	347.38
394.78	368.38
395.005	354.38
395.229	356.38
395.454	384.38
395.678	370.38
395.903	374.38
396.127	387.38
396.352	384.38
396.576	365.38
396.801	375.38
397.025	352.38
397.249	362.38
397.474	381.38
397.698	370.38
397.922	409.38
398.147	390.38
398.371	384.38
398.595	396.38
398.82	395.38
399.044	414.38
399.268	442.38
399.492	469.38
399.717	521.38
399.941	518.38
400.165	512.38
400.389	498.38
400.613	449.38
400.837	437.38
401.062	405.38
401.286	414.38
401.51	417.38
401.734	406.38
401.958	408.38
402.182	424.38
402.406	416.38
402.63	423.38
402.854	405.38
403.078	397.38
403.302	419.38
403.526	436.38
403.75	448.38
403.974	442.38
404.198	441.38
404.422	442.38
404.645	438.38
404.869	459.38
405.093	458.38
405.317	492.38
405.541	480.38
405.765	467.38
405.988	429.38
406.212	430.38
406.436	441.38
406.66	456.38
406.883	438.38
407.107	474.38
407.331	463.38
407.555	533.38
407.778	519.38
408.002	491.38
408.226	489.38
408.449	441.38
408.673	439.38
408.896	446.38
409.12	465.38
409.344	473.38
409.567	414.38
409.791	438.38
410.014	454.38
410.238	427.38
410.461	415.38
410.685	428.38
410.908	413.38
411.132	438.38
411.355	457.38
411.578	440.38
411.802	419.38
412.025	410.38
412.249	398.38
412.472	448.38
412.695	437.38
412.919	425.38
413.142	410.38
413.365	419.38
413.589	437.38
413.812	393.38
414.035	405.38
414.258	412.38
414.482	396.38
414.705	397.38
414.928	406.38
415.151	410.38
415.374	399.38
415.597	397.38
415.821	392.38
416.044	391.38
416.267	417.38
416.49	384.38
416.713	397.38
416.936	398.38
417.159	382.38
417.382	393.38
417.605	375.38
417.828	383.38
418.051	414.38
418.274	400.38
418.497	397.38
418.72	387.38
418.943	406.38
419.166	398.38
419.389	436.38
419.611	415.38
419.834	418.38
420.057	423.38
420.28	417.38
420.503	410.38
420.726	421.38
420.948	418.38
421.171	434.38
421.394	460.38
421.617	414.38
421.839	420.38
422.062	396.38
422.285	409.38
422.507	441.38
422.73	467.38
422.953	478.38
423.175	410.38
423.398	425.38
423.621	422.38
423.843	430.38
424.066	455.38
424.288	439.38
424.511	422.38
424.733	468.38
424.956	463.38
425.178	486.38
425.401	449.38
425.623	471.38
425.846	419.38
426.068	395.38
426.291	404.38
426.513	419.38
426.735	405.38
426.958	434.38
427.18	462.38
427.402	519.38
427.625	556.38
427.847	490.38
428.069	448.38
428.292	429.38
428.514	384.38
428.736	390.38
428.958	389.38
429.181	372.38
429.403	383.38
429.625	371.38
429.847	393.38
430.069	427.38
430.292	426.38
430.514	372.38
430.736	386.38
430.958	379.38
431.18	362.38
431.402	387.38
431.624	357.38
431.846	351.38
432.068	370.38
432.29	368.38
432.512	376.38
432.734	396.38
432.956	386.38
433.178	382.38
433.4	383.38
433.622	364.38
433.844	371.38
434.066	368.38
434.287	378.38
434.509	380.38
434.731	399.38
434.953	391.38
435.175	398.38
435.397	427.38
435.618	392.38
435.84	411.38
436.062	456.38
436.284	466.38
436.505	433.38
436.727	402.38
436.949	382.38
437.17	392.38
437.392	375.38
437.614	397.38
437.835	399.38
438.057	411.38
438.278	470.38
438.5	469.38
438.721	513.38
438.943	467.38
439.165	408.38
439.386	396.38
439.608	411.38
439.829	397.38
440.05	406.38
440.272	432.38
440.493	413.38
440.715	397.38
440.936	409.38
441.158	386.38
441.379	419.38
441.6	415.38
441.822	420.38
442.043	440.38
442.264	466.38
442.486	482.38
442.707	416.38
442.928	399.38
443.149	417.38
443.371	430.38
443.592	441.38
443.813	482.38
444.034	530.38
444.255	478.38
444.476	453.38
444.698	448.38
444.919	465.38
445.14	559.38
445.361	505.38
445.582	459.38
445.803	456.38
446.024	481.38
446.245	493.38
446.466	467.38
446.687	410.38
446.908	396.38
447.129	387.38
447.35	381.38
447.571	372.38
447.792	367.38
448.013	384.38
448.234	387.38
448.455	398.38
448.675	457.38
448.896	475.38
449.117	412.38
449.338	428.38
449.559	485.38
449.779	517.38
450	436.38
450.221	404.38
450.442	370.38
450.662	355.38
450.883	375.38
451.104	356.38
451.324	358.38
451.545	362.38
451.766	348.38
451.986	347.38
452.207	347.38
452.428	330.38
452.648	339.38
452.869	352.38
453.089	345.38
453.31	363.38
453.53	333.38
453.751	366.38
453.971	337.38
454.192	347.38
454.412	332.38
454.633	320.38
454.853	324.38
455.073	323.38
455.294	345.38
455.514	361.38
455.734	363.38
455.955	327.38
456.175	324.38
456.395	321.38
456.616	342.38
456.836	350.38
457.056	320.38
457.276	326.38
457.497	337.38
457.717	313.38
457.937	327.38
458.157	338.38
458.377	313.38
458.598	354.38
458.818	390.38
459.038	426.38
459.258	429.38
459.478	375.38
459.698	390.38
459.918	393.38
460.138	387.38
460.358	390.38
460.578	393.38
460.798	393.38
461.018	393.38
461.238	408.38
461.458	420.38
461.678	394.38
461.898	415.38
462.118	410.38
462.338	443.38
462.558	448.38
462.777	434.38
462.997	449.38
463.217	470.38
463.437	494.38
463.657	454.38
463.876	415.38
464.096	444.38
464.316	435.38
464.536	451.38
464.755	438.38
464.975	413.38
465.195	436.38
465.414	456.38
465.634	409.38
465.854	399.38
466.073	383.38
466.293	374.38
466.512	362.38
466.732	394.38
466.951	349.38
467.171	358.38
467.391	364.38
467.61	361.38
467.829	346.38
468.049	352.38
468.268	369.38
468.488	340.38
468.707	360.38
468.927	342.38
469.146	352.38
469.365	357.38
469.585	354.38
469.804	362.38
470.023	373.38
470.243	376.38
470.462	375.38
470.681	379.38
470.901	354.38
471.12	371.38
471.339	364.38
471.558	350.38
471.777	365.38
471.997	380.38
472.216	380.38
472.435	368.38
472.654	369.38
472.873	361.38
473.092	368.38
473.311	337.38
473.53	358.38
473.749	377.38
473.968	376.38
474.187	420.38
474.406	415.38
474.625	357.38
474.844	361.38
475.063	354.38
475.282	366.38
475.501	382.38
475.72	354.38
475.939	359.38
476.158	381.38
476.377	362.38
476.596	382.38
476.814	383.38
477.033	374.38
477.252	374.38
477.471	381.38
477.69	404.38
477.908	389.38
478.127	404.38
478.346	411.38
478.564	413.38
478.783	417.38
479.002	416.38
479.22	425.38
479.439	420.38
479.658	423.38
479.876	427.38
480.095	433.38
480.313	438.38
480.532	461.38
480.751	422.38
480.969	449.38
481.188	460.38
481.406	466.38
481.624	445.38
481.843	416.38
482.061	418.38
482.28	406.38
482.498	402.38
482.717	416.38
482.935	400.38
483.153	393.38
483.372	407.38
483.59	408.38
483.808	405.38
484.027	421.38
484.245	405.38
484.463	412.38
484.681	395.38
484.9	402.38
485.118	440.38
485.336	423.38
485.554	434.38
485.772	398.38
485.99	431.38
486.209	428.38
486.427	424.38
486.645	442.38
486.863	436.38
487.081	432.38
487.299	433.38
487.517	434.38
487.735	410.38
487.953	420.38
488.171	449.38
488.389	425.38
488.607	438.38
488.825	440.38
489.043	450.38
489.261	452.38
489.479	442.38
489.696	450.38
489.914	428.38
490.132	434.38
490.35	453.38
490.568	481.38
490.786	455.38
491.003	485.38
491.221	492.38
491.439	488.38
491.657	473.38
491.874	461.38
492.092	472.38
492.31	491.38
492.527	495.38
492.745	481.38
492.963	504.38
493.18	478.38
493.398	484.38
493.615	506.38
493.833	497.38
494.05	502.38
494.268	508.38
494.485	498.38
494.703	475.38
494.92	516.38
495.138	499.38
495.355	498.38
495.573	514.38
495.79	524.38
496.008	525.38
496.225	514.38
496.442	500.38
496.66	502.38
496.877	500.38
497.094	504.38
497.312	524.38
497.529	520.38
497.746	529.38
497.963	540.38
498.181	568.38
498.398	579.38
498.615	598.38
498.832	616.38
499.049	648.38
499.267	643.38
499.484	695.38
499.701	737.38
499.918	806.38
500.135	864.38
500.352	904.38
500.569	955.38
500.786	926.38
501.003	875.38
501.22	849.38
501.437	764.38
501.654	710.38
501.871	709.38
502.088	661.38
502.305	630.38
502.522	605.38
502.739	590.38
502.956	593.38
503.172	572.38
503.389	544.38
503.606	520.38
503.823	548.38
504.04	545.38
504.256	534.38
504.473	526.38
504.69	531.38
504.907	530.38
505.123	500.38
505.34	491.38
505.557	485.38
505.773	505.38
505.99	476.38
506.207	450.38
506.423	477.38
506.64	434.38
506.856	461.38
507.073	455.38
507.289	453.38
507.506	457.38
507.722	451.38
507.939	459.38
508.155	430.38
508.372	442.38
508.588	418.38
508.805	419.38
509.021	427.38
509.238	428.38
509.454	448.38
509.67	441.38
509.887	419.38
510.103	418.38
510.319	424.38
510.536	490.38
510.752	651.38
510.968	537.38
511.184	410.38
511.401	389.38
511.617	392.38
511.833	402.38
512.049	429.38
512.265	410.38
512.481	400.38
512.698	398.38
512.914	397.38
513.13	418.38
513.346	404.38
513.562	411.38
513.778	416.38
513.994	423.38
514.21	414.38
514.426	429.38
514.642	441.38
514.858	444.38
515.074	449.38
515.29	509.38
515.506	651.38
515.721	596.38
515.937	485.38
516.153	444.38
516.369	440.38
516.585	442.38
516.801	451.38
517.016	451.38
517.232	469.38
517.448	480.38
517.664	496.38
517.879	471.38
518.095	485.38
518.311	475.38
518.527	463.38
518.742	476.38
518.958	458.38
519.173	466.38
519.389	419.38
519.605	417.38
519.82	428.38
520.036	389.38
520.251	425.38
520.467	414.38
520.682	430.38
520.898	417.38
521.113	417.38
521.329	432.38
521.544	442.38
521.76	522.38
521.975	764.38
522.19	775.38
522.406	511.38
522.621	431.38
522.836	402.38
523.052	409.38
523.267	373.38
523.482	375.38
523.698	376.38
523.913	374.38
524.128	390.38
524.343	380.38
524.559	370.38
524.774	362.38
524.989	368.38
525.204	386.38
525.419	371.38
525.634	376.38
525.849	353.38
526.064	361.38
526.28	366.38
526.495	360.38
526.71	345.38
526.925	350.38
527.14	355.38
527.355	361.38
527.57	333.38
527.785	338.38
527.999	349.38
528.214	348.38
528.429	342.38
528.644	366.38
528.859	344.38
529.074	350.38
529.289	367.38
529.503	375.38
529.718	382.38
529.933	351.38
530.148	352.38
530.363	356.38
530.577	328.38
530.792	345.38
531.007	358.38
531.221	355.38
531.436	374.38
531.651	367.38
531.865	346.38
532.08	347.38
532.295	352.38
532.509	344.38
532.724	344.38
532.938	338.38
533.153	341.38
533.367	342.38
533.582	363.38
533.796	347.38
534.011	351.38
534.225	346.38
534.44	345.38
534.654	346.38
534.868	357.38
535.083	328.38
535.297	341.38
535.511	363.38
535.726	340.38
535.94	356.38
536.154	336.38
536.369	349.38
536.583	349.38
536.797	343.38
537.011	324.38
537.225	331.38
537.44	329.38
537.654	344.38
537.868	339.38
538.082	329.38
538.296	332.38
538.51	323.38
538.724	353.38
538.938	333.38
539.153	328.38
539.367	346.38
539.581	338.38
539.795	320.38
540.009	330.38
540.222	341.38
540.436	346.38
540.65	322.38
540.864	343.38
541.078	362.38
541.292	326.38
541.506	339.38
541.72	338.38
541.934	329.38
542.147	334.38
542.361	330.38
542.575	355.38
542.789	318.38
543.002	336.38
543.216	337.38
543.43	330.38
543.644	324.38
543.857	332.38
544.071	339.38
544.285	327.38
544.498	336.38
544.712	345.38
544.925	357.38
545.139	352.38
545.352	329.38
545.566	347.38
545.779	342.38
545.993	343.38
546.206	340.38
546.42	332.38
546.633	344.38
546.847	329.38
547.06	332.38
547.274	342.38
547.487	340.38
547.7	339.38
547.914	338.38
548.127	331.38
548.34	341.38
548.554	333.38
548.767	333.38
548.98	343.38
549.193	319.38
549.407	333.38
549.62	342.38
549.833	336.38
550.046	354.38
550.259	350.38
550.473	336.38
550.686	340.38
550.899	329.38
551.112	330.38
551.325	314.38
551.538	348.38
551.751	328.38
551.964	318.38
552.177	329.38
552.39	357.38
552.603	331.38
552.816	326.38
553.029	336.38
553.242	350.38
553.455	372.38
553.667	352.38
553.88	358.38
554.093	340.38
554.306	326.38
554.519	351.38
554.732	335.38
554.944	338.38
555.157	330.38
555.37	314.38
555.583	321.38
555.795	313.38
556.008	318.38
556.221	319.38
556.433	301.38
556.646	310.38
556.859	318.38
557.071	320.38
557.284	298.38
557.496	304.38
557.709	291.38
557.921	309.38
558.134	316.38
558.346	283.38
558.559	292.38
558.771	304.38
558.984	282.38
559.196	293.38
559.409	280.38
559.621	280.38
559.833	296.38
560.046	285.38
560.258	314.38
560.47	305.38
560.683	287.38
560.895	311.38
561.107	301.38
561.32	288.38
561.532	290.38
561.744	279.38
561.956	300.38
562.168	287.38
562.381	305.38
562.593	299.38
562.805	290.38
563.017	298.38
563.229	283.38
563.441	297.38
563.653	305.38
563.865	305.38
564.077	306.38
564.289	317.38
564.501	298.38
564.713	306.38
564.925	324.38
565.137	315.38
565.349	331.38
565.561	317.38
565.773	337.38
565.985	334.38
566.197	370.38
566.408	371.38
566.62	408.38
566.832	413.38
567.044	390.38
567.255	394.38
567.467	410.38
567.679	434.38
567.891	456.38
568.102	444.38
568.314	452.38
568.526	409.38
568.737	382.38
568.949	371.38
569.161	353.38
569.372	341.38
569.584	327.38
569.795	326.38
570.007	322.38
570.218	315.38
570.43	318.38
570.641	296.38
570.853	311.38
571.064	300.38
571.276	284.38
571.487	309.38
571.698	306.38
571.91	283.38
572.121	284.38
572.333	268.38
572.544	286.38
572.755	254.38
572.966	264.38
573.178	287.38
573.389	250.38
573.6	266.38
573.811	258.38
574.023	264.38
574.234	274.38
574.445	256.38
574.656	270.38
574.867	259.38
575.078	244.38
575.289	296.38
575.501	268.38
575.712	285.38
575.923	258.38
576.134	250.38
576.345	249.38
576.556	269.38
576.767	227.38
576.978	247.38
577.188	249.38
577.399	259.38
577.61	258.38
577.821	245.38
578.032	245.38
578.243	276.38
578.454	328.38
578.665	293.38
578.875	258.38
579.086	258.38
579.297	254.38
579.508	236.38
579.718	242.38
579.929	219.38
580.14	236.38
580.35	249.38
580.561	227.38
580.772	252.38
580.982	241.38
581.193	226.38
581.403	250.38
581.614	232.38
581.825	233.38
582.035	220.38
582.246	252.38
582.456	224.38
582.667	228.38
582.877	243.38
583.087	251.38
583.298	234.38
583.508	242.38
583.719	248.38
583.929	240.38
584.139	231.38
584.35	219.38
584.56	238.38
584.77	231.38
584.981	251.38
585.191	232.38
585.401	236.38
585.611	230.38
585.821	237.38
586.032	245.38
586.242	235.38
586.452	229.38
586.662	233.38
586.872	226.38
587.082	228.38
587.292	233.38
587.502	217.38
587.713	227.38
587.923	232.38
588.133	214.38
588.343	232.38
588.553	235.38
588.762	234.38
588.972	233.38
589.182	231.38
589.392	229.38
589.602	230.38
589.812	225.38
590.022	247.38
590.232	250.38
590.441	242.38
590.651	237.38
590.861	234.38
591.071	241.38
591.281	230.38
591.49	232.38
591.7	233.38
591.91	242.38
592.119	256.38
592.329	215.38
592.539	237.38
592.748	250.38
592.958	258.38
593.167	276.38
593.377	268.38
593.587	279.38
593.796	282.38
594.006	271.38
594.215	278.38
594.424	261.38
594.634	248.38
594.843	263.38
595.053	258.38
595.262	267.38
595.472	249.38
595.681	246.38
595.89	229.38
596.1	221.38
596.309	216.38
596.518	221.38
596.727	205.38
596.937	211.38
597.146	214.38
597.355	224.38
597.564	228.38
597.774	216.38
597.983	214.38
598.192	214.38
598.401	218.38
598.61	215.38
598.819	209.38
599.028	223.38
599.237	206.38
599.446	200.38
599.655	195.38
599.864	220.38
600.073	200.38
600.282	202.38
600.491	205.38
600.7	214.38
600.909	210.38
601.118	218.38
601.327	217.38
601.536	212.38
601.745	196.38
601.953	220.38
602.162	203.38
602.371	212.38
602.58	218.38
602.789	198.38
602.997	205.38
603.206	183.38
603.415	209.38
603.623	190.38
603.832	202.38
604.041	199.38
604.249	197.38
604.458	209.38
604.666	187.38
604.875	181.38
605.084	183.38
605.292	196.38
605.501	214.38
605.709	194.38
605.918	177.38
606.126	202.38
606.334	200.38
606.543	210.38
606.751	207.38
606.96	202.38
607.168	209.38
607.376	192.38
607.585	202.38
607.793	207.38
608.001	204.38
608.21	187.38
608.418	191.38
608.626	194.38
608.834	187.38
609.043	203.38
609.251	198.38
609.459	192.38
609.667	195.38
609.875	183.38
610.083	200.38
610.291	192.38
610.499	203.38
610.707	188.38
610.916	206.38
611.124	211.38
611.332	189.38
611.54	224.38
611.748	224.38
611.955	194.38
612.163	193.38
612.371	197.38
612.579	210.38
612.787	203.38
612.995	208.38
613.203	194.38
613.411	195.38
613.618	198.38
613.826	189.38
614.034	194.38
614.242	187.38
614.449	196.38
614.657	195.38
614.865	192.38
615.072	207.38
615.28	197.38
615.488	190.38
615.695	207.38
615.903	200.38
616.111	198.38
616.318	199.38
616.526	196.38
616.733	190.38
616.941	198.38
617.148	189.38
617.356	192.38
617.563	199.38
617.771	198.38
617.978	181.38
618.185	188.38
618.393	216.38
618.6	183.38
618.807	198.38
619.015	189.38
619.222	203.38
619.429	181.38
619.637	200.38
619.844	185.38
620.051	189.38
620.258	182.38
620.466	186.38
620.673	180.38
620.88	184.38
621.087	194.38
621.294	184.38
621.501	178.38
621.708	172.38
621.915	179.38
622.122	196.38
622.329	191.38
622.536	195.38
622.743	182.38
622.95	195.38
623.157	192.38
623.364	186.38
623.571	181.38
623.778	180.38
623.985	178.38
624.192	179.38
624.399	179.38
624.606	172.38
624.812	194.38
625.019	167.38
625.226	174.38
625.433	180.38
625.639	184.38
625.846	187.38
626.053	173.38
626.259	178.38
626.466	170.38
626.673	170.38
626.879	156.38
627.086	179.38
627.293	175.38
627.499	158.38
627.706	163.38
627.912	170.38
628.119	175.38
628.325	184.38
628.532	164.38
628.738	170.38
628.945	150.38
629.151	170.38
629.357	172.38
629.564	158.38
629.77	163.38
629.976	150.38
630.183	169.38
630.389	159.38
630.595	157.38
630.802	153.38
631.008	162.38
631.214	164.38
631.42	161.38
631.627	157.38
631.833	169.38
632.039	163.38
632.245	156.38
632.451	161.38
632.657	162.38
632.863	165.38
633.069	164.38
633.275	167.38
633.481	154.38
633.688	153.38
633.893	159.38
634.099	156.38
634.305	165.38
634.511	162.38
634.717	163.38
634.923	153.38
635.129	156.38
635.335	165.38
635.541	142.38
635.747	154.38
635.952	131.38
636.158	157.38
636.364	154.38
636.57	152.38
636.775	152.38
636.981	156.38
637.187	179.38
637.392	158.38
637.598	156.38
637.804	160.38
638.009	153.38
638.215	152.38
638.421	143.38
638.626	149.38
638.832	148.38
639.037	169.38
639.243	150.38
639.448	149.38
639.654	152.38
639.859	152.38
640.065	145.38
640.27	156.38
640.475	160.38
640.681	142.38
640.886	151.38
641.091	167.38
641.297	163.38
641.502	146.38
641.707	138.38
641.913	160.38
642.118	151.38
642.323	153.38
642.528	157.38
642.733	165.38
642.939	156.38
643.144	149.38
643.349	156.38
643.554	154.38
643.759	140.38
643.964	154.38
644.169	138.38
644.374	133.38
644.579	150.38
644.784	135.38
644.989	138.38
645.194	147.38
645.399	158.38
645.604	155.38
645.809	160.38
646.014	160.38
646.219	138.38
646.423	146.38
646.628	152.38
646.833	138.38
647.038	139.38
647.243	152.38
647.447	139.38
647.652	144.38
647.857	147.38
648.062	157.38
648.266	156.38
648.471	146.38
648.676	145.38
648.88	152.38
649.085	168.38
649.289	149.38
649.494	141.38
649.698	154.38
649.903	142.38
650.107	153.38
650.312	135.38
650.516	147.38
650.721	148.38
650.925	145.38
651.13	127.38
651.334	140.38
651.539	116.38
651.743	133.38
651.947	123.38
652.152	141.38
652.356	128.38
652.56	128.38
652.764	137.38
652.969	141.38
653.173	121.38
653.377	133.38
653.581	109.38
653.785	147.38
653.99	129.38
654.194	132.38
654.398	127.38
654.602	132.38
654.806	134.38
655.01	132.38
655.214	116.38
655.418	124.38
655.622	143.38
655.826	130.38
656.03	133.38
656.234	120.38
656.438	127.38
656.642	123.38
656.846	124.38
657.049	109.38
657.253	132.38
657.457	126.38
657.661	122.38
657.865	129.38
658.068	113.38
658.272	106.38
658.476	108.38
658.68	99.38
658.883	122.38
659.087	98.38
659.291	107.38
659.494	107.38
659.698	82.38
659.901	90.38
660.105	97.38
660.309	107.38
660.512	93.38
660.716	88.38
660.919	100.38
661.123	99.38
661.326	95.38
661.53	93.38
661.733	85.38
661.936	89.38
662.14	83.38
662.343	93.38
662.546	87.38
662.75	89.38
662.953	76.38
663.156	84.38
663.36	86.38
663.563	97.38
663.766	87.38
663.969	82.38
664.173	97.38
664.376	93.38
664.579	84.38
664.782	68.38
664.985	81.38
665.188	82.38
665.391	76.38
665.594	73.38
665.797	76.38
666	87.38
666.203	77.38
666.406	74.38
666.609	97.38
666.812	97.38
667.015	79.38
667.218	83.38
667.421	76.38
667.624	73.38
667.827	86.38
668.03	89.38
668.232	93.38
668.435	73.38
668.638	82.38
668.841	91.38
669.043	89.38
669.246	80.38
669.449	90.38
669.651	74.38
669.854	71.38
670.057	79.38
670.259	73.38
670.462	85.38
670.665	85.38
670.867	63.38
671.07	84.38
671.272	80.38
671.475	93.38
671.677	73.38
671.88	82.38
672.082	74.38
672.284	71.38
672.487	83.38
672.689	87.38
672.892	76.38
