Data from 1969.PennyLincolnUp.Lamp.En5.5.200Scan.071719.P1._HRD10591_14-53-51-971.txt Node
Date: Thu Jul 18 14:53:51 EDT 2019
User: cochatt
Spectrometer: HR+D1059
Trigger mode: 1
Integration Time (sec): 1.000000E-1
Scans to average: 1
Electric dark correction enabled: true
Nonlinearity correction enabled: false
Boxcar width: 0
XAxis mode: Wavelengths
Number of Pixels in Spectrum: 2048
>>>>>Begin Spectral Data<<<<<
223.165	-16.94
223.4	-16.94
223.635	-16.94
223.869	-23.94
224.104	-22.94
224.338	-23.94
224.573	-12.94
224.808	-6.94
225.042	-1.94
225.277	-0.94
225.511	1.06
225.746	8.06
225.98	0.06
226.215	15.06
226.449	23.06
226.683	28.06
226.918	15.06
227.152	20.06
227.387	39.06
227.621	37.06
227.856	43.06
228.09	35.06
228.324	50.06
228.559	58.06
228.793	66.06
229.027	93.06
229.262	79.06
229.496	85.06
229.73	93.06
229.964	105.06
230.199	89.06
230.433	110.06
230.667	106.06
230.901	91.06
231.136	94.06
231.37	97.06
231.604	105.06
231.838	110.06
232.072	98.06
232.306	100.06
232.541	110.06
232.775	112.06
233.009	114.06
233.243	101.06
233.477	113.06
233.711	111.06
233.945	117.06
234.179	105.06
234.413	106.06
234.647	108.06
234.881	107.06
235.115	113.06
235.349	104.06
235.583	124.06
235.817	107.06
236.051	125.06
236.285	99.06
236.519	112.06
236.753	117.06
236.987	111.06
237.221	121.06
237.455	140.06
237.689	119.06
237.922	104.06
238.156	111.06
238.39	108.06
238.624	95.06
238.858	104.06
239.091	103.06
239.325	108.06
239.559	100.06
239.793	110.06
240.027	121.06
240.26	117.06
240.494	98.06
240.728	119.06
240.961	112.06
241.195	127.06
241.429	121.06
241.662	126.06
241.896	106.06
242.13	112.06
242.363	121.06
242.597	117.06
242.83	111.06
243.064	117.06
243.298	123.06
243.531	127.06
243.765	127.06
243.998	130.06
244.232	131.06
244.465	126.06
244.699	113.06
244.932	119.06
245.166	125.06
245.399	136.06
245.633	122.06
245.866	134.06
246.099	127.06
246.333	135.06
246.566	133.06
246.8	129.06
247.033	138.06
247.266	138.06
247.5	151.06
247.733	145.06
247.966	131.06
248.2	149.06
248.433	145.06
248.666	135.06
248.899	137.06
249.133	157.06
249.366	162.06
249.599	131.06
249.832	122.06
250.066	146.06
250.299	142.06
250.532	145.06
250.765	152.06
250.998	158.06
251.231	133.06
251.465	165.06
251.698	155.06
251.931	163.06
252.164	145.06
252.397	140.06
252.63	154.06
252.863	158.06
253.096	169.06
253.329	156.06
253.562	157.06
253.795	169.06
254.028	152.06
254.261	169.06
254.494	167.06
254.727	174.06
254.96	183.06
255.193	179.06
255.426	164.06
255.659	163.06
255.892	174.06
256.124	198.06
256.357	165.06
256.59	175.06
256.823	154.06
257.056	151.06
257.289	144.06
257.521	145.06
257.754	160.06
257.987	171.06
258.22	163.06
258.452	154.06
258.685	150.06
258.918	161.06
259.151	152.06
259.383	161.06
259.616	151.06
259.849	187.06
260.081	178.06
260.314	181.06
260.547	181.06
260.779	182.06
261.012	177.06
261.244	174.06
261.477	170.06
261.71	177.06
261.942	160.06
262.175	154.06
262.407	156.06
262.64	170.06
262.872	153.06
263.105	157.06
263.337	160.06
263.57	171.06
263.802	170.06
264.035	173.06
264.267	153.06
264.499	167.06
264.732	175.06
264.964	173.06
265.197	173.06
265.429	175.06
265.661	177.06
265.894	176.06
266.126	183.06
266.358	188.06
266.591	182.06
266.823	185.06
267.055	170.06
267.287	178.06
267.52	170.06
267.752	177.06
267.984	160.06
268.216	192.06
268.448	184.06
268.681	178.06
268.913	177.06
269.145	170.06
269.377	189.06
269.609	201.06
269.841	199.06
270.073	202.06
270.306	202.06
270.538	220.06
270.77	210.06
271.002	204.06
271.234	209.06
271.466	221.06
271.698	206.06
271.93	216.06
272.162	229.06
272.394	213.06
272.626	202.06
272.858	196.06
273.09	196.06
273.322	220.06
273.553	199.06
273.785	187.06
274.017	193.06
274.249	217.06
274.481	198.06
274.713	192.06
274.945	199.06
275.176	205.06
275.408	205.06
275.64	183.06
275.872	176.06
276.104	216.06
276.335	203.06
276.567	213.06
276.799	209.06
277.031	235.06
277.262	214.06
277.494	217.06
277.726	221.06
277.957	209.06
278.189	224.06
278.421	198.06
278.652	206.06
278.884	200.06
279.115	207.06
279.347	207.06
279.579	201.06
279.81	209.06
280.042	211.06
280.273	210.06
280.505	211.06
280.736	225.06
280.968	204.06
281.199	211.06
281.431	207.06
281.662	207.06
281.894	205.06
282.125	217.06
282.356	227.06
282.588	233.06
282.819	226.06
283.051	230.06
283.282	211.06
283.513	232.06
283.745	232.06
283.976	214.06
284.207	223.06
284.439	215.06
284.67	210.06
284.901	211.06
285.132	212.06
285.364	203.06
285.595	223.06
285.826	205.06
286.057	219.06
286.288	231.06
286.52	233.06
286.751	227.06
286.982	231.06
287.213	229.06
287.444	222.06
287.675	230.06
287.906	219.06
288.138	238.06
288.369	228.06
288.6	219.06
288.831	244.06
289.062	242.06
289.293	232.06
289.524	223.06
289.755	226.06
289.986	233.06
290.217	225.06
290.448	243.06
290.679	228.06
290.91	222.06
291.141	231.06
291.371	225.06
291.602	226.06
291.833	235.06
292.064	240.06
292.295	231.06
292.526	244.06
292.757	233.06
292.987	222.06
293.218	241.06
293.449	228.06
293.68	229.06
293.91	227.06
294.141	221.06
294.372	237.06
294.603	246.06
294.833	242.06
295.064	244.06
295.295	227.06
295.525	226.06
295.756	242.06
295.987	251.06
296.217	255.06
296.448	246.06
296.679	241.06
296.909	249.06
297.14	251.06
297.37	250.06
297.601	249.06
297.831	248.06
298.062	250.06
298.292	252.06
298.523	242.06
298.753	256.06
298.984	237.06
299.214	267.06
299.445	256.06
299.675	239.06
299.905	251.06
300.136	245.06
300.366	242.06
300.597	260.06
300.827	253.06
301.057	243.06
301.288	248.06
301.518	267.06
301.748	261.06
301.979	275.06
302.209	261.06
302.439	261.06
302.669	249.06
302.9	264.06
303.13	261.06
303.36	260.06
303.59	276.06
303.82	262.06
304.051	264.06
304.281	264.06
304.511	270.06
304.741	253.06
304.971	250.06
305.201	266.06
305.431	241.06
305.661	263.06
305.891	271.06
306.121	249.06
306.352	263.06
306.582	254.06
306.812	280.06
307.042	251.06
307.272	265.06
307.502	250.06
307.731	257.06
307.961	247.06
308.191	248.06
308.421	244.06
308.651	263.06
308.881	266.06
309.111	280.06
309.341	271.06
309.571	261.06
309.8	262.06
310.03	267.06
310.26	278.06
310.49	262.06
310.72	279.06
310.949	292.06
311.179	283.06
311.409	277.06
311.639	286.06
311.868	273.06
312.098	265.06
312.328	280.06
312.557	284.06
312.787	282.06
313.017	289.06
313.246	274.06
313.476	277.06
313.706	274.06
313.935	279.06
314.165	290.06
314.394	290.06
314.624	290.06
314.853	287.06
315.083	274.06
315.312	283.06
315.542	285.06
315.771	275.06
316.001	285.06
316.23	272.06
316.46	284.06
316.689	294.06
316.919	279.06
317.148	285.06
317.377	288.06
317.607	285.06
317.836	280.06
318.065	277.06
318.295	297.06
318.524	281.06
318.753	280.06
318.983	271.06
319.212	275.06
319.441	299.06
319.67	302.06
319.9	288.06
320.129	281.06
320.358	266.06
320.587	298.06
320.816	305.06
321.046	285.06
321.275	314.06
321.504	299.06
321.733	292.06
321.962	286.06
322.191	285.06
322.42	289.06
322.649	297.06
322.878	301.06
323.108	310.06
323.337	295.06
323.566	333.06
323.795	317.06
324.024	332.06
324.253	384.06
324.482	471.06
324.71	635.06
324.939	788.06
325.168	666.06
325.397	403.06
325.626	335.06
325.855	320.06
326.084	307.06
326.313	321.06
326.542	330.06
326.77	323.06
326.999	379.06
327.228	423.06
327.457	570.06
327.686	634.06
327.914	448.06
328.143	373.06
328.372	346.06
328.6	337.06
328.829	313.06
329.058	347.06
329.287	346.06
329.515	339.06
329.744	327.06
329.972	323.06
330.201	349.06
330.43	352.06
330.658	346.06
330.887	359.06
331.115	351.06
331.344	338.06
331.572	344.06
331.801	338.06
332.03	343.06
332.258	329.06
332.486	358.06
332.715	330.06
332.943	369.06
333.172	352.06
333.4	353.06
333.629	352.06
333.857	373.06
334.085	381.06
334.314	367.06
334.542	379.06
334.771	367.06
334.999	361.06
335.227	350.06
335.455	354.06
335.684	360.06
335.912	329.06
336.14	327.06
336.369	333.06
336.597	348.06
336.825	347.06
337.053	327.06
337.281	322.06
337.51	342.06
337.738	323.06
337.966	333.06
338.194	335.06
338.422	328.06
338.65	335.06
338.878	329.06
339.106	329.06
339.334	314.06
339.562	316.06
339.79	336.06
340.018	317.06
340.246	330.06
340.474	316.06
340.702	307.06
340.93	328.06
341.158	302.06
341.386	327.06
341.614	313.06
341.842	315.06
342.07	306.06
342.298	328.06
342.526	314.06
342.754	328.06
342.981	320.06
343.209	309.06
343.437	326.06
343.665	340.06
343.893	351.06
344.12	347.06
344.348	326.06
344.576	334.06
344.804	330.06
345.031	313.06
345.259	318.06
345.487	319.06
345.714	308.06
345.942	297.06
346.17	301.06
346.397	315.06
346.625	306.06
346.853	305.06
347.08	314.06
347.308	305.06
347.535	311.06
347.763	308.06
347.99	309.06
348.218	328.06
348.445	313.06
348.673	305.06
348.9	295.06
349.128	313.06
349.355	297.06
349.583	299.06
349.81	294.06
350.037	304.06
350.265	290.06
350.492	301.06
350.72	290.06
350.947	298.06
351.174	297.06
351.402	284.06
351.629	313.06
351.856	300.06
352.083	290.06
352.311	285.06
352.538	311.06
352.765	317.06
352.992	302.06
353.22	297.06
353.447	288.06
353.674	307.06
353.901	288.06
354.128	294.06
354.355	273.06
354.583	289.06
354.81	290.06
355.037	315.06
355.264	302.06
355.491	289.06
355.718	299.06
355.945	274.06
356.172	285.06
356.399	288.06
356.626	289.06
356.853	296.06
357.08	296.06
357.307	291.06
357.534	300.06
357.761	274.06
357.988	281.06
358.215	281.06
358.441	296.06
358.668	295.06
358.895	304.06
359.122	301.06
359.349	286.06
359.576	305.06
359.802	307.06
360.029	318.06
360.256	318.06
360.483	302.06
360.709	307.06
360.936	297.06
361.163	301.06
361.39	296.06
361.616	307.06
361.843	297.06
362.07	291.06
362.296	311.06
362.523	265.06
362.749	274.06
362.976	299.06
363.203	281.06
363.429	288.06
363.656	290.06
363.882	291.06
364.109	279.06
364.335	303.06
364.562	298.06
364.788	291.06
365.015	313.06
365.241	295.06
365.468	300.06
365.694	294.06
365.92	287.06
366.147	297.06
366.373	301.06
366.599	273.06
366.826	294.06
367.052	275.06
367.278	277.06
367.505	293.06
367.731	294.06
367.957	286.06
368.184	279.06
368.41	303.06
368.636	294.06
368.862	290.06
369.089	290.06
369.315	310.06
369.541	300.06
369.767	291.06
369.993	290.06
370.219	275.06
370.445	291.06
370.672	284.06
370.898	303.06
371.124	296.06
371.35	298.06
371.576	306.06
371.802	302.06
372.028	309.06
372.254	301.06
372.48	295.06
372.706	307.06
372.932	313.06
373.158	311.06
373.384	298.06
373.61	314.06
373.835	297.06
374.061	307.06
374.287	329.06
374.513	307.06
374.739	298.06
374.965	301.06
375.191	336.06
375.416	318.06
375.642	319.06
375.868	321.06
376.094	311.06
376.319	308.06
376.545	300.06
376.771	306.06
376.997	299.06
377.222	301.06
377.448	308.06
377.674	303.06
377.899	297.06
378.125	293.06
378.35	286.06
378.576	298.06
378.802	281.06
379.027	294.06
379.253	306.06
379.478	309.06
379.704	286.06
379.929	291.06
380.155	314.06
380.38	306.06
380.606	313.06
380.831	311.06
381.057	304.06
381.282	294.06
381.507	306.06
381.733	297.06
381.958	285.06
382.184	309.06
382.409	293.06
382.634	310.06
382.86	320.06
383.085	319.06
383.31	309.06
383.535	311.06
383.761	314.06
383.986	328.06
384.211	338.06
384.436	319.06
384.662	315.06
384.887	326.06
385.112	350.06
385.337	355.06
385.562	339.06
385.787	326.06
386.013	355.06
386.238	343.06
386.463	337.06
386.688	343.06
386.913	344.06
387.138	329.06
387.363	352.06
387.588	335.06
387.813	321.06
388.038	338.06
388.263	342.06
388.488	359.06
388.713	347.06
388.938	331.06
389.163	315.06
389.387	312.06
389.612	353.06
389.837	333.06
390.062	335.06
390.287	338.06
390.512	333.06
390.736	330.06
390.961	351.06
391.186	353.06
391.411	357.06
391.636	354.06
391.86	363.06
392.085	366.06
392.31	371.06
392.534	353.06
392.759	353.06
392.984	335.06
393.208	331.06
393.433	349.06
393.658	350.06
393.882	345.06
394.107	353.06
394.331	354.06
394.556	339.06
394.78	327.06
395.005	355.06
395.229	332.06
395.454	351.06
395.678	364.06
395.903	374.06
396.127	352.06
396.352	361.06
396.576	355.06
396.801	346.06
397.025	365.06
397.249	364.06
397.474	377.06
397.698	383.06
397.922	363.06
398.147	349.06
398.371	373.06
398.595	386.06
398.82	381.06
399.044	388.06
399.268	438.06
399.492	469.06
399.717	488.06
399.941	489.06
400.165	478.06
400.389	473.06
400.613	413.06
400.837	422.06
401.062	384.06
401.286	395.06
401.51	386.06
401.734	381.06
401.958	386.06
402.182	383.06
402.406	397.06
402.63	404.06
402.854	405.06
403.078	420.06
403.302	407.06
403.526	430.06
403.75	397.06
403.974	421.06
404.198	410.06
404.422	430.06
404.645	412.06
404.869	418.06
405.093	437.06
405.317	427.06
405.541	468.06
405.765	407.06
405.988	405.06
406.212	429.06
406.436	453.06
406.66	451.06
406.883	426.06
407.107	434.06
407.331	475.06
407.555	509.06
407.778	481.06
408.002	471.06
408.226	449.06
408.449	429.06
408.673	410.06
408.896	433.06
409.12	453.06
409.344	458.06
409.567	427.06
409.791	417.06
410.014	409.06
410.238	425.06
410.461	416.06
410.685	414.06
410.908	410.06
411.132	419.06
411.355	410.06
411.578	421.06
411.802	383.06
412.025	390.06
412.249	408.06
412.472	398.06
412.695	433.06
412.919	416.06
413.142	391.06
413.365	391.06
413.589	394.06
413.812	383.06
414.035	381.06
414.258	396.06
414.482	401.06
414.705	385.06
414.928	401.06
415.151	395.06
415.374	387.06
415.597	371.06
415.821	371.06
416.044	395.06
416.267	367.06
416.49	375.06
416.713	391.06
416.936	387.06
417.159	387.06
417.382	382.06
417.605	384.06
417.828	387.06
418.051	378.06
418.274	405.06
418.497	393.06
418.72	390.06
418.943	370.06
419.166	399.06
419.389	403.06
419.611	421.06
419.834	409.06
420.057	398.06
420.28	415.06
420.503	410.06
420.726	395.06
420.948	383.06
421.171	404.06
421.394	390.06
421.617	387.06
421.839	378.06
422.062	383.06
422.285	401.06
422.507	411.06
422.73	433.06
422.953	449.06
423.175	419.06
423.398	392.06
423.621	403.06
423.843	416.06
424.066	421.06
424.288	416.06
424.511	421.06
424.733	426.06
424.956	483.06
425.178	461.06
425.401	441.06
425.623	446.06
425.846	394.06
426.068	411.06
426.291	407.06
426.513	379.06
426.735	386.06
426.958	405.06
427.18	443.06
427.402	502.06
427.625	513.06
427.847	458.06
428.069	402.06
428.292	402.06
428.514	383.06
428.736	366.06
428.958	373.06
429.181	361.06
429.403	354.06
429.625	367.06
429.847	361.06
430.069	398.06
430.292	393.06
430.514	362.06
430.736	362.06
430.958	349.06
431.18	361.06
431.402	363.06
431.624	364.06
431.846	356.06
432.068	357.06
432.29	372.06
432.512	361.06
432.734	367.06
432.956	354.06
433.178	377.06
433.4	371.06
433.622	346.06
433.844	368.06
434.066	344.06
434.287	357.06
434.509	361.06
434.731	382.06
434.953	393.06
435.175	407.06
435.397	400.06
435.618	395.06
435.84	383.06
436.062	432.06
436.284	477.06
436.505	410.06
436.727	362.06
436.949	354.06
437.17	364.06
437.392	380.06
437.614	397.06
437.835	389.06
438.057	410.06
438.278	432.06
438.5	453.06
438.721	461.06
438.943	465.06
439.165	406.06
439.386	379.06
439.608	388.06
439.829	383.06
440.05	377.06
440.272	395.06
440.493	419.06
440.715	387.06
440.936	382.06
441.158	359.06
441.379	397.06
441.6	391.06
441.822	398.06
442.043	412.06
442.264	442.06
442.486	465.06
442.707	424.06
442.928	405.06
443.149	421.06
443.371	427.06
443.592	415.06
443.813	475.06
444.034	493.06
444.255	429.06
444.476	441.06
444.698	449.06
444.919	450.06
445.14	542.06
445.361	481.06
445.582	419.06
445.803	432.06
446.024	463.06
446.245	462.06
446.466	433.06
446.687	401.06
446.908	391.06
447.129	364.06
447.35	373.06
447.571	353.06
447.792	336.06
448.013	338.06
448.234	354.06
448.455	376.06
448.675	427.06
448.896	469.06
449.117	444.06
449.338	391.06
449.559	458.06
449.779	481.06
450	409.06
450.221	358.06
450.442	363.06
450.662	358.06
450.883	360.06
451.104	371.06
451.324	345.06
451.545	331.06
451.766	327.06
451.986	338.06
452.207	338.06
452.428	320.06
452.648	324.06
452.869	335.06
453.089	347.06
453.31	347.06
453.53	334.06
453.751	337.06
453.971	333.06
454.192	318.06
454.412	326.06
454.633	335.06
454.853	324.06
455.073	320.06
455.294	337.06
455.514	353.06
455.734	363.06
455.955	313.06
456.175	291.06
456.395	307.06
456.616	318.06
456.836	326.06
457.056	309.06
457.276	335.06
457.497	335.06
457.717	330.06
457.937	325.06
458.157	322.06
458.377	327.06
458.598	326.06
458.818	374.06
459.038	408.06
459.258	387.06
459.478	363.06
459.698	366.06
459.918	368.06
460.138	382.06
460.358	399.06
460.578	380.06
460.798	397.06
461.018	393.06
461.238	383.06
461.458	391.06
461.678	398.06
461.898	395.06
462.118	405.06
462.338	388.06
462.558	397.06
462.777	435.06
462.997	439.06
463.217	453.06
463.437	463.06
463.657	452.06
463.876	450.06
464.096	426.06
464.316	410.06
464.536	416.06
464.755	406.06
464.975	423.06
465.195	403.06
465.414	426.06
465.634	403.06
465.854	391.06
466.073	381.06
466.293	362.06
466.512	358.06
466.732	344.06
466.951	354.06
467.171	363.06
467.391	336.06
467.61	345.06
467.829	359.06
468.049	349.06
468.268	351.06
468.488	324.06
468.707	351.06
468.927	337.06
469.146	352.06
469.365	360.06
469.585	338.06
469.804	353.06
470.023	354.06
470.243	368.06
470.462	352.06
470.681	362.06
470.901	365.06
471.12	354.06
471.339	359.06
471.558	358.06
471.777	363.06
471.997	347.06
472.216	351.06
472.435	343.06
472.654	347.06
472.873	352.06
473.092	339.06
473.311	346.06
473.53	343.06
473.749	342.06
473.968	368.06
474.187	403.06
474.406	403.06
474.625	361.06
474.844	341.06
475.063	339.06
475.282	362.06
475.501	342.06
475.72	343.06
475.939	345.06
476.158	336.06
476.377	346.06
476.596	339.06
476.814	353.06
477.033	362.06
477.252	342.06
477.471	370.06
477.69	380.06
477.908	399.06
478.127	401.06
478.346	391.06
478.564	380.06
478.783	396.06
479.002	417.06
479.22	411.06
479.439	421.06
479.658	403.06
479.876	401.06
480.095	429.06
480.313	427.06
480.532	450.06
480.751	422.06
480.969	427.06
481.188	430.06
481.406	433.06
481.624	401.06
481.843	396.06
482.061	397.06
482.28	389.06
482.498	408.06
482.717	389.06
482.935	389.06
483.153	384.06
483.372	390.06
483.59	394.06
483.808	390.06
484.027	399.06
484.245	398.06
484.463	382.06
484.681	412.06
484.9	412.06
485.118	406.06
485.336	410.06
485.554	403.06
485.772	422.06
485.99	413.06
486.209	406.06
486.427	416.06
486.645	433.06
486.863	427.06
487.081	417.06
487.299	424.06
487.517	406.06
487.735	434.06
487.953	408.06
488.171	427.06
488.389	386.06
488.607	424.06
488.825	413.06
489.043	421.06
489.261	421.06
489.479	413.06
489.696	429.06
489.914	431.06
490.132	451.06
490.35	424.06
490.568	434.06
490.786	445.06
491.003	428.06
491.221	449.06
491.439	458.06
491.657	470.06
491.874	465.06
492.092	451.06
492.31	467.06
492.527	491.06
492.745	475.06
492.963	470.06
493.18	490.06
493.398	477.06
493.615	479.06
493.833	482.06
494.05	484.06
494.268	478.06
494.485	454.06
494.703	482.06
494.92	495.06
495.138	470.06
495.355	478.06
495.573	479.06
495.79	481.06
496.008	473.06
496.225	494.06
496.442	471.06
496.66	488.06
496.877	473.06
497.094	511.06
497.312	495.06
497.529	505.06
497.746	530.06
497.963	515.06
498.181	529.06
498.398	536.06
498.615	571.06
498.832	576.06
499.049	610.06
499.267	635.06
499.484	678.06
499.701	719.06
499.918	743.06
500.135	830.06
500.352	887.06
500.569	911.06
500.786	895.06
501.003	849.06
501.22	794.06
501.437	751.06
501.654	689.06
501.871	688.06
502.088	651.06
502.305	607.06
502.522	582.06
502.739	557.06
502.956	551.06
503.172	539.06
503.389	503.06
503.606	495.06
503.823	515.06
504.04	499.06
504.256	498.06
504.473	509.06
504.69	517.06
504.907	489.06
505.123	492.06
505.34	482.06
505.557	477.06
505.773	461.06
505.99	444.06
506.207	471.06
506.423	456.06
506.64	461.06
506.856	444.06
507.073	433.06
507.289	447.06
507.506	429.06
507.722	450.06
507.939	452.06
508.155	431.06
508.372	414.06
508.588	417.06
508.805	424.06
509.021	416.06
509.238	396.06
509.454	419.06
509.67	424.06
509.887	407.06
510.103	417.06
510.319	399.06
510.536	435.06
510.752	571.06
510.968	499.06
511.184	396.06
511.401	395.06
511.617	407.06
511.833	407.06
512.049	394.06
512.265	408.06
512.481	400.06
512.698	395.06
512.914	409.06
513.13	389.06
513.346	402.06
513.562	418.06
513.778	391.06
513.994	386.06
514.21	410.06
514.426	398.06
514.642	415.06
514.858	406.06
515.074	419.06
515.29	460.06
515.506	599.06
515.721	551.06
515.937	439.06
516.153	419.06
516.369	424.06
516.585	438.06
516.801	421.06
517.016	442.06
517.232	466.06
517.448	446.06
517.664	476.06
517.879	454.06
518.095	495.06
518.311	453.06
518.527	438.06
518.742	467.06
518.958	438.06
519.173	416.06
519.389	423.06
519.605	413.06
519.82	401.06
520.036	415.06
520.251	400.06
520.467	416.06
520.682	383.06
520.898	398.06
521.113	409.06
521.329	385.06
521.544	418.06
521.76	465.06
521.975	677.06
522.19	664.06
522.406	456.06
522.621	403.06
522.836	385.06
523.052	393.06
523.267	369.06
523.482	358.06
523.698	395.06
523.913	358.06
524.128	366.06
524.343	346.06
524.559	360.06
524.774	358.06
524.989	358.06
525.204	352.06
525.419	351.06
525.634	362.06
525.849	350.06
526.064	347.06
526.28	346.06
526.495	369.06
526.71	349.06
526.925	354.06
527.14	331.06
527.355	335.06
527.57	333.06
527.785	343.06
527.999	344.06
528.214	341.06
528.429	341.06
528.644	343.06
528.859	339.06
529.074	345.06
529.289	348.06
529.503	367.06
529.718	368.06
529.933	359.06
530.148	343.06
530.363	347.06
530.577	349.06
530.792	314.06
531.007	344.06
531.221	345.06
531.436	336.06
531.651	345.06
531.865	338.06
532.08	354.06
532.295	345.06
532.509	336.06
532.724	338.06
532.938	327.06
533.153	326.06
533.367	339.06
533.582	329.06
533.796	354.06
534.011	341.06
534.225	334.06
534.44	345.06
534.654	329.06
534.868	352.06
535.083	322.06
535.297	331.06
535.511	330.06
535.726	322.06
535.94	331.06
536.154	329.06
536.369	334.06
536.583	332.06
536.797	325.06
537.011	314.06
537.225	333.06
537.44	330.06
537.654	314.06
537.868	316.06
538.082	321.06
538.296	318.06
538.51	313.06
538.724	318.06
538.938	321.06
539.153	333.06
539.367	324.06
539.581	334.06
539.795	315.06
540.009	332.06
540.222	326.06
540.436	315.06
540.65	326.06
540.864	319.06
541.078	336.06
541.292	337.06
541.506	323.06
541.72	329.06
541.934	327.06
542.147	346.06
542.361	362.06
542.575	340.06
542.789	320.06
543.002	329.06
543.216	342.06
543.43	331.06
543.644	338.06
543.857	326.06
544.071	316.06
544.285	327.06
544.498	330.06
544.712	333.06
544.925	349.06
545.139	337.06
545.352	328.06
545.566	337.06
545.779	325.06
545.993	349.06
546.206	339.06
546.42	337.06
546.633	330.06
546.847	328.06
547.06	329.06
547.274	342.06
547.487	338.06
547.7	330.06
547.914	318.06
548.127	329.06
548.34	321.06
548.554	344.06
548.767	329.06
548.98	312.06
549.193	339.06
549.407	338.06
549.62	347.06
549.833	332.06
550.046	324.06
550.259	334.06
550.473	337.06
550.686	339.06
550.899	333.06
551.112	337.06
551.325	300.06
551.538	317.06
551.751	315.06
551.964	345.06
552.177	337.06
552.39	327.06
552.603	342.06
552.816	366.06
553.029	346.06
553.242	341.06
553.455	368.06
553.667	359.06
553.88	347.06
554.093	333.06
554.306	356.06
554.519	331.06
554.732	344.06
554.944	320.06
555.157	322.06
555.37	321.06
555.583	320.06
555.795	325.06
556.008	305.06
556.221	291.06
556.433	294.06
556.646	290.06
556.859	301.06
557.071	318.06
557.284	315.06
557.496	292.06
557.709	301.06
557.921	279.06
558.134	290.06
558.346	293.06
558.559	301.06
558.771	286.06
558.984	289.06
559.196	296.06
559.409	297.06
559.621	306.06
559.833	285.06
560.046	291.06
560.258	281.06
560.47	296.06
560.683	287.06
560.895	283.06
561.107	299.06
561.32	288.06
561.532	279.06
561.744	277.06
561.956	277.06
562.168	290.06
562.381	285.06
562.593	299.06
562.805	313.06
563.017	311.06
563.229	311.06
563.441	295.06
563.653	302.06
563.865	307.06
564.077	305.06
564.289	305.06
564.501	327.06
564.713	296.06
564.925	304.06
565.137	318.06
565.349	325.06
565.561	308.06
565.773	333.06
565.985	337.06
566.197	370.06
566.408	382.06
566.62	395.06
566.832	412.06
567.044	413.06
567.255	399.06
567.467	439.06
567.679	430.06
567.891	443.06
568.102	472.06
568.314	441.06
568.526	419.06
568.737	381.06
568.949	359.06
569.161	367.06
569.372	346.06
569.584	315.06
569.795	314.06
570.007	294.06
570.218	311.06
570.43	305.06
570.641	306.06
570.853	305.06
571.064	308.06
571.276	307.06
571.487	291.06
571.698	282.06
571.91	284.06
572.121	291.06
572.333	287.06
572.544	273.06
572.755	265.06
572.966	281.06
573.178	267.06
573.389	267.06
573.6	269.06
573.811	233.06
574.023	253.06
574.234	273.06
574.445	277.06
574.656	281.06
574.867	258.06
575.078	269.06
575.289	240.06
575.501	251.06
575.712	259.06
575.923	255.06
576.134	252.06
576.345	259.06
576.556	254.06
576.767	257.06
576.978	254.06
577.188	257.06
577.399	257.06
577.61	241.06
577.821	256.06
578.032	258.06
578.243	234.06
578.454	313.06
578.665	279.06
578.875	243.06
579.086	228.06
579.297	229.06
579.508	238.06
579.718	250.06
579.929	240.06
580.14	226.06
580.35	240.06
580.561	250.06
580.772	237.06
580.982	238.06
581.193	233.06
581.403	238.06
581.614	243.06
581.825	226.06
582.035	234.06
582.246	224.06
582.456	237.06
582.667	237.06
582.877	240.06
583.087	223.06
583.298	235.06
583.508	247.06
583.719	248.06
583.929	234.06
584.139	229.06
584.35	219.06
584.56	217.06
584.77	244.06
584.981	239.06
585.191	231.06
585.401	226.06
585.611	229.06
585.821	246.06
586.032	234.06
586.242	234.06
586.452	217.06
586.662	230.06
586.872	214.06
587.082	224.06
587.292	226.06
587.502	233.06
587.713	221.06
587.923	231.06
588.133	224.06
588.343	236.06
588.553	241.06
588.762	226.06
588.972	233.06
589.182	229.06
589.392	245.06
589.602	239.06
589.812	240.06
590.022	238.06
590.232	215.06
590.441	232.06
590.651	231.06
590.861	238.06
591.071	249.06
591.281	233.06
591.49	235.06
591.7	242.06
591.91	237.06
592.119	245.06
592.329	251.06
592.539	262.06
592.748	255.06
592.958	255.06
593.167	262.06
593.377	284.06
593.587	292.06
593.796	273.06
594.006	266.06
594.215	282.06
594.424	276.06
594.634	255.06
594.843	265.06
595.053	277.06
595.262	250.06
595.472	248.06
595.681	237.06
595.89	242.06
596.1	235.06
596.309	229.06
596.518	237.06
596.727	235.06
596.937	230.06
597.146	208.06
597.355	231.06
597.564	220.06
597.774	228.06
597.983	232.06
598.192	217.06
598.401	223.06
598.61	209.06
598.819	196.06
599.028	201.06
599.237	203.06
599.446	220.06
599.655	221.06
599.864	199.06
600.073	199.06
600.282	221.06
600.491	211.06
600.7	203.06
600.909	199.06
601.118	197.06
601.327	209.06
601.536	209.06
601.745	209.06
601.953	218.06
602.162	216.06
602.371	213.06
602.58	202.06
602.789	202.06
602.997	208.06
603.206	202.06
603.415	220.06
603.623	197.06
603.832	204.06
604.041	206.06
604.249	199.06
604.458	205.06
604.666	193.06
604.875	208.06
605.084	218.06
605.292	182.06
605.501	202.06
605.709	204.06
605.918	209.06
606.126	206.06
606.334	206.06
606.543	193.06
606.751	214.06
606.96	213.06
607.168	203.06
607.376	206.06
607.585	197.06
607.793	210.06
608.001	213.06
608.21	223.06
608.418	211.06
608.626	214.06
608.834	194.06
609.043	206.06
609.251	200.06
609.459	181.06
609.667	203.06
609.875	195.06
610.083	190.06
610.291	198.06
610.499	207.06
610.707	193.06
610.916	208.06
611.124	227.06
611.332	207.06
611.54	208.06
611.748	214.06
611.955	202.06
612.163	212.06
612.371	191.06
612.579	187.06
612.787	189.06
612.995	199.06
613.203	206.06
613.411	210.06
613.618	193.06
613.826	183.06
614.034	211.06
614.242	217.06
614.449	202.06
614.657	223.06
614.865	206.06
615.072	203.06
615.28	204.06
615.488	198.06
615.695	201.06
615.903	199.06
616.111	191.06
616.318	205.06
616.526	195.06
616.733	204.06
616.941	190.06
617.148	206.06
617.356	209.06
617.563	192.06
617.771	200.06
617.978	185.06
618.185	193.06
618.393	183.06
618.6	193.06
618.807	196.06
619.015	205.06
619.222	186.06
619.429	195.06
619.637	195.06
619.844	187.06
620.051	194.06
620.258	181.06
620.466	181.06
620.673	183.06
620.88	191.06
621.087	192.06
621.294	203.06
621.501	175.06
621.708	185.06
621.915	179.06
622.122	201.06
622.329	199.06
622.536	185.06
622.743	193.06
622.95	197.06
623.157	184.06
623.364	210.06
623.571	185.06
623.778	176.06
623.985	197.06
624.192	185.06
624.399	191.06
624.606	188.06
624.812	188.06
625.019	187.06
625.226	193.06
625.433	183.06
625.639	185.06
625.846	187.06
626.053	184.06
626.259	174.06
626.466	180.06
626.673	171.06
626.879	172.06
627.086	182.06
627.293	173.06
627.499	159.06
627.706	192.06
627.912	181.06
628.119	200.06
628.325	191.06
628.532	170.06
628.738	168.06
628.945	167.06
629.151	174.06
629.357	173.06
629.564	179.06
629.77	189.06
629.976	168.06
630.183	163.06
630.389	171.06
630.595	163.06
630.802	180.06
631.008	179.06
631.214	177.06
631.42	175.06
631.627	169.06
631.833	157.06
632.039	167.06
632.245	176.06
632.451	165.06
632.657	165.06
632.863	168.06
633.069	169.06
633.275	184.06
633.481	172.06
633.688	156.06
633.893	182.06
634.099	179.06
634.305	165.06
634.511	173.06
634.717	167.06
634.923	165.06
635.129	175.06
635.335	148.06
635.541	161.06
635.747	169.06
635.952	154.06
636.158	156.06
636.364	161.06
636.57	162.06
636.775	170.06
636.981	161.06
637.187	164.06
637.392	165.06
637.598	167.06
637.804	152.06
638.009	160.06
638.215	171.06
638.421	158.06
638.626	160.06
638.832	166.06
639.037	150.06
639.243	154.06
639.448	165.06
639.654	158.06
639.859	159.06
640.065	157.06
640.27	152.06
640.475	159.06
640.681	157.06
640.886	160.06
641.091	164.06
641.297	171.06
641.502	151.06
641.707	156.06
641.913	152.06
642.118	163.06
642.323	158.06
642.528	141.06
642.733	154.06
642.939	160.06
643.144	157.06
643.349	162.06
643.554	147.06
643.759	161.06
643.964	164.06
644.169	142.06
644.374	149.06
644.579	163.06
644.784	161.06
644.989	161.06
645.194	138.06
645.399	137.06
645.604	155.06
645.809	145.06
646.014	144.06
646.219	145.06
646.423	147.06
646.628	162.06
646.833	161.06
647.038	153.06
647.243	154.06
647.447	154.06
647.652	159.06
647.857	157.06
648.062	142.06
648.266	162.06
648.471	172.06
648.676	153.06
648.88	157.06
649.085	162.06
649.289	153.06
649.494	145.06
649.698	153.06
649.903	157.06
650.107	152.06
650.312	150.06
650.516	158.06
650.721	141.06
650.925	148.06
651.13	143.06
651.334	145.06
651.539	159.06
651.743	156.06
651.947	140.06
652.152	140.06
652.356	141.06
652.56	141.06
652.764	147.06
652.969	139.06
653.173	137.06
653.377	118.06
653.581	132.06
653.785	150.06
653.99	135.06
654.194	137.06
654.398	143.06
654.602	148.06
654.806	131.06
655.01	130.06
655.214	134.06
655.418	133.06
655.622	126.06
655.826	141.06
656.03	133.06
656.234	134.06
656.438	146.06
656.642	147.06
656.846	143.06
657.049	148.06
657.253	136.06
657.457	141.06
657.661	126.06
657.865	123.06
658.068	95.06
658.272	112.06
658.476	121.06
658.68	104.06
658.883	106.06
659.087	112.06
659.291	114.06
659.494	112.06
659.698	115.06
659.901	112.06
660.105	107.06
660.309	88.06
660.512	86.06
660.716	95.06
660.919	103.06
661.123	104.06
661.326	106.06
661.53	90.06
661.733	90.06
661.936	77.06
662.14	98.06
662.343	89.06
662.546	87.06
662.75	99.06
662.953	103.06
663.156	92.06
663.36	86.06
663.563	87.06
663.766	89.06
663.969	93.06
664.173	99.06
664.376	88.06
664.579	93.06
664.782	83.06
664.985	90.06
665.188	85.06
665.391	76.06
665.594	90.06
665.797	91.06
666	87.06
666.203	82.06
666.406	93.06
666.609	95.06
666.812	93.06
667.015	93.06
667.218	83.06
667.421	77.06
667.624	95.06
667.827	81.06
668.03	91.06
668.232	80.06
668.435	81.06
668.638	77.06
668.841	80.06
669.043	87.06
669.246	80.06
669.449	74.06
669.651	90.06
669.854	91.06
670.057	95.06
670.259	104.06
670.462	88.06
670.665	93.06
670.867	87.06
671.07	86.06
671.272	85.06
671.475	85.06
671.677	90.06
671.88	86.06
672.082	86.06
672.284	78.06
672.487	83.06
672.689	95.06
672.892	87.06
