Data from 1969.PennyLincolnUp.Lamp.En5.5.200Scan.071719.P1._HRD10591_14-54-49-972.txt Node
Date: Thu Jul 18 14:54:49 EDT 2019
User: cochatt
Spectrometer: HR+D1059
Trigger mode: 1
Integration Time (sec): 1.000000E-1
Scans to average: 1
Electric dark correction enabled: true
Nonlinearity correction enabled: false
Boxcar width: 0
XAxis mode: Wavelengths
Number of Pixels in Spectrum: 2048
>>>>>Begin Spectral Data<<<<<
223.165	-12.25
223.4	-12.25
223.635	-12.25
223.869	-3.25
224.104	-12.25
224.338	-16.25
224.573	-19.25
224.808	-23.25
225.042	-20.25
225.277	-14.25
225.511	0.75
225.746	7.75
225.98	8.75
226.215	12.75
226.449	17.75
226.683	23.75
226.918	17.75
227.152	31.75
227.387	32.75
227.621	36.75
227.856	47.75
228.09	49.75
228.324	45.75
228.559	46.75
228.793	58.75
229.027	80.75
229.262	83.75
229.496	103.75
229.73	91.75
229.964	113.75
230.199	96.75
230.433	102.75
230.667	93.75
230.901	99.75
231.136	93.75
231.37	91.75
231.604	108.75
231.838	105.75
232.072	98.75
232.306	104.75
232.541	113.75
232.775	103.75
233.009	104.75
233.243	98.75
233.477	104.75
233.711	105.75
233.945	90.75
234.179	98.75
234.413	104.75
234.647	107.75
234.881	106.75
235.115	118.75
235.349	111.75
235.583	119.75
235.817	105.75
236.051	117.75
236.285	105.75
236.519	119.75
236.753	104.75
236.987	116.75
237.221	151.75
237.455	176.75
237.689	142.75
237.922	120.75
238.156	109.75
238.39	113.75
238.624	118.75
238.858	120.75
239.091	125.75
239.325	115.75
239.559	101.75
239.793	106.75
240.027	113.75
240.26	116.75
240.494	142.75
240.728	116.75
240.961	128.75
241.195	123.75
241.429	110.75
241.662	107.75
241.896	112.75
242.13	111.75
242.363	119.75
242.597	116.75
242.83	126.75
243.064	129.75
243.298	125.75
243.531	131.75
243.765	120.75
243.998	132.75
244.232	116.75
244.465	112.75
244.699	104.75
244.932	131.75
245.166	129.75
245.399	130.75
245.633	131.75
245.866	124.75
246.099	132.75
246.333	123.75
246.566	140.75
246.8	147.75
247.033	147.75
247.266	137.75
247.5	119.75
247.733	126.75
247.966	149.75
248.2	145.75
248.433	137.75
248.666	151.75
248.899	160.75
249.133	163.75
249.366	158.75
249.599	147.75
249.832	152.75
250.066	163.75
250.299	156.75
250.532	156.75
250.765	179.75
250.998	181.75
251.231	165.75
251.465	145.75
251.698	165.75
251.931	165.75
252.164	160.75
252.397	176.75
252.63	173.75
252.863	161.75
253.096	168.75
253.329	183.75
253.562	167.75
253.795	179.75
254.028	185.75
254.261	186.75
254.494	167.75
254.727	193.75
254.96	209.75
255.193	205.75
255.426	196.75
255.659	193.75
255.892	192.75
256.124	188.75
256.357	173.75
256.59	181.75
256.823	184.75
257.056	184.75
257.289	174.75
257.521	180.75
257.754	168.75
257.987	175.75
258.22	185.75
258.452	166.75
258.685	177.75
258.918	158.75
259.151	195.75
259.383	186.75
259.616	190.75
259.849	185.75
260.081	208.75
260.314	211.75
260.547	216.75
260.779	203.75
261.012	173.75
261.244	186.75
261.477	172.75
261.71	173.75
261.942	169.75
262.175	196.75
262.407	181.75
262.64	166.75
262.872	191.75
263.105	179.75
263.337	194.75
263.57	174.75
263.802	198.75
264.035	180.75
264.267	178.75
264.499	171.75
264.732	185.75
264.964	175.75
265.197	172.75
265.429	185.75
265.661	175.75
265.894	194.75
266.126	186.75
266.358	194.75
266.591	198.75
266.823	195.75
267.055	193.75
267.287	201.75
267.52	190.75
267.752	209.75
267.984	204.75
268.216	181.75
268.448	181.75
268.681	204.75
268.913	203.75
269.145	202.75
269.377	219.75
269.609	223.75
269.841	216.75
270.073	231.75
270.306	228.75
270.538	240.75
270.77	260.75
271.002	238.75
271.234	227.75
271.466	227.75
271.698	241.75
271.93	236.75
272.162	248.75
272.394	233.75
272.626	246.75
272.858	214.75
273.09	219.75
273.322	232.75
273.553	212.75
273.785	217.75
274.017	224.75
274.249	218.75
274.481	217.75
274.713	227.75
274.945	239.75
275.176	208.75
275.408	215.75
275.64	228.75
275.872	215.75
276.104	221.75
276.335	232.75
276.567	220.75
276.799	236.75
277.031	239.75
277.262	246.75
277.494	251.75
277.726	236.75
277.957	267.75
278.189	236.75
278.421	241.75
278.652	236.75
278.884	220.75
279.115	220.75
279.347	222.75
279.579	229.75
279.81	240.75
280.042	219.75
280.273	220.75
280.505	232.75
280.736	221.75
280.968	233.75
281.199	232.75
281.431	234.75
281.662	234.75
281.894	238.75
282.125	220.75
282.356	245.75
282.588	235.75
282.819	244.75
283.051	222.75
283.282	235.75
283.513	236.75
283.745	242.75
283.976	247.75
284.207	245.75
284.439	254.75
284.67	232.75
284.901	239.75
285.132	245.75
285.364	245.75
285.595	247.75
285.826	260.75
286.057	244.75
286.288	247.75
286.52	250.75
286.751	236.75
286.982	246.75
287.213	243.75
287.444	258.75
287.675	254.75
287.906	267.75
288.138	271.75
288.369	266.75
288.6	251.75
288.831	252.75
289.062	277.75
289.293	265.75
289.524	263.75
289.755	255.75
289.986	267.75
290.217	267.75
290.448	259.75
290.679	259.75
290.91	259.75
291.141	243.75
291.371	256.75
291.602	245.75
291.833	256.75
292.064	252.75
292.295	259.75
292.526	247.75
292.757	273.75
292.987	253.75
293.218	233.75
293.449	247.75
293.68	266.75
293.91	250.75
294.141	272.75
294.372	259.75
294.603	252.75
294.833	260.75
295.064	273.75
295.295	243.75
295.525	258.75
295.756	263.75
295.987	272.75
296.217	283.75
296.448	263.75
296.679	261.75
296.909	257.75
297.14	266.75
297.37	277.75
297.601	257.75
297.831	264.75
298.062	259.75
298.292	279.75
298.523	294.75
298.753	272.75
298.984	266.75
299.214	258.75
299.445	271.75
299.675	271.75
299.905	274.75
300.136	279.75
300.366	268.75
300.597	269.75
300.827	267.75
301.057	291.75
301.288	300.75
301.518	289.75
301.748	261.75
301.979	280.75
302.209	291.75
302.439	287.75
302.669	293.75
302.9	295.75
303.13	289.75
303.36	280.75
303.59	290.75
303.82	303.75
304.051	311.75
304.281	283.75
304.511	291.75
304.741	296.75
304.971	291.75
305.201	288.75
305.431	311.75
305.661	274.75
305.891	300.75
306.121	270.75
306.352	287.75
306.582	286.75
306.812	286.75
307.042	294.75
307.272	295.75
307.502	286.75
307.731	307.75
307.961	286.75
308.191	272.75
308.421	266.75
308.651	303.75
308.881	291.75
309.111	289.75
309.341	275.75
309.571	292.75
309.8	289.75
310.03	288.75
310.26	298.75
310.49	312.75
310.72	305.75
310.949	322.75
311.179	320.75
311.409	303.75
311.639	327.75
311.868	314.75
312.098	308.75
312.328	327.75
312.557	316.75
312.787	335.75
313.017	307.75
313.246	310.75
313.476	314.75
313.706	311.75
313.935	305.75
314.165	341.75
314.394	332.75
314.624	316.75
314.853	313.75
315.083	311.75
315.312	331.75
315.542	309.75
315.771	308.75
316.001	311.75
316.23	344.75
316.46	307.75
316.689	292.75
316.919	314.75
317.148	325.75
317.377	315.75
317.607	313.75
317.836	321.75
318.065	311.75
318.295	314.75
318.524	329.75
318.753	341.75
318.983	321.75
319.212	319.75
319.441	325.75
319.67	303.75
319.9	316.75
320.129	341.75
320.358	327.75
320.587	321.75
320.816	329.75
321.046	336.75
321.275	329.75
321.504	330.75
321.733	322.75
321.962	345.75
322.191	338.75
322.42	332.75
322.649	329.75
322.878	363.75
323.108	345.75
323.337	357.75
323.566	377.75
323.795	369.75
324.024	420.75
324.253	468.75
324.482	604.75
324.71	836.75
324.939	1060.75
325.168	913.75
325.397	538.75
325.626	433.75
325.855	373.75
326.084	373.75
326.313	368.75
326.542	378.75
326.77	411.75
326.999	443.75
327.228	540.75
327.457	770.75
327.686	821.75
327.914	602.75
328.143	453.75
328.372	423.75
328.6	411.75
328.829	394.75
329.058	414.75
329.287	412.75
329.515	408.75
329.744	387.75
329.972	395.75
330.201	384.75
330.43	425.75
330.658	444.75
330.887	429.75
331.115	430.75
331.344	386.75
331.572	372.75
331.801	358.75
332.03	389.75
332.258	345.75
332.486	373.75
332.715	370.75
332.943	380.75
333.172	404.75
333.4	419.75
333.629	428.75
333.857	425.75
334.085	434.75
334.314	419.75
334.542	450.75
334.771	444.75
334.999	428.75
335.227	391.75
335.455	391.75
335.684	401.75
335.912	393.75
336.14	386.75
336.369	376.75
336.597	389.75
336.825	385.75
337.053	377.75
337.281	381.75
337.51	368.75
337.738	373.75
337.966	372.75
338.194	376.75
338.422	352.75
338.65	353.75
338.878	390.75
339.106	371.75
339.334	363.75
339.562	360.75
339.79	344.75
340.018	369.75
340.246	362.75
340.474	365.75
340.702	370.75
340.93	353.75
341.158	367.75
341.386	358.75
341.614	344.75
341.842	349.75
342.07	352.75
342.298	353.75
342.526	361.75
342.754	345.75
342.981	337.75
343.209	346.75
343.437	349.75
343.665	363.75
343.893	377.75
344.12	393.75
344.348	372.75
344.576	355.75
344.804	375.75
345.031	377.75
345.259	358.75
345.487	352.75
345.714	353.75
345.942	353.75
346.17	349.75
346.397	347.75
346.625	329.75
346.853	314.75
347.08	324.75
347.308	355.75
347.535	344.75
347.763	355.75
347.99	352.75
348.218	332.75
348.445	332.75
348.673	333.75
348.9	334.75
349.128	348.75
349.355	327.75
349.583	329.75
349.81	324.75
350.037	336.75
350.265	329.75
350.492	312.75
350.72	300.75
350.947	329.75
351.174	332.75
351.402	337.75
351.629	325.75
351.856	328.75
352.083	356.75
352.311	333.75
352.538	341.75
352.765	336.75
352.992	345.75
353.22	325.75
353.447	307.75
353.674	310.75
353.901	324.75
354.128	308.75
354.355	322.75
354.583	321.75
354.81	326.75
355.037	315.75
355.264	331.75
355.491	333.75
355.718	309.75
355.945	305.75
356.172	301.75
356.399	320.75
356.626	344.75
356.853	327.75
357.08	323.75
357.307	317.75
357.534	319.75
357.761	330.75
357.988	327.75
358.215	326.75
358.441	327.75
358.668	312.75
358.895	339.75
359.122	330.75
359.349	340.75
359.576	316.75
359.802	336.75
360.029	346.75
360.256	367.75
360.483	351.75
360.709	327.75
360.936	314.75
361.163	326.75
361.39	330.75
361.616	336.75
361.843	330.75
362.07	339.75
362.296	333.75
362.523	342.75
362.749	332.75
362.976	311.75
363.203	332.75
363.429	319.75
363.656	309.75
363.882	317.75
364.109	328.75
364.335	319.75
364.562	330.75
364.788	313.75
365.015	319.75
365.241	336.75
365.468	333.75
365.694	341.75
365.92	331.75
366.147	316.75
366.373	318.75
366.599	313.75
366.826	329.75
367.052	307.75
367.278	335.75
367.505	314.75
367.731	336.75
367.957	298.75
368.184	314.75
368.41	316.75
368.636	338.75
368.862	327.75
369.089	327.75
369.315	322.75
369.541	338.75
369.767	341.75
369.993	326.75
370.219	317.75
370.445	335.75
370.672	322.75
370.898	329.75
371.124	321.75
371.35	337.75
371.576	338.75
371.802	335.75
372.028	339.75
372.254	343.75
372.48	335.75
372.706	337.75
372.932	339.75
373.158	353.75
373.384	331.75
373.61	336.75
373.835	341.75
374.061	346.75
374.287	336.75
374.513	343.75
374.739	337.75
374.965	342.75
375.191	359.75
375.416	354.75
375.642	356.75
375.868	342.75
376.094	365.75
376.319	335.75
376.545	321.75
376.771	327.75
376.997	333.75
377.222	332.75
377.448	352.75
377.674	326.75
377.899	332.75
378.125	310.75
378.35	317.75
378.576	317.75
378.802	325.75
379.027	325.75
379.253	327.75
379.478	310.75
379.704	330.75
379.929	320.75
380.155	315.75
380.38	322.75
380.606	330.75
380.831	341.75
381.057	351.75
381.282	311.75
381.507	326.75
381.733	314.75
381.958	329.75
382.184	328.75
382.409	342.75
382.634	357.75
382.86	341.75
383.085	365.75
383.31	347.75
383.535	347.75
383.761	343.75
383.986	353.75
384.211	345.75
384.436	349.75
384.662	344.75
384.887	374.75
385.112	373.75
385.337	363.75
385.562	356.75
385.787	373.75
386.013	386.75
386.238	373.75
386.463	376.75
386.688	373.75
386.913	367.75
387.138	367.75
387.363	358.75
387.588	370.75
387.813	342.75
388.038	371.75
388.263	363.75
388.488	375.75
388.713	353.75
388.938	362.75
389.163	365.75
389.387	384.75
389.612	379.75
389.837	369.75
390.062	349.75
390.287	362.75
390.512	358.75
390.736	359.75
390.961	365.75
391.186	374.75
391.411	381.75
391.636	382.75
391.86	383.75
392.085	403.75
392.31	388.75
392.534	379.75
392.759	385.75
392.984	359.75
393.208	379.75
393.433	369.75
393.658	378.75
393.882	361.75
394.107	371.75
394.331	375.75
394.556	384.75
394.78	380.75
395.005	380.75
395.229	384.75
395.454	401.75
395.678	404.75
395.903	391.75
396.127	410.75
396.352	399.75
396.576	389.75
396.801	371.75
397.025	378.75
397.249	380.75
397.474	392.75
397.698	385.75
397.922	417.75
398.147	425.75
398.371	421.75
398.595	421.75
398.82	433.75
399.044	447.75
399.268	475.75
399.492	505.75
399.717	551.75
399.941	554.75
400.165	548.75
400.389	542.75
400.613	467.75
400.837	447.75
401.062	431.75
401.286	432.75
401.51	414.75
401.734	432.75
401.958	409.75
402.182	444.75
402.406	461.75
402.63	439.75
402.854	450.75
403.078	471.75
403.302	454.75
403.526	474.75
403.75	459.75
403.974	455.75
404.198	435.75
404.422	467.75
404.645	466.75
404.869	476.75
405.093	479.75
405.317	520.75
405.541	511.75
405.765	483.75
405.988	446.75
406.212	471.75
406.436	493.75
406.66	482.75
406.883	474.75
407.107	516.75
407.331	521.75
407.555	571.75
407.778	555.75
408.002	508.75
408.226	492.75
408.449	489.75
408.673	490.75
408.896	499.75
409.12	528.75
409.344	496.75
409.567	456.75
409.791	443.75
410.014	431.75
410.238	425.75
410.461	433.75
410.685	468.75
410.908	441.75
411.132	488.75
411.355	466.75
411.578	436.75
411.802	422.75
412.025	419.75
412.249	452.75
412.472	456.75
412.695	458.75
412.919	464.75
413.142	439.75
413.365	443.75
413.589	445.75
413.812	425.75
414.035	413.75
414.258	411.75
414.482	434.75
414.705	427.75
414.928	415.75
415.151	428.75
415.374	416.75
415.597	429.75
415.821	416.75
416.044	425.75
416.267	413.75
416.49	403.75
416.713	417.75
416.936	413.75
417.159	416.75
417.382	418.75
417.605	412.75
417.828	428.75
418.051	451.75
418.274	426.75
418.497	423.75
418.72	439.75
418.943	443.75
419.166	438.75
419.389	447.75
419.611	439.75
419.834	466.75
420.057	466.75
420.28	445.75
420.503	451.75
420.726	432.75
420.948	449.75
421.171	453.75
421.394	452.75
421.617	420.75
421.839	431.75
422.062	431.75
422.285	456.75
422.507	485.75
422.73	517.75
422.953	493.75
423.175	459.75
423.398	453.75
423.621	447.75
423.843	463.75
424.066	460.75
424.288	442.75
424.511	469.75
424.733	504.75
424.956	524.75
425.178	504.75
425.401	507.75
425.623	507.75
425.846	431.75
426.068	441.75
426.291	441.75
426.513	446.75
426.735	454.75
426.958	464.75
427.18	472.75
427.402	576.75
427.625	600.75
427.847	537.75
428.069	485.75
428.292	447.75
428.514	425.75
428.736	402.75
428.958	405.75
429.181	416.75
429.403	427.75
429.625	397.75
429.847	451.75
430.069	468.75
430.292	456.75
430.514	425.75
430.736	393.75
430.958	392.75
431.18	403.75
431.402	391.75
431.624	396.75
431.846	376.75
432.068	403.75
432.29	411.75
432.512	393.75
432.734	413.75
432.956	427.75
433.178	396.75
433.4	402.75
433.622	393.75
433.844	387.75
434.066	401.75
434.287	419.75
434.509	400.75
434.731	417.75
434.953	429.75
435.175	456.75
435.397	439.75
435.618	444.75
435.84	471.75
436.062	492.75
436.284	538.75
436.505	456.75
436.727	443.75
436.949	411.75
437.17	410.75
437.392	409.75
437.614	419.75
437.835	421.75
438.057	478.75
438.278	510.75
438.5	501.75
438.721	555.75
438.943	534.75
439.165	437.75
439.386	417.75
439.608	414.75
439.829	434.75
440.05	426.75
440.272	468.75
440.493	466.75
440.715	427.75
440.936	414.75
441.158	421.75
441.379	412.75
441.6	451.75
441.822	460.75
442.043	463.75
442.264	501.75
442.486	517.75
442.707	462.75
442.928	449.75
443.149	450.75
443.371	487.75
443.592	494.75
443.813	545.75
444.034	578.75
444.255	523.75
444.476	488.75
444.698	469.75
444.919	489.75
445.14	557.75
445.361	508.75
445.582	460.75
445.803	496.75
446.024	548.75
446.245	548.75
446.466	485.75
446.687	442.75
446.908	431.75
447.129	397.75
447.35	409.75
447.571	405.75
447.792	396.75
448.013	401.75
448.234	407.75
448.455	419.75
448.675	516.75
448.896	555.75
449.117	471.75
449.338	459.75
449.559	522.75
449.779	540.75
450	466.75
450.221	429.75
450.442	389.75
450.662	378.75
450.883	387.75
451.104	391.75
451.324	389.75
451.545	384.75
451.766	367.75
451.986	359.75
452.207	379.75
452.428	375.75
452.648	371.75
452.869	363.75
453.089	379.75
453.31	396.75
453.53	375.75
453.751	363.75
453.971	355.75
454.192	361.75
454.412	371.75
454.633	374.75
454.853	366.75
455.073	344.75
455.294	380.75
455.514	407.75
455.734	393.75
455.955	367.75
456.175	343.75
456.395	336.75
456.616	340.75
456.836	357.75
457.056	359.75
457.276	353.75
457.497	341.75
457.717	363.75
457.937	363.75
458.157	353.75
458.377	364.75
458.598	349.75
458.818	422.75
459.038	460.75
459.258	454.75
459.478	431.75
459.698	401.75
459.918	405.75
460.138	409.75
460.358	401.75
460.578	427.75
460.798	445.75
461.018	426.75
461.238	422.75
461.458	411.75
461.678	422.75
461.898	424.75
462.118	453.75
462.338	446.75
462.558	473.75
462.777	460.75
462.997	454.75
463.217	496.75
463.437	497.75
463.657	451.75
463.876	455.75
464.096	468.75
464.316	483.75
464.536	486.75
464.755	471.75
464.975	451.75
465.195	469.75
465.414	484.75
465.634	439.75
465.854	404.75
466.073	407.75
466.293	375.75
466.512	380.75
466.732	387.75
466.951	383.75
467.171	382.75
467.391	391.75
467.61	378.75
467.829	396.75
468.049	385.75
468.268	391.75
468.488	364.75
468.707	387.75
468.927	371.75
469.146	371.75
469.365	372.75
469.585	374.75
469.804	393.75
470.023	393.75
470.243	369.75
470.462	404.75
470.681	417.75
470.901	411.75
471.12	381.75
471.339	400.75
471.558	383.75
471.777	374.75
471.997	371.75
472.216	373.75
472.435	398.75
472.654	383.75
472.873	380.75
473.092	376.75
473.311	366.75
473.53	368.75
473.749	387.75
473.968	401.75
474.187	446.75
474.406	450.75
474.625	411.75
474.844	387.75
475.063	380.75
475.282	384.75
475.501	383.75
475.72	381.75
475.939	402.75
476.158	393.75
476.377	389.75
476.596	386.75
476.814	394.75
477.033	406.75
477.252	411.75
477.471	411.75
477.69	400.75
477.908	401.75
478.127	436.75
478.346	437.75
478.564	430.75
478.783	447.75
479.002	454.75
479.22	456.75
479.439	444.75
479.658	452.75
479.876	469.75
480.095	455.75
480.313	473.75
480.532	476.75
480.751	480.75
480.969	468.75
481.188	513.75
481.406	517.75
481.624	487.75
481.843	453.75
482.061	433.75
482.28	445.75
482.498	420.75
482.717	434.75
482.935	421.75
483.153	443.75
483.372	426.75
483.59	453.75
483.808	432.75
484.027	432.75
484.245	426.75
484.463	427.75
484.681	466.75
484.9	451.75
485.118	447.75
485.336	446.75
485.554	462.75
485.772	454.75
485.99	442.75
486.209	445.75
486.427	458.75
486.645	455.75
486.863	462.75
487.081	459.75
487.299	443.75
487.517	464.75
487.735	494.75
487.953	452.75
488.171	466.75
488.389	473.75
488.607	467.75
488.825	491.75
489.043	471.75
489.261	466.75
489.479	464.75
489.696	493.75
489.914	468.75
490.132	472.75
490.35	496.75
490.568	480.75
490.786	474.75
491.003	490.75
491.221	498.75
491.439	508.75
491.657	513.75
491.874	513.75
492.092	535.75
492.31	534.75
492.527	539.75
492.745	533.75
492.963	538.75
493.18	539.75
493.398	550.75
493.615	534.75
493.833	561.75
494.05	543.75
494.268	537.75
494.485	545.75
494.703	520.75
494.92	538.75
495.138	536.75
495.355	527.75
495.573	547.75
495.79	547.75
496.008	551.75
496.225	568.75
496.442	541.75
496.66	576.75
496.877	544.75
497.094	573.75
497.312	579.75
497.529	543.75
497.746	593.75
497.963	592.75
498.181	602.75
498.398	616.75
498.615	643.75
498.832	637.75
499.049	672.75
499.267	722.75
499.484	779.75
499.701	831.75
499.918	814.75
500.135	906.75
500.352	988.75
500.569	1021.75
500.786	993.75
501.003	955.75
501.22	905.75
501.437	848.75
501.654	775.75
501.871	766.75
502.088	697.75
502.305	671.75
502.522	663.75
502.739	657.75
502.956	585.75
503.172	613.75
503.389	574.75
503.606	572.75
503.823	549.75
504.04	566.75
504.256	568.75
504.473	582.75
504.69	587.75
504.907	580.75
505.123	542.75
505.34	529.75
505.557	530.75
505.773	529.75
505.99	501.75
506.207	506.75
506.423	495.75
506.64	518.75
506.856	486.75
507.073	524.75
507.289	505.75
507.506	474.75
507.722	507.75
507.939	499.75
508.155	490.75
508.372	469.75
508.588	451.75
508.805	472.75
509.021	483.75
509.238	470.75
509.454	482.75
509.67	480.75
509.887	468.75
510.103	466.75
510.319	466.75
510.536	533.75
510.752	733.75
510.968	641.75
511.184	465.75
511.401	461.75
511.617	452.75
511.833	460.75
512.049	436.75
512.265	447.75
512.481	449.75
512.698	440.75
512.914	427.75
513.13	454.75
513.346	438.75
513.562	444.75
513.778	441.75
513.994	449.75
514.21	454.75
514.426	445.75
514.642	464.75
514.858	486.75
515.074	505.75
515.29	545.75
515.506	748.75
515.721	637.75
515.937	514.75
516.153	501.75
516.369	470.75
516.585	479.75
516.801	471.75
517.016	503.75
517.232	501.75
517.448	497.75
517.664	497.75
517.879	519.75
518.095	535.75
518.311	493.75
518.527	495.75
518.742	490.75
518.958	495.75
519.173	453.75
519.389	476.75
519.605	465.75
519.82	443.75
520.036	475.75
520.251	481.75
520.467	466.75
520.682	474.75
520.898	474.75
521.113	467.75
521.329	500.75
521.544	513.75
521.76	590.75
521.975	931.75
522.19	931.75
522.406	572.75
522.621	467.75
522.836	450.75
523.052	404.75
523.267	402.75
523.482	403.75
523.698	395.75
523.913	414.75
524.128	387.75
524.343	396.75
524.559	389.75
524.774	398.75
524.989	363.75
525.204	405.75
525.419	395.75
525.634	380.75
525.849	389.75
526.064	392.75
526.28	390.75
526.495	384.75
526.71	393.75
526.925	381.75
527.14	378.75
527.355	369.75
527.57	380.75
527.785	393.75
527.999	383.75
528.214	416.75
528.429	385.75
528.644	374.75
528.859	387.75
529.074	390.75
529.289	375.75
529.503	421.75
529.718	414.75
529.933	399.75
530.148	391.75
530.363	379.75
530.577	366.75
530.792	383.75
531.007	380.75
531.221	375.75
531.436	378.75
531.651	389.75
531.865	364.75
532.08	337.75
532.295	371.75
532.509	375.75
532.724	374.75
532.938	380.75
533.153	358.75
533.367	359.75
533.582	363.75
533.796	378.75
534.011	367.75
534.225	372.75
534.44	357.75
534.654	367.75
534.868	365.75
535.083	369.75
535.297	370.75
535.511	364.75
535.726	391.75
535.94	363.75
536.154	353.75
536.369	367.75
536.583	350.75
536.797	362.75
537.011	341.75
537.225	355.75
537.44	354.75
537.654	376.75
537.868	364.75
538.082	353.75
538.296	333.75
538.51	361.75
538.724	354.75
538.938	356.75
539.153	360.75
539.367	361.75
539.581	353.75
539.795	346.75
540.009	347.75
540.222	350.75
540.436	364.75
540.65	359.75
540.864	355.75
541.078	361.75
541.292	360.75
541.506	363.75
541.72	369.75
541.934	349.75
542.147	364.75
542.361	370.75
542.575	356.75
542.789	373.75
543.002	363.75
543.216	352.75
543.43	354.75
543.644	342.75
543.857	354.75
544.071	365.75
544.285	352.75
544.498	342.75
544.712	346.75
544.925	364.75
545.139	354.75
545.352	367.75
545.566	379.75
545.779	348.75
545.993	351.75
546.206	376.75
546.42	377.75
546.633	361.75
546.847	356.75
547.06	337.75
547.274	343.75
547.487	358.75
547.7	345.75
547.914	377.75
548.127	360.75
548.34	347.75
548.554	355.75
548.767	364.75
548.98	353.75
549.193	356.75
549.407	364.75
549.62	355.75
549.833	356.75
550.046	358.75
550.259	363.75
550.473	354.75
550.686	349.75
550.899	351.75
551.112	339.75
551.325	351.75
551.538	324.75
551.751	356.75
551.964	361.75
552.177	348.75
552.39	350.75
552.603	372.75
552.816	367.75
553.029	367.75
553.242	388.75
553.455	367.75
553.667	385.75
553.88	370.75
554.093	381.75
554.306	380.75
554.519	360.75
554.732	357.75
554.944	337.75
555.157	352.75
555.37	325.75
555.583	319.75
555.795	331.75
556.008	322.75
556.221	314.75
556.433	329.75
556.646	328.75
556.859	314.75
557.071	322.75
557.284	296.75
557.496	311.75
557.709	303.75
557.921	323.75
558.134	319.75
558.346	312.75
558.559	319.75
558.771	311.75
558.984	305.75
559.196	318.75
559.409	295.75
559.621	296.75
559.833	297.75
560.046	313.75
560.258	310.75
560.47	317.75
560.683	313.75
560.895	319.75
561.107	292.75
561.32	318.75
561.532	303.75
561.744	290.75
561.956	301.75
562.168	308.75
562.381	297.75
562.593	307.75
562.805	308.75
563.017	290.75
563.229	327.75
563.441	297.75
563.653	308.75
563.865	330.75
564.077	312.75
564.289	316.75
564.501	304.75
564.713	314.75
564.925	333.75
565.137	336.75
565.349	329.75
565.561	338.75
565.773	352.75
565.985	378.75
566.197	383.75
566.408	374.75
566.62	412.75
566.832	441.75
567.044	420.75
567.255	421.75
567.467	434.75
567.679	441.75
567.891	465.75
568.102	468.75
568.314	473.75
568.526	433.75
568.737	408.75
568.949	406.75
569.161	381.75
569.372	345.75
569.584	329.75
569.795	342.75
570.007	332.75
570.218	323.75
570.43	336.75
570.641	335.75
570.853	326.75
571.064	336.75
571.276	306.75
571.487	302.75
571.698	308.75
571.91	292.75
572.121	295.75
572.333	293.75
572.544	286.75
572.755	275.75
572.966	278.75
573.178	276.75
573.389	292.75
573.6	270.75
573.811	277.75
574.023	282.75
574.234	283.75
574.445	286.75
574.656	275.75
574.867	274.75
575.078	275.75
575.289	258.75
575.501	257.75
575.712	267.75
575.923	253.75
576.134	266.75
576.345	261.75
576.556	246.75
576.767	261.75
576.978	258.75
577.188	245.75
577.399	260.75
577.61	281.75
577.821	255.75
578.032	261.75
578.243	275.75
578.454	369.75
578.665	297.75
578.875	251.75
579.086	257.75
579.297	255.75
579.508	251.75
579.718	260.75
579.929	247.75
580.14	234.75
580.35	239.75
580.561	267.75
580.772	252.75
580.982	243.75
581.193	229.75
581.403	245.75
581.614	246.75
581.825	235.75
582.035	227.75
582.246	251.75
582.456	243.75
582.667	236.75
582.877	240.75
583.087	244.75
583.298	236.75
583.508	252.75
583.719	247.75
583.929	255.75
584.139	239.75
584.35	246.75
584.56	243.75
584.77	245.75
584.981	243.75
585.191	232.75
585.401	227.75
585.611	237.75
585.821	236.75
586.032	255.75
586.242	237.75
586.452	259.75
586.662	241.75
586.872	239.75
587.082	232.75
587.292	244.75
587.502	229.75
587.713	227.75
587.923	254.75
588.133	236.75
588.343	240.75
588.553	230.75
588.762	230.75
588.972	229.75
589.182	254.75
589.392	243.75
589.602	245.75
589.812	241.75
590.022	242.75
590.232	248.75
590.441	246.75
590.651	247.75
590.861	252.75
591.071	251.75
591.281	241.75
591.49	244.75
591.7	229.75
591.91	255.75
592.119	265.75
592.329	278.75
592.539	263.75
592.748	272.75
592.958	277.75
593.167	263.75
593.377	287.75
593.587	273.75
593.796	277.75
594.006	289.75
594.215	285.75
594.424	285.75
594.634	278.75
594.843	296.75
595.053	269.75
595.262	279.75
595.472	245.75
595.681	242.75
595.89	226.75
596.1	233.75
596.309	220.75
596.518	244.75
596.727	245.75
596.937	244.75
597.146	230.75
597.355	220.75
597.564	228.75
597.774	227.75
597.983	228.75
598.192	225.75
598.401	211.75
598.61	219.75
598.819	220.75
599.028	213.75
599.237	228.75
599.446	212.75
599.655	213.75
599.864	216.75
600.073	214.75
600.282	213.75
600.491	207.75
600.7	204.75
600.909	214.75
601.118	210.75
601.327	205.75
601.536	222.75
601.745	228.75
601.953	201.75
602.162	209.75
602.371	195.75
602.58	188.75
602.789	200.75
602.997	218.75
603.206	220.75
603.415	222.75
603.623	204.75
603.832	201.75
604.041	213.75
604.249	205.75
604.458	207.75
604.666	200.75
604.875	216.75
605.084	214.75
605.292	201.75
605.501	212.75
605.709	215.75
605.918	216.75
606.126	203.75
606.334	200.75
606.543	202.75
606.751	209.75
606.96	195.75
607.168	183.75
607.376	202.75
607.585	202.75
607.793	212.75
608.001	224.75
608.21	197.75
608.418	184.75
608.626	198.75
608.834	215.75
609.043	200.75
609.251	220.75
609.459	208.75
609.667	198.75
609.875	199.75
610.083	216.75
610.291	186.75
610.499	202.75
610.707	210.75
610.916	203.75
611.124	211.75
611.332	212.75
611.54	209.75
611.748	207.75
611.955	211.75
612.163	215.75
612.371	203.75
612.579	193.75
612.787	212.75
612.995	214.75
613.203	205.75
613.411	212.75
613.618	212.75
613.826	193.75
614.034	202.75
614.242	220.75
614.449	204.75
614.657	209.75
614.865	184.75
615.072	200.75
615.28	194.75
615.488	214.75
615.695	196.75
615.903	201.75
616.111	194.75
616.318	203.75
616.526	184.75
616.733	217.75
616.941	190.75
617.148	208.75
617.356	204.75
617.563	193.75
617.771	196.75
617.978	192.75
618.185	207.75
618.393	208.75
618.6	208.75
618.807	215.75
619.015	214.75
619.222	188.75
619.429	187.75
619.637	209.75
619.844	189.75
620.051	191.75
620.258	197.75
620.466	184.75
620.673	191.75
620.88	180.75
621.087	189.75
621.294	195.75
621.501	185.75
621.708	183.75
621.915	196.75
622.122	185.75
622.329	182.75
622.536	176.75
622.743	196.75
622.95	188.75
623.157	162.75
623.364	194.75
623.571	177.75
623.778	191.75
623.985	182.75
624.192	187.75
624.399	192.75
624.606	188.75
624.812	179.75
625.019	176.75
625.226	178.75
625.433	187.75
625.639	184.75
625.846	177.75
626.053	177.75
626.259	164.75
626.466	175.75
626.673	179.75
626.879	176.75
627.086	175.75
627.293	199.75
627.499	168.75
627.706	178.75
627.912	182.75
628.119	175.75
628.325	175.75
628.532	168.75
628.738	173.75
628.945	178.75
629.151	189.75
629.357	173.75
629.564	163.75
629.77	164.75
629.976	148.75
630.183	180.75
630.389	164.75
630.595	159.75
630.802	156.75
631.008	167.75
631.214	173.75
631.42	165.75
631.627	184.75
631.833	164.75
632.039	168.75
632.245	156.75
632.451	173.75
632.657	165.75
632.863	175.75
633.069	167.75
633.275	169.75
633.481	157.75
633.688	158.75
633.893	163.75
634.099	161.75
634.305	164.75
634.511	159.75
634.717	162.75
634.923	162.75
635.129	152.75
635.335	156.75
635.541	169.75
635.747	163.75
635.952	153.75
636.158	171.75
636.364	161.75
636.57	155.75
636.775	155.75
636.981	151.75
637.187	152.75
637.392	150.75
637.598	159.75
637.804	159.75
638.009	157.75
638.215	149.75
638.421	153.75
638.626	145.75
638.832	151.75
639.037	145.75
639.243	167.75
639.448	170.75
639.654	155.75
639.859	166.75
640.065	160.75
640.27	161.75
640.475	147.75
640.681	136.75
640.886	151.75
641.091	151.75
641.297	159.75
641.502	155.75
641.707	143.75
641.913	152.75
642.118	138.75
642.323	145.75
642.528	156.75
642.733	140.75
642.939	136.75
643.144	157.75
643.349	170.75
643.554	148.75
643.759	153.75
643.964	141.75
644.169	147.75
644.374	149.75
644.579	143.75
644.784	146.75
644.989	154.75
645.194	153.75
645.399	155.75
645.604	155.75
645.809	172.75
646.014	162.75
646.219	124.75
646.423	131.75
646.628	135.75
646.833	155.75
647.038	148.75
647.243	148.75
647.447	153.75
647.652	151.75
647.857	168.75
648.062	160.75
648.266	153.75
648.471	156.75
648.676	151.75
648.88	154.75
649.085	155.75
649.289	152.75
649.494	140.75
649.698	163.75
649.903	155.75
650.107	148.75
650.312	153.75
650.516	151.75
650.721	146.75
650.925	153.75
651.13	132.75
651.334	135.75
651.539	145.75
651.743	125.75
651.947	137.75
652.152	130.75
652.356	123.75
652.56	133.75
652.764	133.75
652.969	133.75
653.173	148.75
653.377	126.75
653.581	135.75
653.785	138.75
653.99	110.75
654.194	133.75
654.398	138.75
654.602	129.75
654.806	107.75
655.01	130.75
655.214	122.75
655.418	122.75
655.622	133.75
655.826	122.75
656.03	132.75
656.234	132.75
656.438	135.75
656.642	126.75
656.846	117.75
657.049	111.75
657.253	116.75
657.457	117.75
657.661	118.75
657.865	99.75
658.068	105.75
658.272	96.75
658.476	112.75
658.68	118.75
658.883	88.75
659.087	83.75
659.291	93.75
659.494	97.75
659.698	94.75
659.901	107.75
660.105	104.75
660.309	96.75
660.512	96.75
660.716	88.75
660.919	92.75
661.123	89.75
661.326	89.75
661.53	95.75
661.733	84.75
661.936	89.75
662.14	75.75
662.343	71.75
662.546	91.75
662.75	90.75
662.953	86.75
663.156	74.75
663.36	84.75
663.563	104.75
663.766	85.75
663.969	85.75
664.173	88.75
664.376	87.75
664.579	87.75
664.782	86.75
664.985	78.75
665.188	91.75
665.391	79.75
665.594	84.75
665.797	84.75
666	73.75
666.203	79.75
666.406	83.75
666.609	82.75
666.812	79.75
667.015	76.75
667.218	77.75
667.421	72.75
667.624	74.75
667.827	82.75
668.03	81.75
668.232	67.75
668.435	91.75
668.638	67.75
668.841	76.75
669.043	79.75
669.246	75.75
669.449	75.75
669.651	76.75
669.854	77.75
670.057	81.75
670.259	77.75
670.462	79.75
670.665	82.75
670.867	85.75
671.07	87.75
671.272	73.75
671.475	78.75
671.677	63.75
671.88	76.75
672.082	69.75
672.284	68.75
672.487	80.75
672.689	75.75
672.892	89.75
