Data from 1969.PennyLincolnUp.Lamp.En5.5.200Scan.071719.P1._HRD10591_14-55-02-972.txt Node
Date: Thu Jul 18 14:55:02 EDT 2019
User: cochatt
Spectrometer: HR+D1059
Trigger mode: 1
Integration Time (sec): 1.000000E-1
Scans to average: 1
Electric dark correction enabled: true
Nonlinearity correction enabled: false
Boxcar width: 0
XAxis mode: Wavelengths
Number of Pixels in Spectrum: 2048
>>>>>Begin Spectral Data<<<<<
223.165	-22.62
223.4	-22.62
223.635	-22.62
223.869	-14.62
224.104	-15.62
224.338	-17.62
224.573	-12.62
224.808	-2.62
225.042	3.38
225.277	-1.62
225.511	-2.62
225.746	-5.62
225.98	4.38
226.215	15.38
226.449	17.38
226.683	22.38
226.918	17.38
227.152	15.38
227.387	38.38
227.621	40.38
227.856	42.38
228.09	43.38
228.324	49.38
228.559	59.38
228.793	67.38
229.027	78.38
229.262	83.38
229.496	89.38
229.73	109.38
229.964	111.38
230.199	97.38
230.433	106.38
230.667	120.38
230.901	113.38
231.136	98.38
231.37	115.38
231.604	105.38
231.838	115.38
232.072	91.38
232.306	99.38
232.541	107.38
232.775	101.38
233.009	101.38
233.243	108.38
233.477	109.38
233.711	106.38
233.945	112.38
234.179	109.38
234.413	95.38
234.647	108.38
234.881	109.38
235.115	100.38
235.349	117.38
235.583	104.38
235.817	128.38
236.051	116.38
236.285	106.38
236.519	113.38
236.753	113.38
236.987	136.38
237.221	144.38
237.455	166.38
237.689	155.38
237.922	141.38
238.156	119.38
238.39	122.38
238.624	119.38
238.858	116.38
239.091	110.38
239.325	105.38
239.559	118.38
239.793	119.38
240.027	113.38
240.26	121.38
240.494	139.38
240.728	127.38
240.961	121.38
241.195	133.38
241.429	149.38
241.662	139.38
241.896	120.38
242.13	119.38
242.363	111.38
242.597	121.38
242.83	129.38
243.064	111.38
243.298	119.38
243.531	115.38
243.765	115.38
243.998	132.38
244.232	137.38
244.465	125.38
244.699	117.38
244.932	127.38
245.166	133.38
245.399	128.38
245.633	131.38
245.866	141.38
246.099	134.38
246.333	145.38
246.566	140.38
246.8	131.38
247.033	133.38
247.266	141.38
247.5	144.38
247.733	158.38
247.966	155.38
248.2	149.38
248.433	158.38
248.666	149.38
248.899	160.38
249.133	162.38
249.366	163.38
249.599	168.38
249.832	157.38
250.066	148.38
250.299	162.38
250.532	159.38
250.765	156.38
250.998	173.38
251.231	168.38
251.465	173.38
251.698	174.38
251.931	188.38
252.164	172.38
252.397	167.38
252.63	160.38
252.863	175.38
253.096	168.38
253.329	179.38
253.562	185.38
253.795	185.38
254.028	184.38
254.261	195.38
254.494	203.38
254.727	191.38
254.96	221.38
255.193	206.38
255.426	200.38
255.659	180.38
255.892	200.38
256.124	183.38
256.357	176.38
256.59	195.38
256.823	171.38
257.056	179.38
257.289	171.38
257.521	172.38
257.754	181.38
257.987	171.38
258.22	179.38
258.452	177.38
258.685	172.38
258.918	173.38
259.151	184.38
259.383	165.38
259.616	175.38
259.849	182.38
260.081	203.38
260.314	191.38
260.547	207.38
260.779	202.38
261.012	191.38
261.244	192.38
261.477	192.38
261.71	175.38
261.942	188.38
262.175	195.38
262.407	179.38
262.64	197.38
262.872	203.38
263.105	184.38
263.337	176.38
263.57	201.38
263.802	191.38
264.035	174.38
264.267	186.38
264.499	187.38
264.732	191.38
264.964	199.38
265.197	186.38
265.429	207.38
265.661	200.38
265.894	187.38
266.126	189.38
266.358	190.38
266.591	207.38
266.823	193.38
267.055	194.38
267.287	194.38
267.52	195.38
267.752	193.38
267.984	195.38
268.216	211.38
268.448	185.38
268.681	200.38
268.913	229.38
269.145	213.38
269.377	231.38
269.609	230.38
269.841	212.38
270.073	241.38
270.306	252.38
270.538	261.38
270.77	259.38
271.002	238.38
271.234	224.38
271.466	239.38
271.698	236.38
271.93	263.38
272.162	234.38
272.394	249.38
272.626	238.38
272.858	235.38
273.09	236.38
273.322	214.38
273.553	213.38
273.785	238.38
274.017	219.38
274.249	227.38
274.481	238.38
274.713	213.38
274.945	243.38
275.176	226.38
275.408	251.38
275.64	201.38
275.872	223.38
276.104	234.38
276.335	218.38
276.567	224.38
276.799	258.38
277.031	245.38
277.262	237.38
277.494	271.38
277.726	267.38
277.957	238.38
278.189	251.38
278.421	236.38
278.652	224.38
278.884	241.38
279.115	236.38
279.347	230.38
279.579	216.38
279.81	241.38
280.042	225.38
280.273	220.38
280.505	244.38
280.736	216.38
280.968	231.38
281.199	230.38
281.431	233.38
281.662	231.38
281.894	237.38
282.125	251.38
282.356	237.38
282.588	251.38
282.819	236.38
283.051	237.38
283.282	236.38
283.513	237.38
283.745	249.38
283.976	259.38
284.207	267.38
284.439	233.38
284.67	255.38
284.901	226.38
285.132	258.38
285.364	230.38
285.595	253.38
285.826	241.38
286.057	265.38
286.288	262.38
286.52	252.38
286.751	262.38
286.982	267.38
287.213	231.38
287.444	260.38
287.675	243.38
287.906	257.38
288.138	278.38
288.369	271.38
288.6	271.38
288.831	270.38
289.062	263.38
289.293	260.38
289.524	262.38
289.755	242.38
289.986	240.38
290.217	276.38
290.448	279.38
290.679	257.38
290.91	281.38
291.141	255.38
291.371	270.38
291.602	260.38
291.833	250.38
292.064	270.38
292.295	267.38
292.526	263.38
292.757	257.38
292.987	261.38
293.218	262.38
293.449	269.38
293.68	265.38
293.91	257.38
294.141	275.38
294.372	236.38
294.603	248.38
294.833	255.38
295.064	262.38
295.295	259.38
295.525	272.38
295.756	269.38
295.987	280.38
296.217	253.38
296.448	286.38
296.679	269.38
296.909	280.38
297.14	274.38
297.37	293.38
297.601	268.38
297.831	286.38
298.062	275.38
298.292	270.38
298.523	279.38
298.753	279.38
298.984	285.38
299.214	273.38
299.445	264.38
299.675	275.38
299.905	287.38
300.136	288.38
300.366	256.38
300.597	297.38
300.827	300.38
301.057	269.38
301.288	279.38
301.518	295.38
301.748	300.38
301.979	279.38
302.209	300.38
302.439	297.38
302.669	288.38
302.9	300.38
303.13	277.38
303.36	284.38
303.59	300.38
303.82	300.38
304.051	298.38
304.281	295.38
304.511	294.38
304.741	301.38
304.971	287.38
305.201	287.38
305.431	299.38
305.661	283.38
305.891	293.38
306.121	289.38
306.352	280.38
306.582	286.38
306.812	300.38
307.042	283.38
307.272	287.38
307.502	300.38
307.731	274.38
307.961	299.38
308.191	297.38
308.421	292.38
308.651	292.38
308.881	280.38
309.111	286.38
309.341	300.38
309.571	302.38
309.8	292.38
310.03	309.38
310.26	313.38
310.49	311.38
310.72	302.38
310.949	330.38
311.179	304.38
311.409	301.38
311.639	325.38
311.868	313.38
312.098	313.38
312.328	321.38
312.557	313.38
312.787	325.38
313.017	344.38
313.246	331.38
313.476	330.38
313.706	333.38
313.935	336.38
314.165	324.38
314.394	329.38
314.624	330.38
314.853	323.38
315.083	327.38
315.312	321.38
315.542	322.38
315.771	329.38
316.001	325.38
316.23	308.38
316.46	310.38
316.689	315.38
316.919	332.38
317.148	327.38
317.377	320.38
317.607	307.38
317.836	315.38
318.065	311.38
318.295	319.38
318.524	323.38
318.753	323.38
318.983	304.38
319.212	296.38
319.441	323.38
319.67	335.38
319.9	314.38
320.129	308.38
320.358	326.38
320.587	336.38
320.816	334.38
321.046	328.38
321.275	322.38
321.504	344.38
321.733	330.38
321.962	321.38
322.191	358.38
322.42	349.38
322.649	361.38
322.878	356.38
323.108	365.38
323.337	384.38
323.566	391.38
323.795	396.38
324.024	401.38
324.253	473.38
324.482	623.38
324.71	876.38
324.939	1141.38
325.168	975.38
325.397	580.38
325.626	425.38
325.855	399.38
326.084	371.38
326.313	377.38
326.542	388.38
326.77	388.38
326.999	457.38
327.228	572.38
327.457	765.38
327.686	850.38
327.914	599.38
328.143	450.38
328.372	451.38
328.6	406.38
328.829	410.38
329.058	412.38
329.287	410.38
329.515	407.38
329.744	390.38
329.972	393.38
330.201	402.38
330.43	427.38
330.658	429.38
330.887	437.38
331.115	451.38
331.344	391.38
331.572	376.38
331.801	384.38
332.03	377.38
332.258	382.38
332.486	389.38
332.715	407.38
332.943	408.38
333.172	395.38
333.4	427.38
333.629	419.38
333.857	426.38
334.085	414.38
334.314	445.38
334.542	455.38
334.771	451.38
334.999	426.38
335.227	410.38
335.455	395.38
335.684	391.38
335.912	383.38
336.14	379.38
336.369	363.38
336.597	399.38
336.825	368.38
337.053	403.38
337.281	369.38
337.51	377.38
337.738	383.38
337.966	388.38
338.194	378.38
338.422	381.38
338.65	383.38
338.878	375.38
339.106	376.38
339.334	359.38
339.562	363.38
339.79	369.38
340.018	348.38
340.246	368.38
340.474	353.38
340.702	356.38
340.93	361.38
341.158	349.38
341.386	341.38
341.614	345.38
341.842	357.38
342.07	351.38
342.298	359.38
342.526	360.38
342.754	346.38
342.981	344.38
343.209	373.38
343.437	355.38
343.665	380.38
343.893	384.38
344.12	404.38
344.348	383.38
344.576	377.38
344.804	377.38
345.031	380.38
345.259	362.38
345.487	357.38
345.714	359.38
345.942	348.38
346.17	336.38
346.397	349.38
346.625	359.38
346.853	357.38
347.08	337.38
347.308	332.38
347.535	325.38
347.763	343.38
347.99	355.38
348.218	334.38
348.445	350.38
348.673	349.38
348.9	342.38
349.128	325.38
349.355	343.38
349.583	334.38
349.81	331.38
350.037	339.38
350.265	329.38
350.492	332.38
350.72	327.38
350.947	355.38
351.174	330.38
351.402	328.38
351.629	337.38
351.856	345.38
352.083	351.38
352.311	339.38
352.538	323.38
352.765	346.38
352.992	328.38
353.22	333.38
353.447	345.38
353.674	336.38
353.901	328.38
354.128	337.38
354.355	335.38
354.583	330.38
354.81	329.38
355.037	333.38
355.264	327.38
355.491	332.38
355.718	327.38
355.945	327.38
356.172	317.38
356.399	337.38
356.626	319.38
356.853	316.38
357.08	327.38
357.307	313.38
357.534	327.38
357.761	331.38
357.988	325.38
358.215	333.38
358.441	309.38
358.668	334.38
358.895	329.38
359.122	327.38
359.349	323.38
359.576	339.38
359.802	347.38
360.029	362.38
360.256	380.38
360.483	365.38
360.709	352.38
360.936	340.38
361.163	328.38
361.39	322.38
361.616	316.38
361.843	319.38
362.07	334.38
362.296	333.38
362.523	329.38
362.749	333.38
362.976	337.38
363.203	319.38
363.429	321.38
363.656	334.38
363.882	316.38
364.109	331.38
364.335	333.38
364.562	328.38
364.788	328.38
365.015	316.38
365.241	326.38
365.468	330.38
365.694	329.38
365.92	335.38
366.147	336.38
366.373	327.38
366.599	344.38
366.826	323.38
367.052	333.38
367.278	318.38
367.505	316.38
367.731	333.38
367.957	326.38
368.184	333.38
368.41	318.38
368.636	309.38
368.862	316.38
369.089	338.38
369.315	338.38
369.541	339.38
369.767	320.38
369.993	331.38
370.219	334.38
370.445	335.38
370.672	335.38
370.898	337.38
371.124	319.38
371.35	333.38
371.576	333.38
371.802	334.38
372.028	335.38
372.254	326.38
372.48	348.38
372.706	341.38
372.932	343.38
373.158	337.38
373.384	351.38
373.61	343.38
373.835	336.38
374.061	332.38
374.287	319.38
374.513	346.38
374.739	346.38
374.965	371.38
375.191	350.38
375.416	346.38
375.642	355.38
375.868	344.38
376.094	346.38
376.319	330.38
376.545	326.38
376.771	344.38
376.997	331.38
377.222	332.38
377.448	321.38
377.674	327.38
377.899	313.38
378.125	333.38
378.35	333.38
378.576	328.38
378.802	331.38
379.027	337.38
379.253	320.38
379.478	341.38
379.704	309.38
379.929	318.38
380.155	345.38
380.38	336.38
380.606	347.38
380.831	339.38
381.057	350.38
381.282	330.38
381.507	323.38
381.733	336.38
381.958	335.38
382.184	346.38
382.409	349.38
382.634	337.38
382.86	334.38
383.085	349.38
383.31	331.38
383.535	356.38
383.761	373.38
383.986	365.38
384.211	353.38
384.436	354.38
384.662	376.38
384.887	364.38
385.112	367.38
385.337	377.38
385.562	371.38
385.787	373.38
386.013	379.38
386.238	396.38
386.463	389.38
386.688	372.38
386.913	385.38
387.138	369.38
387.363	370.38
387.588	373.38
387.813	376.38
388.038	362.38
388.263	362.38
388.488	382.38
388.713	383.38
388.938	383.38
389.163	371.38
389.387	363.38
389.612	366.38
389.837	376.38
390.062	372.38
390.287	360.38
390.512	391.38
390.736	376.38
390.961	377.38
391.186	384.38
391.411	386.38
391.636	392.38
391.86	389.38
392.085	395.38
392.31	388.38
392.534	380.38
392.759	377.38
392.984	377.38
393.208	378.38
393.433	381.38
393.658	376.38
393.882	381.38
394.107	365.38
394.331	374.38
394.556	377.38
394.78	374.38
395.005	390.38
395.229	392.38
395.454	395.38
395.678	391.38
395.903	402.38
396.127	401.38
396.352	391.38
396.576	407.38
396.801	404.38
397.025	398.38
397.249	377.38
397.474	393.38
397.698	395.38
397.922	407.38
398.147	419.38
398.371	423.38
398.595	418.38
398.82	421.38
399.044	456.38
399.268	469.38
399.492	525.38
399.717	553.38
399.941	553.38
400.165	536.38
400.389	518.38
400.613	483.38
400.837	445.38
401.062	442.38
401.286	435.38
401.51	433.38
401.734	431.38
401.958	417.38
402.182	448.38
402.406	452.38
402.63	467.38
402.854	440.38
403.078	457.38
403.302	459.38
403.526	462.38
403.75	459.38
403.974	471.38
404.198	479.38
404.422	471.38
404.645	470.38
404.869	466.38
405.093	491.38
405.317	497.38
405.541	534.38
405.765	477.38
405.988	483.38
406.212	465.38
406.436	493.38
406.66	500.38
406.883	485.38
407.107	520.38
407.331	535.38
407.555	576.38
407.778	577.38
408.002	532.38
408.226	494.38
408.449	509.38
408.673	475.38
408.896	479.38
409.12	492.38
409.344	499.38
409.567	439.38
409.791	442.38
410.014	478.38
410.238	474.38
410.461	456.38
410.685	465.38
410.908	471.38
411.132	485.38
411.355	492.38
411.578	485.38
411.802	470.38
412.025	453.38
412.249	464.38
412.472	450.38
412.695	493.38
412.919	457.38
413.142	446.38
413.365	438.38
413.589	430.38
413.812	422.38
414.035	436.38
414.258	419.38
414.482	427.38
414.705	432.38
414.928	433.38
415.151	437.38
415.374	432.38
415.597	427.38
415.821	443.38
416.044	443.38
416.267	428.38
416.49	443.38
416.713	413.38
416.936	417.38
417.159	419.38
417.382	423.38
417.605	442.38
417.828	439.38
418.051	445.38
418.274	433.38
418.497	445.38
418.72	432.38
418.943	431.38
419.166	443.38
419.389	441.38
419.611	459.38
419.834	464.38
420.057	462.38
420.28	455.38
420.503	428.38
420.726	441.38
420.948	431.38
421.171	449.38
421.394	462.38
421.617	440.38
421.839	459.38
422.062	437.38
422.285	441.38
422.507	464.38
422.73	505.38
422.953	522.38
423.175	475.38
423.398	473.38
423.621	457.38
423.843	475.38
424.066	457.38
424.288	469.38
424.511	466.38
424.733	475.38
424.956	536.38
425.178	512.38
425.401	504.38
425.623	511.38
425.846	470.38
426.068	447.38
426.291	445.38
426.513	417.38
426.735	448.38
426.958	480.38
427.18	514.38
427.402	595.38
427.625	621.38
427.847	556.38
428.069	494.38
428.292	450.38
428.514	441.38
428.736	445.38
428.958	431.38
429.181	409.38
429.403	401.38
429.625	407.38
429.847	416.38
430.069	448.38
430.292	443.38
430.514	441.38
430.736	408.38
430.958	412.38
431.18	399.38
431.402	401.38
431.624	388.38
431.846	386.38
432.068	404.38
432.29	397.38
432.512	411.38
432.734	428.38
432.956	392.38
433.178	413.38
433.4	407.38
433.622	414.38
433.844	416.38
434.066	399.38
434.287	411.38
434.509	403.38
434.731	412.38
434.953	412.38
435.175	423.38
435.397	475.38
435.618	437.38
435.84	459.38
436.062	488.38
436.284	537.38
436.505	458.38
436.727	447.38
436.949	425.38
437.17	415.38
437.392	410.38
437.614	419.38
437.835	435.38
438.057	468.38
438.278	545.38
438.5	542.38
438.721	560.38
438.943	551.38
439.165	457.38
439.386	428.38
439.608	430.38
439.829	430.38
440.05	449.38
440.272	472.38
440.493	449.38
440.715	435.38
440.936	429.38
441.158	428.38
441.379	432.38
441.6	456.38
441.822	457.38
442.043	470.38
442.264	533.38
442.486	537.38
442.707	477.38
442.928	459.38
443.149	477.38
443.371	477.38
443.592	490.38
443.813	533.38
444.034	564.38
444.255	501.38
444.476	487.38
444.698	483.38
444.919	483.38
445.14	593.38
445.361	519.38
445.582	466.38
445.803	505.38
446.024	546.38
446.245	547.38
446.466	506.38
446.687	467.38
446.908	420.38
447.129	424.38
447.35	396.38
447.571	426.38
447.792	431.38
448.013	399.38
448.234	409.38
448.455	462.38
448.675	505.38
448.896	543.38
449.117	463.38
449.338	494.38
449.559	525.38
449.779	565.38
450	489.38
450.221	428.38
450.442	410.38
450.662	384.38
450.883	419.38
451.104	399.38
451.324	416.38
451.545	412.38
451.766	384.38
451.986	382.38
452.207	372.38
452.428	381.38
452.648	377.38
452.869	364.38
453.089	389.38
453.31	390.38
453.53	377.38
453.751	362.38
453.971	372.38
454.192	383.38
454.412	352.38
454.633	379.38
454.853	372.38
455.073	342.38
455.294	392.38
455.514	415.38
455.734	403.38
455.955	348.38
456.175	344.38
456.395	337.38
456.616	344.38
456.836	356.38
457.056	327.38
457.276	336.38
457.497	347.38
457.717	349.38
457.937	359.38
458.157	365.38
458.377	365.38
458.598	386.38
458.818	403.38
459.038	433.38
459.258	456.38
459.478	436.38
459.698	421.38
459.918	401.38
460.138	418.38
460.358	431.38
460.578	447.38
460.798	423.38
461.018	442.38
461.238	435.38
461.458	436.38
461.678	435.38
461.898	429.38
462.118	431.38
462.338	453.38
462.558	459.38
462.777	474.38
462.997	470.38
463.217	519.38
463.437	512.38
463.657	469.38
463.876	466.38
464.096	464.38
464.316	466.38
464.536	474.38
464.755	463.38
464.975	472.38
465.195	476.38
465.414	515.38
465.634	457.38
465.854	420.38
466.073	402.38
466.293	407.38
466.512	417.38
466.732	391.38
466.951	381.38
467.171	386.38
467.391	412.38
467.61	400.38
467.829	407.38
468.049	407.38
468.268	396.38
468.488	377.38
468.707	405.38
468.927	375.38
469.146	372.38
469.365	375.38
469.585	385.38
469.804	395.38
470.023	398.38
470.243	391.38
470.462	404.38
470.681	414.38
470.901	427.38
471.12	394.38
471.339	389.38
471.558	388.38
471.777	406.38
471.997	399.38
472.216	383.38
472.435	408.38
472.654	400.38
472.873	375.38
473.092	376.38
473.311	382.38
473.53	393.38
473.749	391.38
473.968	410.38
474.187	449.38
474.406	464.38
474.625	414.38
474.844	385.38
475.063	383.38
475.282	400.38
475.501	391.38
475.72	407.38
475.939	383.38
476.158	396.38
476.377	406.38
476.596	395.38
476.814	393.38
477.033	407.38
477.252	395.38
477.471	426.38
477.69	427.38
477.908	451.38
478.127	429.38
478.346	428.38
478.564	455.38
478.783	450.38
479.002	437.38
479.22	449.38
479.439	486.38
479.658	474.38
479.876	478.38
480.095	500.38
480.313	479.38
480.532	495.38
480.751	497.38
480.969	454.38
481.188	490.38
481.406	558.38
481.624	469.38
481.843	448.38
482.061	439.38
482.28	444.38
482.498	449.38
482.717	436.38
482.935	448.38
483.153	441.38
483.372	443.38
483.59	463.38
483.808	448.38
484.027	437.38
484.245	453.38
484.463	443.38
484.681	466.38
484.9	454.38
485.118	445.38
485.336	446.38
485.554	464.38
485.772	469.38
485.99	456.38
486.209	470.38
486.427	473.38
486.645	485.38
486.863	493.38
487.081	459.38
487.299	461.38
487.517	460.38
487.735	472.38
487.953	473.38
488.171	491.38
488.389	475.38
488.607	463.38
488.825	467.38
489.043	486.38
489.261	486.38
489.479	471.38
489.696	470.38
489.914	487.38
490.132	489.38
490.35	491.38
490.568	515.38
490.786	501.38
491.003	485.38
491.221	523.38
491.439	495.38
491.657	532.38
491.874	540.38
492.092	570.38
492.31	543.38
492.527	570.38
492.745	555.38
492.963	545.38
493.18	545.38
493.398	556.38
493.615	564.38
493.833	557.38
494.05	538.38
494.268	567.38
494.485	570.38
494.703	536.38
494.92	551.38
495.138	566.38
495.355	547.38
495.573	565.38
495.79	540.38
496.008	545.38
496.225	566.38
496.442	548.38
496.66	575.38
496.877	545.38
497.094	578.38
497.312	565.38
497.529	577.38
497.746	597.38
497.963	579.38
498.181	617.38
498.398	647.38
498.615	653.38
498.832	669.38
499.049	693.38
499.267	715.38
499.484	773.38
499.701	823.38
499.918	847.38
500.135	921.38
500.352	979.38
500.569	975.38
500.786	967.38
501.003	964.38
501.22	906.38
501.437	837.38
501.654	782.38
501.871	772.38
502.088	697.38
502.305	693.38
502.522	659.38
502.739	650.38
502.956	623.38
503.172	591.38
503.389	580.38
503.606	578.38
503.823	589.38
504.04	552.38
504.256	582.38
504.473	576.38
504.69	575.38
504.907	552.38
505.123	561.38
505.34	523.38
505.557	546.38
505.773	551.38
505.99	504.38
506.207	563.38
506.423	536.38
506.64	502.38
506.856	529.38
507.073	512.38
507.289	487.38
507.506	512.38
507.722	514.38
507.939	501.38
508.155	508.38
508.372	485.38
508.588	454.38
508.805	464.38
509.021	477.38
509.238	478.38
509.454	502.38
509.67	480.38
509.887	457.38
510.103	490.38
510.319	491.38
510.536	523.38
510.752	751.38
510.968	628.38
511.184	470.38
511.401	445.38
511.617	453.38
511.833	475.38
512.049	448.38
512.265	462.38
512.481	452.38
512.698	462.38
512.914	448.38
513.13	453.38
513.346	433.38
513.562	443.38
513.778	429.38
513.994	447.38
514.21	466.38
514.426	441.38
514.642	477.38
514.858	499.38
515.074	492.38
515.29	584.38
515.506	773.38
515.721	685.38
515.937	510.38
516.153	505.38
516.369	488.38
516.585	479.38
516.801	487.38
517.016	507.38
517.232	518.38
517.448	531.38
517.664	519.38
517.879	511.38
518.095	530.38
518.311	519.38
518.527	493.38
518.742	480.38
518.958	489.38
519.173	470.38
519.389	469.38
519.605	453.38
519.82	464.38
520.036	448.38
520.251	468.38
520.467	471.38
520.682	460.38
520.898	460.38
521.113	482.38
521.329	505.38
521.544	536.38
521.76	636.38
521.975	971.38
522.19	955.38
522.406	577.38
522.621	462.38
522.836	455.38
523.052	443.38
523.267	411.38
523.482	415.38
523.698	407.38
523.913	384.38
524.128	411.38
524.343	404.38
524.559	379.38
524.774	388.38
524.989	387.38
525.204	392.38
525.419	401.38
525.634	389.38
525.849	377.38
526.064	387.38
526.28	392.38
526.495	386.38
526.71	374.38
526.925	378.38
527.14	384.38
527.355	384.38
527.57	389.38
527.785	373.38
527.999	385.38
528.214	380.38
528.429	388.38
528.644	383.38
528.859	381.38
529.074	393.38
529.289	400.38
529.503	431.38
529.718	418.38
529.933	408.38
530.148	381.38
530.363	400.38
530.577	379.38
530.792	365.38
531.007	375.38
531.221	359.38
531.436	374.38
531.651	369.38
531.865	378.38
532.08	387.38
532.295	385.38
532.509	360.38
532.724	363.38
532.938	373.38
533.153	371.38
533.367	376.38
533.582	368.38
533.796	363.38
534.011	380.38
534.225	345.38
534.44	375.38
534.654	365.38
534.868	363.38
535.083	352.38
535.297	375.38
535.511	350.38
535.726	383.38
535.94	373.38
536.154	385.38
536.369	363.38
536.583	357.38
536.797	362.38
537.011	354.38
537.225	359.38
537.44	351.38
537.654	355.38
537.868	361.38
538.082	364.38
538.296	364.38
538.51	351.38
538.724	339.38
538.938	356.38
539.153	352.38
539.367	364.38
539.581	381.38
539.795	347.38
540.009	347.38
540.222	374.38
540.436	360.38
540.65	355.38
540.864	362.38
541.078	360.38
541.292	351.38
541.506	356.38
541.72	368.38
541.934	384.38
542.147	367.38
542.361	346.38
542.575	360.38
542.789	362.38
543.002	344.38
543.216	354.38
543.43	361.38
543.644	348.38
543.857	360.38
544.071	380.38
544.285	363.38
544.498	371.38
544.712	379.38
544.925	376.38
545.139	372.38
545.352	363.38
545.566	353.38
545.779	357.38
545.993	381.38
546.206	357.38
546.42	389.38
546.633	376.38
546.847	355.38
547.06	373.38
547.274	367.38
547.487	370.38
547.7	352.38
547.914	364.38
548.127	362.38
548.34	339.38
548.554	364.38
548.767	356.38
548.98	377.38
549.193	355.38
549.407	378.38
549.62	371.38
549.833	364.38
550.046	361.38
550.259	342.38
550.473	351.38
550.686	362.38
550.899	334.38
551.112	340.38
551.325	359.38
551.538	353.38
551.751	354.38
551.964	342.38
552.177	368.38
552.39	366.38
552.603	389.38
552.816	372.38
553.029	398.38
553.242	386.38
553.455	396.38
553.667	388.38
553.88	404.38
554.093	386.38
554.306	387.38
554.519	367.38
554.732	353.38
554.944	362.38
555.157	328.38
555.37	347.38
555.583	357.38
555.795	329.38
556.008	341.38
556.221	324.38
556.433	325.38
556.646	334.38
556.859	320.38
557.071	324.38
557.284	320.38
557.496	323.38
557.709	346.38
557.921	326.38
558.134	316.38
558.346	318.38
558.559	325.38
558.771	318.38
558.984	328.38
559.196	314.38
559.409	311.38
559.621	317.38
559.833	327.38
560.046	291.38
560.258	281.38
560.47	313.38
560.683	319.38
560.895	332.38
561.107	326.38
561.32	298.38
561.532	307.38
561.744	305.38
561.956	330.38
562.168	294.38
562.381	333.38
562.593	296.38
562.805	316.38
563.017	293.38
563.229	317.38
563.441	327.38
563.653	313.38
563.865	319.38
564.077	318.38
564.289	302.38
564.501	333.38
564.713	328.38
564.925	358.38
565.137	350.38
565.349	338.38
565.561	355.38
565.773	349.38
565.985	356.38
566.197	362.38
566.408	403.38
566.62	419.38
566.832	427.38
567.044	429.38
567.255	429.38
567.467	449.38
567.679	453.38
567.891	465.38
568.102	473.38
568.314	446.38
568.526	419.38
568.737	421.38
568.949	395.38
569.161	371.38
569.372	371.38
569.584	350.38
569.795	336.38
570.007	334.38
570.218	328.38
570.43	344.38
570.641	312.38
570.853	327.38
571.064	331.38
571.276	340.38
571.487	327.38
571.698	304.38
571.91	295.38
572.121	285.38
572.333	300.38
572.544	277.38
572.755	308.38
572.966	276.38
573.178	278.38
573.389	287.38
573.6	294.38
573.811	286.38
574.023	293.38
574.234	260.38
574.445	279.38
574.656	270.38
574.867	289.38
575.078	265.38
575.289	265.38
575.501	278.38
575.712	291.38
575.923	252.38
576.134	279.38
576.345	275.38
576.556	282.38
576.767	285.38
576.978	251.38
577.188	280.38
577.399	270.38
577.61	263.38
577.821	269.38
578.032	277.38
578.243	274.38
578.454	389.38
578.665	327.38
578.875	278.38
579.086	269.38
579.297	262.38
579.508	260.38
579.718	240.38
579.929	251.38
580.14	250.38
580.35	252.38
580.561	257.38
580.772	246.38
580.982	243.38
581.193	237.38
581.403	246.38
581.614	261.38
581.825	241.38
582.035	245.38
582.246	259.38
582.456	243.38
582.667	227.38
582.877	240.38
583.087	243.38
583.298	254.38
583.508	243.38
583.719	251.38
583.929	246.38
584.139	234.38
584.35	227.38
584.56	250.38
584.77	255.38
584.981	252.38
585.191	259.38
585.401	233.38
585.611	235.38
585.821	247.38
586.032	248.38
586.242	235.38
586.452	253.38
586.662	235.38
586.872	246.38
587.082	244.38
587.292	236.38
587.502	248.38
587.713	239.38
587.923	230.38
588.133	245.38
588.343	262.38
588.553	234.38
588.762	247.38
588.972	242.38
589.182	237.38
589.392	237.38
589.602	249.38
589.812	235.38
590.022	264.38
590.232	237.38
590.441	240.38
590.651	255.38
590.861	247.38
591.071	246.38
591.281	251.38
591.49	250.38
591.7	247.38
591.91	262.38
592.119	257.38
592.329	268.38
592.539	271.38
592.748	279.38
592.958	260.38
593.167	272.38
593.377	283.38
593.587	293.38
593.796	295.38
594.006	287.38
594.215	295.38
594.424	264.38
594.634	284.38
594.843	288.38
595.053	267.38
595.262	273.38
595.472	247.38
595.681	255.38
595.89	248.38
596.1	248.38
596.309	254.38
596.518	250.38
596.727	251.38
596.937	225.38
597.146	235.38
597.355	230.38
597.564	227.38
597.774	221.38
597.983	235.38
598.192	232.38
598.401	233.38
598.61	223.38
598.819	221.38
599.028	205.38
599.237	221.38
599.446	217.38
599.655	213.38
599.864	201.38
600.073	208.38
600.282	214.38
600.491	228.38
600.7	211.38
600.909	240.38
601.118	207.38
601.327	213.38
601.536	224.38
601.745	211.38
601.953	215.38
602.162	209.38
602.371	206.38
602.58	213.38
602.789	206.38
602.997	217.38
603.206	214.38
603.415	206.38
603.623	205.38
603.832	220.38
604.041	215.38
604.249	195.38
604.458	201.38
604.666	208.38
604.875	203.38
605.084	216.38
605.292	205.38
605.501	197.38
605.709	213.38
605.918	216.38
606.126	215.38
606.334	225.38
606.543	193.38
606.751	223.38
606.96	211.38
607.168	218.38
607.376	199.38
607.585	205.38
607.793	207.38
608.001	203.38
608.21	206.38
608.418	202.38
608.626	188.38
608.834	221.38
609.043	221.38
609.251	197.38
609.459	201.38
609.667	221.38
609.875	200.38
610.083	202.38
610.291	202.38
610.499	213.38
610.707	208.38
610.916	213.38
611.124	216.38
611.332	222.38
611.54	215.38
611.748	208.38
611.955	200.38
612.163	222.38
612.371	207.38
612.579	205.38
612.787	193.38
612.995	202.38
613.203	206.38
613.411	207.38
613.618	219.38
613.826	192.38
614.034	211.38
614.242	210.38
614.449	200.38
614.657	204.38
614.865	190.38
615.072	199.38
615.28	201.38
615.488	198.38
615.695	199.38
615.903	202.38
616.111	205.38
616.318	200.38
616.526	192.38
616.733	202.38
616.941	208.38
617.148	202.38
617.356	219.38
617.563	171.38
617.771	196.38
617.978	204.38
618.185	197.38
618.393	198.38
618.6	213.38
618.807	208.38
619.015	199.38
619.222	203.38
619.429	191.38
619.637	195.38
619.844	177.38
620.051	208.38
620.258	199.38
620.466	205.38
620.673	197.38
620.88	199.38
621.087	191.38
621.294	219.38
621.501	181.38
621.708	186.38
621.915	188.38
622.122	205.38
622.329	190.38
622.536	200.38
622.743	183.38
622.95	213.38
623.157	197.38
623.364	197.38
623.571	171.38
623.778	197.38
623.985	186.38
624.192	180.38
624.399	186.38
624.606	194.38
624.812	196.38
625.019	186.38
625.226	174.38
625.433	186.38
625.639	179.38
625.846	185.38
626.053	170.38
626.259	175.38
626.466	177.38
626.673	197.38
626.879	184.38
627.086	182.38
627.293	197.38
627.499	163.38
627.706	184.38
627.912	173.38
628.119	181.38
628.325	205.38
628.532	179.38
628.738	163.38
628.945	186.38
629.151	182.38
629.357	179.38
629.564	179.38
629.77	177.38
629.976	181.38
630.183	156.38
630.389	172.38
630.595	159.38
630.802	171.38
631.008	170.38
631.214	181.38
631.42	163.38
631.627	174.38
631.833	161.38
632.039	163.38
632.245	170.38
632.451	175.38
632.657	151.38
632.863	159.38
633.069	170.38
633.275	183.38
633.481	163.38
633.688	151.38
633.893	156.38
634.099	162.38
634.305	151.38
634.511	148.38
634.717	165.38
634.923	161.38
635.129	168.38
635.335	168.38
635.541	162.38
635.747	156.38
635.952	176.38
636.158	161.38
636.364	158.38
636.57	168.38
636.775	159.38
636.981	155.38
637.187	164.38
637.392	151.38
637.598	175.38
637.804	169.38
638.009	153.38
638.215	156.38
638.421	155.38
638.626	167.38
638.832	142.38
639.037	173.38
639.243	172.38
639.448	167.38
639.654	161.38
639.859	158.38
640.065	159.38
640.27	151.38
640.475	162.38
640.681	168.38
640.886	152.38
641.091	168.38
641.297	147.38
641.502	141.38
641.707	151.38
641.913	149.38
642.118	157.38
642.323	153.38
642.528	160.38
642.733	155.38
642.939	160.38
643.144	148.38
643.349	157.38
643.554	133.38
643.759	164.38
643.964	150.38
644.169	144.38
644.374	139.38
644.579	126.38
644.784	145.38
644.989	155.38
645.194	142.38
645.399	157.38
645.604	135.38
645.809	160.38
646.014	162.38
646.219	147.38
646.423	131.38
646.628	156.38
646.833	130.38
647.038	140.38
647.243	164.38
647.447	162.38
647.652	161.38
647.857	149.38
648.062	155.38
648.266	147.38
648.471	163.38
648.676	145.38
648.88	154.38
649.085	154.38
649.289	148.38
649.494	148.38
649.698	160.38
649.903	171.38
650.107	135.38
650.312	134.38
650.516	156.38
650.721	140.38
650.925	149.38
651.13	159.38
651.334	149.38
651.539	141.38
651.743	149.38
651.947	139.38
652.152	143.38
652.356	137.38
652.56	143.38
652.764	137.38
652.969	139.38
653.173	139.38
653.377	121.38
653.581	131.38
653.785	143.38
653.99	130.38
654.194	117.38
654.398	128.38
654.602	123.38
654.806	121.38
655.01	131.38
655.214	131.38
655.418	125.38
655.622	116.38
655.826	120.38
656.03	134.38
656.234	129.38
656.438	125.38
656.642	132.38
656.846	124.38
657.049	133.38
657.253	136.38
657.457	121.38
657.661	127.38
657.865	110.38
658.068	104.38
658.272	124.38
658.476	120.38
658.68	112.38
658.883	110.38
659.087	115.38
659.291	119.38
659.494	96.38
659.698	110.38
659.901	94.38
660.105	85.38
660.309	87.38
660.512	96.38
660.716	94.38
660.919	88.38
661.123	86.38
661.326	87.38
661.53	97.38
661.733	105.38
661.936	91.38
662.14	86.38
662.343	89.38
662.546	87.38
662.75	95.38
662.953	80.38
663.156	80.38
663.36	87.38
663.563	74.38
663.766	88.38
663.969	86.38
664.173	86.38
664.376	78.38
664.579	95.38
664.782	82.38
664.985	89.38
665.188	86.38
665.391	83.38
665.594	82.38
665.797	87.38
666	94.38
666.203	66.38
666.406	69.38
666.609	91.38
666.812	86.38
667.015	89.38
667.218	81.38
667.421	84.38
667.624	87.38
667.827	73.38
668.03	96.38
668.232	101.38
668.435	77.38
668.638	88.38
668.841	68.38
669.043	79.38
669.246	88.38
669.449	81.38
669.651	97.38
669.854	80.38
670.057	77.38
670.259	80.38
670.462	76.38
670.665	80.38
670.867	70.38
671.07	88.38
671.272	69.38
671.475	87.38
671.677	94.38
671.88	89.38
672.082	77.38
672.284	84.38
672.487	86.38
672.689	77.38
672.892	69.38
