Data from 1969.PennyLincolnUp.Lamp.En5.5.200Scan.071719.P1._HRD10591_14-56-28-973.txt Node
Date: Thu Jul 18 14:56:28 EDT 2019
User: cochatt
Spectrometer: HR+D1059
Trigger mode: 1
Integration Time (sec): 1.000000E-1
Scans to average: 1
Electric dark correction enabled: true
Nonlinearity correction enabled: false
Boxcar width: 0
XAxis mode: Wavelengths
Number of Pixels in Spectrum: 2048
>>>>>Begin Spectral Data<<<<<
223.165	-12.62
223.4	-12.62
223.635	-12.62
223.869	-17.62
224.104	-28.62
224.338	-17.62
224.573	-15.62
224.808	-8.62
225.042	-5.62
225.277	-12.62
225.511	-0.62
225.746	5.38
225.98	10.38
226.215	11.38
226.449	16.38
226.683	32.38
226.918	21.38
227.152	22.38
227.387	25.38
227.621	23.38
227.856	31.38
228.09	41.38
228.324	53.38
228.559	46.38
228.793	64.38
229.027	81.38
229.262	91.38
229.496	108.38
229.73	114.38
229.964	110.38
230.199	89.38
230.433	94.38
230.667	102.38
230.901	96.38
231.136	101.38
231.37	96.38
231.604	100.38
231.838	107.38
232.072	94.38
232.306	102.38
232.541	103.38
232.775	107.38
233.009	103.38
233.243	94.38
233.477	114.38
233.711	92.38
233.945	95.38
234.179	99.38
234.413	107.38
234.647	104.38
234.881	105.38
235.115	82.38
235.349	97.38
235.583	111.38
235.817	124.38
236.051	106.38
236.285	98.38
236.519	94.38
236.753	105.38
236.987	129.38
237.221	139.38
237.455	170.38
237.689	144.38
237.922	119.38
238.156	113.38
238.39	106.38
238.624	120.38
238.858	112.38
239.091	128.38
239.325	127.38
239.559	98.38
239.793	110.38
240.027	126.38
240.26	129.38
240.494	127.38
240.728	118.38
240.961	118.38
241.195	124.38
241.429	115.38
241.662	122.38
241.896	107.38
242.13	126.38
242.363	125.38
242.597	121.38
242.83	118.38
243.064	115.38
243.298	117.38
243.531	119.38
243.765	115.38
243.998	125.38
244.232	128.38
244.465	136.38
244.699	123.38
244.932	129.38
245.166	116.38
245.399	127.38
245.633	138.38
245.866	105.38
246.099	138.38
246.333	120.38
246.566	116.38
246.8	134.38
247.033	136.38
247.266	135.38
247.5	129.38
247.733	139.38
247.966	165.38
248.2	148.38
248.433	146.38
248.666	141.38
248.899	148.38
249.133	159.38
249.366	167.38
249.599	155.38
249.832	149.38
250.066	152.38
250.299	147.38
250.532	167.38
250.765	180.38
250.998	170.38
251.231	182.38
251.465	171.38
251.698	160.38
251.931	179.38
252.164	170.38
252.397	151.38
252.63	160.38
252.863	174.38
253.096	175.38
253.329	185.38
253.562	191.38
253.795	175.38
254.028	198.38
254.261	193.38
254.494	192.38
254.727	210.38
254.96	229.38
255.193	205.38
255.426	188.38
255.659	163.38
255.892	179.38
256.124	187.38
256.357	187.38
256.59	185.38
256.823	183.38
257.056	166.38
257.289	178.38
257.521	185.38
257.754	167.38
257.987	163.38
258.22	180.38
258.452	169.38
258.685	167.38
258.918	186.38
259.151	178.38
259.383	184.38
259.616	188.38
259.849	184.38
260.081	185.38
260.314	203.38
260.547	206.38
260.779	203.38
261.012	202.38
261.244	194.38
261.477	199.38
261.71	191.38
261.942	202.38
262.175	196.38
262.407	216.38
262.64	192.38
262.872	163.38
263.105	171.38
263.337	181.38
263.57	177.38
263.802	172.38
264.035	191.38
264.267	171.38
264.499	178.38
264.732	169.38
264.964	166.38
265.197	178.38
265.429	163.38
265.661	169.38
265.894	192.38
266.126	201.38
266.358	172.38
266.591	184.38
266.823	207.38
267.055	182.38
267.287	192.38
267.52	175.38
267.752	182.38
267.984	183.38
268.216	206.38
268.448	213.38
268.681	203.38
268.913	233.38
269.145	232.38
269.377	218.38
269.609	224.38
269.841	222.38
270.073	213.38
270.306	234.38
270.538	263.38
270.77	266.38
271.002	247.38
271.234	222.38
271.466	249.38
271.698	264.38
271.93	250.38
272.162	259.38
272.394	256.38
272.626	234.38
272.858	227.38
273.09	226.38
273.322	225.38
273.553	221.38
273.785	216.38
274.017	232.38
274.249	226.38
274.481	219.38
274.713	219.38
274.945	229.38
275.176	222.38
275.408	221.38
275.64	223.38
275.872	232.38
276.104	226.38
276.335	226.38
276.567	245.38
276.799	232.38
277.031	254.38
277.262	268.38
277.494	269.38
277.726	253.38
277.957	265.38
278.189	226.38
278.421	220.38
278.652	226.38
278.884	240.38
279.115	239.38
279.347	230.38
279.579	225.38
279.81	217.38
280.042	219.38
280.273	243.38
280.505	229.38
280.736	238.38
280.968	230.38
281.199	248.38
281.431	241.38
281.662	232.38
281.894	217.38
282.125	238.38
282.356	246.38
282.588	263.38
282.819	243.38
283.051	255.38
283.282	243.38
283.513	236.38
283.745	228.38
283.976	245.38
284.207	237.38
284.439	243.38
284.67	241.38
284.901	237.38
285.132	228.38
285.364	244.38
285.595	252.38
285.826	253.38
286.057	234.38
286.288	243.38
286.52	254.38
286.751	256.38
286.982	258.38
287.213	258.38
287.444	254.38
287.675	256.38
287.906	271.38
288.138	286.38
288.369	262.38
288.6	263.38
288.831	278.38
289.062	270.38
289.293	272.38
289.524	257.38
289.755	238.38
289.986	247.38
290.217	225.38
290.448	261.38
290.679	243.38
290.91	267.38
291.141	247.38
291.371	256.38
291.602	242.38
291.833	257.38
292.064	261.38
292.295	249.38
292.526	256.38
292.757	264.38
292.987	264.38
293.218	265.38
293.449	262.38
293.68	272.38
293.91	286.38
294.141	244.38
294.372	251.38
294.603	240.38
294.833	235.38
295.064	260.38
295.295	264.38
295.525	258.38
295.756	257.38
295.987	259.38
296.217	281.38
296.448	292.38
296.679	258.38
296.909	257.38
297.14	278.38
297.37	281.38
297.601	266.38
297.831	246.38
298.062	247.38
298.292	272.38
298.523	278.38
298.753	291.38
298.984	283.38
299.214	263.38
299.445	270.38
299.675	256.38
299.905	294.38
300.136	282.38
300.366	280.38
300.597	298.38
300.827	285.38
301.057	286.38
301.288	299.38
301.518	293.38
301.748	295.38
301.979	308.38
302.209	287.38
302.439	300.38
302.669	288.38
302.9	288.38
303.13	285.38
303.36	281.38
303.59	294.38
303.82	292.38
304.051	306.38
304.281	282.38
304.511	289.38
304.741	282.38
304.971	290.38
305.201	278.38
305.431	290.38
305.661	292.38
305.891	299.38
306.121	283.38
306.352	298.38
306.582	291.38
306.812	299.38
307.042	308.38
307.272	290.38
307.502	284.38
307.731	290.38
307.961	284.38
308.191	294.38
308.421	289.38
308.651	283.38
308.881	298.38
309.111	283.38
309.341	319.38
309.571	294.38
309.8	297.38
310.03	306.38
310.26	314.38
310.49	306.38
310.72	315.38
310.949	331.38
311.179	328.38
311.409	330.38
311.639	309.38
311.868	317.38
312.098	311.38
312.328	333.38
312.557	311.38
312.787	342.38
313.017	327.38
313.246	331.38
313.476	303.38
313.706	321.38
313.935	331.38
314.165	338.38
314.394	331.38
314.624	331.38
314.853	315.38
315.083	328.38
315.312	316.38
315.542	313.38
315.771	328.38
316.001	296.38
316.23	322.38
316.46	329.38
316.689	319.38
316.919	311.38
317.148	322.38
317.377	313.38
317.607	343.38
317.836	321.38
318.065	345.38
318.295	330.38
318.524	310.38
318.753	322.38
318.983	304.38
319.212	307.38
319.441	323.38
319.67	336.38
319.9	328.38
320.129	318.38
320.358	318.38
320.587	320.38
320.816	320.38
321.046	336.38
321.275	343.38
321.504	325.38
321.733	314.38
321.962	336.38
322.191	345.38
322.42	349.38
322.649	349.38
322.878	354.38
323.108	363.38
323.337	378.38
323.566	378.38
323.795	410.38
324.024	418.38
324.253	462.38
324.482	627.38
324.71	916.38
324.939	1212.38
325.168	1020.38
325.397	577.38
325.626	438.38
325.855	396.38
326.084	379.38
326.313	383.38
326.542	391.38
326.77	418.38
326.999	474.38
327.228	596.38
327.457	816.38
327.686	923.38
327.914	632.38
328.143	458.38
328.372	449.38
328.6	436.38
328.829	438.38
329.058	432.38
329.287	448.38
329.515	397.38
329.744	386.38
329.972	408.38
330.201	404.38
330.43	444.38
330.658	447.38
330.887	452.38
331.115	424.38
331.344	414.38
331.572	404.38
331.801	400.38
332.03	383.38
332.258	391.38
332.486	391.38
332.715	389.38
332.943	403.38
333.172	420.38
333.4	404.38
333.629	400.38
333.857	421.38
334.085	408.38
334.314	426.38
334.542	448.38
334.771	447.38
334.999	441.38
335.227	434.38
335.455	395.38
335.684	396.38
335.912	396.38
336.14	407.38
336.369	387.38
336.597	386.38
336.825	404.38
337.053	410.38
337.281	374.38
337.51	380.38
337.738	358.38
337.966	378.38
338.194	359.38
338.422	366.38
338.65	383.38
338.878	374.38
339.106	370.38
339.334	366.38
339.562	356.38
339.79	340.38
340.018	342.38
340.246	336.38
340.474	354.38
340.702	356.38
340.93	339.38
341.158	352.38
341.386	359.38
341.614	379.38
341.842	368.38
342.07	350.38
342.298	335.38
342.526	363.38
342.754	339.38
342.981	348.38
343.209	369.38
343.437	358.38
343.665	382.38
343.893	386.38
344.12	379.38
344.348	389.38
344.576	389.38
344.804	386.38
345.031	371.38
345.259	363.38
345.487	366.38
345.714	350.38
345.942	342.38
346.17	344.38
346.397	345.38
346.625	336.38
346.853	359.38
347.08	348.38
347.308	344.38
347.535	342.38
347.763	359.38
347.99	359.38
348.218	366.38
348.445	359.38
348.673	370.38
348.9	357.38
349.128	342.38
349.355	328.38
349.583	350.38
349.81	332.38
350.037	331.38
350.265	347.38
350.492	345.38
350.72	334.38
350.947	343.38
351.174	345.38
351.402	349.38
351.629	339.38
351.856	336.38
352.083	342.38
352.311	334.38
352.538	372.38
352.765	322.38
352.992	348.38
353.22	354.38
353.447	318.38
353.674	324.38
353.901	304.38
354.128	340.38
354.355	342.38
354.583	328.38
354.81	336.38
355.037	321.38
355.264	328.38
355.491	330.38
355.718	318.38
355.945	290.38
356.172	330.38
356.399	324.38
356.626	331.38
356.853	344.38
357.08	320.38
357.307	339.38
357.534	308.38
357.761	305.38
357.988	323.38
358.215	329.38
358.441	328.38
358.668	319.38
358.895	332.38
359.122	311.38
359.349	341.38
359.576	337.38
359.802	354.38
360.029	370.38
360.256	380.38
360.483	345.38
360.709	347.38
360.936	337.38
361.163	359.38
361.39	363.38
361.616	341.38
361.843	351.38
362.07	336.38
362.296	332.38
362.523	337.38
362.749	338.38
362.976	335.38
363.203	345.38
363.429	325.38
363.656	318.38
363.882	313.38
364.109	321.38
364.335	314.38
364.562	324.38
364.788	331.38
365.015	324.38
365.241	331.38
365.468	347.38
365.694	339.38
365.92	349.38
366.147	351.38
366.373	332.38
366.599	328.38
366.826	322.38
367.052	311.38
367.278	338.38
367.505	311.38
367.731	330.38
367.957	317.38
368.184	350.38
368.41	349.38
368.636	350.38
368.862	340.38
369.089	329.38
369.315	327.38
369.541	332.38
369.767	340.38
369.993	324.38
370.219	327.38
370.445	347.38
370.672	338.38
370.898	331.38
371.124	330.38
371.35	315.38
371.576	332.38
371.802	320.38
372.028	339.38
372.254	334.38
372.48	339.38
372.706	335.38
372.932	316.38
373.158	340.38
373.384	340.38
373.61	329.38
373.835	350.38
374.061	339.38
374.287	352.38
374.513	315.38
374.739	345.38
374.965	357.38
375.191	336.38
375.416	339.38
375.642	332.38
375.868	342.38
376.094	342.38
376.319	329.38
376.545	337.38
376.771	335.38
376.997	353.38
377.222	312.38
377.448	354.38
377.674	338.38
377.899	349.38
378.125	326.38
378.35	339.38
378.576	318.38
378.802	318.38
379.027	360.38
379.253	354.38
379.478	326.38
379.704	325.38
379.929	339.38
380.155	325.38
380.38	336.38
380.606	318.38
380.831	330.38
381.057	332.38
381.282	335.38
381.507	339.38
381.733	343.38
381.958	330.38
382.184	353.38
382.409	349.38
382.634	347.38
382.86	336.38
383.085	331.38
383.31	347.38
383.535	336.38
383.761	338.38
383.986	359.38
384.211	373.38
384.436	356.38
384.662	352.38
384.887	356.38
385.112	373.38
385.337	362.38
385.562	374.38
385.787	362.38
386.013	396.38
386.238	378.38
386.463	372.38
386.688	375.38
386.913	372.38
387.138	368.38
387.363	380.38
387.588	373.38
387.813	361.38
388.038	350.38
388.263	355.38
388.488	377.38
388.713	352.38
388.938	372.38
389.163	360.38
389.387	366.38
389.612	369.38
389.837	351.38
390.062	354.38
390.287	378.38
390.512	368.38
390.736	368.38
390.961	371.38
391.186	383.38
391.411	388.38
391.636	366.38
391.86	380.38
392.085	395.38
392.31	389.38
392.534	379.38
392.759	396.38
392.984	366.38
393.208	370.38
393.433	355.38
393.658	384.38
393.882	361.38
394.107	364.38
394.331	378.38
394.556	370.38
394.78	364.38
395.005	387.38
395.229	386.38
395.454	411.38
395.678	397.38
395.903	406.38
396.127	396.38
396.352	416.38
396.576	395.38
396.801	390.38
397.025	396.38
397.249	390.38
397.474	393.38
397.698	405.38
397.922	415.38
398.147	389.38
398.371	387.38
398.595	426.38
398.82	427.38
399.044	466.38
399.268	464.38
399.492	547.38
399.717	574.38
399.941	548.38
400.165	554.38
400.389	550.38
400.613	494.38
400.837	441.38
401.062	448.38
401.286	458.38
401.51	453.38
401.734	419.38
401.958	447.38
402.182	448.38
402.406	440.38
402.63	431.38
402.854	456.38
403.078	463.38
403.302	439.38
403.526	454.38
403.75	452.38
403.974	479.38
404.198	458.38
404.422	479.38
404.645	466.38
404.869	456.38
405.093	498.38
405.317	529.38
405.541	532.38
405.765	488.38
405.988	461.38
406.212	494.38
406.436	488.38
406.66	511.38
406.883	472.38
407.107	501.38
407.331	537.38
407.555	591.38
407.778	575.38
408.002	520.38
408.226	505.38
408.449	506.38
408.673	479.38
408.896	503.38
409.12	523.38
409.344	503.38
409.567	441.38
409.791	441.38
410.014	456.38
410.238	455.38
410.461	431.38
410.685	444.38
410.908	474.38
411.132	478.38
411.355	499.38
411.578	478.38
411.802	442.38
412.025	456.38
412.249	448.38
412.472	480.38
412.695	491.38
412.919	463.38
413.142	454.38
413.365	438.38
413.589	434.38
413.812	419.38
414.035	406.38
414.258	423.38
414.482	430.38
414.705	443.38
414.928	406.38
415.151	430.38
415.374	430.38
415.597	435.38
415.821	425.38
416.044	428.38
416.267	414.38
416.49	423.38
416.713	409.38
416.936	440.38
417.159	446.38
417.382	424.38
417.605	425.38
417.828	439.38
418.051	436.38
418.274	428.38
418.497	458.38
418.72	430.38
418.943	416.38
419.166	450.38
419.389	471.38
419.611	486.38
419.834	457.38
420.057	468.38
420.28	454.38
420.503	425.38
420.726	437.38
420.948	452.38
421.171	463.38
421.394	473.38
421.617	444.38
421.839	431.38
422.062	426.38
422.285	445.38
422.507	475.38
422.73	513.38
422.953	504.38
423.175	458.38
423.398	449.38
423.621	471.38
423.843	490.38
424.066	476.38
424.288	478.38
424.511	472.38
424.733	506.38
424.956	536.38
425.178	529.38
425.401	520.38
425.623	529.38
425.846	482.38
426.068	461.38
426.291	450.38
426.513	416.38
426.735	446.38
426.958	478.38
427.18	520.38
427.402	610.38
427.625	642.38
427.847	570.38
428.069	503.38
428.292	461.38
428.514	425.38
428.736	410.38
428.958	416.38
429.181	415.38
429.403	392.38
429.625	410.38
429.847	458.38
430.069	478.38
430.292	466.38
430.514	420.38
430.736	421.38
430.958	412.38
431.18	400.38
431.402	408.38
431.624	396.38
431.846	422.38
432.068	403.38
432.29	403.38
432.512	385.38
432.734	409.38
432.956	406.38
433.178	411.38
433.4	393.38
433.622	402.38
433.844	396.38
434.066	392.38
434.287	408.38
434.509	408.38
434.731	413.38
434.953	415.38
435.175	431.38
435.397	452.38
435.618	460.38
435.84	465.38
436.062	524.38
436.284	536.38
436.505	470.38
436.727	435.38
436.949	446.38
437.17	389.38
437.392	416.38
437.614	431.38
437.835	427.38
438.057	470.38
438.278	544.38
438.5	567.38
438.721	574.38
438.943	563.38
439.165	450.38
439.386	452.38
439.608	450.38
439.829	446.38
440.05	457.38
440.272	490.38
440.493	439.38
440.715	438.38
440.936	427.38
441.158	436.38
441.379	430.38
441.6	447.38
441.822	465.38
442.043	485.38
442.264	527.38
442.486	556.38
442.707	472.38
442.928	466.38
443.149	466.38
443.371	502.38
443.592	517.38
443.813	565.38
444.034	598.38
444.255	507.38
444.476	495.38
444.698	494.38
444.919	506.38
445.14	552.38
445.361	512.38
445.582	497.38
445.803	516.38
446.024	541.38
446.245	568.38
446.466	518.38
446.687	455.38
446.908	430.38
447.129	415.38
447.35	405.38
447.571	408.38
447.792	407.38
448.013	429.38
448.234	410.38
448.455	470.38
448.675	530.38
448.896	565.38
449.117	488.38
449.338	461.38
449.559	539.38
449.779	576.38
450	475.38
450.221	427.38
450.442	410.38
450.662	390.38
450.883	394.38
451.104	400.38
451.324	390.38
451.545	381.38
451.766	390.38
451.986	380.38
452.207	359.38
452.428	358.38
452.648	373.38
452.869	374.38
453.089	383.38
453.31	387.38
453.53	359.38
453.751	359.38
453.971	371.38
454.192	376.38
454.412	364.38
454.633	382.38
454.853	374.38
455.073	359.38
455.294	382.38
455.514	424.38
455.734	396.38
455.955	375.38
456.175	347.38
456.395	359.38
456.616	348.38
456.836	338.38
457.056	347.38
457.276	343.38
457.497	340.38
457.717	362.38
457.937	368.38
458.157	354.38
458.377	386.38
458.598	383.38
458.818	415.38
459.038	468.38
459.258	468.38
459.478	415.38
459.698	399.38
459.918	395.38
460.138	415.38
460.358	425.38
460.578	434.38
460.798	420.38
461.018	439.38
461.238	430.38
461.458	421.38
461.678	404.38
461.898	440.38
462.118	432.38
462.338	463.38
462.558	443.38
462.777	466.38
462.997	486.38
463.217	497.38
463.437	494.38
463.657	470.38
463.876	469.38
464.096	480.38
464.316	476.38
464.536	480.38
464.755	456.38
464.975	460.38
465.195	471.38
465.414	504.38
465.634	447.38
465.854	415.38
466.073	392.38
466.293	394.38
466.512	392.38
466.732	387.38
466.951	397.38
467.171	379.38
467.391	379.38
467.61	391.38
467.829	406.38
468.049	401.38
468.268	382.38
468.488	382.38
468.707	361.38
468.927	389.38
469.146	392.38
469.365	375.38
469.585	395.38
469.804	409.38
470.023	399.38
470.243	390.38
470.462	412.38
470.681	432.38
470.901	423.38
471.12	394.38
471.339	415.38
471.558	388.38
471.777	395.38
471.997	396.38
472.216	395.38
472.435	407.38
472.654	385.38
472.873	368.38
473.092	380.38
473.311	367.38
473.53	376.38
473.749	375.38
473.968	408.38
474.187	470.38
474.406	466.38
474.625	425.38
474.844	418.38
475.063	396.38
475.282	387.38
475.501	376.38
475.72	391.38
475.939	400.38
476.158	399.38
476.377	363.38
476.596	396.38
476.814	409.38
477.033	396.38
477.252	388.38
477.471	408.38
477.69	425.38
477.908	418.38
478.127	434.38
478.346	427.38
478.564	434.38
478.783	447.38
479.002	462.38
479.22	443.38
479.439	459.38
479.658	476.38
479.876	458.38
480.095	472.38
480.313	490.38
480.532	501.38
480.751	516.38
480.969	488.38
481.188	511.38
481.406	550.38
481.624	473.38
481.843	464.38
482.061	465.38
482.28	443.38
482.498	436.38
482.717	426.38
482.935	437.38
483.153	430.38
483.372	439.38
483.59	458.38
483.808	423.38
484.027	439.38
484.245	451.38
484.463	447.38
484.681	444.38
484.9	445.38
485.118	452.38
485.336	454.38
485.554	452.38
485.772	481.38
485.99	454.38
486.209	450.38
486.427	459.38
486.645	471.38
486.863	490.38
487.081	469.38
487.299	507.38
487.517	456.38
487.735	456.38
487.953	466.38
488.171	452.38
488.389	473.38
488.607	461.38
488.825	481.38
489.043	476.38
489.261	475.38
489.479	488.38
489.696	478.38
489.914	477.38
490.132	490.38
490.35	473.38
490.568	508.38
490.786	517.38
491.003	511.38
491.221	538.38
491.439	529.38
491.657	525.38
491.874	554.38
492.092	553.38
492.31	569.38
492.527	540.38
492.745	584.38
492.963	566.38
493.18	555.38
493.398	560.38
493.615	553.38
493.833	571.38
494.05	574.38
494.268	577.38
494.485	562.38
494.703	550.38
494.92	536.38
495.138	553.38
495.355	564.38
495.573	578.38
495.79	568.38
496.008	568.38
496.225	536.38
496.442	532.38
496.66	549.38
496.877	558.38
497.094	553.38
497.312	562.38
497.529	581.38
497.746	586.38
497.963	599.38
498.181	641.38
498.398	622.38
498.615	638.38
498.832	648.38
499.049	688.38
499.267	730.38
499.484	755.38
499.701	799.38
499.918	837.38
500.135	910.38
500.352	950.38
500.569	969.38
500.786	1000.38
501.003	957.38
501.22	888.38
501.437	830.38
501.654	803.38
501.871	753.38
502.088	745.38
502.305	704.38
502.522	675.38
502.739	655.38
502.956	617.38
503.172	612.38
503.389	598.38
503.606	579.38
503.823	595.38
504.04	576.38
504.256	572.38
504.473	597.38
504.69	617.38
504.907	568.38
505.123	564.38
505.34	533.38
505.557	546.38
505.773	533.38
505.99	537.38
506.207	495.38
506.423	510.38
506.64	515.38
506.856	527.38
507.073	486.38
507.289	500.38
507.506	484.38
507.722	527.38
507.939	512.38
508.155	493.38
508.372	459.38
508.588	476.38
508.805	478.38
509.021	491.38
509.238	492.38
509.454	507.38
509.67	475.38
509.887	479.38
510.103	486.38
510.319	468.38
510.536	520.38
510.752	786.38
510.968	660.38
511.184	448.38
511.401	448.38
511.617	467.38
511.833	465.38
512.049	435.38
512.265	457.38
512.481	468.38
512.698	436.38
512.914	440.38
513.13	464.38
513.346	443.38
513.562	453.38
513.778	433.38
513.994	457.38
514.21	466.38
514.426	481.38
514.642	491.38
514.858	495.38
515.074	528.38
515.29	611.38
515.506	835.38
515.721	699.38
515.937	530.38
516.153	492.38
516.369	476.38
516.585	483.38
516.801	484.38
517.016	496.38
517.232	515.38
517.448	527.38
517.664	516.38
517.879	512.38
518.095	540.38
518.311	545.38
518.527	524.38
518.742	506.38
518.958	494.38
519.173	472.38
519.389	456.38
519.605	468.38
519.82	446.38
520.036	463.38
520.251	461.38
520.467	489.38
520.682	472.38
520.898	484.38
521.113	483.38
521.329	507.38
521.544	536.38
521.76	684.38
521.975	1032.38
522.19	1007.38
522.406	582.38
522.621	466.38
522.836	447.38
523.052	448.38
523.267	420.38
523.482	412.38
523.698	403.38
523.913	403.38
524.128	433.38
524.343	404.38
524.559	394.38
524.774	387.38
524.989	408.38
525.204	428.38
525.419	415.38
525.634	426.38
525.849	390.38
526.064	368.38
526.28	388.38
526.495	385.38
526.71	384.38
526.925	397.38
527.14	378.38
527.355	375.38
527.57	390.38
527.785	383.38
527.999	374.38
528.214	367.38
528.429	378.38
528.644	380.38
528.859	374.38
529.074	387.38
529.289	376.38
529.503	460.38
529.718	418.38
529.933	413.38
530.148	383.38
530.363	379.38
530.577	367.38
530.792	394.38
531.007	375.38
531.221	389.38
531.436	377.38
531.651	370.38
531.865	385.38
532.08	374.38
532.295	368.38
532.509	369.38
532.724	359.38
532.938	391.38
533.153	377.38
533.367	362.38
533.582	384.38
533.796	374.38
534.011	367.38
534.225	353.38
534.44	358.38
534.654	364.38
534.868	380.38
535.083	367.38
535.297	370.38
535.511	372.38
535.726	383.38
535.94	375.38
536.154	376.38
536.369	357.38
536.583	364.38
536.797	357.38
537.011	350.38
537.225	333.38
537.44	362.38
537.654	345.38
537.868	341.38
538.082	346.38
538.296	347.38
538.51	346.38
538.724	376.38
538.938	343.38
539.153	358.38
539.367	352.38
539.581	356.38
539.795	348.38
540.009	357.38
540.222	338.38
540.436	366.38
540.65	358.38
540.864	379.38
541.078	369.38
541.292	343.38
541.506	340.38
541.72	376.38
541.934	349.38
542.147	352.38
542.361	369.38
542.575	355.38
542.789	353.38
543.002	358.38
543.216	351.38
543.43	375.38
543.644	380.38
543.857	354.38
544.071	352.38
544.285	370.38
544.498	358.38
544.712	357.38
544.925	360.38
545.139	370.38
545.352	364.38
545.566	361.38
545.779	340.38
545.993	351.38
546.206	363.38
546.42	372.38
546.633	374.38
546.847	334.38
547.06	366.38
547.274	350.38
547.487	376.38
547.7	366.38
547.914	372.38
548.127	338.38
548.34	351.38
548.554	366.38
548.767	358.38
548.98	360.38
549.193	362.38
549.407	360.38
549.62	357.38
549.833	353.38
550.046	366.38
550.259	373.38
550.473	350.38
550.686	367.38
550.899	354.38
551.112	350.38
551.325	360.38
551.538	354.38
551.751	350.38
551.964	359.38
552.177	367.38
552.39	366.38
552.603	376.38
552.816	363.38
553.029	356.38
553.242	377.38
553.455	380.38
553.667	396.38
553.88	382.38
554.093	367.38
554.306	364.38
554.519	339.38
554.732	367.38
554.944	346.38
555.157	337.38
555.37	328.38
555.583	345.38
555.795	332.38
556.008	339.38
556.221	328.38
556.433	312.38
556.646	316.38
556.859	314.38
557.071	321.38
557.284	338.38
557.496	306.38
557.709	327.38
557.921	310.38
558.134	336.38
558.346	327.38
558.559	313.38
558.771	314.38
558.984	323.38
559.196	329.38
559.409	311.38
559.621	300.38
559.833	338.38
560.046	303.38
560.258	295.38
560.47	290.38
560.683	313.38
560.895	302.38
561.107	294.38
561.32	321.38
561.532	291.38
561.744	312.38
561.956	318.38
562.168	299.38
562.381	310.38
562.593	309.38
562.805	303.38
563.017	324.38
563.229	323.38
563.441	324.38
563.653	309.38
563.865	304.38
564.077	322.38
564.289	329.38
564.501	336.38
564.713	338.38
564.925	331.38
565.137	321.38
565.349	328.38
565.561	356.38
565.773	369.38
565.985	358.38
566.197	388.38
566.408	384.38
566.62	394.38
566.832	447.38
567.044	430.38
567.255	445.38
567.467	439.38
567.679	475.38
567.891	478.38
568.102	475.38
568.314	476.38
568.526	432.38
568.737	420.38
568.949	388.38
569.161	360.38
569.372	328.38
569.584	345.38
569.795	351.38
570.007	319.38
570.218	340.38
570.43	332.38
570.641	323.38
570.853	319.38
571.064	333.38
571.276	305.38
571.487	306.38
571.698	297.38
571.91	286.38
572.121	279.38
572.333	306.38
572.544	282.38
572.755	277.38
572.966	276.38
573.178	280.38
573.389	274.38
573.6	274.38
573.811	265.38
574.023	268.38
574.234	296.38
574.445	265.38
574.656	269.38
574.867	271.38
575.078	272.38
575.289	280.38
575.501	283.38
575.712	280.38
575.923	271.38
576.134	246.38
576.345	260.38
576.556	268.38
576.767	281.38
576.978	281.38
577.188	263.38
577.399	256.38
577.61	255.38
577.821	268.38
578.032	247.38
578.243	276.38
578.454	391.38
578.665	308.38
578.875	264.38
579.086	270.38
579.297	250.38
579.508	251.38
579.718	253.38
579.929	249.38
580.14	262.38
580.35	247.38
580.561	239.38
580.772	264.38
580.982	236.38
581.193	237.38
581.403	241.38
581.614	238.38
581.825	229.38
582.035	246.38
582.246	235.38
582.456	241.38
582.667	233.38
582.877	244.38
583.087	239.38
583.298	255.38
583.508	253.38
583.719	245.38
583.929	262.38
584.139	219.38
584.35	242.38
584.56	255.38
584.77	257.38
584.981	242.38
585.191	264.38
585.401	225.38
585.611	235.38
585.821	227.38
586.032	250.38
586.242	243.38
586.452	229.38
586.662	236.38
586.872	220.38
587.082	249.38
587.292	254.38
587.502	241.38
587.713	226.38
587.923	215.38
588.133	227.38
588.343	243.38
588.553	234.38
588.762	228.38
588.972	235.38
589.182	229.38
589.392	248.38
589.602	227.38
589.812	255.38
590.022	252.38
590.232	230.38
590.441	254.38
590.651	256.38
590.861	243.38
591.071	244.38
591.281	246.38
591.49	241.38
591.7	271.38
591.91	271.38
592.119	242.38
592.329	256.38
592.539	252.38
592.748	266.38
592.958	282.38
593.167	276.38
593.377	284.38
593.587	272.38
593.796	268.38
594.006	283.38
594.215	279.38
594.424	295.38
594.634	273.38
594.843	269.38
595.053	258.38
595.262	266.38
595.472	248.38
595.681	273.38
595.89	226.38
596.1	237.38
596.309	251.38
596.518	228.38
596.727	236.38
596.937	243.38
597.146	241.38
597.355	241.38
597.564	230.38
597.774	230.38
597.983	223.38
598.192	207.38
598.401	207.38
598.61	228.38
598.819	209.38
599.028	214.38
599.237	225.38
599.446	232.38
599.655	220.38
599.864	218.38
600.073	222.38
600.282	233.38
600.491	204.38
600.7	202.38
600.909	215.38
601.118	212.38
601.327	209.38
601.536	217.38
601.745	226.38
601.953	204.38
602.162	215.38
602.371	215.38
602.58	217.38
602.789	217.38
602.997	210.38
603.206	197.38
603.415	222.38
603.623	214.38
603.832	204.38
604.041	209.38
604.249	202.38
604.458	217.38
604.666	206.38
604.875	204.38
605.084	199.38
605.292	222.38
605.501	202.38
605.709	205.38
605.918	203.38
606.126	203.38
606.334	195.38
606.543	198.38
606.751	209.38
606.96	211.38
607.168	212.38
607.376	202.38
607.585	210.38
607.793	192.38
608.001	203.38
608.21	214.38
608.418	198.38
608.626	208.38
608.834	199.38
609.043	204.38
609.251	211.38
609.459	200.38
609.667	202.38
609.875	207.38
610.083	208.38
610.291	192.38
610.499	204.38
610.707	204.38
610.916	196.38
611.124	200.38
611.332	210.38
611.54	218.38
611.748	204.38
611.955	219.38
612.163	200.38
612.371	199.38
612.579	214.38
612.787	204.38
612.995	213.38
613.203	210.38
613.411	195.38
613.618	187.38
613.826	195.38
614.034	194.38
614.242	203.38
614.449	195.38
614.657	219.38
614.865	201.38
615.072	196.38
615.28	193.38
615.488	203.38
615.695	196.38
615.903	199.38
616.111	217.38
616.318	208.38
616.526	198.38
616.733	216.38
616.941	207.38
617.148	202.38
617.356	203.38
617.563	190.38
617.771	194.38
617.978	202.38
618.185	179.38
618.393	206.38
618.6	207.38
618.807	208.38
619.015	195.38
619.222	199.38
619.429	179.38
619.637	190.38
619.844	195.38
620.051	203.38
620.258	170.38
620.466	193.38
620.673	186.38
620.88	185.38
621.087	181.38
621.294	180.38
621.501	193.38
621.708	186.38
621.915	190.38
622.122	194.38
622.329	186.38
622.536	187.38
622.743	167.38
622.95	190.38
623.157	177.38
623.364	184.38
623.571	195.38
623.778	190.38
623.985	179.38
624.192	182.38
624.399	170.38
624.606	182.38
624.812	192.38
625.019	186.38
625.226	181.38
625.433	179.38
625.639	176.38
625.846	179.38
626.053	179.38
626.259	195.38
626.466	167.38
626.673	189.38
626.879	203.38
627.086	181.38
627.293	184.38
627.499	180.38
627.706	170.38
627.912	192.38
628.119	187.38
628.325	179.38
628.532	179.38
628.738	180.38
628.945	170.38
629.151	182.38
629.357	178.38
629.564	171.38
629.77	176.38
629.976	168.38
630.183	170.38
630.389	175.38
630.595	176.38
630.802	168.38
631.008	161.38
631.214	160.38
631.42	182.38
631.627	175.38
631.833	173.38
632.039	165.38
632.245	164.38
632.451	151.38
632.657	160.38
632.863	162.38
633.069	167.38
633.275	171.38
633.481	177.38
633.688	155.38
633.893	164.38
634.099	165.38
634.305	172.38
634.511	162.38
634.717	148.38
634.923	154.38
635.129	148.38
635.335	146.38
635.541	140.38
635.747	152.38
635.952	154.38
636.158	169.38
636.364	145.38
636.57	174.38
636.775	161.38
636.981	152.38
637.187	163.38
637.392	159.38
637.598	163.38
637.804	130.38
638.009	155.38
638.215	187.38
638.421	143.38
638.626	160.38
638.832	160.38
639.037	162.38
639.243	165.38
639.448	145.38
639.654	156.38
639.859	160.38
640.065	162.38
640.27	149.38
640.475	135.38
640.681	148.38
640.886	159.38
641.091	146.38
641.297	154.38
641.502	145.38
641.707	148.38
641.913	149.38
642.118	148.38
642.323	160.38
642.528	155.38
642.733	147.38
642.939	148.38
643.144	149.38
643.349	164.38
643.554	158.38
643.759	140.38
643.964	155.38
644.169	149.38
644.374	127.38
644.579	144.38
644.784	155.38
644.989	147.38
645.194	138.38
645.399	139.38
645.604	154.38
645.809	142.38
646.014	138.38
646.219	147.38
646.423	146.38
646.628	155.38
646.833	144.38
647.038	150.38
647.243	139.38
647.447	149.38
647.652	146.38
647.857	139.38
648.062	137.38
648.266	157.38
648.471	156.38
648.676	158.38
648.88	163.38
649.085	140.38
649.289	154.38
649.494	147.38
649.698	167.38
649.903	162.38
650.107	152.38
650.312	159.38
650.516	141.38
650.721	136.38
650.925	134.38
651.13	133.38
651.334	123.38
651.539	127.38
651.743	137.38
651.947	128.38
652.152	132.38
652.356	128.38
652.56	136.38
652.764	127.38
652.969	133.38
653.173	130.38
653.377	132.38
653.581	131.38
653.785	130.38
653.99	127.38
654.194	125.38
654.398	119.38
654.602	120.38
654.806	125.38
655.01	134.38
655.214	135.38
655.418	126.38
655.622	122.38
655.826	135.38
656.03	130.38
656.234	126.38
656.438	128.38
656.642	127.38
656.846	137.38
657.049	130.38
657.253	127.38
657.457	122.38
657.661	126.38
657.865	111.38
658.068	110.38
658.272	94.38
658.476	93.38
658.68	102.38
658.883	99.38
659.087	96.38
659.291	102.38
659.494	105.38
659.698	101.38
659.901	74.38
660.105	115.38
660.309	98.38
660.512	98.38
660.716	85.38
660.919	96.38
661.123	83.38
661.326	76.38
661.53	88.38
661.733	87.38
661.936	99.38
662.14	90.38
662.343	85.38
662.546	78.38
662.75	79.38
662.953	75.38
663.156	85.38
663.36	79.38
663.563	70.38
663.766	95.38
663.969	81.38
664.173	70.38
664.376	66.38
664.579	65.38
664.782	88.38
664.985	90.38
665.188	81.38
665.391	85.38
665.594	95.38
665.797	81.38
666	84.38
666.203	79.38
666.406	82.38
666.609	83.38
666.812	76.38
667.015	69.38
667.218	85.38
667.421	86.38
667.624	71.38
667.827	76.38
668.03	89.38
668.232	76.38
668.435	94.38
668.638	72.38
668.841	69.38
669.043	86.38
669.246	75.38
669.449	70.38
669.651	80.38
669.854	72.38
670.057	82.38
670.259	79.38
670.462	90.38
670.665	94.38
670.867	74.38
671.07	86.38
671.272	82.38
671.475	67.38
671.677	73.38
671.88	74.38
672.082	79.38
672.284	74.38
672.487	91.38
672.689	81.38
672.892	72.38
