Data from 1969.PennyLincolnUp.Lamp.En5.5.200Scan.071719.P1._HRD10591_14-55-42-972.txt Node
Date: Thu Jul 18 14:55:42 EDT 2019
User: cochatt
Spectrometer: HR+D1059
Trigger mode: 1
Integration Time (sec): 1.000000E-1
Scans to average: 1
Electric dark correction enabled: true
Nonlinearity correction enabled: false
Boxcar width: 0
XAxis mode: Wavelengths
Number of Pixels in Spectrum: 2048
>>>>>Begin Spectral Data<<<<<
223.165	-5.62
223.4	-5.62
223.635	-5.62
223.869	-23.62
224.104	-25.62
224.338	-3.62
224.573	-14.62
224.808	-12.62
225.042	-8.62
225.277	-5.62
225.511	8.38
225.746	-1.62
225.98	9.38
226.215	6.38
226.449	26.38
226.683	13.38
226.918	13.38
227.152	24.38
227.387	37.38
227.621	33.38
227.856	46.38
228.09	32.38
228.324	49.38
228.559	54.38
228.793	67.38
229.027	76.38
229.262	82.38
229.496	104.38
229.73	113.38
229.964	113.38
230.199	107.38
230.433	98.38
230.667	98.38
230.901	91.38
231.136	112.38
231.37	98.38
231.604	89.38
231.838	98.38
232.072	98.38
232.306	111.38
232.541	107.38
232.775	104.38
233.009	86.38
233.243	107.38
233.477	103.38
233.711	120.38
233.945	106.38
234.179	96.38
234.413	117.38
234.647	105.38
234.881	100.38
235.115	102.38
235.349	112.38
235.583	115.38
235.817	100.38
236.051	114.38
236.285	112.38
236.519	119.38
236.753	96.38
236.987	120.38
237.221	147.38
237.455	161.38
237.689	148.38
237.922	119.38
238.156	131.38
238.39	116.38
238.624	97.38
238.858	111.38
239.091	105.38
239.325	102.38
239.559	115.38
239.793	119.38
240.027	115.38
240.26	131.38
240.494	116.38
240.728	122.38
240.961	136.38
241.195	120.38
241.429	123.38
241.662	121.38
241.896	101.38
242.13	134.38
242.363	110.38
242.597	127.38
242.83	126.38
243.064	125.38
243.298	120.38
243.531	126.38
243.765	116.38
243.998	124.38
244.232	112.38
244.465	117.38
244.699	128.38
244.932	130.38
245.166	131.38
245.399	139.38
245.633	129.38
245.866	122.38
246.099	132.38
246.333	137.38
246.566	141.38
246.8	115.38
247.033	122.38
247.266	144.38
247.5	153.38
247.733	139.38
247.966	148.38
248.2	154.38
248.433	149.38
248.666	158.38
248.899	157.38
249.133	169.38
249.366	170.38
249.599	181.38
249.832	165.38
250.066	170.38
250.299	147.38
250.532	185.38
250.765	183.38
250.998	177.38
251.231	188.38
251.465	173.38
251.698	156.38
251.931	145.38
252.164	164.38
252.397	156.38
252.63	175.38
252.863	185.38
253.096	184.38
253.329	190.38
253.562	170.38
253.795	194.38
254.028	196.38
254.261	187.38
254.494	191.38
254.727	208.38
254.96	224.38
255.193	219.38
255.426	200.38
255.659	167.38
255.892	187.38
256.124	189.38
256.357	195.38
256.59	191.38
256.823	181.38
257.056	188.38
257.289	191.38
257.521	168.38
257.754	160.38
257.987	180.38
258.22	171.38
258.452	161.38
258.685	176.38
258.918	183.38
259.151	179.38
259.383	184.38
259.616	200.38
259.849	178.38
260.081	205.38
260.314	224.38
260.547	213.38
260.779	199.38
261.012	195.38
261.244	192.38
261.477	211.38
261.71	185.38
261.942	186.38
262.175	179.38
262.407	197.38
262.64	179.38
262.872	177.38
263.105	181.38
263.337	167.38
263.57	195.38
263.802	183.38
264.035	199.38
264.267	184.38
264.499	188.38
264.732	176.38
264.964	172.38
265.197	189.38
265.429	186.38
265.661	191.38
265.894	181.38
266.126	173.38
266.358	180.38
266.591	204.38
266.823	198.38
267.055	202.38
267.287	194.38
267.52	196.38
267.752	189.38
267.984	207.38
268.216	202.38
268.448	208.38
268.681	212.38
268.913	203.38
269.145	224.38
269.377	215.38
269.609	221.38
269.841	225.38
270.073	244.38
270.306	255.38
270.538	256.38
270.77	257.38
271.002	246.38
271.234	232.38
271.466	236.38
271.698	259.38
271.93	255.38
272.162	263.38
272.394	265.38
272.626	245.38
272.858	236.38
273.09	232.38
273.322	228.38
273.553	224.38
273.785	215.38
274.017	228.38
274.249	227.38
274.481	223.38
274.713	244.38
274.945	235.38
275.176	231.38
275.408	213.38
275.64	237.38
275.872	204.38
276.104	227.38
276.335	218.38
276.567	233.38
276.799	253.38
277.031	240.38
277.262	269.38
277.494	263.38
277.726	263.38
277.957	223.38
278.189	215.38
278.421	227.38
278.652	224.38
278.884	221.38
279.115	242.38
279.347	232.38
279.579	238.38
279.81	220.38
280.042	226.38
280.273	228.38
280.505	223.38
280.736	242.38
280.968	216.38
281.199	233.38
281.431	227.38
281.662	249.38
281.894	220.38
282.125	253.38
282.356	249.38
282.588	264.38
282.819	265.38
283.051	247.38
283.282	240.38
283.513	241.38
283.745	248.38
283.976	237.38
284.207	251.38
284.439	249.38
284.67	273.38
284.901	237.38
285.132	241.38
285.364	238.38
285.595	249.38
285.826	239.38
286.057	241.38
286.288	230.38
286.52	233.38
286.751	246.38
286.982	274.38
287.213	234.38
287.444	259.38
287.675	260.38
287.906	269.38
288.138	263.38
288.369	281.38
288.6	266.38
288.831	237.38
289.062	265.38
289.293	256.38
289.524	256.38
289.755	261.38
289.986	264.38
290.217	252.38
290.448	260.38
290.679	261.38
290.91	264.38
291.141	261.38
291.371	267.38
291.602	236.38
291.833	250.38
292.064	256.38
292.295	263.38
292.526	267.38
292.757	249.38
292.987	256.38
293.218	263.38
293.449	266.38
293.68	273.38
293.91	266.38
294.141	257.38
294.372	261.38
294.603	266.38
294.833	249.38
295.064	259.38
295.295	266.38
295.525	272.38
295.756	261.38
295.987	263.38
296.217	290.38
296.448	286.38
296.679	281.38
296.909	249.38
297.14	267.38
297.37	272.38
297.601	280.38
297.831	285.38
298.062	267.38
298.292	268.38
298.523	263.38
298.753	278.38
298.984	282.38
299.214	275.38
299.445	280.38
299.675	275.38
299.905	283.38
300.136	287.38
300.366	294.38
300.597	290.38
300.827	280.38
301.057	287.38
301.288	300.38
301.518	292.38
301.748	292.38
301.979	298.38
302.209	281.38
302.439	283.38
302.669	291.38
302.9	308.38
303.13	290.38
303.36	308.38
303.59	314.38
303.82	285.38
304.051	313.38
304.281	300.38
304.511	288.38
304.741	285.38
304.971	287.38
305.201	293.38
305.431	306.38
305.661	288.38
305.891	274.38
306.121	297.38
306.352	307.38
306.582	293.38
306.812	297.38
307.042	290.38
307.272	292.38
307.502	308.38
307.731	299.38
307.961	288.38
308.191	285.38
308.421	275.38
308.651	292.38
308.881	305.38
309.111	276.38
309.341	303.38
309.571	303.38
309.8	307.38
310.03	321.38
310.26	316.38
310.49	314.38
310.72	324.38
310.949	321.38
311.179	318.38
311.409	312.38
311.639	316.38
311.868	317.38
312.098	304.38
312.328	331.38
312.557	325.38
312.787	334.38
313.017	341.38
313.246	323.38
313.476	332.38
313.706	319.38
313.935	327.38
314.165	340.38
314.394	333.38
314.624	331.38
314.853	352.38
315.083	339.38
315.312	312.38
315.542	320.38
315.771	324.38
316.001	341.38
316.23	326.38
316.46	321.38
316.689	332.38
316.919	335.38
317.148	328.38
317.377	331.38
317.607	342.38
317.836	338.38
318.065	332.38
318.295	329.38
318.524	316.38
318.753	300.38
318.983	324.38
319.212	328.38
319.441	315.38
319.67	312.38
319.9	331.38
320.129	325.38
320.358	344.38
320.587	323.38
320.816	338.38
321.046	342.38
321.275	333.38
321.504	332.38
321.733	328.38
321.962	332.38
322.191	334.38
322.42	335.38
322.649	361.38
322.878	348.38
323.108	361.38
323.337	354.38
323.566	384.38
323.795	392.38
324.024	404.38
324.253	486.38
324.482	620.38
324.71	879.38
324.939	1172.38
325.168	1018.38
325.397	557.38
325.626	439.38
325.855	393.38
326.084	376.38
326.313	383.38
326.542	383.38
326.77	396.38
326.999	483.38
327.228	594.38
327.457	791.38
327.686	926.38
327.914	631.38
328.143	476.38
328.372	447.38
328.6	432.38
328.829	401.38
329.058	417.38
329.287	408.38
329.515	388.38
329.744	403.38
329.972	411.38
330.201	412.38
330.43	433.38
330.658	455.38
330.887	449.38
331.115	439.38
331.344	391.38
331.572	385.38
331.801	416.38
332.03	388.38
332.258	383.38
332.486	381.38
332.715	397.38
332.943	388.38
333.172	395.38
333.4	409.38
333.629	439.38
333.857	445.38
334.085	455.38
334.314	451.38
334.542	457.38
334.771	465.38
334.999	433.38
335.227	414.38
335.455	419.38
335.684	381.38
335.912	383.38
336.14	398.38
336.369	385.38
336.597	403.38
336.825	393.38
337.053	372.38
337.281	375.38
337.51	367.38
337.738	377.38
337.966	378.38
338.194	383.38
338.422	369.38
338.65	378.38
338.878	381.38
339.106	372.38
339.334	376.38
339.562	369.38
339.79	379.38
340.018	374.38
340.246	365.38
340.474	364.38
340.702	358.38
340.93	349.38
341.158	365.38
341.386	373.38
341.614	375.38
341.842	356.38
342.07	377.38
342.298	356.38
342.526	377.38
342.754	357.38
342.981	358.38
343.209	351.38
343.437	352.38
343.665	384.38
343.893	385.38
344.12	389.38
344.348	393.38
344.576	388.38
344.804	389.38
345.031	352.38
345.259	367.38
345.487	348.38
345.714	357.38
345.942	346.38
346.17	351.38
346.397	359.38
346.625	346.38
346.853	339.38
347.08	323.38
347.308	338.38
347.535	352.38
347.763	361.38
347.99	348.38
348.218	346.38
348.445	372.38
348.673	359.38
348.9	349.38
349.128	337.38
349.355	319.38
349.583	340.38
349.81	357.38
350.037	343.38
350.265	354.38
350.492	340.38
350.72	341.38
350.947	358.38
351.174	355.38
351.402	359.38
351.629	358.38
351.856	324.38
352.083	352.38
352.311	357.38
352.538	350.38
352.765	329.38
352.992	327.38
353.22	327.38
353.447	334.38
353.674	353.38
353.901	323.38
354.128	326.38
354.355	352.38
354.583	312.38
354.81	330.38
355.037	327.38
355.264	315.38
355.491	310.38
355.718	325.38
355.945	327.38
356.172	323.38
356.399	328.38
356.626	341.38
356.853	333.38
357.08	335.38
357.307	339.38
357.534	320.38
357.761	322.38
357.988	325.38
358.215	329.38
358.441	324.38
358.668	324.38
358.895	332.38
359.122	342.38
359.349	346.38
359.576	354.38
359.802	347.38
360.029	356.38
360.256	379.38
360.483	359.38
360.709	332.38
360.936	350.38
361.163	347.38
361.39	352.38
361.616	351.38
361.843	333.38
362.07	328.38
362.296	343.38
362.523	325.38
362.749	326.38
362.976	307.38
363.203	331.38
363.429	348.38
363.656	351.38
363.882	336.38
364.109	329.38
364.335	329.38
364.562	336.38
364.788	337.38
365.015	332.38
365.241	351.38
365.468	334.38
365.694	353.38
365.92	330.38
366.147	339.38
366.373	322.38
366.599	324.38
366.826	313.38
367.052	325.38
367.278	333.38
367.505	337.38
367.731	347.38
367.957	329.38
368.184	325.38
368.41	338.38
368.636	339.38
368.862	342.38
369.089	345.38
369.315	328.38
369.541	320.38
369.767	336.38
369.993	317.38
370.219	331.38
370.445	345.38
370.672	339.38
370.898	313.38
371.124	326.38
371.35	346.38
371.576	337.38
371.802	353.38
372.028	363.38
372.254	357.38
372.48	355.38
372.706	347.38
372.932	360.38
373.158	349.38
373.384	324.38
373.61	337.38
373.835	331.38
374.061	335.38
374.287	336.38
374.513	339.38
374.739	348.38
374.965	351.38
375.191	354.38
375.416	360.38
375.642	340.38
375.868	340.38
376.094	340.38
376.319	337.38
376.545	337.38
376.771	332.38
376.997	311.38
377.222	329.38
377.448	339.38
377.674	343.38
377.899	320.38
378.125	331.38
378.35	351.38
378.576	351.38
378.802	337.38
379.027	333.38
379.253	326.38
379.478	330.38
379.704	335.38
379.929	365.38
380.155	360.38
380.38	347.38
380.606	321.38
380.831	326.38
381.057	343.38
381.282	359.38
381.507	347.38
381.733	372.38
381.958	352.38
382.184	340.38
382.409	344.38
382.634	355.38
382.86	346.38
383.085	349.38
383.31	365.38
383.535	369.38
383.761	354.38
383.986	349.38
384.211	364.38
384.436	373.38
384.662	375.38
384.887	367.38
385.112	369.38
385.337	391.38
385.562	362.38
385.787	363.38
386.013	377.38
386.238	389.38
386.463	380.38
386.688	372.38
386.913	380.38
387.138	388.38
387.363	382.38
387.588	369.38
387.813	389.38
388.038	377.38
388.263	385.38
388.488	370.38
388.713	377.38
388.938	375.38
389.163	385.38
389.387	392.38
389.612	347.38
389.837	364.38
390.062	355.38
390.287	372.38
390.512	366.38
390.736	380.38
390.961	378.38
391.186	384.38
391.411	378.38
391.636	391.38
391.86	390.38
392.085	385.38
392.31	407.38
392.534	387.38
392.759	396.38
392.984	403.38
393.208	379.38
393.433	360.38
393.658	379.38
393.882	367.38
394.107	383.38
394.331	392.38
394.556	379.38
394.78	381.38
395.005	387.38
395.229	376.38
395.454	403.38
395.678	390.38
395.903	393.38
396.127	377.38
396.352	411.38
396.576	400.38
396.801	392.38
397.025	368.38
397.249	391.38
397.474	411.38
397.698	416.38
397.922	413.38
398.147	423.38
398.371	423.38
398.595	455.38
398.82	457.38
399.044	459.38
399.268	497.38
399.492	531.38
399.717	567.38
399.941	565.38
400.165	569.38
400.389	534.38
400.613	479.38
400.837	467.38
401.062	450.38
401.286	445.38
401.51	459.38
401.734	451.38
401.958	445.38
402.182	442.38
402.406	444.38
402.63	449.38
402.854	461.38
403.078	468.38
403.302	461.38
403.526	467.38
403.75	460.38
403.974	482.38
404.198	482.38
404.422	487.38
404.645	472.38
404.869	480.38
405.093	490.38
405.317	533.38
405.541	531.38
405.765	491.38
405.988	505.38
406.212	472.38
406.436	507.38
406.66	513.38
406.883	481.38
407.107	524.38
407.331	551.38
407.555	579.38
407.778	591.38
408.002	518.38
408.226	513.38
408.449	506.38
408.673	488.38
408.896	498.38
409.12	529.38
409.344	502.38
409.567	476.38
409.791	476.38
410.014	443.38
410.238	451.38
410.461	456.38
410.685	459.38
410.908	466.38
411.132	487.38
411.355	499.38
411.578	472.38
411.802	467.38
412.025	450.38
412.249	472.38
412.472	460.38
412.695	461.38
412.919	497.38
413.142	464.38
413.365	460.38
413.589	455.38
413.812	435.38
414.035	432.38
414.258	415.38
414.482	428.38
414.705	421.38
414.928	431.38
415.151	422.38
415.374	428.38
415.597	438.38
415.821	423.38
416.044	443.38
416.267	446.38
416.49	424.38
416.713	431.38
416.936	434.38
417.159	423.38
417.382	428.38
417.605	429.38
417.828	453.38
418.051	454.38
418.274	454.38
418.497	436.38
418.72	452.38
418.943	433.38
419.166	458.38
419.389	468.38
419.611	458.38
419.834	472.38
420.057	459.38
420.28	465.38
420.503	453.38
420.726	453.38
420.948	444.38
421.171	450.38
421.394	476.38
421.617	451.38
421.839	447.38
422.062	434.38
422.285	456.38
422.507	484.38
422.73	509.38
422.953	500.38
423.175	473.38
423.398	477.38
423.621	481.38
423.843	486.38
424.066	470.38
424.288	483.38
424.511	483.38
424.733	503.38
424.956	545.38
425.178	543.38
425.401	527.38
425.623	509.38
425.846	477.38
426.068	441.38
426.291	469.38
426.513	438.38
426.735	460.38
426.958	484.38
427.18	526.38
427.402	574.38
427.625	616.38
427.847	562.38
428.069	478.38
428.292	453.38
428.514	437.38
428.736	434.38
428.958	428.38
429.181	428.38
429.403	423.38
429.625	442.38
429.847	453.38
430.069	467.38
430.292	466.38
430.514	426.38
430.736	425.38
430.958	415.38
431.18	401.38
431.402	414.38
431.624	388.38
431.846	393.38
432.068	412.38
432.29	383.38
432.512	407.38
432.734	416.38
432.956	415.38
433.178	416.38
433.4	421.38
433.622	414.38
433.844	420.38
434.066	400.38
434.287	414.38
434.509	398.38
434.731	425.38
434.953	450.38
435.175	460.38
435.397	463.38
435.618	454.38
435.84	462.38
436.062	490.38
436.284	534.38
436.505	491.38
436.727	425.38
436.949	442.38
437.17	420.38
437.392	425.38
437.614	437.38
437.835	426.38
438.057	515.38
438.278	545.38
438.5	556.38
438.721	575.38
438.943	556.38
439.165	475.38
439.386	456.38
439.608	425.38
439.829	449.38
440.05	458.38
440.272	466.38
440.493	451.38
440.715	455.38
440.936	444.38
441.158	436.38
441.379	442.38
441.6	445.38
441.822	458.38
442.043	489.38
442.264	512.38
442.486	547.38
442.707	487.38
442.928	474.38
443.149	478.38
443.371	480.38
443.592	524.38
443.813	557.38
444.034	576.38
444.255	557.38
444.476	490.38
444.698	488.38
444.919	492.38
445.14	619.38
445.361	544.38
445.582	496.38
445.803	516.38
446.024	571.38
446.245	567.38
446.466	500.38
446.687	464.38
446.908	445.38
447.129	411.38
447.35	425.38
447.571	426.38
447.792	403.38
448.013	396.38
448.234	426.38
448.455	450.38
448.675	511.38
448.896	580.38
449.117	499.38
449.338	484.38
449.559	523.38
449.779	612.38
450	485.38
450.221	419.38
450.442	420.38
450.662	404.38
450.883	422.38
451.104	393.38
451.324	385.38
451.545	389.38
451.766	370.38
451.986	387.38
452.207	381.38
452.428	386.38
452.648	390.38
452.869	389.38
453.089	390.38
453.31	375.38
453.53	385.38
453.751	383.38
453.971	352.38
454.192	395.38
454.412	382.38
454.633	368.38
454.853	364.38
455.073	383.38
455.294	389.38
455.514	438.38
455.734	405.38
455.955	372.38
456.175	373.38
456.395	364.38
456.616	354.38
456.836	371.38
457.056	349.38
457.276	371.38
457.497	371.38
457.717	369.38
457.937	358.38
458.157	364.38
458.377	375.38
458.598	375.38
458.818	438.38
459.038	469.38
459.258	468.38
459.478	425.38
459.698	402.38
459.918	418.38
460.138	422.38
460.358	431.38
460.578	431.38
460.798	433.38
461.018	436.38
461.238	436.38
461.458	446.38
461.678	425.38
461.898	441.38
462.118	433.38
462.338	448.38
462.558	463.38
462.777	474.38
462.997	498.38
463.217	507.38
463.437	495.38
463.657	485.38
463.876	460.38
464.096	470.38
464.316	465.38
464.536	467.38
464.755	454.38
464.975	444.38
465.195	473.38
465.414	492.38
465.634	441.38
465.854	441.38
466.073	435.38
466.293	407.38
466.512	382.38
466.732	399.38
466.951	397.38
467.171	391.38
467.391	407.38
467.61	401.38
467.829	400.38
468.049	392.38
468.268	381.38
468.488	379.38
468.707	389.38
468.927	374.38
469.146	377.38
469.365	390.38
469.585	365.38
469.804	390.38
470.023	385.38
470.243	391.38
470.462	405.38
470.681	407.38
470.901	397.38
471.12	423.38
471.339	402.38
471.558	400.38
471.777	412.38
471.997	407.38
472.216	393.38
472.435	402.38
472.654	401.38
472.873	402.38
473.092	390.38
473.311	392.38
473.53	387.38
473.749	405.38
473.968	414.38
474.187	465.38
474.406	490.38
474.625	427.38
474.844	398.38
475.063	373.38
475.282	395.38
475.501	375.38
475.72	418.38
475.939	397.38
476.158	405.38
476.377	389.38
476.596	389.38
476.814	417.38
477.033	412.38
477.252	410.38
477.471	412.38
477.69	405.38
477.908	428.38
478.127	417.38
478.346	428.38
478.564	439.38
478.783	458.38
479.002	464.38
479.22	436.38
479.439	444.38
479.658	479.38
479.876	456.38
480.095	465.38
480.313	501.38
480.532	476.38
480.751	491.38
480.969	508.38
481.188	520.38
481.406	530.38
481.624	498.38
481.843	460.38
482.061	437.38
482.28	436.38
482.498	444.38
482.717	456.38
482.935	455.38
483.153	436.38
483.372	416.38
483.59	453.38
483.808	432.38
484.027	458.38
484.245	436.38
484.463	459.38
484.681	450.38
484.9	440.38
485.118	441.38
485.336	490.38
485.554	467.38
485.772	450.38
485.99	453.38
486.209	472.38
486.427	451.38
486.645	471.38
486.863	481.38
487.081	509.38
487.299	459.38
487.517	473.38
487.735	478.38
487.953	494.38
488.171	503.38
488.389	482.38
488.607	474.38
488.825	474.38
489.043	491.38
489.261	464.38
489.479	486.38
489.696	479.38
489.914	476.38
490.132	499.38
490.35	483.38
490.568	502.38
490.786	525.38
491.003	521.38
491.221	536.38
491.439	532.38
491.657	539.38
491.874	541.38
492.092	562.38
492.31	552.38
492.527	554.38
492.745	562.38
492.963	567.38
493.18	596.38
493.398	584.38
493.615	562.38
493.833	560.38
494.05	570.38
494.268	540.38
494.485	566.38
494.703	578.38
494.92	546.38
495.138	558.38
495.355	561.38
495.573	573.38
495.79	547.38
496.008	579.38
496.225	564.38
496.442	581.38
496.66	571.38
496.877	569.38
497.094	579.38
497.312	579.38
497.529	564.38
497.746	599.38
497.963	597.38
498.181	625.38
498.398	617.38
498.615	660.38
498.832	699.38
499.049	704.38
499.267	723.38
499.484	769.38
499.701	826.38
499.918	872.38
500.135	918.38
500.352	1004.38
500.569	1031.38
500.786	1000.38
501.003	983.38
501.22	921.38
501.437	882.38
501.654	797.38
501.871	788.38
502.088	744.38
502.305	680.38
502.522	642.38
502.739	641.38
502.956	637.38
503.172	615.38
503.389	588.38
503.606	589.38
503.823	572.38
504.04	588.38
504.256	604.38
504.473	600.38
504.69	607.38
504.907	597.38
505.123	549.38
505.34	561.38
505.557	555.38
505.773	523.38
505.99	531.38
506.207	523.38
506.423	520.38
506.64	534.38
506.856	504.38
507.073	515.38
507.289	491.38
507.506	492.38
507.722	502.38
507.939	517.38
508.155	503.38
508.372	485.38
508.588	489.38
508.805	488.38
509.021	477.38
509.238	491.38
509.454	493.38
509.67	507.38
509.887	467.38
510.103	483.38
510.319	458.38
510.536	520.38
510.752	773.38
510.968	619.38
511.184	492.38
511.401	461.38
511.617	473.38
511.833	462.38
512.049	475.38
512.265	461.38
512.481	467.38
512.698	455.38
512.914	469.38
513.13	449.38
513.346	440.38
513.562	452.38
513.778	442.38
513.994	457.38
514.21	469.38
514.426	466.38
514.642	512.38
514.858	493.38
515.074	520.38
515.29	587.38
515.506	802.38
515.721	677.38
515.937	525.38
516.153	501.38
516.369	485.38
516.585	487.38
516.801	517.38
517.016	501.38
517.232	507.38
517.448	524.38
517.664	550.38
517.879	547.38
518.095	539.38
518.311	537.38
518.527	518.38
518.742	505.38
518.958	483.38
519.173	490.38
519.389	492.38
519.605	467.38
519.82	452.38
520.036	455.38
520.251	480.38
520.467	474.38
520.682	483.38
520.898	479.38
521.113	496.38
521.329	495.38
521.544	549.38
521.76	612.38
521.975	978.38
522.19	958.38
522.406	560.38
522.621	476.38
522.836	451.38
523.052	448.38
523.267	419.38
523.482	425.38
523.698	431.38
523.913	405.38
524.128	423.38
524.343	409.38
524.559	410.38
524.774	386.38
524.989	385.38
525.204	384.38
525.419	412.38
525.634	418.38
525.849	385.38
526.064	378.38
526.28	400.38
526.495	381.38
526.71	382.38
526.925	387.38
527.14	395.38
527.355	387.38
527.57	391.38
527.785	382.38
527.999	379.38
528.214	379.38
528.429	379.38
528.644	378.38
528.859	383.38
529.074	391.38
529.289	384.38
529.503	445.38
529.718	417.38
529.933	393.38
530.148	380.38
530.363	383.38
530.577	370.38
530.792	391.38
531.007	362.38
531.221	370.38
531.436	387.38
531.651	387.38
531.865	377.38
532.08	377.38
532.295	375.38
532.509	372.38
532.724	377.38
532.938	370.38
533.153	370.38
533.367	364.38
533.582	391.38
533.796	381.38
534.011	379.38
534.225	343.38
534.44	384.38
534.654	369.38
534.868	364.38
535.083	367.38
535.297	374.38
535.511	391.38
535.726	382.38
535.94	384.38
536.154	364.38
536.369	373.38
536.583	360.38
536.797	350.38
537.011	351.38
537.225	349.38
537.44	376.38
537.654	371.38
537.868	364.38
538.082	356.38
538.296	365.38
538.51	372.38
538.724	362.38
538.938	374.38
539.153	353.38
539.367	389.38
539.581	354.38
539.795	362.38
540.009	338.38
540.222	348.38
540.436	357.38
540.65	375.38
540.864	339.38
541.078	346.38
541.292	379.38
541.506	363.38
541.72	354.38
541.934	372.38
542.147	362.38
542.361	377.38
542.575	356.38
542.789	367.38
543.002	367.38
543.216	362.38
543.43	383.38
543.644	365.38
543.857	339.38
544.071	371.38
544.285	359.38
544.498	361.38
544.712	369.38
544.925	375.38
545.139	373.38
545.352	359.38
545.566	383.38
545.779	353.38
545.993	363.38
546.206	361.38
546.42	371.38
546.633	344.38
546.847	357.38
547.06	343.38
547.274	371.38
547.487	356.38
547.7	349.38
547.914	359.38
548.127	360.38
548.34	362.38
548.554	362.38
548.767	358.38
548.98	352.38
549.193	369.38
549.407	348.38
549.62	355.38
549.833	367.38
550.046	375.38
550.259	360.38
550.473	375.38
550.686	375.38
550.899	351.38
551.112	381.38
551.325	367.38
551.538	360.38
551.751	335.38
551.964	367.38
552.177	348.38
552.39	371.38
552.603	367.38
552.816	379.38
553.029	381.38
553.242	359.38
553.455	362.38
553.667	385.38
553.88	391.38
554.093	375.38
554.306	359.38
554.519	361.38
554.732	365.38
554.944	343.38
555.157	351.38
555.37	331.38
555.583	348.38
555.795	326.38
556.008	350.38
556.221	322.38
556.433	331.38
556.646	323.38
556.859	315.38
557.071	317.38
557.284	322.38
557.496	326.38
557.709	322.38
557.921	320.38
558.134	318.38
558.346	323.38
558.559	305.38
558.771	323.38
558.984	320.38
559.196	328.38
559.409	321.38
559.621	304.38
559.833	319.38
560.046	306.38
560.258	307.38
560.47	299.38
560.683	337.38
560.895	319.38
561.107	316.38
561.32	294.38
561.532	316.38
561.744	314.38
561.956	320.38
562.168	307.38
562.381	317.38
562.593	300.38
562.805	337.38
563.017	322.38
563.229	313.38
563.441	314.38
563.653	331.38
563.865	337.38
564.077	305.38
564.289	354.38
564.501	321.38
564.713	332.38
564.925	333.38
565.137	344.38
565.349	362.38
565.561	357.38
565.773	370.38
565.985	357.38
566.197	367.38
566.408	365.38
566.62	397.38
566.832	427.38
567.044	415.38
567.255	432.38
567.467	437.38
567.679	462.38
567.891	467.38
568.102	480.38
568.314	480.38
568.526	452.38
568.737	406.38
568.949	375.38
569.161	376.38
569.372	344.38
569.584	352.38
569.795	344.38
570.007	340.38
570.218	351.38
570.43	341.38
570.641	320.38
570.853	324.38
571.064	310.38
571.276	314.38
571.487	308.38
571.698	293.38
571.91	304.38
572.121	310.38
572.333	296.38
572.544	283.38
572.755	309.38
572.966	279.38
573.178	269.38
573.389	286.38
573.6	280.38
573.811	284.38
574.023	281.38
574.234	284.38
574.445	278.38
574.656	284.38
574.867	266.38
575.078	287.38
575.289	290.38
575.501	285.38
575.712	272.38
575.923	279.38
576.134	269.38
576.345	267.38
576.556	273.38
576.767	265.38
576.978	276.38
577.188	263.38
577.399	261.38
577.61	267.38
577.821	250.38
578.032	259.38
578.243	262.38
578.454	376.38
578.665	319.38
578.875	269.38
579.086	254.38
579.297	256.38
579.508	248.38
579.718	254.38
579.929	257.38
580.14	252.38
580.35	264.38
580.561	245.38
580.772	248.38
580.982	247.38
581.193	266.38
581.403	268.38
581.614	238.38
581.825	250.38
582.035	241.38
582.246	261.38
582.456	245.38
582.667	276.38
582.877	243.38
583.087	223.38
583.298	240.38
583.508	235.38
583.719	239.38
583.929	257.38
584.139	244.38
584.35	240.38
584.56	242.38
584.77	246.38
584.981	243.38
585.191	240.38
585.401	253.38
585.611	228.38
585.821	232.38
586.032	258.38
586.242	252.38
586.452	243.38
586.662	231.38
586.872	249.38
587.082	236.38
587.292	233.38
587.502	226.38
587.713	242.38
587.923	246.38
588.133	250.38
588.343	224.38
588.553	257.38
588.762	255.38
588.972	222.38
589.182	240.38
589.392	243.38
589.602	235.38
589.812	245.38
590.022	259.38
590.232	245.38
590.441	255.38
590.651	244.38
590.861	234.38
591.071	236.38
591.281	244.38
591.49	239.38
591.7	248.38
591.91	233.38
592.119	246.38
592.329	259.38
592.539	276.38
592.748	274.38
592.958	262.38
593.167	268.38
593.377	276.38
593.587	282.38
593.796	273.38
594.006	287.38
594.215	287.38
594.424	272.38
594.634	287.38
594.843	272.38
595.053	278.38
595.262	271.38
595.472	240.38
595.681	249.38
595.89	243.38
596.1	235.38
596.309	241.38
596.518	232.38
596.727	235.38
596.937	239.38
597.146	221.38
597.355	216.38
597.564	239.38
597.774	223.38
597.983	217.38
598.192	233.38
598.401	235.38
598.61	218.38
598.819	218.38
599.028	205.38
599.237	218.38
599.446	226.38
599.655	215.38
599.864	218.38
600.073	211.38
600.282	207.38
600.491	210.38
600.7	213.38
600.909	223.38
601.118	207.38
601.327	212.38
601.536	216.38
601.745	218.38
601.953	201.38
602.162	214.38
602.371	212.38
602.58	209.38
602.789	218.38
602.997	218.38
603.206	225.38
603.415	203.38
603.623	229.38
603.832	225.38
604.041	214.38
604.249	212.38
604.458	217.38
604.666	195.38
604.875	212.38
605.084	203.38
605.292	204.38
605.501	201.38
605.709	203.38
605.918	209.38
606.126	209.38
606.334	194.38
606.543	212.38
606.751	201.38
606.96	201.38
607.168	202.38
607.376	219.38
607.585	225.38
607.793	207.38
608.001	204.38
608.21	200.38
608.418	196.38
608.626	196.38
608.834	204.38
609.043	208.38
609.251	218.38
609.459	195.38
609.667	196.38
609.875	205.38
610.083	209.38
610.291	210.38
610.499	193.38
610.707	211.38
610.916	202.38
611.124	207.38
611.332	236.38
611.54	210.38
611.748	213.38
611.955	221.38
612.163	207.38
612.371	209.38
612.579	201.38
612.787	216.38
612.995	200.38
613.203	207.38
613.411	198.38
613.618	191.38
613.826	209.38
614.034	219.38
614.242	212.38
614.449	194.38
614.657	203.38
614.865	190.38
615.072	197.38
615.28	206.38
615.488	186.38
615.695	197.38
615.903	198.38
616.111	202.38
616.318	224.38
616.526	209.38
616.733	207.38
616.941	215.38
617.148	210.38
617.356	201.38
617.563	204.38
617.771	213.38
617.978	200.38
618.185	202.38
618.393	226.38
618.6	183.38
618.807	194.38
619.015	208.38
619.222	200.38
619.429	196.38
619.637	185.38
619.844	187.38
620.051	184.38
620.258	201.38
620.466	188.38
620.673	193.38
620.88	194.38
621.087	185.38
621.294	194.38
621.501	181.38
621.708	182.38
621.915	201.38
622.122	193.38
622.329	199.38
622.536	184.38
622.743	183.38
622.95	182.38
623.157	200.38
623.364	194.38
623.571	194.38
623.778	185.38
623.985	185.38
624.192	183.38
624.399	186.38
624.606	196.38
624.812	186.38
625.019	194.38
625.226	198.38
625.433	175.38
625.639	195.38
625.846	175.38
626.053	191.38
626.259	202.38
626.466	179.38
626.673	177.38
626.879	196.38
627.086	177.38
627.293	191.38
627.499	186.38
627.706	191.38
627.912	188.38
628.119	185.38
628.325	174.38
628.532	179.38
628.738	169.38
628.945	169.38
629.151	170.38
629.357	182.38
629.564	175.38
629.77	184.38
629.976	185.38
630.183	167.38
630.389	177.38
630.595	170.38
630.802	170.38
631.008	164.38
631.214	177.38
631.42	168.38
631.627	184.38
631.833	187.38
632.039	164.38
632.245	178.38
632.451	179.38
632.657	167.38
632.863	161.38
633.069	164.38
633.275	182.38
633.481	162.38
633.688	155.38
633.893	166.38
634.099	162.38
634.305	148.38
634.511	170.38
634.717	182.38
634.923	175.38
635.129	170.38
635.335	156.38
635.541	156.38
635.747	164.38
635.952	155.38
636.158	159.38
636.364	164.38
636.57	189.38
636.775	177.38
636.981	169.38
637.187	164.38
637.392	150.38
637.598	158.38
637.804	176.38
638.009	163.38
638.215	159.38
638.421	150.38
638.626	145.38
638.832	158.38
639.037	147.38
639.243	163.38
639.448	145.38
639.654	148.38
639.859	162.38
640.065	157.38
640.27	157.38
640.475	154.38
640.681	150.38
640.886	167.38
641.091	138.38
641.297	153.38
641.502	162.38
641.707	147.38
641.913	157.38
642.118	158.38
642.323	158.38
642.528	168.38
642.733	148.38
642.939	155.38
643.144	151.38
643.349	160.38
643.554	169.38
643.759	155.38
643.964	149.38
644.169	139.38
644.374	155.38
644.579	167.38
644.784	156.38
644.989	163.38
645.194	150.38
645.399	147.38
645.604	141.38
645.809	147.38
646.014	149.38
646.219	140.38
646.423	139.38
646.628	161.38
646.833	151.38
647.038	154.38
647.243	160.38
647.447	157.38
647.652	161.38
647.857	160.38
648.062	171.38
648.266	144.38
648.471	154.38
648.676	162.38
648.88	154.38
649.085	154.38
649.289	153.38
649.494	146.38
649.698	172.38
649.903	154.38
650.107	157.38
650.312	159.38
650.516	144.38
650.721	157.38
650.925	144.38
651.13	145.38
651.334	142.38
651.539	140.38
651.743	136.38
651.947	137.38
652.152	141.38
652.356	125.38
652.56	129.38
652.764	145.38
652.969	131.38
653.173	132.38
653.377	131.38
653.581	140.38
653.785	122.38
653.99	125.38
654.194	129.38
654.398	135.38
654.602	135.38
654.806	145.38
655.01	140.38
655.214	130.38
655.418	130.38
655.622	132.38
655.826	117.38
656.03	124.38
656.234	130.38
656.438	142.38
656.642	145.38
656.846	124.38
657.049	123.38
657.253	124.38
657.457	129.38
657.661	116.38
657.865	120.38
658.068	115.38
658.272	104.38
658.476	121.38
658.68	94.38
658.883	98.38
659.087	100.38
659.291	104.38
659.494	112.38
659.698	90.38
659.901	86.38
660.105	87.38
660.309	87.38
660.512	96.38
660.716	99.38
660.919	79.38
661.123	88.38
661.326	83.38
661.53	103.38
661.733	98.38
661.936	80.38
662.14	84.38
662.343	95.38
662.546	87.38
662.75	91.38
662.953	88.38
663.156	80.38
663.36	74.38
663.563	81.38
663.766	76.38
663.969	89.38
664.173	80.38
664.376	86.38
664.579	92.38
664.782	91.38
664.985	87.38
665.188	88.38
665.391	88.38
665.594	85.38
665.797	80.38
666	82.38
666.203	83.38
666.406	92.38
666.609	75.38
666.812	81.38
667.015	87.38
667.218	80.38
667.421	76.38
667.624	82.38
667.827	79.38
668.03	78.38
668.232	84.38
668.435	76.38
668.638	81.38
668.841	77.38
669.043	83.38
669.246	89.38
669.449	59.38
669.651	86.38
669.854	91.38
670.057	76.38
670.259	68.38
670.462	74.38
670.665	80.38
670.867	81.38
671.07	85.38
671.272	74.38
671.475	84.38
671.677	88.38
671.88	81.38
672.082	85.38
672.284	96.38
672.487	85.38
672.689	67.38
672.892	89.38
