Data from 1969.PennyLincolnUp.Lamp.En5.5.200Scan.071719.P1._HRD10591_14-56-16-973.txt Node
Date: Thu Jul 18 14:56:16 EDT 2019
User: cochatt
Spectrometer: HR+D1059
Trigger mode: 1
Integration Time (sec): 1.000000E-1
Scans to average: 1
Electric dark correction enabled: true
Nonlinearity correction enabled: false
Boxcar width: 0
XAxis mode: Wavelengths
Number of Pixels in Spectrum: 2048
>>>>>Begin Spectral Data<<<<<
223.165	-24.31
223.4	-24.31
223.635	-24.31
223.869	-25.31
224.104	-24.31
224.338	-9.31
224.573	-9.31
224.808	-16.31
225.042	2.69
225.277	-12.31
225.511	4.69
225.746	2.69
225.98	18.69
226.215	5.69
226.449	15.69
226.683	15.69
226.918	31.69
227.152	23.69
227.387	35.69
227.621	46.69
227.856	39.69
228.09	52.69
228.324	54.69
228.559	62.69
228.793	54.69
229.027	84.69
229.262	84.69
229.496	96.69
229.73	106.69
229.964	120.69
230.199	111.69
230.433	94.69
230.667	109.69
230.901	96.69
231.136	82.69
231.37	103.69
231.604	95.69
231.838	107.69
232.072	93.69
232.306	103.69
232.541	106.69
232.775	96.69
233.009	102.69
233.243	103.69
233.477	96.69
233.711	99.69
233.945	118.69
234.179	105.69
234.413	99.69
234.647	106.69
234.881	112.69
235.115	118.69
235.349	102.69
235.583	91.69
235.817	107.69
236.051	109.69
236.285	106.69
236.519	104.69
236.753	114.69
236.987	122.69
237.221	150.69
237.455	172.69
237.689	146.69
237.922	126.69
238.156	135.69
238.39	115.69
238.624	103.69
238.858	103.69
239.091	119.69
239.325	106.69
239.559	107.69
239.793	116.69
240.027	115.69
240.26	112.69
240.494	119.69
240.728	113.69
240.961	144.69
241.195	128.69
241.429	128.69
241.662	121.69
241.896	118.69
242.13	123.69
242.363	128.69
242.597	123.69
242.83	134.69
243.064	122.69
243.298	130.69
243.531	124.69
243.765	126.69
243.998	125.69
244.232	139.69
244.465	125.69
244.699	138.69
244.932	132.69
245.166	140.69
245.399	135.69
245.633	129.69
245.866	148.69
246.099	135.69
246.333	137.69
246.566	137.69
246.8	128.69
247.033	135.69
247.266	126.69
247.5	144.69
247.733	141.69
247.966	130.69
248.2	148.69
248.433	152.69
248.666	153.69
248.899	163.69
249.133	168.69
249.366	174.69
249.599	176.69
249.832	166.69
250.066	155.69
250.299	144.69
250.532	159.69
250.765	167.69
250.998	175.69
251.231	187.69
251.465	176.69
251.698	163.69
251.931	169.69
252.164	171.69
252.397	168.69
252.63	175.69
252.863	164.69
253.096	190.69
253.329	197.69
253.562	203.69
253.795	187.69
254.028	179.69
254.261	187.69
254.494	179.69
254.727	196.69
254.96	219.69
255.193	224.69
255.426	205.69
255.659	181.69
255.892	179.69
256.124	196.69
256.357	188.69
256.59	181.69
256.823	178.69
257.056	191.69
257.289	183.69
257.521	186.69
257.754	163.69
257.987	174.69
258.22	155.69
258.452	179.69
258.685	182.69
258.918	170.69
259.151	181.69
259.383	190.69
259.616	183.69
259.849	204.69
260.081	194.69
260.314	204.69
260.547	210.69
260.779	198.69
261.012	182.69
261.244	196.69
261.477	194.69
261.71	187.69
261.942	188.69
262.175	176.69
262.407	179.69
262.64	185.69
262.872	174.69
263.105	191.69
263.337	192.69
263.57	199.69
263.802	168.69
264.035	176.69
264.267	199.69
264.499	186.69
264.732	196.69
264.964	201.69
265.197	178.69
265.429	179.69
265.661	185.69
265.894	190.69
266.126	207.69
266.358	193.69
266.591	189.69
266.823	209.69
267.055	191.69
267.287	210.69
267.52	195.69
267.752	199.69
267.984	192.69
268.216	199.69
268.448	206.69
268.681	200.69
268.913	230.69
269.145	227.69
269.377	230.69
269.609	238.69
269.841	216.69
270.073	241.69
270.306	252.69
270.538	257.69
270.77	256.69
271.002	236.69
271.234	241.69
271.466	223.69
271.698	268.69
271.93	272.69
272.162	261.69
272.394	262.69
272.626	250.69
272.858	233.69
273.09	240.69
273.322	238.69
273.553	225.69
273.785	228.69
274.017	235.69
274.249	219.69
274.481	219.69
274.713	219.69
274.945	239.69
275.176	206.69
275.408	224.69
275.64	246.69
275.872	240.69
276.104	233.69
276.335	219.69
276.567	240.69
276.799	243.69
277.031	256.69
277.262	278.69
277.494	275.69
277.726	257.69
277.957	258.69
278.189	255.69
278.421	238.69
278.652	223.69
278.884	231.69
279.115	231.69
279.347	227.69
279.579	264.69
279.81	246.69
280.042	234.69
280.273	241.69
280.505	226.69
280.736	241.69
280.968	235.69
281.199	257.69
281.431	238.69
281.662	223.69
281.894	236.69
282.125	244.69
282.356	267.69
282.588	268.69
282.819	255.69
283.051	254.69
283.282	248.69
283.513	253.69
283.745	238.69
283.976	259.69
284.207	246.69
284.439	263.69
284.67	272.69
284.901	244.69
285.132	228.69
285.364	241.69
285.595	247.69
285.826	245.69
286.057	266.69
286.288	254.69
286.52	249.69
286.751	246.69
286.982	256.69
287.213	261.69
287.444	256.69
287.675	242.69
287.906	259.69
288.138	262.69
288.369	276.69
288.6	276.69
288.831	274.69
289.062	252.69
289.293	268.69
289.524	277.69
289.755	266.69
289.986	260.69
290.217	273.69
290.448	244.69
290.679	254.69
290.91	258.69
291.141	259.69
291.371	269.69
291.602	255.69
291.833	258.69
292.064	263.69
292.295	256.69
292.526	263.69
292.757	279.69
292.987	264.69
293.218	244.69
293.449	269.69
293.68	265.69
293.91	273.69
294.141	266.69
294.372	256.69
294.603	273.69
294.833	274.69
295.064	258.69
295.295	261.69
295.525	271.69
295.756	262.69
295.987	276.69
296.217	288.69
296.448	273.69
296.679	280.69
296.909	265.69
297.14	272.69
297.37	286.69
297.601	269.69
297.831	280.69
298.062	276.69
298.292	291.69
298.523	271.69
298.753	284.69
298.984	270.69
299.214	274.69
299.445	280.69
299.675	305.69
299.905	278.69
300.136	287.69
300.366	281.69
300.597	284.69
300.827	295.69
301.057	293.69
301.288	283.69
301.518	292.69
301.748	296.69
301.979	304.69
302.209	306.69
302.439	289.69
302.669	307.69
302.9	292.69
303.13	281.69
303.36	288.69
303.59	291.69
303.82	291.69
304.051	306.69
304.281	278.69
304.511	308.69
304.741	284.69
304.971	290.69
305.201	285.69
305.431	302.69
305.661	290.69
305.891	303.69
306.121	282.69
306.352	302.69
306.582	303.69
306.812	291.69
307.042	299.69
307.272	288.69
307.502	287.69
307.731	290.69
307.961	294.69
308.191	309.69
308.421	314.69
308.651	295.69
308.881	307.69
309.111	306.69
309.341	296.69
309.571	298.69
309.8	296.69
310.03	319.69
310.26	304.69
310.49	310.69
310.72	323.69
310.949	336.69
311.179	330.69
311.409	311.69
311.639	320.69
311.868	345.69
312.098	327.69
312.328	348.69
312.557	339.69
312.787	332.69
313.017	343.69
313.246	335.69
313.476	327.69
313.706	328.69
313.935	314.69
314.165	325.69
314.394	342.69
314.624	345.69
314.853	335.69
315.083	320.69
315.312	334.69
315.542	337.69
315.771	327.69
316.001	314.69
316.23	317.69
316.46	320.69
316.689	328.69
316.919	320.69
317.148	335.69
317.377	340.69
317.607	340.69
317.836	331.69
318.065	323.69
318.295	333.69
318.524	320.69
318.753	342.69
318.983	318.69
319.212	307.69
319.441	300.69
319.67	320.69
319.9	294.69
320.129	313.69
320.358	337.69
320.587	329.69
320.816	315.69
321.046	330.69
321.275	320.69
321.504	335.69
321.733	343.69
321.962	342.69
322.191	334.69
322.42	358.69
322.649	379.69
322.878	375.69
323.108	388.69
323.337	369.69
323.566	383.69
323.795	415.69
324.024	438.69
324.253	502.69
324.482	645.69
324.71	918.69
324.939	1226.69
325.168	1022.69
325.397	580.69
325.626	440.69
325.855	382.69
326.084	417.69
326.313	392.69
326.542	397.69
326.77	400.69
326.999	458.69
327.228	619.69
327.457	854.69
327.686	973.69
327.914	668.69
328.143	475.69
328.372	466.69
328.6	426.69
328.829	405.69
329.058	449.69
329.287	437.69
329.515	404.69
329.744	406.69
329.972	391.69
330.201	415.69
330.43	447.69
330.658	470.69
330.887	480.69
331.115	459.69
331.344	407.69
331.572	395.69
331.801	397.69
332.03	396.69
332.258	399.69
332.486	372.69
332.715	393.69
332.943	396.69
333.172	409.69
333.4	440.69
333.629	423.69
333.857	442.69
334.085	442.69
334.314	436.69
334.542	460.69
334.771	481.69
334.999	423.69
335.227	403.69
335.455	412.69
335.684	400.69
335.912	404.69
336.14	408.69
336.369	387.69
336.597	388.69
336.825	395.69
337.053	398.69
337.281	385.69
337.51	380.69
337.738	396.69
337.966	366.69
338.194	372.69
338.422	371.69
338.65	370.69
338.878	375.69
339.106	377.69
339.334	375.69
339.562	378.69
339.79	370.69
340.018	355.69
340.246	370.69
340.474	384.69
340.702	366.69
340.93	372.69
341.158	375.69
341.386	372.69
341.614	358.69
341.842	358.69
342.07	362.69
342.298	366.69
342.526	362.69
342.754	336.69
342.981	350.69
343.209	359.69
343.437	375.69
343.665	380.69
343.893	396.69
344.12	396.69
344.348	390.69
344.576	385.69
344.804	385.69
345.031	383.69
345.259	380.69
345.487	349.69
345.714	362.69
345.942	367.69
346.17	340.69
346.397	342.69
346.625	337.69
346.853	324.69
347.08	350.69
347.308	354.69
347.535	342.69
347.763	356.69
347.99	356.69
348.218	329.69
348.445	370.69
348.673	363.69
348.9	335.69
349.128	347.69
349.355	331.69
349.583	340.69
349.81	334.69
350.037	345.69
350.265	332.69
350.492	341.69
350.72	354.69
350.947	367.69
351.174	366.69
351.402	329.69
351.629	356.69
351.856	339.69
352.083	348.69
352.311	344.69
352.538	331.69
352.765	359.69
352.992	350.69
353.22	351.69
353.447	343.69
353.674	339.69
353.901	330.69
354.128	329.69
354.355	320.69
354.583	333.69
354.81	337.69
355.037	321.69
355.264	318.69
355.491	332.69
355.718	334.69
355.945	327.69
356.172	335.69
356.399	326.69
356.626	324.69
356.853	311.69
357.08	327.69
357.307	316.69
357.534	326.69
357.761	334.69
357.988	340.69
358.215	322.69
358.441	327.69
358.668	333.69
358.895	331.69
359.122	331.69
359.349	339.69
359.576	340.69
359.802	358.69
360.029	386.69
360.256	372.69
360.483	348.69
360.709	359.69
360.936	345.69
361.163	341.69
361.39	327.69
361.616	354.69
361.843	337.69
362.07	339.69
362.296	335.69
362.523	329.69
362.749	328.69
362.976	338.69
363.203	347.69
363.429	332.69
363.656	322.69
363.882	327.69
364.109	316.69
364.335	321.69
364.562	339.69
364.788	320.69
365.015	333.69
365.241	328.69
365.468	346.69
365.694	328.69
365.92	323.69
366.147	314.69
366.373	311.69
366.599	318.69
366.826	326.69
367.052	333.69
367.278	335.69
367.505	338.69
367.731	340.69
367.957	324.69
368.184	335.69
368.41	328.69
368.636	353.69
368.862	351.69
369.089	341.69
369.315	348.69
369.541	338.69
369.767	327.69
369.993	334.69
370.219	336.69
370.445	342.69
370.672	328.69
370.898	321.69
371.124	334.69
371.35	342.69
371.576	344.69
371.802	326.69
372.028	346.69
372.254	351.69
372.48	322.69
372.706	355.69
372.932	343.69
373.158	337.69
373.384	328.69
373.61	343.69
373.835	339.69
374.061	347.69
374.287	343.69
374.513	364.69
374.739	355.69
374.965	355.69
375.191	366.69
375.416	337.69
375.642	350.69
375.868	358.69
376.094	326.69
376.319	317.69
376.545	339.69
376.771	344.69
376.997	332.69
377.222	313.69
377.448	346.69
377.674	355.69
377.899	345.69
378.125	342.69
378.35	327.69
378.576	328.69
378.802	332.69
379.027	327.69
379.253	331.69
379.478	345.69
379.704	335.69
379.929	336.69
380.155	334.69
380.38	346.69
380.606	348.69
380.831	358.69
381.057	338.69
381.282	339.69
381.507	323.69
381.733	331.69
381.958	339.69
382.184	347.69
382.409	342.69
382.634	339.69
382.86	338.69
383.085	342.69
383.31	357.69
383.535	350.69
383.761	366.69
383.986	370.69
384.211	366.69
384.436	350.69
384.662	348.69
384.887	384.69
385.112	371.69
385.337	358.69
385.562	373.69
385.787	378.69
386.013	389.69
386.238	362.69
386.463	374.69
386.688	390.69
386.913	379.69
387.138	390.69
387.363	386.69
387.588	378.69
387.813	386.69
388.038	379.69
388.263	364.69
388.488	382.69
388.713	365.69
388.938	364.69
389.163	393.69
389.387	382.69
389.612	361.69
389.837	368.69
390.062	372.69
390.287	368.69
390.512	354.69
390.736	361.69
390.961	369.69
391.186	378.69
391.411	389.69
391.636	393.69
391.86	381.69
392.085	412.69
392.31	411.69
392.534	389.69
392.759	386.69
392.984	380.69
393.208	390.69
393.433	378.69
393.658	378.69
393.882	380.69
394.107	379.69
394.331	370.69
394.556	390.69
394.78	405.69
395.005	382.69
395.229	392.69
395.454	425.69
395.678	410.69
395.903	397.69
396.127	404.69
396.352	407.69
396.576	384.69
396.801	400.69
397.025	386.69
397.249	398.69
397.474	402.69
397.698	425.69
397.922	396.69
398.147	419.69
398.371	432.69
398.595	430.69
398.82	426.69
399.044	475.69
399.268	484.69
399.492	525.69
399.717	550.69
399.941	579.69
400.165	555.69
400.389	537.69
400.613	494.69
400.837	435.69
401.062	443.69
401.286	458.69
401.51	462.69
401.734	442.69
401.958	443.69
402.182	454.69
402.406	443.69
402.63	479.69
402.854	470.69
403.078	472.69
403.302	467.69
403.526	466.69
403.75	478.69
403.974	479.69
404.198	463.69
404.422	476.69
404.645	490.69
404.869	466.69
405.093	499.69
405.317	513.69
405.541	536.69
405.765	524.69
405.988	472.69
406.212	455.69
406.436	499.69
406.66	522.69
406.883	493.69
407.107	524.69
407.331	566.69
407.555	584.69
407.778	581.69
408.002	547.69
408.226	515.69
408.449	482.69
408.673	489.69
408.896	530.69
409.12	539.69
409.344	522.69
409.567	471.69
409.791	462.69
410.014	471.69
410.238	472.69
410.461	463.69
410.685	466.69
410.908	447.69
411.132	511.69
411.355	498.69
411.578	477.69
411.802	460.69
412.025	430.69
412.249	469.69
412.472	483.69
412.695	486.69
412.919	460.69
413.142	473.69
413.365	446.69
413.589	446.69
413.812	441.69
414.035	437.69
414.258	440.69
414.482	425.69
414.705	432.69
414.928	428.69
415.151	447.69
415.374	443.69
415.597	439.69
415.821	420.69
416.044	435.69
416.267	428.69
416.49	431.69
416.713	434.69
416.936	427.69
417.159	428.69
417.382	412.69
417.605	445.69
417.828	430.69
418.051	446.69
418.274	457.69
418.497	452.69
418.72	450.69
418.943	438.69
419.166	449.69
419.389	501.69
419.611	448.69
419.834	447.69
420.057	453.69
420.28	460.69
420.503	435.69
420.726	438.69
420.948	453.69
421.171	468.69
421.394	485.69
421.617	470.69
421.839	445.69
422.062	444.69
422.285	468.69
422.507	507.69
422.73	528.69
422.953	506.69
423.175	486.69
423.398	456.69
423.621	494.69
423.843	479.69
424.066	508.69
424.288	490.69
424.511	489.69
424.733	521.69
424.956	564.69
425.178	519.69
425.401	543.69
425.623	540.69
425.846	483.69
426.068	476.69
426.291	466.69
426.513	458.69
426.735	450.69
426.958	472.69
427.18	524.69
427.402	604.69
427.625	644.69
427.847	540.69
428.069	490.69
428.292	472.69
428.514	439.69
428.736	420.69
428.958	440.69
429.181	417.69
429.403	420.69
429.625	424.69
429.847	426.69
430.069	475.69
430.292	466.69
430.514	439.69
430.736	410.69
430.958	418.69
431.18	403.69
431.402	404.69
431.624	402.69
431.846	385.69
432.068	414.69
432.29	404.69
432.512	395.69
432.734	406.69
432.956	396.69
433.178	403.69
433.4	420.69
433.622	419.69
433.844	415.69
434.066	410.69
434.287	400.69
434.509	427.69
434.731	426.69
434.953	450.69
435.175	470.69
435.397	458.69
435.618	459.69
435.84	471.69
436.062	521.69
436.284	550.69
436.505	472.69
436.727	441.69
436.949	433.69
437.17	414.69
437.392	422.69
437.614	406.69
437.835	450.69
438.057	506.69
438.278	550.69
438.5	561.69
438.721	577.69
438.943	546.69
439.165	456.69
439.386	449.69
439.608	434.69
439.829	435.69
440.05	467.69
440.272	495.69
440.493	469.69
440.715	442.69
440.936	436.69
441.158	425.69
441.379	435.69
441.6	468.69
441.822	474.69
442.043	480.69
442.264	542.69
442.486	562.69
442.707	487.69
442.928	470.69
443.149	480.69
443.371	493.69
443.592	501.69
443.813	557.69
444.034	619.69
444.255	525.69
444.476	490.69
444.698	514.69
444.919	490.69
445.14	625.69
445.361	536.69
445.582	500.69
445.803	539.69
446.024	582.69
446.245	570.69
446.466	536.69
446.687	459.69
446.908	438.69
447.129	427.69
447.35	414.69
447.571	413.69
447.792	401.69
448.013	407.69
448.234	431.69
448.455	449.69
448.675	528.69
448.896	585.69
449.117	499.69
449.338	470.69
449.559	542.69
449.779	593.69
450	514.69
450.221	416.69
450.442	432.69
450.662	410.69
450.883	401.69
451.104	434.69
451.324	383.69
451.545	386.69
451.766	372.69
451.986	374.69
452.207	408.69
452.428	362.69
452.648	376.69
452.869	382.69
453.089	376.69
453.31	394.69
453.53	393.69
453.751	382.69
453.971	386.69
454.192	390.69
454.412	376.69
454.633	371.69
454.853	358.69
455.073	378.69
455.294	396.69
455.514	422.69
455.734	408.69
455.955	370.69
456.175	362.69
456.395	349.69
456.616	351.69
456.836	339.69
457.056	354.69
457.276	346.69
457.497	368.69
457.717	367.69
457.937	357.69
458.157	354.69
458.377	380.69
458.598	380.69
458.818	425.69
459.038	455.69
459.258	477.69
459.478	418.69
459.698	399.69
459.918	419.69
460.138	408.69
460.358	431.69
460.578	434.69
460.798	442.69
461.018	448.69
461.238	454.69
461.458	427.69
461.678	425.69
461.898	434.69
462.118	431.69
462.338	460.69
462.558	467.69
462.777	456.69
462.997	491.69
463.217	510.69
463.437	510.69
463.657	484.69
463.876	487.69
464.096	484.69
464.316	454.69
464.536	498.69
464.755	468.69
464.975	476.69
465.195	495.69
465.414	493.69
465.634	427.69
465.854	418.69
466.073	387.69
466.293	404.69
466.512	392.69
466.732	400.69
466.951	405.69
467.171	407.69
467.391	386.69
467.61	409.69
467.829	399.69
468.049	395.69
468.268	379.69
468.488	392.69
468.707	393.69
468.927	390.69
469.146	376.69
469.365	393.69
469.585	400.69
469.804	394.69
470.023	406.69
470.243	397.69
470.462	407.69
470.681	424.69
470.901	410.69
471.12	405.69
471.339	415.69
471.558	375.69
471.777	384.69
471.997	386.69
472.216	377.69
472.435	401.69
472.654	405.69
472.873	393.69
473.092	376.69
473.311	390.69
473.53	401.69
473.749	397.69
473.968	440.69
474.187	484.69
474.406	498.69
474.625	422.69
474.844	392.69
475.063	382.69
475.282	396.69
475.501	406.69
475.72	387.69
475.939	392.69
476.158	404.69
476.377	386.69
476.596	403.69
476.814	411.69
477.033	414.69
477.252	391.69
477.471	412.69
477.69	412.69
477.908	447.69
478.127	444.69
478.346	428.69
478.564	440.69
478.783	441.69
479.002	484.69
479.22	449.69
479.439	459.69
479.658	474.69
479.876	502.69
480.095	495.69
480.313	519.69
480.532	502.69
480.751	491.69
480.969	494.69
481.188	532.69
481.406	536.69
481.624	484.69
481.843	468.69
482.061	456.69
482.28	468.69
482.498	449.69
482.717	435.69
482.935	455.69
483.153	440.69
483.372	445.69
483.59	452.69
483.808	454.69
484.027	447.69
484.245	453.69
484.463	457.69
484.681	458.69
484.9	459.69
485.118	452.69
485.336	469.69
485.554	472.69
485.772	459.69
485.99	471.69
486.209	464.69
486.427	473.69
486.645	499.69
486.863	489.69
487.081	479.69
487.299	480.69
487.517	472.69
487.735	478.69
487.953	481.69
488.171	469.69
488.389	479.69
488.607	486.69
488.825	489.69
489.043	476.69
489.261	486.69
489.479	477.69
489.696	484.69
489.914	510.69
490.132	497.69
490.35	511.69
490.568	498.69
490.786	494.69
491.003	522.69
491.221	530.69
491.439	546.69
491.657	560.69
491.874	548.69
492.092	542.69
492.31	553.69
492.527	567.69
492.745	586.69
492.963	547.69
493.18	566.69
493.398	564.69
493.615	567.69
493.833	570.69
494.05	560.69
494.268	583.69
494.485	565.69
494.703	574.69
494.92	576.69
495.138	563.69
495.355	566.69
495.573	553.69
495.79	542.69
496.008	587.69
496.225	558.69
496.442	579.69
496.66	595.69
496.877	569.69
497.094	580.69
497.312	563.69
497.529	600.69
497.746	600.69
497.963	613.69
498.181	619.69
498.398	650.69
498.615	660.69
498.832	670.69
499.049	703.69
499.267	724.69
499.484	754.69
499.701	811.69
499.918	874.69
500.135	922.69
500.352	987.69
500.569	989.69
500.786	1009.69
501.003	980.69
501.22	925.69
501.437	839.69
501.654	820.69
501.871	774.69
502.088	754.69
502.305	703.69
502.522	671.69
502.739	657.69
502.956	636.69
503.172	598.69
503.389	611.69
503.606	578.69
503.823	587.69
504.04	582.69
504.256	569.69
504.473	581.69
504.69	608.69
504.907	585.69
505.123	550.69
505.34	535.69
505.557	549.69
505.773	545.69
505.99	540.69
506.207	526.69
506.423	527.69
506.64	516.69
506.856	502.69
507.073	522.69
507.289	532.69
507.506	500.69
507.722	516.69
507.939	517.69
508.155	503.69
508.372	476.69
508.588	496.69
508.805	483.69
509.021	500.69
509.238	494.69
509.454	480.69
509.67	487.69
509.887	488.69
510.103	486.69
510.319	487.69
510.536	536.69
510.752	795.69
510.968	650.69
511.184	508.69
511.401	481.69
511.617	463.69
511.833	470.69
512.049	469.69
512.265	465.69
512.481	455.69
512.698	455.69
512.914	455.69
513.13	452.69
513.346	447.69
513.562	463.69
513.778	460.69
513.994	442.69
514.21	472.69
514.426	470.69
514.642	493.69
514.858	520.69
515.074	564.69
515.29	617.69
515.506	844.69
515.721	720.69
515.937	556.69
516.153	504.69
516.369	507.69
516.585	507.69
516.801	500.69
517.016	527.69
517.232	511.69
517.448	522.69
517.664	532.69
517.879	517.69
518.095	526.69
518.311	524.69
518.527	528.69
518.742	500.69
518.958	486.69
519.173	467.69
519.389	475.69
519.605	479.69
519.82	479.69
520.036	470.69
520.251	472.69
520.467	484.69
520.682	495.69
520.898	497.69
521.113	497.69
521.329	521.69
521.544	559.69
521.76	640.69
521.975	1042.69
522.19	1037.69
522.406	622.69
522.621	486.69
522.836	456.69
523.052	438.69
523.267	420.69
523.482	448.69
523.698	419.69
523.913	414.69
524.128	399.69
524.343	407.69
524.559	403.69
524.774	403.69
524.989	411.69
525.204	414.69
525.419	412.69
525.634	399.69
525.849	400.69
526.064	398.69
526.28	399.69
526.495	372.69
526.71	383.69
526.925	382.69
527.14	379.69
527.355	399.69
527.57	387.69
527.785	395.69
527.999	377.69
528.214	388.69
528.429	399.69
528.644	389.69
528.859	393.69
529.074	389.69
529.289	397.69
529.503	453.69
529.718	443.69
529.933	394.69
530.148	412.69
530.363	382.69
530.577	363.69
530.792	380.69
531.007	376.69
531.221	380.69
531.436	400.69
531.651	383.69
531.865	394.69
532.08	376.69
532.295	370.69
532.509	382.69
532.724	377.69
532.938	372.69
533.153	383.69
533.367	378.69
533.582	377.69
533.796	375.69
534.011	365.69
534.225	374.69
534.44	371.69
534.654	360.69
534.868	366.69
535.083	380.69
535.297	352.69
535.511	378.69
535.726	375.69
535.94	368.69
536.154	379.69
536.369	367.69
536.583	362.69
536.797	357.69
537.011	362.69
537.225	368.69
537.44	357.69
537.654	357.69
537.868	353.69
538.082	366.69
538.296	333.69
538.51	381.69
538.724	392.69
538.938	377.69
539.153	378.69
539.367	378.69
539.581	375.69
539.795	349.69
540.009	378.69
540.222	351.69
540.436	380.69
540.65	384.69
540.864	368.69
541.078	360.69
541.292	379.69
541.506	354.69
541.72	360.69
541.934	353.69
542.147	353.69
542.361	375.69
542.575	356.69
542.789	363.69
543.002	371.69
543.216	360.69
543.43	356.69
543.644	380.69
543.857	368.69
544.071	363.69
544.285	380.69
544.498	359.69
544.712	345.69
544.925	352.69
545.139	352.69
545.352	363.69
545.566	370.69
545.779	372.69
545.993	395.69
546.206	363.69
546.42	375.69
546.633	359.69
546.847	371.69
547.06	346.69
547.274	384.69
547.487	358.69
547.7	360.69
547.914	363.69
548.127	338.69
548.34	360.69
548.554	364.69
548.767	368.69
548.98	337.69
549.193	357.69
549.407	364.69
549.62	376.69
549.833	373.69
550.046	359.69
550.259	380.69
550.473	364.69
550.686	350.69
550.899	377.69
551.112	349.69
551.325	376.69
551.538	358.69
551.751	370.69
551.964	362.69
552.177	354.69
552.39	340.69
552.603	349.69
552.816	364.69
553.029	364.69
553.242	371.69
553.455	380.69
553.667	380.69
553.88	391.69
554.093	394.69
554.306	363.69
554.519	378.69
554.732	354.69
554.944	372.69
555.157	340.69
555.37	339.69
555.583	351.69
555.795	336.69
556.008	342.69
556.221	351.69
556.433	328.69
556.646	328.69
556.859	332.69
557.071	322.69
557.284	316.69
557.496	321.69
557.709	318.69
557.921	303.69
558.134	330.69
558.346	308.69
558.559	338.69
558.771	325.69
558.984	304.69
559.196	313.69
559.409	314.69
559.621	312.69
559.833	308.69
560.046	321.69
560.258	292.69
560.47	332.69
560.683	312.69
560.895	302.69
561.107	304.69
561.32	308.69
561.532	315.69
561.744	324.69
561.956	329.69
562.168	328.69
562.381	302.69
562.593	316.69
562.805	315.69
563.017	303.69
563.229	323.69
563.441	314.69
563.653	317.69
563.865	306.69
564.077	321.69
564.289	314.69
564.501	336.69
564.713	339.69
564.925	326.69
565.137	339.69
565.349	352.69
565.561	348.69
565.773	355.69
565.985	379.69
566.197	367.69
566.408	393.69
566.62	413.69
566.832	434.69
567.044	441.69
567.255	423.69
567.467	456.69
567.679	442.69
567.891	466.69
568.102	478.69
568.314	454.69
568.526	452.69
568.737	418.69
568.949	385.69
569.161	380.69
569.372	359.69
569.584	340.69
569.795	306.69
570.007	328.69
570.218	358.69
570.43	330.69
570.641	317.69
570.853	313.69
571.064	332.69
571.276	323.69
571.487	314.69
571.698	311.69
571.91	296.69
572.121	294.69
572.333	296.69
572.544	280.69
572.755	270.69
572.966	291.69
573.178	291.69
573.389	276.69
573.6	282.69
573.811	288.69
574.023	276.69
574.234	277.69
574.445	286.69
574.656	277.69
574.867	272.69
575.078	269.69
575.289	289.69
575.501	265.69
575.712	269.69
575.923	272.69
576.134	268.69
576.345	267.69
576.556	256.69
576.767	258.69
576.978	272.69
577.188	276.69
577.399	263.69
577.61	259.69
577.821	273.69
578.032	249.69
578.243	293.69
578.454	390.69
578.665	331.69
578.875	267.69
579.086	265.69
579.297	259.69
579.508	252.69
579.718	259.69
579.929	258.69
580.14	268.69
580.35	240.69
580.561	265.69
580.772	263.69
580.982	242.69
581.193	247.69
581.403	255.69
581.614	248.69
581.825	245.69
582.035	260.69
582.246	253.69
582.456	251.69
582.667	235.69
582.877	243.69
583.087	235.69
583.298	251.69
583.508	251.69
583.719	274.69
583.929	241.69
584.139	240.69
584.35	249.69
584.56	249.69
584.77	241.69
584.981	250.69
585.191	238.69
585.401	233.69
585.611	246.69
585.821	242.69
586.032	227.69
586.242	254.69
586.452	238.69
586.662	242.69
586.872	225.69
587.082	224.69
587.292	231.69
587.502	250.69
587.713	216.69
587.923	239.69
588.133	242.69
588.343	215.69
588.553	230.69
588.762	251.69
588.972	238.69
589.182	226.69
589.392	233.69
589.602	242.69
589.812	235.69
590.022	252.69
590.232	222.69
590.441	254.69
590.651	229.69
590.861	215.69
591.071	243.69
591.281	238.69
591.49	250.69
591.7	262.69
591.91	284.69
592.119	256.69
592.329	264.69
592.539	263.69
592.748	283.69
592.958	269.69
593.167	280.69
593.377	286.69
593.587	303.69
593.796	280.69
594.006	286.69
594.215	266.69
594.424	288.69
594.634	274.69
594.843	252.69
595.053	268.69
595.262	248.69
595.472	266.69
595.681	259.69
595.89	233.69
596.1	250.69
596.309	238.69
596.518	250.69
596.727	234.69
596.937	233.69
597.146	243.69
597.355	256.69
597.564	223.69
597.774	219.69
597.983	227.69
598.192	219.69
598.401	218.69
598.61	219.69
598.819	224.69
599.028	229.69
599.237	207.69
599.446	208.69
599.655	216.69
599.864	210.69
600.073	212.69
600.282	215.69
600.491	219.69
600.7	223.69
600.909	198.69
601.118	218.69
601.327	219.69
601.536	211.69
601.745	223.69
601.953	212.69
602.162	219.69
602.371	200.69
602.58	222.69
602.789	217.69
602.997	206.69
603.206	219.69
603.415	203.69
603.623	211.69
603.832	204.69
604.041	214.69
604.249	212.69
604.458	197.69
604.666	203.69
604.875	208.69
605.084	202.69
605.292	216.69
605.501	210.69
605.709	202.69
605.918	217.69
606.126	199.69
606.334	210.69
606.543	196.69
606.751	201.69
606.96	216.69
607.168	208.69
607.376	193.69
607.585	194.69
607.793	202.69
608.001	201.69
608.21	202.69
608.418	199.69
608.626	199.69
608.834	198.69
609.043	206.69
609.251	203.69
609.459	198.69
609.667	198.69
609.875	222.69
610.083	194.69
610.291	216.69
610.499	210.69
610.707	204.69
610.916	214.69
611.124	221.69
611.332	213.69
611.54	220.69
611.748	209.69
611.955	216.69
612.163	194.69
612.371	216.69
612.579	197.69
612.787	212.69
612.995	194.69
613.203	191.69
613.411	203.69
613.618	209.69
613.826	190.69
614.034	193.69
614.242	188.69
614.449	212.69
614.657	202.69
614.865	206.69
615.072	213.69
615.28	199.69
615.488	197.69
615.695	187.69
615.903	198.69
616.111	192.69
616.318	209.69
616.526	190.69
616.733	210.69
616.941	203.69
617.148	188.69
617.356	197.69
617.563	195.69
617.771	184.69
617.978	201.69
618.185	200.69
618.393	201.69
618.6	212.69
618.807	210.69
619.015	200.69
619.222	190.69
619.429	189.69
619.637	204.69
619.844	193.69
620.051	186.69
620.258	211.69
620.466	199.69
620.673	177.69
620.88	188.69
621.087	186.69
621.294	186.69
621.501	181.69
621.708	186.69
621.915	181.69
622.122	180.69
622.329	188.69
622.536	196.69
622.743	193.69
622.95	198.69
623.157	194.69
623.364	166.69
623.571	193.69
623.778	189.69
623.985	169.69
624.192	195.69
624.399	203.69
624.606	183.69
624.812	183.69
625.019	166.69
625.226	194.69
625.433	180.69
625.639	195.69
625.846	168.69
626.053	160.69
626.259	190.69
626.466	182.69
626.673	176.69
626.879	183.69
627.086	170.69
627.293	197.69
627.499	184.69
627.706	194.69
627.912	170.69
628.119	174.69
628.325	178.69
628.532	184.69
628.738	176.69
628.945	167.69
629.151	158.69
629.357	166.69
629.564	188.69
629.77	168.69
629.976	178.69
630.183	157.69
630.389	175.69
630.595	156.69
630.802	162.69
631.008	165.69
631.214	166.69
631.42	176.69
631.627	163.69
631.833	176.69
632.039	166.69
632.245	178.69
632.451	155.69
632.657	165.69
632.863	153.69
633.069	169.69
633.275	154.69
633.481	169.69
633.688	148.69
633.893	158.69
634.099	163.69
634.305	152.69
634.511	171.69
634.717	156.69
634.923	162.69
635.129	164.69
635.335	161.69
635.541	160.69
635.747	163.69
635.952	159.69
636.158	167.69
636.364	152.69
636.57	160.69
636.775	155.69
636.981	150.69
637.187	160.69
637.392	155.69
637.598	167.69
637.804	159.69
638.009	151.69
638.215	169.69
638.421	156.69
638.626	162.69
638.832	149.69
639.037	171.69
639.243	155.69
639.448	157.69
639.654	164.69
639.859	168.69
640.065	147.69
640.27	155.69
640.475	166.69
640.681	159.69
640.886	144.69
641.091	170.69
641.297	161.69
641.502	146.69
641.707	158.69
641.913	152.69
642.118	146.69
642.323	153.69
642.528	166.69
642.733	154.69
642.939	162.69
643.144	155.69
643.349	156.69
643.554	145.69
643.759	153.69
643.964	153.69
644.169	137.69
644.374	146.69
644.579	152.69
644.784	132.69
644.989	148.69
645.194	156.69
645.399	152.69
645.604	147.69
645.809	144.69
646.014	135.69
646.219	154.69
646.423	148.69
646.628	150.69
646.833	146.69
647.038	151.69
647.243	152.69
647.447	166.69
647.652	147.69
647.857	151.69
648.062	160.69
648.266	152.69
648.471	146.69
648.676	175.69
648.88	162.69
649.085	146.69
649.289	165.69
649.494	161.69
649.698	170.69
649.903	155.69
650.107	161.69
650.312	145.69
650.516	142.69
650.721	157.69
650.925	145.69
651.13	136.69
651.334	140.69
651.539	141.69
651.743	145.69
651.947	138.69
652.152	130.69
652.356	140.69
652.56	135.69
652.764	135.69
652.969	134.69
653.173	143.69
653.377	116.69
653.581	133.69
653.785	128.69
653.99	128.69
654.194	122.69
654.398	136.69
654.602	133.69
654.806	119.69
655.01	131.69
655.214	113.69
655.418	112.69
655.622	112.69
655.826	121.69
656.03	136.69
656.234	133.69
656.438	119.69
656.642	129.69
656.846	120.69
657.049	119.69
657.253	111.69
657.457	115.69
657.661	115.69
657.865	102.69
658.068	111.69
658.272	116.69
658.476	111.69
658.68	115.69
658.883	88.69
659.087	93.69
659.291	96.69
659.494	105.69
659.698	101.69
659.901	94.69
660.105	80.69
660.309	87.69
660.512	94.69
660.716	95.69
660.919	98.69
661.123	112.69
661.326	73.69
661.53	83.69
661.733	95.69
661.936	88.69
662.14	86.69
662.343	82.69
662.546	64.69
662.75	77.69
662.953	86.69
663.156	77.69
663.36	83.69
663.563	67.69
663.766	90.69
663.969	87.69
664.173	90.69
664.376	83.69
664.579	69.69
664.782	86.69
664.985	89.69
665.188	78.69
665.391	76.69
665.594	73.69
665.797	81.69
666	79.69
666.203	105.69
666.406	80.69
666.609	80.69
666.812	94.69
667.015	95.69
667.218	91.69
667.421	88.69
667.624	75.69
667.827	85.69
668.03	86.69
668.232	76.69
668.435	82.69
668.638	75.69
668.841	84.69
669.043	86.69
669.246	84.69
669.449	78.69
669.651	78.69
669.854	83.69
670.057	91.69
670.259	75.69
670.462	82.69
670.665	74.69
670.867	72.69
671.07	81.69
671.272	86.69
671.475	85.69
671.677	75.69
671.88	80.69
672.082	72.69
672.284	78.69
672.487	92.69
672.689	78.69
672.892	77.69
