Data from 1969.PennyLincolnUp.Lamp.En5.5.200Scan.071719.P1._HRD10591_14-56-42-973.txt Node
Date: Thu Jul 18 14:56:42 EDT 2019
User: cochatt
Spectrometer: HR+D1059
Trigger mode: 1
Integration Time (sec): 1.000000E-1
Scans to average: 1
Electric dark correction enabled: true
Nonlinearity correction enabled: false
Boxcar width: 0
XAxis mode: Wavelengths
Number of Pixels in Spectrum: 2048
>>>>>Begin Spectral Data<<<<<
223.165	-20.12
223.4	-20.12
223.635	-20.12
223.869	-20.12
224.104	-17.12
224.338	-9.12
224.573	-11.12
224.808	3.88
225.042	-14.12
225.277	1.88
225.511	-11.12
225.746	3.88
225.98	-7.12
226.215	3.88
226.449	15.88
226.683	23.88
226.918	22.88
227.152	33.88
227.387	27.88
227.621	36.88
227.856	32.88
228.09	50.88
228.324	51.88
228.559	52.88
228.793	70.88
229.027	66.88
229.262	77.88
229.496	105.88
229.73	118.88
229.964	129.88
230.199	109.88
230.433	94.88
230.667	103.88
230.901	106.88
231.136	95.88
231.37	105.88
231.604	96.88
231.838	103.88
232.072	102.88
232.306	120.88
232.541	116.88
232.775	103.88
233.009	90.88
233.243	97.88
233.477	104.88
233.711	103.88
233.945	98.88
234.179	99.88
234.413	107.88
234.647	117.88
234.881	115.88
235.115	128.88
235.349	107.88
235.583	124.88
235.817	109.88
236.051	117.88
236.285	126.88
236.519	119.88
236.753	125.88
236.987	117.88
237.221	143.88
237.455	168.88
237.689	144.88
237.922	120.88
238.156	138.88
238.39	123.88
238.624	118.88
238.858	122.88
239.091	130.88
239.325	116.88
239.559	103.88
239.793	105.88
240.027	118.88
240.26	133.88
240.494	142.88
240.728	129.88
240.961	121.88
241.195	128.88
241.429	123.88
241.662	119.88
241.896	127.88
242.13	127.88
242.363	108.88
242.597	126.88
242.83	128.88
243.064	126.88
243.298	122.88
243.531	113.88
243.765	127.88
243.998	133.88
244.232	147.88
244.465	129.88
244.699	141.88
244.932	132.88
245.166	118.88
245.399	124.88
245.633	123.88
245.866	131.88
246.099	145.88
246.333	135.88
246.566	120.88
246.8	149.88
247.033	137.88
247.266	145.88
247.5	152.88
247.733	148.88
247.966	133.88
248.2	134.88
248.433	164.88
248.666	162.88
248.899	166.88
249.133	173.88
249.366	176.88
249.599	158.88
249.832	166.88
250.066	148.88
250.299	165.88
250.532	165.88
250.765	173.88
250.998	201.88
251.231	199.88
251.465	182.88
251.698	176.88
251.931	173.88
252.164	179.88
252.397	167.88
252.63	176.88
252.863	174.88
253.096	164.88
253.329	182.88
253.562	171.88
253.795	184.88
254.028	174.88
254.261	175.88
254.494	189.88
254.727	199.88
254.96	210.88
255.193	205.88
255.426	204.88
255.659	207.88
255.892	194.88
256.124	204.88
256.357	197.88
256.59	169.88
256.823	170.88
257.056	177.88
257.289	176.88
257.521	197.88
257.754	197.88
257.987	176.88
258.22	181.88
258.452	177.88
258.685	184.88
258.918	179.88
259.151	196.88
259.383	207.88
259.616	194.88
259.849	200.88
260.081	197.88
260.314	215.88
260.547	212.88
260.779	205.88
261.012	191.88
261.244	196.88
261.477	189.88
261.71	203.88
261.942	192.88
262.175	196.88
262.407	191.88
262.64	177.88
262.872	185.88
263.105	191.88
263.337	189.88
263.57	187.88
263.802	181.88
264.035	176.88
264.267	187.88
264.499	186.88
264.732	169.88
264.964	165.88
265.197	177.88
265.429	173.88
265.661	183.88
265.894	181.88
266.126	180.88
266.358	193.88
266.591	191.88
266.823	213.88
267.055	190.88
267.287	205.88
267.52	201.88
267.752	186.88
267.984	200.88
268.216	197.88
268.448	192.88
268.681	201.88
268.913	209.88
269.145	217.88
269.377	236.88
269.609	243.88
269.841	217.88
270.073	226.88
270.306	262.88
270.538	262.88
270.77	238.88
271.002	243.88
271.234	251.88
271.466	264.88
271.698	263.88
271.93	265.88
272.162	263.88
272.394	256.88
272.626	247.88
272.858	230.88
273.09	237.88
273.322	237.88
273.553	218.88
273.785	229.88
274.017	228.88
274.249	224.88
274.481	218.88
274.713	225.88
274.945	222.88
275.176	237.88
275.408	237.88
275.64	216.88
275.872	240.88
276.104	249.88
276.335	217.88
276.567	242.88
276.799	251.88
277.031	265.88
277.262	276.88
277.494	288.88
277.726	245.88
277.957	253.88
278.189	252.88
278.421	250.88
278.652	236.88
278.884	235.88
279.115	224.88
279.347	237.88
279.579	239.88
279.81	214.88
280.042	243.88
280.273	244.88
280.505	231.88
280.736	235.88
280.968	259.88
281.199	229.88
281.431	247.88
281.662	249.88
281.894	234.88
282.125	236.88
282.356	241.88
282.588	261.88
282.819	274.88
283.051	256.88
283.282	265.88
283.513	239.88
283.745	234.88
283.976	221.88
284.207	253.88
284.439	255.88
284.67	240.88
284.901	247.88
285.132	257.88
285.364	263.88
285.595	250.88
285.826	249.88
286.057	258.88
286.288	247.88
286.52	248.88
286.751	257.88
286.982	275.88
287.213	270.88
287.444	267.88
287.675	257.88
287.906	251.88
288.138	278.88
288.369	271.88
288.6	256.88
288.831	260.88
289.062	267.88
289.293	267.88
289.524	244.88
289.755	250.88
289.986	253.88
290.217	261.88
290.448	246.88
290.679	249.88
290.91	251.88
291.141	269.88
291.371	259.88
291.602	272.88
291.833	263.88
292.064	236.88
292.295	256.88
292.526	271.88
292.757	241.88
292.987	253.88
293.218	252.88
293.449	267.88
293.68	248.88
293.91	263.88
294.141	269.88
294.372	271.88
294.603	260.88
294.833	285.88
295.064	273.88
295.295	269.88
295.525	264.88
295.756	282.88
295.987	283.88
296.217	280.88
296.448	283.88
296.679	271.88
296.909	270.88
297.14	278.88
297.37	282.88
297.601	261.88
297.831	277.88
298.062	281.88
298.292	280.88
298.523	279.88
298.753	267.88
298.984	271.88
299.214	295.88
299.445	287.88
299.675	277.88
299.905	286.88
300.136	279.88
300.366	290.88
300.597	270.88
300.827	282.88
301.057	303.88
301.288	296.88
301.518	313.88
301.748	299.88
301.979	303.88
302.209	295.88
302.439	322.88
302.669	287.88
302.9	310.88
303.13	303.88
303.36	285.88
303.59	299.88
303.82	302.88
304.051	309.88
304.281	310.88
304.511	287.88
304.741	293.88
304.971	286.88
305.201	307.88
305.431	279.88
305.661	294.88
305.891	296.88
306.121	296.88
306.352	279.88
306.582	293.88
306.812	304.88
307.042	290.88
307.272	313.88
307.502	299.88
307.731	291.88
307.961	272.88
308.191	297.88
308.421	313.88
308.651	308.88
308.881	294.88
309.111	290.88
309.341	304.88
309.571	299.88
309.8	300.88
310.03	309.88
310.26	306.88
310.49	332.88
310.72	347.88
310.949	318.88
311.179	320.88
311.409	323.88
311.639	317.88
311.868	307.88
312.098	307.88
312.328	344.88
312.557	329.88
312.787	330.88
313.017	344.88
313.246	331.88
313.476	321.88
313.706	321.88
313.935	320.88
314.165	319.88
314.394	326.88
314.624	339.88
314.853	338.88
315.083	325.88
315.312	331.88
315.542	326.88
315.771	341.88
316.001	323.88
316.23	324.88
316.46	329.88
316.689	333.88
316.919	315.88
317.148	313.88
317.377	331.88
317.607	324.88
317.836	321.88
318.065	319.88
318.295	324.88
318.524	317.88
318.753	313.88
318.983	299.88
319.212	327.88
319.441	328.88
319.67	323.88
319.9	330.88
320.129	334.88
320.358	328.88
320.587	318.88
320.816	317.88
321.046	348.88
321.275	323.88
321.504	322.88
321.733	340.88
321.962	333.88
322.191	365.88
322.42	361.88
322.649	348.88
322.878	359.88
323.108	356.88
323.337	368.88
323.566	386.88
323.795	383.88
324.024	423.88
324.253	505.88
324.482	650.88
324.71	927.88
324.939	1191.88
325.168	1027.88
325.397	575.88
325.626	453.88
325.855	382.88
326.084	394.88
326.313	389.88
326.542	409.88
326.77	410.88
326.999	501.88
327.228	596.88
327.457	815.88
327.686	903.88
327.914	671.88
328.143	479.88
328.372	465.88
328.6	416.88
328.829	412.88
329.058	427.88
329.287	430.88
329.515	415.88
329.744	396.88
329.972	393.88
330.201	402.88
330.43	438.88
330.658	447.88
330.887	471.88
331.115	473.88
331.344	429.88
331.572	408.88
331.801	389.88
332.03	396.88
332.258	400.88
332.486	385.88
332.715	387.88
332.943	389.88
333.172	385.88
333.4	402.88
333.629	406.88
333.857	401.88
334.085	423.88
334.314	445.88
334.542	459.88
334.771	480.88
334.999	435.88
335.227	394.88
335.455	423.88
335.684	393.88
335.912	406.88
336.14	393.88
336.369	394.88
336.597	393.88
336.825	385.88
337.053	390.88
337.281	384.88
337.51	395.88
337.738	387.88
337.966	376.88
338.194	375.88
338.422	378.88
338.65	357.88
338.878	359.88
339.106	350.88
339.334	356.88
339.562	365.88
339.79	364.88
340.018	363.88
340.246	364.88
340.474	369.88
340.702	367.88
340.93	372.88
341.158	358.88
341.386	373.88
341.614	376.88
341.842	359.88
342.07	348.88
342.298	353.88
342.526	364.88
342.754	371.88
342.981	358.88
343.209	352.88
343.437	379.88
343.665	387.88
343.893	385.88
344.12	408.88
344.348	384.88
344.576	390.88
344.804	381.88
345.031	377.88
345.259	385.88
345.487	379.88
345.714	342.88
345.942	358.88
346.17	340.88
346.397	352.88
346.625	341.88
346.853	362.88
347.08	339.88
347.308	324.88
347.535	358.88
347.763	356.88
347.99	338.88
348.218	355.88
348.445	339.88
348.673	359.88
348.9	345.88
349.128	353.88
349.355	345.88
349.583	355.88
349.81	337.88
350.037	342.88
350.265	327.88
350.492	343.88
350.72	334.88
350.947	317.88
351.174	357.88
351.402	340.88
351.629	371.88
351.856	338.88
352.083	352.88
352.311	339.88
352.538	336.88
352.765	353.88
352.992	349.88
353.22	348.88
353.447	346.88
353.674	344.88
353.901	351.88
354.128	329.88
354.355	340.88
354.583	319.88
354.81	336.88
355.037	362.88
355.264	337.88
355.491	327.88
355.718	333.88
355.945	336.88
356.172	331.88
356.399	343.88
356.626	328.88
356.853	321.88
357.08	294.88
357.307	332.88
357.534	323.88
357.761	317.88
357.988	344.88
358.215	341.88
358.441	329.88
358.668	315.88
358.895	317.88
359.122	342.88
359.349	335.88
359.576	340.88
359.802	353.88
360.029	374.88
360.256	369.88
360.483	366.88
360.709	333.88
360.936	344.88
361.163	356.88
361.39	345.88
361.616	332.88
361.843	319.88
362.07	353.88
362.296	329.88
362.523	343.88
362.749	348.88
362.976	335.88
363.203	343.88
363.429	327.88
363.656	341.88
363.882	333.88
364.109	333.88
364.335	315.88
364.562	346.88
364.788	320.88
365.015	323.88
365.241	334.88
365.468	344.88
365.694	348.88
365.92	330.88
366.147	342.88
366.373	320.88
366.599	326.88
366.826	346.88
367.052	321.88
367.278	330.88
367.505	319.88
367.731	321.88
367.957	347.88
368.184	323.88
368.41	323.88
368.636	332.88
368.862	362.88
369.089	347.88
369.315	356.88
369.541	334.88
369.767	323.88
369.993	337.88
370.219	347.88
370.445	356.88
370.672	335.88
370.898	309.88
371.124	335.88
371.35	341.88
371.576	328.88
371.802	328.88
372.028	344.88
372.254	319.88
372.48	325.88
372.706	341.88
372.932	344.88
373.158	353.88
373.384	333.88
373.61	335.88
373.835	325.88
374.061	337.88
374.287	359.88
374.513	345.88
374.739	333.88
374.965	343.88
375.191	349.88
375.416	359.88
375.642	340.88
375.868	350.88
376.094	328.88
376.319	357.88
376.545	347.88
376.771	323.88
376.997	343.88
377.222	326.88
377.448	350.88
377.674	331.88
377.899	334.88
378.125	340.88
378.35	330.88
378.576	344.88
378.802	332.88
379.027	336.88
379.253	323.88
379.478	326.88
379.704	328.88
379.929	332.88
380.155	343.88
380.38	324.88
380.606	316.88
380.831	319.88
381.057	337.88
381.282	336.88
381.507	328.88
381.733	330.88
381.958	333.88
382.184	329.88
382.409	341.88
382.634	336.88
382.86	343.88
383.085	323.88
383.31	355.88
383.535	342.88
383.761	343.88
383.986	347.88
384.211	353.88
384.436	363.88
384.662	348.88
384.887	361.88
385.112	377.88
385.337	369.88
385.562	369.88
385.787	382.88
386.013	395.88
386.238	383.88
386.463	378.88
386.688	389.88
386.913	381.88
387.138	363.88
387.363	382.88
387.588	383.88
387.813	363.88
388.038	365.88
388.263	361.88
388.488	372.88
388.713	368.88
388.938	373.88
389.163	391.88
389.387	374.88
389.612	370.88
389.837	375.88
390.062	363.88
390.287	359.88
390.512	372.88
390.736	373.88
390.961	356.88
391.186	377.88
391.411	381.88
391.636	378.88
391.86	415.88
392.085	402.88
392.31	393.88
392.534	401.88
392.759	383.88
392.984	393.88
393.208	393.88
393.433	388.88
393.658	384.88
393.882	365.88
394.107	385.88
394.331	396.88
394.556	389.88
394.78	374.88
395.005	387.88
395.229	383.88
395.454	393.88
395.678	408.88
395.903	393.88
396.127	384.88
396.352	390.88
396.576	381.88
396.801	397.88
397.025	397.88
397.249	398.88
397.474	399.88
397.698	412.88
397.922	393.88
398.147	417.88
398.371	412.88
398.595	411.88
398.82	423.88
399.044	441.88
399.268	487.88
399.492	493.88
399.717	568.88
399.941	569.88
400.165	557.88
400.389	535.88
400.613	481.88
400.837	468.88
401.062	465.88
401.286	453.88
401.51	425.88
401.734	405.88
401.958	450.88
402.182	449.88
402.406	464.88
402.63	447.88
402.854	441.88
403.078	465.88
403.302	472.88
403.526	480.88
403.75	485.88
403.974	484.88
404.198	479.88
404.422	490.88
404.645	479.88
404.869	465.88
405.093	509.88
405.317	500.88
405.541	528.88
405.765	502.88
405.988	488.88
406.212	471.88
406.436	491.88
406.66	510.88
406.883	505.88
407.107	507.88
407.331	533.88
407.555	599.88
407.778	589.88
408.002	542.88
408.226	504.88
408.449	502.88
408.673	484.88
408.896	500.88
409.12	524.88
409.344	480.88
409.567	487.88
409.791	460.88
410.014	460.88
410.238	452.88
410.461	464.88
410.685	454.88
410.908	457.88
411.132	494.88
411.355	492.88
411.578	476.88
411.802	450.88
412.025	450.88
412.249	466.88
412.472	460.88
412.695	471.88
412.919	468.88
413.142	456.88
413.365	449.88
413.589	453.88
413.812	433.88
414.035	438.88
414.258	439.88
414.482	412.88
414.705	423.88
414.928	425.88
415.151	421.88
415.374	437.88
415.597	411.88
415.821	429.88
416.044	434.88
416.267	425.88
416.49	406.88
416.713	410.88
416.936	419.88
417.159	425.88
417.382	430.88
417.605	424.88
417.828	427.88
418.051	446.88
418.274	449.88
418.497	447.88
418.72	456.88
418.943	447.88
419.166	440.88
419.389	459.88
419.611	468.88
419.834	458.88
420.057	472.88
420.28	453.88
420.503	433.88
420.726	449.88
420.948	448.88
421.171	474.88
421.394	502.88
421.617	434.88
421.839	408.88
422.062	444.88
422.285	446.88
422.507	502.88
422.73	536.88
422.953	510.88
423.175	461.88
423.398	457.88
423.621	478.88
423.843	482.88
424.066	460.88
424.288	467.88
424.511	473.88
424.733	512.88
424.956	577.88
425.178	532.88
425.401	519.88
425.623	534.88
425.846	483.88
426.068	459.88
426.291	469.88
426.513	456.88
426.735	451.88
426.958	488.88
427.18	511.88
427.402	586.88
427.625	641.88
427.847	550.88
428.069	492.88
428.292	466.88
428.514	453.88
428.736	420.88
428.958	422.88
429.181	415.88
429.403	420.88
429.625	433.88
429.847	447.88
430.069	474.88
430.292	489.88
430.514	417.88
430.736	403.88
430.958	410.88
431.18	408.88
431.402	405.88
431.624	399.88
431.846	400.88
432.068	414.88
432.29	409.88
432.512	414.88
432.734	391.88
432.956	404.88
433.178	399.88
433.4	413.88
433.622	396.88
433.844	416.88
434.066	393.88
434.287	385.88
434.509	412.88
434.731	426.88
434.953	430.88
435.175	449.88
435.397	467.88
435.618	435.88
435.84	473.88
436.062	523.88
436.284	542.88
436.505	477.88
436.727	447.88
436.949	444.88
437.17	428.88
437.392	406.88
437.614	443.88
437.835	430.88
438.057	489.88
438.278	567.88
438.5	563.88
438.721	560.88
438.943	561.88
439.165	469.88
439.386	442.88
439.608	439.88
439.829	451.88
440.05	446.88
440.272	479.88
440.493	462.88
440.715	439.88
440.936	437.88
441.158	424.88
441.379	414.88
441.6	448.88
441.822	482.88
442.043	483.88
442.264	533.88
442.486	509.88
442.707	496.88
442.928	465.88
443.149	487.88
443.371	481.88
443.592	524.88
443.813	539.88
444.034	564.88
444.255	544.88
444.476	476.88
444.698	486.88
444.919	510.88
445.14	563.88
445.361	532.88
445.582	493.88
445.803	519.88
446.024	579.88
446.245	548.88
446.466	506.88
446.687	455.88
446.908	467.88
447.129	424.88
447.35	439.88
447.571	413.88
447.792	391.88
448.013	408.88
448.234	417.88
448.455	439.88
448.675	519.88
448.896	539.88
449.117	493.88
449.338	494.88
449.559	559.88
449.779	587.88
450	474.88
450.221	443.88
450.442	394.88
450.662	398.88
450.883	399.88
451.104	422.88
451.324	407.88
451.545	398.88
451.766	384.88
451.986	368.88
452.207	370.88
452.428	365.88
452.648	375.88
452.869	373.88
453.089	373.88
453.31	388.88
453.53	381.88
453.751	375.88
453.971	384.88
454.192	390.88
454.412	374.88
454.633	380.88
454.853	385.88
455.073	372.88
455.294	391.88
455.514	431.88
455.734	386.88
455.955	351.88
456.175	352.88
456.395	371.88
456.616	371.88
456.836	356.88
457.056	352.88
457.276	345.88
457.497	341.88
457.717	362.88
457.937	345.88
458.157	371.88
458.377	368.88
458.598	403.88
458.818	407.88
459.038	460.88
459.258	465.88
459.478	446.88
459.698	425.88
459.918	430.88
460.138	420.88
460.358	424.88
460.578	441.88
460.798	445.88
461.018	436.88
461.238	430.88
461.458	430.88
461.678	413.88
461.898	431.88
462.118	439.88
462.338	470.88
462.558	453.88
462.777	485.88
462.997	487.88
463.217	500.88
463.437	501.88
463.657	486.88
463.876	479.88
464.096	493.88
464.316	475.88
464.536	493.88
464.755	462.88
464.975	460.88
465.195	491.88
465.414	495.88
465.634	423.88
465.854	413.88
466.073	401.88
466.293	420.88
466.512	389.88
466.732	388.88
466.951	381.88
467.171	389.88
467.391	382.88
467.61	391.88
467.829	404.88
468.049	395.88
468.268	399.88
468.488	395.88
468.707	371.88
468.927	383.88
469.146	389.88
469.365	389.88
469.585	393.88
469.804	398.88
470.023	404.88
470.243	383.88
470.462	383.88
470.681	414.88
470.901	413.88
471.12	413.88
471.339	383.88
471.558	405.88
471.777	395.88
471.997	397.88
472.216	403.88
472.435	407.88
472.654	380.88
472.873	385.88
473.092	390.88
473.311	393.88
473.53	389.88
473.749	403.88
473.968	421.88
474.187	476.88
474.406	463.88
474.625	426.88
474.844	383.88
475.063	385.88
475.282	399.88
475.501	397.88
475.72	412.88
475.939	384.88
476.158	391.88
476.377	391.88
476.596	413.88
476.814	407.88
477.033	406.88
477.252	422.88
477.471	407.88
477.69	409.88
477.908	420.88
478.127	427.88
478.346	436.88
478.564	471.88
478.783	437.88
479.002	439.88
479.22	458.88
479.439	479.88
479.658	442.88
479.876	473.88
480.095	464.88
480.313	487.88
480.532	470.88
480.751	484.88
480.969	493.88
481.188	523.88
481.406	547.88
481.624	480.88
481.843	455.88
482.061	445.88
482.28	453.88
482.498	458.88
482.717	433.88
482.935	451.88
483.153	443.88
483.372	431.88
483.59	423.88
483.808	443.88
484.027	444.88
484.245	445.88
484.463	472.88
484.681	460.88
484.9	447.88
485.118	459.88
485.336	465.88
485.554	474.88
485.772	460.88
485.99	459.88
486.209	458.88
486.427	451.88
486.645	480.88
486.863	512.88
487.081	485.88
487.299	481.88
487.517	478.88
487.735	477.88
487.953	464.88
488.171	481.88
488.389	484.88
488.607	464.88
488.825	469.88
489.043	479.88
489.261	492.88
489.479	480.88
489.696	493.88
489.914	482.88
490.132	505.88
490.35	506.88
490.568	475.88
490.786	526.88
491.003	520.88
491.221	526.88
491.439	528.88
491.657	520.88
491.874	550.88
492.092	553.88
492.31	547.88
492.527	555.88
492.745	555.88
492.963	552.88
493.18	543.88
493.398	577.88
493.615	591.88
493.833	564.88
494.05	543.88
494.268	563.88
494.485	556.88
494.703	577.88
494.92	563.88
495.138	566.88
495.355	580.88
495.573	549.88
495.79	570.88
496.008	573.88
496.225	565.88
496.442	568.88
496.66	582.88
496.877	560.88
497.094	590.88
497.312	582.88
497.529	573.88
497.746	605.88
497.963	626.88
498.181	623.88
498.398	624.88
498.615	648.88
498.832	665.88
499.049	711.88
499.267	724.88
499.484	769.88
499.701	813.88
499.918	831.88
500.135	920.88
500.352	969.88
500.569	994.88
500.786	1012.88
501.003	961.88
501.22	901.88
501.437	852.88
501.654	801.88
501.871	773.88
502.088	743.88
502.305	719.88
502.522	653.88
502.739	647.88
502.956	632.88
503.172	603.88
503.389	587.88
503.606	604.88
503.823	585.88
504.04	555.88
504.256	581.88
504.473	565.88
504.69	589.88
504.907	579.88
505.123	579.88
505.34	547.88
505.557	554.88
505.773	543.88
505.99	531.88
506.207	537.88
506.423	515.88
506.64	505.88
506.856	494.88
507.073	513.88
507.289	523.88
507.506	507.88
507.722	511.88
507.939	512.88
508.155	494.88
508.372	490.88
508.588	489.88
508.805	493.88
509.021	500.88
509.238	488.88
509.454	529.88
509.67	493.88
509.887	497.88
510.103	483.88
510.319	502.88
510.536	551.88
510.752	789.88
510.968	666.88
511.184	469.88
511.401	485.88
511.617	466.88
511.833	461.88
512.049	468.88
512.265	465.88
512.481	455.88
512.698	451.88
512.914	466.88
513.13	486.88
513.346	454.88
513.562	456.88
513.778	445.88
513.994	454.88
514.21	472.88
514.426	492.88
514.642	496.88
514.858	517.88
515.074	538.88
515.29	612.88
515.506	862.88
515.721	706.88
515.937	528.88
516.153	501.88
516.369	494.88
516.585	501.88
516.801	485.88
517.016	510.88
517.232	518.88
517.448	507.88
517.664	533.88
517.879	529.88
518.095	555.88
518.311	518.88
518.527	504.88
518.742	498.88
518.958	487.88
519.173	490.88
519.389	468.88
519.605	475.88
519.82	491.88
520.036	483.88
520.251	484.88
520.467	479.88
520.682	469.88
520.898	501.88
521.113	491.88
521.329	503.88
521.544	560.88
521.76	672.88
521.975	1024.88
522.19	1005.88
522.406	603.88
522.621	482.88
522.836	443.88
523.052	429.88
523.267	416.88
523.482	417.88
523.698	412.88
523.913	421.88
524.128	409.88
524.343	411.88
524.559	399.88
524.774	407.88
524.989	419.88
525.204	403.88
525.419	401.88
525.634	407.88
525.849	411.88
526.064	398.88
526.28	399.88
526.495	363.88
526.71	381.88
526.925	403.88
527.14	377.88
527.355	401.88
527.57	383.88
527.785	388.88
527.999	375.88
528.214	378.88
528.429	382.88
528.644	377.88
528.859	380.88
529.074	382.88
529.289	408.88
529.503	452.88
529.718	434.88
529.933	395.88
530.148	369.88
530.363	368.88
530.577	392.88
530.792	383.88
531.007	367.88
531.221	389.88
531.436	376.88
531.651	387.88
531.865	388.88
532.08	379.88
532.295	367.88
532.509	359.88
532.724	368.88
532.938	386.88
533.153	381.88
533.367	353.88
533.582	369.88
533.796	387.88
534.011	371.88
534.225	380.88
534.44	377.88
534.654	371.88
534.868	358.88
535.083	383.88
535.297	363.88
535.511	375.88
535.726	400.88
535.94	388.88
536.154	365.88
536.369	366.88
536.583	339.88
536.797	373.88
537.011	357.88
537.225	364.88
537.44	344.88
537.654	347.88
537.868	368.88
538.082	351.88
538.296	343.88
538.51	366.88
538.724	368.88
538.938	360.88
539.153	366.88
539.367	378.88
539.581	358.88
539.795	364.88
540.009	353.88
540.222	351.88
540.436	346.88
540.65	362.88
540.864	359.88
541.078	377.88
541.292	335.88
541.506	362.88
541.72	361.88
541.934	357.88
542.147	361.88
542.361	363.88
542.575	355.88
542.789	369.88
543.002	364.88
543.216	391.88
543.43	364.88
543.644	367.88
543.857	356.88
544.071	360.88
544.285	373.88
544.498	359.88
544.712	355.88
544.925	374.88
545.139	371.88
545.352	364.88
545.566	355.88
545.779	357.88
545.993	368.88
546.206	374.88
546.42	365.88
546.633	375.88
546.847	369.88
547.06	373.88
547.274	368.88
547.487	359.88
547.7	367.88
547.914	367.88
548.127	349.88
548.34	364.88
548.554	367.88
548.767	380.88
548.98	373.88
549.193	352.88
549.407	353.88
549.62	363.88
549.833	344.88
550.046	359.88
550.259	345.88
550.473	359.88
550.686	349.88
550.899	373.88
551.112	337.88
551.325	373.88
551.538	355.88
551.751	341.88
551.964	352.88
552.177	358.88
552.39	347.88
552.603	365.88
552.816	357.88
553.029	383.88
553.242	391.88
553.455	378.88
553.667	389.88
553.88	385.88
554.093	387.88
554.306	351.88
554.519	357.88
554.732	350.88
554.944	370.88
555.157	347.88
555.37	341.88
555.583	374.88
555.795	344.88
556.008	339.88
556.221	334.88
556.433	326.88
556.646	337.88
556.859	299.88
557.071	317.88
557.284	320.88
557.496	337.88
557.709	322.88
557.921	319.88
558.134	327.88
558.346	322.88
558.559	305.88
558.771	295.88
558.984	310.88
559.196	300.88
559.409	326.88
559.621	323.88
559.833	298.88
560.046	321.88
560.258	304.88
560.47	307.88
560.683	290.88
560.895	313.88
561.107	323.88
561.32	316.88
561.532	317.88
561.744	314.88
561.956	297.88
562.168	313.88
562.381	315.88
562.593	325.88
562.805	337.88
563.017	317.88
563.229	322.88
563.441	323.88
563.653	324.88
563.865	323.88
564.077	338.88
564.289	323.88
564.501	329.88
564.713	319.88
564.925	336.88
565.137	329.88
565.349	343.88
565.561	368.88
565.773	371.88
565.985	365.88
566.197	385.88
566.408	397.88
566.62	432.88
566.832	458.88
567.044	422.88
567.255	449.88
567.467	447.88
567.679	484.88
567.891	484.88
568.102	473.88
568.314	469.88
568.526	446.88
568.737	419.88
568.949	380.88
569.161	398.88
569.372	345.88
569.584	337.88
569.795	335.88
570.007	337.88
570.218	346.88
570.43	337.88
570.641	321.88
570.853	319.88
571.064	316.88
571.276	329.88
571.487	326.88
571.698	321.88
571.91	307.88
572.121	301.88
572.333	296.88
572.544	297.88
572.755	277.88
572.966	287.88
573.178	295.88
573.389	284.88
573.6	276.88
573.811	282.88
574.023	282.88
574.234	268.88
574.445	281.88
574.656	294.88
574.867	284.88
575.078	285.88
575.289	289.88
575.501	276.88
575.712	283.88
575.923	265.88
576.134	249.88
576.345	269.88
576.556	264.88
576.767	263.88
576.978	259.88
577.188	253.88
577.399	280.88
577.61	269.88
577.821	274.88
578.032	270.88
578.243	275.88
578.454	390.88
578.665	330.88
578.875	267.88
579.086	249.88
579.297	251.88
579.508	261.88
579.718	256.88
579.929	259.88
580.14	263.88
580.35	238.88
580.561	261.88
580.772	267.88
580.982	252.88
581.193	259.88
581.403	254.88
581.614	251.88
581.825	241.88
582.035	261.88
582.246	237.88
582.456	236.88
582.667	267.88
582.877	250.88
583.087	260.88
583.298	238.88
583.508	247.88
583.719	251.88
583.929	256.88
584.139	259.88
584.35	248.88
584.56	264.88
584.77	244.88
584.981	240.88
585.191	236.88
585.401	252.88
585.611	245.88
585.821	240.88
586.032	240.88
586.242	239.88
586.452	248.88
586.662	245.88
586.872	255.88
587.082	236.88
587.292	229.88
587.502	247.88
587.713	241.88
587.923	249.88
588.133	250.88
588.343	237.88
588.553	234.88
588.762	253.88
588.972	243.88
589.182	240.88
589.392	227.88
589.602	245.88
589.812	235.88
590.022	267.88
590.232	240.88
590.441	243.88
590.651	245.88
590.861	260.88
591.071	236.88
591.281	234.88
591.49	262.88
591.7	276.88
591.91	273.88
592.119	251.88
592.329	262.88
592.539	265.88
592.748	261.88
592.958	251.88
593.167	263.88
593.377	271.88
593.587	299.88
593.796	280.88
594.006	297.88
594.215	296.88
594.424	289.88
594.634	272.88
594.843	287.88
595.053	281.88
595.262	268.88
595.472	273.88
595.681	256.88
595.89	231.88
596.1	237.88
596.309	226.88
596.518	223.88
596.727	247.88
596.937	246.88
597.146	226.88
597.355	234.88
597.564	211.88
597.774	219.88
597.983	229.88
598.192	209.88
598.401	216.88
598.61	229.88
598.819	228.88
599.028	209.88
599.237	225.88
599.446	216.88
599.655	217.88
599.864	217.88
600.073	217.88
600.282	215.88
600.491	208.88
600.7	228.88
600.909	203.88
601.118	225.88
601.327	223.88
601.536	226.88
601.745	220.88
601.953	221.88
602.162	214.88
602.371	227.88
602.58	216.88
602.789	202.88
602.997	219.88
603.206	203.88
603.415	227.88
603.623	213.88
603.832	209.88
604.041	211.88
604.249	206.88
604.458	204.88
604.666	210.88
604.875	207.88
605.084	221.88
605.292	201.88
605.501	206.88
605.709	214.88
605.918	205.88
606.126	191.88
606.334	198.88
606.543	210.88
606.751	208.88
606.96	207.88
607.168	191.88
607.376	215.88
607.585	208.88
607.793	200.88
608.001	216.88
608.21	213.88
608.418	206.88
608.626	220.88
608.834	215.88
609.043	211.88
609.251	224.88
609.459	220.88
609.667	236.88
609.875	212.88
610.083	197.88
610.291	210.88
610.499	199.88
610.707	202.88
610.916	214.88
611.124	217.88
611.332	202.88
611.54	223.88
611.748	222.88
611.955	211.88
612.163	197.88
612.371	199.88
612.579	198.88
612.787	227.88
612.995	216.88
613.203	212.88
613.411	201.88
613.618	211.88
613.826	208.88
614.034	198.88
614.242	204.88
614.449	209.88
614.657	212.88
614.865	217.88
615.072	204.88
615.28	199.88
615.488	198.88
615.695	192.88
615.903	190.88
616.111	218.88
616.318	195.88
616.526	213.88
616.733	191.88
616.941	213.88
617.148	230.88
617.356	196.88
617.563	198.88
617.771	223.88
617.978	211.88
618.185	211.88
618.393	210.88
618.6	205.88
618.807	198.88
619.015	203.88
619.222	189.88
619.429	195.88
619.637	189.88
619.844	206.88
620.051	208.88
620.258	191.88
620.466	190.88
620.673	186.88
620.88	195.88
621.087	203.88
621.294	197.88
621.501	199.88
621.708	188.88
621.915	211.88
622.122	197.88
622.329	199.88
622.536	191.88
622.743	204.88
622.95	195.88
623.157	198.88
623.364	184.88
623.571	201.88
623.778	183.88
623.985	196.88
624.192	167.88
624.399	172.88
624.606	180.88
624.812	187.88
625.019	163.88
625.226	191.88
625.433	201.88
625.639	171.88
625.846	168.88
626.053	184.88
626.259	176.88
626.466	176.88
626.673	180.88
626.879	167.88
627.086	170.88
627.293	200.88
627.499	184.88
627.706	169.88
627.912	179.88
628.119	179.88
628.325	183.88
628.532	183.88
628.738	175.88
628.945	157.88
629.151	170.88
629.357	189.88
629.564	192.88
629.77	181.88
629.976	169.88
630.183	179.88
630.389	174.88
630.595	169.88
630.802	168.88
631.008	177.88
631.214	162.88
631.42	181.88
631.627	178.88
631.833	181.88
632.039	182.88
632.245	166.88
632.451	176.88
632.657	171.88
632.863	172.88
633.069	167.88
633.275	166.88
633.481	165.88
633.688	188.88
633.893	175.88
634.099	173.88
634.305	171.88
634.511	152.88
634.717	163.88
634.923	163.88
635.129	151.88
635.335	161.88
635.541	156.88
635.747	166.88
635.952	155.88
636.158	165.88
636.364	165.88
636.57	163.88
636.775	161.88
636.981	153.88
637.187	160.88
637.392	160.88
637.598	168.88
637.804	149.88
638.009	160.88
638.215	145.88
638.421	153.88
638.626	166.88
638.832	162.88
639.037	151.88
639.243	153.88
639.448	159.88
639.654	172.88
639.859	156.88
640.065	161.88
640.27	166.88
640.475	159.88
640.681	146.88
640.886	174.88
641.091	159.88
641.297	158.88
641.502	168.88
641.707	151.88
641.913	167.88
642.118	157.88
642.323	159.88
642.528	156.88
642.733	145.88
642.939	145.88
643.144	155.88
643.349	161.88
643.554	166.88
643.759	151.88
643.964	154.88
644.169	143.88
644.374	160.88
644.579	152.88
644.784	143.88
644.989	143.88
645.194	141.88
645.399	151.88
645.604	141.88
645.809	157.88
646.014	150.88
646.219	167.88
646.423	154.88
646.628	140.88
646.833	160.88
647.038	153.88
647.243	139.88
647.447	162.88
647.652	136.88
647.857	145.88
648.062	158.88
648.266	165.88
648.471	171.88
648.676	162.88
648.88	157.88
649.085	153.88
649.289	143.88
649.494	180.88
649.698	179.88
649.903	152.88
650.107	134.88
650.312	148.88
650.516	141.88
650.721	137.88
650.925	142.88
651.13	135.88
651.334	147.88
651.539	127.88
651.743	153.88
651.947	137.88
652.152	139.88
652.356	131.88
652.56	145.88
652.764	133.88
652.969	133.88
653.173	124.88
653.377	127.88
653.581	128.88
653.785	130.88
653.99	127.88
654.194	138.88
654.398	119.88
654.602	125.88
654.806	127.88
655.01	129.88
655.214	138.88
655.418	143.88
655.622	130.88
655.826	125.88
656.03	124.88
656.234	118.88
656.438	132.88
656.642	141.88
656.846	143.88
657.049	130.88
657.253	135.88
657.457	125.88
657.661	122.88
657.865	117.88
658.068	117.88
658.272	111.88
658.476	106.88
658.68	116.88
658.883	96.88
659.087	102.88
659.291	91.88
659.494	104.88
659.698	99.88
659.901	93.88
660.105	94.88
660.309	86.88
660.512	87.88
660.716	109.88
660.919	108.88
661.123	84.88
661.326	101.88
661.53	93.88
661.733	85.88
661.936	97.88
662.14	93.88
662.343	96.88
662.546	93.88
662.75	83.88
662.953	88.88
663.156	79.88
663.36	70.88
663.563	96.88
663.766	86.88
663.969	81.88
664.173	85.88
664.376	94.88
664.579	81.88
664.782	87.88
664.985	88.88
665.188	90.88
665.391	84.88
665.594	76.88
665.797	77.88
666	88.88
666.203	79.88
666.406	71.88
666.609	67.88
666.812	91.88
667.015	68.88
667.218	75.88
667.421	77.88
667.624	80.88
667.827	74.88
668.03	81.88
668.232	68.88
668.435	85.88
668.638	73.88
668.841	92.88
669.043	75.88
669.246	72.88
669.449	71.88
669.651	92.88
669.854	83.88
670.057	80.88
670.259	81.88
670.462	73.88
670.665	84.88
670.867	86.88
671.07	79.88
671.272	85.88
671.475	80.88
671.677	87.88
671.88	77.88
672.082	83.88
672.284	77.88
672.487	85.88
672.689	77.88
672.892	79.88
