Data from 1969.PennyLincolnUp.Lamp.En5.5.200Scan.071719.P1._HRD10591_14-53-50-971.txt Node
Date: Thu Jul 18 14:53:50 EDT 2019
User: cochatt
Spectrometer: HR+D1059
Trigger mode: 1
Integration Time (sec): 1.000000E-1
Scans to average: 1
Electric dark correction enabled: true
Nonlinearity correction enabled: false
Boxcar width: 0
XAxis mode: Wavelengths
Number of Pixels in Spectrum: 2048
>>>>>Begin Spectral Data<<<<<
223.165	-22.94
223.4	-22.94
223.635	-22.94
223.869	-17.94
224.104	-15.94
224.338	-2.94
224.573	-22.94
224.808	-18.94
225.042	-5.94
225.277	-3.94
225.511	-3.94
225.746	8.06
225.98	17.06
226.215	12.06
226.449	9.06
226.683	21.06
226.918	18.06
227.152	30.06
227.387	39.06
227.621	33.06
227.856	54.06
228.09	56.06
228.324	61.06
228.559	64.06
228.793	87.06
229.027	83.06
229.262	101.06
229.496	95.06
229.73	91.06
229.964	104.06
230.199	101.06
230.433	87.06
230.667	102.06
230.901	96.06
231.136	105.06
231.37	99.06
231.604	107.06
231.838	91.06
232.072	93.06
232.306	117.06
232.541	116.06
232.775	117.06
233.009	112.06
233.243	111.06
233.477	102.06
233.711	107.06
233.945	106.06
234.179	109.06
234.413	92.06
234.647	125.06
234.881	97.06
235.115	104.06
235.349	110.06
235.583	109.06
235.817	107.06
236.051	107.06
236.285	104.06
236.519	100.06
236.753	100.06
236.987	121.06
237.221	142.06
237.455	160.06
237.689	135.06
237.922	119.06
238.156	106.06
238.39	109.06
238.624	113.06
238.858	105.06
239.091	121.06
239.325	105.06
239.559	103.06
239.793	108.06
240.027	118.06
240.26	126.06
240.494	121.06
240.728	96.06
240.961	112.06
241.195	112.06
241.429	118.06
241.662	118.06
241.896	127.06
242.13	97.06
242.363	126.06
242.597	125.06
242.83	128.06
243.064	118.06
243.298	127.06
243.531	119.06
243.765	118.06
243.998	120.06
244.232	119.06
244.465	119.06
244.699	133.06
244.932	129.06
245.166	117.06
245.399	128.06
245.633	120.06
245.866	115.06
246.099	127.06
246.333	125.06
246.566	129.06
246.8	132.06
247.033	133.06
247.266	144.06
247.5	133.06
247.733	136.06
247.966	140.06
248.2	127.06
248.433	133.06
248.666	156.06
248.899	146.06
249.133	137.06
249.366	158.06
249.599	148.06
249.832	144.06
250.066	144.06
250.299	154.06
250.532	149.06
250.765	147.06
250.998	171.06
251.231	174.06
251.465	143.06
251.698	158.06
251.931	171.06
252.164	163.06
252.397	160.06
252.63	158.06
252.863	161.06
253.096	164.06
253.329	156.06
253.562	170.06
253.795	180.06
254.028	174.06
254.261	168.06
254.494	175.06
254.727	187.06
254.96	189.06
255.193	176.06
255.426	166.06
255.659	168.06
255.892	168.06
256.124	164.06
256.357	181.06
256.59	172.06
256.823	162.06
257.056	169.06
257.289	166.06
257.521	174.06
257.754	165.06
257.987	164.06
258.22	177.06
258.452	175.06
258.685	164.06
258.918	166.06
259.151	168.06
259.383	183.06
259.616	193.06
259.849	177.06
260.081	181.06
260.314	185.06
260.547	188.06
260.779	184.06
261.012	192.06
261.244	170.06
261.477	165.06
261.71	184.06
261.942	174.06
262.175	184.06
262.407	164.06
262.64	158.06
262.872	168.06
263.105	166.06
263.337	178.06
263.57	164.06
263.802	189.06
264.035	163.06
264.267	166.06
264.499	152.06
264.732	185.06
264.964	178.06
265.197	188.06
265.429	179.06
265.661	179.06
265.894	169.06
266.126	192.06
266.358	186.06
266.591	165.06
266.823	173.06
267.055	186.06
267.287	174.06
267.52	177.06
267.752	189.06
267.984	178.06
268.216	173.06
268.448	198.06
268.681	198.06
268.913	189.06
269.145	203.06
269.377	210.06
269.609	203.06
269.841	203.06
270.073	212.06
270.306	219.06
270.538	214.06
270.77	222.06
271.002	209.06
271.234	209.06
271.466	230.06
271.698	236.06
271.93	224.06
272.162	225.06
272.394	245.06
272.626	208.06
272.858	222.06
273.09	198.06
273.322	182.06
273.553	197.06
273.785	225.06
274.017	200.06
274.249	218.06
274.481	230.06
274.713	206.06
274.945	231.06
275.176	211.06
275.408	213.06
275.64	200.06
275.872	207.06
276.104	214.06
276.335	207.06
276.567	216.06
276.799	215.06
277.031	208.06
277.262	217.06
277.494	226.06
277.726	237.06
277.957	225.06
278.189	221.06
278.421	216.06
278.652	201.06
278.884	204.06
279.115	206.06
279.347	217.06
279.579	222.06
279.81	200.06
280.042	214.06
280.273	200.06
280.505	211.06
280.736	223.06
280.968	225.06
281.199	209.06
281.431	208.06
281.662	222.06
281.894	222.06
282.125	232.06
282.356	221.06
282.588	235.06
282.819	246.06
283.051	219.06
283.282	213.06
283.513	232.06
283.745	217.06
283.976	216.06
284.207	223.06
284.439	240.06
284.67	231.06
284.901	226.06
285.132	239.06
285.364	235.06
285.595	234.06
285.826	228.06
286.057	252.06
286.288	247.06
286.52	231.06
286.751	246.06
286.982	242.06
287.213	239.06
287.444	236.06
287.675	244.06
287.906	221.06
288.138	252.06
288.369	256.06
288.6	249.06
288.831	249.06
289.062	233.06
289.293	234.06
289.524	234.06
289.755	236.06
289.986	246.06
290.217	237.06
290.448	244.06
290.679	254.06
290.91	259.06
291.141	238.06
291.371	237.06
291.602	245.06
291.833	218.06
292.064	240.06
292.295	236.06
292.526	245.06
292.757	251.06
292.987	241.06
293.218	220.06
293.449	226.06
293.68	248.06
293.91	229.06
294.141	243.06
294.372	241.06
294.603	242.06
294.833	237.06
295.064	236.06
295.295	228.06
295.525	237.06
295.756	244.06
295.987	273.06
296.217	258.06
296.448	252.06
296.679	265.06
296.909	246.06
297.14	263.06
297.37	242.06
297.601	266.06
297.831	273.06
298.062	253.06
298.292	261.06
298.523	243.06
298.753	248.06
298.984	252.06
299.214	256.06
299.445	261.06
299.675	271.06
299.905	260.06
300.136	260.06
300.366	265.06
300.597	264.06
300.827	262.06
301.057	263.06
301.288	259.06
301.518	262.06
301.748	281.06
301.979	260.06
302.209	273.06
302.439	256.06
302.669	276.06
302.9	260.06
303.13	263.06
303.36	268.06
303.59	266.06
303.82	274.06
304.051	282.06
304.281	272.06
304.511	273.06
304.741	276.06
304.971	274.06
305.201	274.06
305.431	254.06
305.661	284.06
305.891	265.06
306.121	266.06
306.352	261.06
306.582	255.06
306.812	270.06
307.042	269.06
307.272	281.06
307.502	255.06
307.731	238.06
307.961	267.06
308.191	264.06
308.421	270.06
308.651	254.06
308.881	268.06
309.111	266.06
309.341	280.06
309.571	270.06
309.8	290.06
310.03	283.06
310.26	278.06
310.49	285.06
310.72	284.06
310.949	281.06
311.179	283.06
311.409	294.06
311.639	282.06
311.868	272.06
312.098	299.06
312.328	282.06
312.557	298.06
312.787	289.06
313.017	300.06
313.246	289.06
313.476	288.06
313.706	297.06
313.935	297.06
314.165	285.06
314.394	299.06
314.624	303.06
314.853	283.06
315.083	321.06
315.312	293.06
315.542	294.06
315.771	283.06
316.001	302.06
316.23	292.06
316.46	301.06
316.689	295.06
316.919	290.06
317.148	297.06
317.377	282.06
317.607	302.06
317.836	292.06
318.065	304.06
318.295	290.06
318.524	282.06
318.753	290.06
318.983	289.06
319.212	317.06
319.441	287.06
319.67	275.06
319.9	279.06
320.129	296.06
320.358	296.06
320.587	297.06
320.816	285.06
321.046	308.06
321.275	306.06
321.504	306.06
321.733	289.06
321.962	304.06
322.191	308.06
322.42	305.06
322.649	295.06
322.878	300.06
323.108	315.06
323.337	330.06
323.566	320.06
323.795	342.06
324.024	353.06
324.253	376.06
324.482	476.06
324.71	631.06
324.939	860.06
325.168	733.06
325.397	447.06
325.626	360.06
325.855	328.06
326.084	322.06
326.313	322.06
326.542	331.06
326.77	356.06
326.999	381.06
327.228	466.06
327.457	613.06
327.686	681.06
327.914	485.06
328.143	380.06
328.372	382.06
328.6	352.06
328.829	335.06
329.058	338.06
329.287	364.06
329.515	346.06
329.744	347.06
329.972	335.06
330.201	355.06
330.43	345.06
330.658	359.06
330.887	359.06
331.115	372.06
331.344	358.06
331.572	345.06
331.801	341.06
332.03	353.06
332.258	359.06
332.486	357.06
332.715	335.06
332.943	351.06
333.172	376.06
333.4	376.06
333.629	381.06
333.857	366.06
334.085	373.06
334.314	384.06
334.542	393.06
334.771	393.06
334.999	383.06
335.227	374.06
335.455	356.06
335.684	382.06
335.912	342.06
336.14	358.06
336.369	350.06
336.597	370.06
336.825	369.06
337.053	338.06
337.281	357.06
337.51	334.06
337.738	342.06
337.966	346.06
338.194	342.06
338.422	344.06
338.65	338.06
338.878	334.06
339.106	333.06
339.334	333.06
339.562	318.06
339.79	335.06
340.018	332.06
340.246	324.06
340.474	337.06
340.702	331.06
340.93	336.06
341.158	324.06
341.386	324.06
341.614	329.06
341.842	333.06
342.07	321.06
342.298	316.06
342.526	336.06
342.754	319.06
342.981	317.06
343.209	325.06
343.437	327.06
343.665	357.06
343.893	365.06
344.12	372.06
344.348	342.06
344.576	345.06
344.804	337.06
345.031	331.06
345.259	344.06
345.487	340.06
345.714	314.06
345.942	327.06
346.17	311.06
346.397	324.06
346.625	309.06
346.853	300.06
347.08	310.06
347.308	332.06
347.535	320.06
347.763	312.06
347.99	332.06
348.218	314.06
348.445	331.06
348.673	312.06
348.9	308.06
349.128	304.06
349.355	316.06
349.583	304.06
349.81	293.06
350.037	296.06
350.265	301.06
350.492	316.06
350.72	304.06
350.947	320.06
351.174	314.06
351.402	298.06
351.629	304.06
351.856	328.06
352.083	298.06
352.311	329.06
352.538	333.06
352.765	313.06
352.992	312.06
353.22	315.06
353.447	300.06
353.674	325.06
353.901	293.06
354.128	307.06
354.355	304.06
354.583	301.06
354.81	296.06
355.037	290.06
355.264	297.06
355.491	298.06
355.718	309.06
355.945	292.06
356.172	286.06
356.399	292.06
356.626	300.06
356.853	301.06
357.08	316.06
357.307	298.06
357.534	295.06
357.761	301.06
357.988	301.06
358.215	319.06
358.441	286.06
358.668	282.06
358.895	301.06
359.122	304.06
359.349	313.06
359.576	314.06
359.802	324.06
360.029	311.06
360.256	311.06
360.483	326.06
360.709	298.06
360.936	300.06
361.163	289.06
361.39	316.06
361.616	310.06
361.843	312.06
362.07	302.06
362.296	289.06
362.523	317.06
362.749	297.06
362.976	310.06
363.203	286.06
363.429	299.06
363.656	317.06
363.882	308.06
364.109	294.06
364.335	301.06
364.562	295.06
364.788	293.06
365.015	308.06
365.241	305.06
365.468	298.06
365.694	317.06
365.92	313.06
366.147	302.06
366.373	309.06
366.599	307.06
366.826	302.06
367.052	287.06
367.278	305.06
367.505	312.06
367.731	292.06
367.957	302.06
368.184	315.06
368.41	304.06
368.636	312.06
368.862	288.06
369.089	305.06
369.315	305.06
369.541	294.06
369.767	307.06
369.993	321.06
370.219	309.06
370.445	317.06
370.672	311.06
370.898	322.06
371.124	311.06
371.35	320.06
371.576	331.06
371.802	316.06
372.028	321.06
372.254	325.06
372.48	316.06
372.706	313.06
372.932	322.06
373.158	310.06
373.384	319.06
373.61	326.06
373.835	298.06
374.061	305.06
374.287	299.06
374.513	305.06
374.739	322.06
374.965	321.06
375.191	332.06
375.416	332.06
375.642	303.06
375.868	334.06
376.094	335.06
376.319	315.06
376.545	312.06
376.771	312.06
376.997	318.06
377.222	305.06
377.448	299.06
377.674	318.06
377.899	323.06
378.125	333.06
378.35	312.06
378.576	327.06
378.802	331.06
379.027	322.06
379.253	312.06
379.478	297.06
379.704	302.06
379.929	295.06
380.155	314.06
380.38	313.06
380.606	314.06
380.831	320.06
381.057	312.06
381.282	311.06
381.507	299.06
381.733	326.06
381.958	318.06
382.184	324.06
382.409	337.06
382.634	317.06
382.86	323.06
383.085	332.06
383.31	318.06
383.535	336.06
383.761	330.06
383.986	319.06
384.211	329.06
384.436	337.06
384.662	342.06
384.887	355.06
385.112	357.06
385.337	358.06
385.562	340.06
385.787	353.06
386.013	372.06
386.238	361.06
386.463	345.06
386.688	359.06
386.913	359.06
387.138	360.06
387.363	346.06
387.588	353.06
387.813	344.06
388.038	358.06
388.263	352.06
388.488	339.06
388.713	355.06
388.938	337.06
389.163	334.06
389.387	350.06
389.612	351.06
389.837	347.06
390.062	345.06
390.287	337.06
390.512	341.06
390.736	352.06
390.961	340.06
391.186	336.06
391.411	347.06
391.636	351.06
391.86	372.06
392.085	374.06
392.31	359.06
392.534	372.06
392.759	359.06
392.984	345.06
393.208	348.06
393.433	356.06
393.658	359.06
393.882	357.06
394.107	363.06
394.331	376.06
394.556	361.06
394.78	371.06
395.005	367.06
395.229	349.06
395.454	376.06
395.678	369.06
395.903	400.06
396.127	392.06
396.352	360.06
396.576	364.06
396.801	369.06
397.025	384.06
397.249	379.06
397.474	344.06
397.698	378.06
397.922	392.06
398.147	389.06
398.371	383.06
398.595	378.06
398.82	398.06
399.044	410.06
399.268	425.06
399.492	485.06
399.717	535.06
399.941	520.06
400.165	509.06
400.389	491.06
400.613	437.06
400.837	416.06
401.062	414.06
401.286	407.06
401.51	410.06
401.734	392.06
401.958	407.06
402.182	402.06
402.406	411.06
402.63	405.06
402.854	432.06
403.078	426.06
403.302	426.06
403.526	447.06
403.75	452.06
403.974	451.06
404.198	471.06
404.422	460.06
404.645	425.06
404.869	459.06
405.093	464.06
405.317	445.06
405.541	484.06
405.765	459.06
405.988	432.06
406.212	438.06
406.436	459.06
406.66	449.06
406.883	455.06
407.107	479.06
407.331	486.06
407.555	530.06
407.778	511.06
408.002	493.06
408.226	466.06
408.449	453.06
408.673	456.06
408.896	485.06
409.12	474.06
409.344	461.06
409.567	427.06
409.791	445.06
410.014	431.06
410.238	422.06
410.461	413.06
410.685	418.06
410.908	405.06
411.132	426.06
411.355	441.06
411.578	428.06
411.802	415.06
412.025	398.06
412.249	429.06
412.472	444.06
412.695	444.06
412.919	439.06
413.142	406.06
413.365	406.06
413.589	433.06
413.812	409.06
414.035	420.06
414.258	385.06
414.482	386.06
414.705	405.06
414.928	395.06
415.151	401.06
415.374	397.06
415.597	398.06
415.821	407.06
416.044	424.06
416.267	386.06
416.49	381.06
416.713	389.06
416.936	383.06
417.159	410.06
417.382	406.06
417.605	386.06
417.828	398.06
418.051	400.06
418.274	403.06
418.497	389.06
418.72	394.06
418.943	416.06
419.166	420.06
419.389	428.06
419.611	433.06
419.834	429.06
420.057	432.06
420.28	414.06
420.503	415.06
420.726	413.06
420.948	418.06
421.171	433.06
421.394	447.06
421.617	417.06
421.839	413.06
422.062	415.06
422.285	397.06
422.507	435.06
422.73	473.06
422.953	462.06
423.175	417.06
423.398	426.06
423.621	414.06
423.843	433.06
424.066	429.06
424.288	425.06
424.511	434.06
424.733	442.06
424.956	481.06
425.178	461.06
425.401	458.06
425.623	456.06
425.846	425.06
426.068	440.06
426.291	418.06
426.513	402.06
426.735	406.06
426.958	431.06
427.18	471.06
427.402	499.06
427.625	558.06
427.847	474.06
428.069	428.06
428.292	406.06
428.514	402.06
428.736	378.06
428.958	385.06
429.181	394.06
429.403	339.06
429.625	384.06
429.847	410.06
430.069	421.06
430.292	430.06
430.514	379.06
430.736	401.06
430.958	380.06
431.18	382.06
431.402	381.06
431.624	367.06
431.846	346.06
432.068	383.06
432.29	378.06
432.512	382.06
432.734	378.06
432.956	376.06
433.178	378.06
433.4	381.06
433.622	384.06
433.844	393.06
434.066	398.06
434.287	376.06
434.509	387.06
434.731	402.06
434.953	421.06
435.175	411.06
435.397	416.06
435.618	413.06
435.84	421.06
436.062	447.06
436.284	504.06
436.505	443.06
436.727	408.06
436.949	382.06
437.17	385.06
437.392	384.06
437.614	377.06
437.835	385.06
438.057	448.06
438.278	458.06
438.5	474.06
438.721	510.06
438.943	465.06
439.165	432.06
439.386	405.06
439.608	397.06
439.829	409.06
440.05	421.06
440.272	410.06
440.493	388.06
440.715	396.06
440.936	391.06
441.158	397.06
441.379	409.06
441.6	411.06
441.822	405.06
442.043	468.06
442.264	452.06
442.486	490.06
442.707	422.06
442.928	419.06
443.149	428.06
443.371	422.06
443.592	440.06
443.813	492.06
444.034	515.06
444.255	457.06
444.476	446.06
444.698	472.06
444.919	442.06
445.14	583.06
445.361	503.06
445.582	446.06
445.803	461.06
446.024	485.06
446.245	505.06
446.466	453.06
446.687	434.06
446.908	398.06
447.129	420.06
447.35	390.06
447.571	397.06
447.792	354.06
448.013	380.06
448.234	390.06
448.455	400.06
448.675	440.06
448.896	472.06
449.117	432.06
449.338	448.06
449.559	487.06
449.779	508.06
450	424.06
450.221	362.06
450.442	372.06
450.662	364.06
450.883	351.06
451.104	366.06
451.324	341.06
451.545	341.06
451.766	335.06
451.986	344.06
452.207	342.06
452.428	350.06
452.648	337.06
452.869	342.06
453.089	334.06
453.31	355.06
453.53	360.06
453.751	324.06
453.971	349.06
454.192	332.06
454.412	318.06
454.633	335.06
454.853	330.06
455.073	336.06
455.294	352.06
455.514	362.06
455.734	364.06
455.955	353.06
456.175	333.06
456.395	331.06
456.616	337.06
456.836	330.06
457.056	345.06
457.276	336.06
457.497	350.06
457.717	332.06
457.937	335.06
458.157	355.06
458.377	320.06
458.598	348.06
458.818	374.06
459.038	409.06
459.258	406.06
459.478	380.06
459.698	379.06
459.918	371.06
460.138	389.06
460.358	411.06
460.578	406.06
460.798	397.06
461.018	424.06
461.238	406.06
461.458	422.06
461.678	388.06
461.898	398.06
462.118	409.06
462.338	428.06
462.558	420.06
462.777	457.06
462.997	448.06
463.217	475.06
463.437	469.06
463.657	456.06
463.876	447.06
464.096	446.06
464.316	442.06
464.536	447.06
464.755	450.06
464.975	438.06
465.195	439.06
465.414	464.06
465.634	410.06
465.854	390.06
466.073	380.06
466.293	370.06
466.512	358.06
466.732	372.06
466.951	341.06
467.171	372.06
467.391	351.06
467.61	396.06
467.829	357.06
468.049	366.06
468.268	366.06
468.488	359.06
468.707	362.06
468.927	353.06
469.146	360.06
469.365	351.06
469.585	369.06
469.804	366.06
470.023	379.06
470.243	373.06
470.462	382.06
470.681	385.06
470.901	394.06
471.12	388.06
471.339	360.06
471.558	362.06
471.777	384.06
471.997	358.06
472.216	351.06
472.435	377.06
472.654	381.06
472.873	362.06
473.092	377.06
473.311	352.06
473.53	362.06
473.749	347.06
473.968	367.06
474.187	426.06
474.406	424.06
474.625	382.06
474.844	370.06
475.063	360.06
475.282	367.06
475.501	360.06
475.72	374.06
475.939	353.06
476.158	366.06
476.377	360.06
476.596	379.06
476.814	383.06
477.033	389.06
477.252	368.06
477.471	376.06
477.69	374.06
477.908	426.06
478.127	417.06
478.346	405.06
478.564	416.06
478.783	417.06
479.002	428.06
479.22	439.06
479.439	428.06
479.658	437.06
479.876	439.06
480.095	445.06
480.313	455.06
480.532	445.06
480.751	454.06
480.969	447.06
481.188	452.06
481.406	449.06
481.624	459.06
481.843	422.06
482.061	422.06
482.28	415.06
482.498	393.06
482.717	405.06
482.935	400.06
483.153	422.06
483.372	392.06
483.59	408.06
483.808	392.06
484.027	423.06
484.245	413.06
484.463	413.06
484.681	408.06
484.9	437.06
485.118	442.06
485.336	427.06
485.554	427.06
485.772	430.06
485.99	437.06
486.209	433.06
486.427	426.06
486.645	434.06
486.863	453.06
487.081	424.06
487.299	452.06
487.517	432.06
487.735	414.06
487.953	431.06
488.171	462.06
488.389	465.06
488.607	445.06
488.825	431.06
489.043	438.06
489.261	458.06
489.479	447.06
489.696	461.06
489.914	443.06
490.132	433.06
490.35	448.06
490.568	440.06
490.786	465.06
491.003	463.06
491.221	482.06
491.439	472.06
491.657	482.06
491.874	476.06
492.092	492.06
492.31	502.06
492.527	494.06
492.745	506.06
492.963	502.06
493.18	497.06
493.398	502.06
493.615	487.06
493.833	498.06
494.05	504.06
494.268	490.06
494.485	496.06
494.703	497.06
494.92	501.06
495.138	486.06
495.355	511.06
495.573	502.06
495.79	517.06
496.008	506.06
496.225	512.06
496.442	485.06
496.66	495.06
496.877	513.06
497.094	515.06
497.312	508.06
497.529	525.06
497.746	542.06
497.963	556.06
498.181	571.06
498.398	567.06
498.615	591.06
498.832	632.06
499.049	651.06
499.267	677.06
499.484	712.06
499.701	749.06
499.918	786.06
500.135	845.06
500.352	920.06
500.569	960.06
500.786	961.06
501.003	900.06
501.22	875.06
501.437	799.06
501.654	750.06
501.871	728.06
502.088	673.06
502.305	628.06
502.522	629.06
502.739	610.06
502.956	570.06
503.172	545.06
503.389	554.06
503.606	550.06
503.823	547.06
504.04	539.06
504.256	524.06
504.473	535.06
504.69	526.06
504.907	536.06
505.123	472.06
505.34	508.06
505.557	475.06
505.773	476.06
505.99	473.06
506.207	450.06
506.423	478.06
506.64	480.06
506.856	466.06
507.073	452.06
507.289	467.06
507.506	462.06
507.722	440.06
507.939	445.06
508.155	440.06
508.372	428.06
508.588	450.06
508.805	457.06
509.021	432.06
509.238	433.06
509.454	443.06
509.67	430.06
509.887	427.06
510.103	425.06
510.319	429.06
510.536	462.06
510.752	624.06
510.968	542.06
511.184	427.06
511.401	424.06
511.617	409.06
511.833	439.06
512.049	406.06
512.265	415.06
512.481	420.06
512.698	394.06
512.914	409.06
513.13	402.06
513.346	402.06
513.562	416.06
513.778	393.06
513.994	420.06
514.21	425.06
514.426	433.06
514.642	440.06
514.858	449.06
515.074	458.06
515.29	472.06
515.506	638.06
515.721	571.06
515.937	468.06
516.153	448.06
516.369	448.06
516.585	445.06
516.801	471.06
517.016	470.06
517.232	454.06
517.448	471.06
517.664	485.06
517.879	485.06
518.095	458.06
518.311	462.06
518.527	483.06
518.742	476.06
518.958	460.06
519.173	458.06
519.389	448.06
519.605	425.06
519.82	438.06
520.036	425.06
520.251	412.06
520.467	420.06
520.682	431.06
520.898	409.06
521.113	433.06
521.329	449.06
521.544	479.06
521.76	492.06
521.975	767.06
522.19	741.06
522.406	473.06
522.621	408.06
522.836	389.06
523.052	401.06
523.267	393.06
523.482	396.06
523.698	386.06
523.913	394.06
524.128	370.06
524.343	386.06
524.559	361.06
524.774	356.06
524.989	375.06
525.204	380.06
525.419	371.06
525.634	389.06
525.849	361.06
526.064	346.06
526.28	364.06
526.495	360.06
526.71	359.06
526.925	364.06
527.14	366.06
527.355	356.06
527.57	352.06
527.785	360.06
527.999	347.06
528.214	371.06
528.429	353.06
528.644	356.06
528.859	382.06
529.074	357.06
529.289	388.06
529.503	394.06
529.718	392.06
529.933	363.06
530.148	383.06
530.363	348.06
530.577	352.06
530.792	365.06
531.007	341.06
531.221	337.06
531.436	363.06
531.651	350.06
531.865	356.06
532.08	358.06
532.295	356.06
532.509	349.06
532.724	349.06
532.938	368.06
533.153	369.06
533.367	343.06
533.582	368.06
533.796	354.06
534.011	352.06
534.225	342.06
534.44	348.06
534.654	351.06
534.868	332.06
535.083	369.06
535.297	362.06
535.511	365.06
535.726	353.06
535.94	346.06
536.154	325.06
536.369	340.06
536.583	328.06
536.797	331.06
537.011	336.06
537.225	353.06
537.44	352.06
537.654	320.06
537.868	317.06
538.082	343.06
538.296	323.06
538.51	320.06
538.724	324.06
538.938	332.06
539.153	352.06
539.367	351.06
539.581	349.06
539.795	336.06
540.009	338.06
540.222	346.06
540.436	351.06
540.65	327.06
540.864	342.06
541.078	338.06
541.292	341.06
541.506	334.06
541.72	353.06
541.934	352.06
542.147	359.06
542.361	333.06
542.575	341.06
542.789	331.06
543.002	325.06
543.216	330.06
543.43	336.06
543.644	342.06
543.857	343.06
544.071	347.06
544.285	353.06
544.498	348.06
544.712	341.06
544.925	361.06
545.139	367.06
545.352	339.06
545.566	337.06
545.779	339.06
545.993	332.06
546.206	369.06
546.42	367.06
546.633	360.06
546.847	357.06
547.06	336.06
547.274	335.06
547.487	332.06
547.7	342.06
547.914	360.06
548.127	355.06
548.34	334.06
548.554	344.06
548.767	338.06
548.98	356.06
549.193	357.06
549.407	337.06
549.62	343.06
549.833	347.06
550.046	353.06
550.259	343.06
550.473	341.06
550.686	317.06
550.899	334.06
551.112	345.06
551.325	342.06
551.538	328.06
551.751	326.06
551.964	325.06
552.177	338.06
552.39	345.06
552.603	328.06
552.816	350.06
553.029	353.06
553.242	364.06
553.455	357.06
553.667	373.06
553.88	365.06
554.093	342.06
554.306	366.06
554.519	368.06
554.732	333.06
554.944	347.06
555.157	335.06
555.37	336.06
555.583	329.06
555.795	329.06
556.008	310.06
556.221	325.06
556.433	326.06
556.646	300.06
556.859	316.06
557.071	309.06
557.284	289.06
557.496	316.06
557.709	320.06
557.921	306.06
558.134	319.06
558.346	303.06
558.559	288.06
558.771	308.06
558.984	304.06
559.196	301.06
559.409	295.06
559.621	312.06
559.833	281.06
560.046	282.06
560.258	286.06
560.47	285.06
560.683	326.06
560.895	298.06
561.107	290.06
561.32	314.06
561.532	301.06
561.744	309.06
561.956	301.06
562.168	297.06
562.381	297.06
562.593	311.06
562.805	313.06
563.017	302.06
563.229	307.06
563.441	283.06
563.653	312.06
563.865	310.06
564.077	304.06
564.289	301.06
564.501	313.06
564.713	316.06
564.925	316.06
565.137	330.06
565.349	329.06
565.561	330.06
565.773	349.06
565.985	347.06
566.197	361.06
566.408	386.06
566.62	415.06
566.832	423.06
567.044	413.06
567.255	439.06
567.467	433.06
567.679	437.06
567.891	476.06
568.102	473.06
568.314	456.06
568.526	421.06
568.737	416.06
568.949	379.06
569.161	354.06
569.372	338.06
569.584	318.06
569.795	322.06
570.007	325.06
570.218	324.06
570.43	325.06
570.641	315.06
570.853	304.06
571.064	317.06
571.276	314.06
571.487	288.06
571.698	285.06
571.91	300.06
572.121	289.06
572.333	299.06
572.544	276.06
572.755	280.06
572.966	275.06
573.178	271.06
573.389	258.06
573.6	276.06
573.811	254.06
574.023	263.06
574.234	262.06
574.445	255.06
574.656	280.06
574.867	264.06
575.078	263.06
575.289	282.06
575.501	272.06
575.712	278.06
575.923	278.06
576.134	268.06
576.345	260.06
576.556	250.06
576.767	282.06
576.978	272.06
577.188	246.06
577.399	263.06
577.61	262.06
577.821	260.06
578.032	262.06
578.243	261.06
578.454	333.06
578.665	289.06
578.875	242.06
579.086	257.06
579.297	254.06
579.508	242.06
579.718	235.06
579.929	259.06
580.14	237.06
580.35	252.06
580.561	247.06
580.772	241.06
580.982	244.06
581.193	246.06
581.403	246.06
581.614	239.06
581.825	237.06
582.035	225.06
582.246	250.06
582.456	237.06
582.667	235.06
582.877	247.06
583.087	232.06
583.298	249.06
583.508	238.06
583.719	249.06
583.929	245.06
584.139	242.06
584.35	239.06
584.56	242.06
584.77	241.06
584.981	253.06
585.191	245.06
585.401	233.06
585.611	238.06
585.821	249.06
586.032	240.06
586.242	226.06
586.452	237.06
586.662	235.06
586.872	224.06
587.082	225.06
587.292	240.06
587.502	235.06
587.713	235.06
587.923	251.06
588.133	236.06
588.343	239.06
588.553	239.06
588.762	253.06
588.972	248.06
589.182	244.06
589.392	234.06
589.602	225.06
589.812	247.06
590.022	247.06
590.232	231.06
590.441	244.06
590.651	256.06
590.861	237.06
591.071	241.06
591.281	245.06
591.49	248.06
591.7	252.06
591.91	244.06
592.119	237.06
592.329	256.06
592.539	253.06
592.748	267.06
592.958	282.06
593.167	264.06
593.377	273.06
593.587	280.06
593.796	280.06
594.006	284.06
594.215	269.06
594.424	274.06
594.634	287.06
594.843	274.06
595.053	265.06
595.262	261.06
595.472	257.06
595.681	233.06
595.89	258.06
596.1	246.06
596.309	248.06
596.518	229.06
596.727	244.06
596.937	223.06
597.146	233.06
597.355	229.06
597.564	226.06
597.774	233.06
597.983	228.06
598.192	231.06
598.401	223.06
598.61	216.06
598.819	229.06
599.028	218.06
599.237	200.06
599.446	221.06
599.655	218.06
599.864	228.06
600.073	221.06
600.282	207.06
600.491	223.06
600.7	220.06
600.909	205.06
601.118	210.06
601.327	219.06
601.536	194.06
601.745	217.06
601.953	199.06
602.162	221.06
602.371	230.06
602.58	219.06
602.789	221.06
602.997	222.06
603.206	215.06
603.415	218.06
603.623	224.06
603.832	211.06
604.041	237.06
604.249	208.06
604.458	210.06
604.666	228.06
604.875	229.06
605.084	217.06
605.292	193.06
605.501	208.06
605.709	198.06
605.918	220.06
606.126	223.06
606.334	192.06
606.543	221.06
606.751	220.06
606.96	198.06
607.168	192.06
607.376	198.06
607.585	190.06
607.793	219.06
608.001	205.06
608.21	215.06
608.418	206.06
608.626	198.06
608.834	199.06
609.043	207.06
609.251	230.06
609.459	196.06
609.667	200.06
609.875	190.06
610.083	213.06
610.291	203.06
610.499	205.06
610.707	207.06
610.916	212.06
611.124	219.06
611.332	203.06
611.54	215.06
611.748	196.06
611.955	224.06
612.163	221.06
612.371	206.06
612.579	208.06
612.787	216.06
612.995	197.06
613.203	213.06
613.411	204.06
613.618	202.06
613.826	216.06
614.034	211.06
614.242	219.06
614.449	207.06
614.657	202.06
614.865	219.06
615.072	211.06
615.28	204.06
615.488	205.06
615.695	211.06
615.903	201.06
616.111	212.06
616.318	216.06
616.526	211.06
616.733	217.06
616.941	197.06
617.148	201.06
617.356	208.06
617.563	199.06
617.771	212.06
617.978	196.06
618.185	203.06
618.393	218.06
618.6	192.06
618.807	203.06
619.015	206.06
619.222	209.06
619.429	210.06
619.637	203.06
619.844	186.06
620.051	208.06
620.258	191.06
620.466	218.06
620.673	181.06
620.88	192.06
621.087	184.06
621.294	193.06
621.501	184.06
621.708	194.06
621.915	217.06
622.122	202.06
622.329	198.06
622.536	194.06
622.743	198.06
622.95	192.06
623.157	175.06
623.364	196.06
623.571	181.06
623.778	178.06
623.985	184.06
624.192	198.06
624.399	185.06
624.606	191.06
624.812	183.06
625.019	181.06
625.226	180.06
625.433	187.06
625.639	173.06
625.846	188.06
626.053	198.06
626.259	191.06
626.466	182.06
626.673	169.06
626.879	194.06
627.086	177.06
627.293	170.06
627.499	186.06
627.706	190.06
627.912	183.06
628.119	163.06
628.325	189.06
628.532	177.06
628.738	188.06
628.945	182.06
629.151	194.06
629.357	179.06
629.564	175.06
629.77	190.06
629.976	168.06
630.183	178.06
630.389	185.06
630.595	189.06
630.802	177.06
631.008	186.06
631.214	172.06
631.42	171.06
631.627	184.06
631.833	178.06
632.039	180.06
632.245	158.06
632.451	165.06
632.657	153.06
632.863	163.06
633.069	161.06
633.275	166.06
633.481	172.06
633.688	163.06
633.893	166.06
634.099	172.06
634.305	174.06
634.511	161.06
634.717	171.06
634.923	156.06
635.129	164.06
635.335	165.06
635.541	160.06
635.747	160.06
635.952	168.06
636.158	175.06
636.364	177.06
636.57	190.06
636.775	160.06
636.981	165.06
637.187	165.06
637.392	161.06
637.598	153.06
637.804	172.06
638.009	166.06
638.215	165.06
638.421	166.06
638.626	168.06
638.832	173.06
639.037	160.06
639.243	182.06
639.448	164.06
639.654	154.06
639.859	146.06
640.065	162.06
640.27	166.06
640.475	164.06
640.681	156.06
640.886	164.06
641.091	156.06
641.297	161.06
641.502	151.06
641.707	152.06
641.913	162.06
642.118	162.06
642.323	163.06
642.528	160.06
642.733	157.06
642.939	149.06
643.144	161.06
643.349	154.06
643.554	173.06
643.759	160.06
643.964	146.06
644.169	148.06
644.374	155.06
644.579	159.06
644.784	157.06
644.989	150.06
645.194	144.06
645.399	158.06
645.604	148.06
645.809	154.06
646.014	158.06
646.219	162.06
646.423	153.06
646.628	155.06
646.833	163.06
647.038	159.06
647.243	160.06
647.447	162.06
647.652	149.06
647.857	160.06
648.062	164.06
648.266	168.06
648.471	168.06
648.676	169.06
648.88	161.06
649.085	186.06
649.289	164.06
649.494	158.06
649.698	180.06
649.903	165.06
650.107	158.06
650.312	155.06
650.516	139.06
650.721	149.06
650.925	154.06
651.13	160.06
651.334	128.06
651.539	152.06
651.743	149.06
651.947	160.06
652.152	145.06
652.356	125.06
652.56	131.06
652.764	147.06
652.969	147.06
653.173	137.06
653.377	133.06
653.581	152.06
653.785	143.06
653.99	139.06
654.194	150.06
654.398	129.06
654.602	145.06
654.806	138.06
655.01	144.06
655.214	126.06
655.418	144.06
655.622	136.06
655.826	157.06
656.03	143.06
656.234	129.06
656.438	146.06
656.642	139.06
656.846	142.06
657.049	137.06
657.253	120.06
657.457	114.06
657.661	122.06
657.865	120.06
658.068	102.06
658.272	104.06
658.476	111.06
658.68	113.06
658.883	118.06
659.087	104.06
659.291	112.06
659.494	116.06
659.698	98.06
659.901	94.06
660.105	85.06
660.309	106.06
660.512	107.06
660.716	101.06
660.919	92.06
661.123	86.06
661.326	102.06
661.53	97.06
661.733	82.06
661.936	84.06
662.14	78.06
662.343	88.06
662.546	81.06
662.75	85.06
662.953	97.06
663.156	73.06
663.36	80.06
663.563	87.06
663.766	90.06
663.969	88.06
664.173	77.06
664.376	82.06
664.579	90.06
664.782	85.06
664.985	103.06
665.188	78.06
665.391	93.06
665.594	81.06
665.797	87.06
666	87.06
666.203	89.06
666.406	80.06
666.609	85.06
666.812	94.06
667.015	93.06
667.218	72.06
667.421	81.06
667.624	80.06
667.827	92.06
668.03	84.06
668.232	72.06
668.435	81.06
668.638	71.06
668.841	79.06
669.043	91.06
669.246	81.06
669.449	85.06
669.651	99.06
669.854	80.06
670.057	80.06
670.259	88.06
670.462	98.06
670.665	91.06
670.867	87.06
671.07	77.06
671.272	97.06
671.475	91.06
671.677	97.06
671.88	86.06
672.082	85.06
672.284	78.06
672.487	72.06
672.689	87.06
672.892	89.06
