Data from 1969.PennyLincolnUp.Lamp.En5.5.200Scan.071719.P1._HRD10591_14-56-04-019.txt Node
Date: Thu Jul 18 14:56:04 EDT 2019
User: cochatt
Spectrometer: HR+D1059
Trigger mode: 1
Integration Time (sec): 1.000000E-1
Scans to average: 1
Electric dark correction enabled: true
Nonlinearity correction enabled: false
Boxcar width: 0
XAxis mode: Wavelengths
Number of Pixels in Spectrum: 2048
>>>>>Begin Spectral Data<<<<<
223.165	-14.12
223.4	-14.12
223.635	-14.12
223.869	-18.12
224.104	-13.12
224.338	-14.12
224.573	-25.12
224.808	-13.12
225.042	2.88
225.277	-19.12
225.511	1.88
225.746	11.88
225.98	-0.12
226.215	-2.12
226.449	27.88
226.683	17.88
226.918	26.88
227.152	29.88
227.387	21.88
227.621	28.88
227.856	38.88
228.09	39.88
228.324	32.88
228.559	45.88
228.793	53.88
229.027	80.88
229.262	85.88
229.496	98.88
229.73	106.88
229.964	114.88
230.199	95.88
230.433	105.88
230.667	104.88
230.901	97.88
231.136	85.88
231.37	88.88
231.604	102.88
231.838	106.88
232.072	101.88
232.306	105.88
232.541	99.88
232.775	94.88
233.009	98.88
233.243	101.88
233.477	111.88
233.711	108.88
233.945	101.88
234.179	105.88
234.413	118.88
234.647	98.88
234.881	109.88
235.115	109.88
235.349	110.88
235.583	112.88
235.817	106.88
236.051	101.88
236.285	101.88
236.519	121.88
236.753	118.88
236.987	119.88
237.221	137.88
237.455	154.88
237.689	152.88
237.922	123.88
238.156	106.88
238.39	119.88
238.624	100.88
238.858	109.88
239.091	109.88
239.325	118.88
239.559	117.88
239.793	114.88
240.027	129.88
240.26	126.88
240.494	117.88
240.728	125.88
240.961	126.88
241.195	118.88
241.429	127.88
241.662	136.88
241.896	131.88
242.13	111.88
242.363	119.88
242.597	112.88
242.83	116.88
243.064	127.88
243.298	125.88
243.531	119.88
243.765	122.88
243.998	128.88
244.232	116.88
244.465	139.88
244.699	117.88
244.932	132.88
245.166	122.88
245.399	125.88
245.633	123.88
245.866	133.88
246.099	127.88
246.333	142.88
246.566	110.88
246.8	124.88
247.033	134.88
247.266	127.88
247.5	150.88
247.733	143.88
247.966	145.88
248.2	159.88
248.433	134.88
248.666	153.88
248.899	156.88
249.133	166.88
249.366	158.88
249.599	152.88
249.832	149.88
250.066	167.88
250.299	155.88
250.532	165.88
250.765	175.88
250.998	192.88
251.231	177.88
251.465	178.88
251.698	178.88
251.931	163.88
252.164	177.88
252.397	159.88
252.63	169.88
252.863	177.88
253.096	180.88
253.329	192.88
253.562	194.88
253.795	184.88
254.028	170.88
254.261	190.88
254.494	181.88
254.727	191.88
254.96	221.88
255.193	210.88
255.426	213.88
255.659	193.88
255.892	192.88
256.124	190.88
256.357	205.88
256.59	194.88
256.823	193.88
257.056	178.88
257.289	199.88
257.521	187.88
257.754	171.88
257.987	174.88
258.22	173.88
258.452	177.88
258.685	169.88
258.918	186.88
259.151	189.88
259.383	188.88
259.616	192.88
259.849	180.88
260.081	176.88
260.314	208.88
260.547	206.88
260.779	210.88
261.012	178.88
261.244	181.88
261.477	201.88
261.71	163.88
261.942	171.88
262.175	189.88
262.407	177.88
262.64	177.88
262.872	184.88
263.105	181.88
263.337	175.88
263.57	189.88
263.802	188.88
264.035	175.88
264.267	189.88
264.499	171.88
264.732	199.88
264.964	189.88
265.197	199.88
265.429	183.88
265.661	199.88
265.894	189.88
266.126	195.88
266.358	169.88
266.591	170.88
266.823	202.88
267.055	189.88
267.287	196.88
267.52	193.88
267.752	195.88
267.984	198.88
268.216	211.88
268.448	200.88
268.681	184.88
268.913	214.88
269.145	228.88
269.377	233.88
269.609	232.88
269.841	243.88
270.073	221.88
270.306	261.88
270.538	252.88
270.77	266.88
271.002	237.88
271.234	226.88
271.466	238.88
271.698	251.88
271.93	248.88
272.162	257.88
272.394	257.88
272.626	238.88
272.858	243.88
273.09	224.88
273.322	223.88
273.553	233.88
273.785	237.88
274.017	225.88
274.249	233.88
274.481	216.88
274.713	223.88
274.945	237.88
275.176	223.88
275.408	228.88
275.64	215.88
275.872	213.88
276.104	223.88
276.335	221.88
276.567	226.88
276.799	223.88
277.031	247.88
277.262	243.88
277.494	251.88
277.726	262.88
277.957	241.88
278.189	241.88
278.421	228.88
278.652	238.88
278.884	241.88
279.115	224.88
279.347	229.88
279.579	233.88
279.81	249.88
280.042	243.88
280.273	225.88
280.505	253.88
280.736	237.88
280.968	230.88
281.199	238.88
281.431	228.88
281.662	235.88
281.894	235.88
282.125	256.88
282.356	243.88
282.588	251.88
282.819	260.88
283.051	244.88
283.282	268.88
283.513	248.88
283.745	241.88
283.976	247.88
284.207	262.88
284.439	252.88
284.67	242.88
284.901	259.88
285.132	245.88
285.364	241.88
285.595	250.88
285.826	237.88
286.057	258.88
286.288	256.88
286.52	259.88
286.751	246.88
286.982	248.88
287.213	244.88
287.444	259.88
287.675	270.88
287.906	280.88
288.138	268.88
288.369	264.88
288.6	281.88
288.831	280.88
289.062	259.88
289.293	261.88
289.524	264.88
289.755	250.88
289.986	279.88
290.217	251.88
290.448	259.88
290.679	257.88
290.91	268.88
291.141	249.88
291.371	269.88
291.602	260.88
291.833	246.88
292.064	267.88
292.295	252.88
292.526	264.88
292.757	263.88
292.987	265.88
293.218	278.88
293.449	265.88
293.68	258.88
293.91	263.88
294.141	262.88
294.372	258.88
294.603	263.88
294.833	268.88
295.064	253.88
295.295	278.88
295.525	265.88
295.756	262.88
295.987	272.88
296.217	285.88
296.448	285.88
296.679	268.88
296.909	269.88
297.14	271.88
297.37	287.88
297.601	272.88
297.831	282.88
298.062	282.88
298.292	270.88
298.523	280.88
298.753	288.88
298.984	274.88
299.214	276.88
299.445	292.88
299.675	269.88
299.905	280.88
300.136	279.88
300.366	279.88
300.597	290.88
300.827	281.88
301.057	289.88
301.288	290.88
301.518	299.88
301.748	294.88
301.979	313.88
302.209	285.88
302.439	283.88
302.669	306.88
302.9	291.88
303.13	273.88
303.36	282.88
303.59	313.88
303.82	289.88
304.051	299.88
304.281	307.88
304.511	294.88
304.741	281.88
304.971	290.88
305.201	293.88
305.431	299.88
305.661	291.88
305.891	272.88
306.121	310.88
306.352	286.88
306.582	308.88
306.812	289.88
307.042	312.88
307.272	287.88
307.502	305.88
307.731	288.88
307.961	279.88
308.191	311.88
308.421	301.88
308.651	313.88
308.881	303.88
309.111	306.88
309.341	297.88
309.571	297.88
309.8	299.88
310.03	310.88
310.26	301.88
310.49	298.88
310.72	312.88
310.949	313.88
311.179	352.88
311.409	328.88
311.639	323.88
311.868	332.88
312.098	328.88
312.328	327.88
312.557	323.88
312.787	334.88
313.017	310.88
313.246	336.88
313.476	325.88
313.706	322.88
313.935	340.88
314.165	310.88
314.394	346.88
314.624	323.88
314.853	325.88
315.083	327.88
315.312	313.88
315.542	326.88
315.771	309.88
316.001	326.88
316.23	317.88
316.46	310.88
316.689	313.88
316.919	308.88
317.148	323.88
317.377	345.88
317.607	331.88
317.836	322.88
318.065	329.88
318.295	324.88
318.524	325.88
318.753	318.88
318.983	324.88
319.212	317.88
319.441	336.88
319.67	323.88
319.9	320.88
320.129	326.88
320.358	333.88
320.587	325.88
320.816	320.88
321.046	337.88
321.275	341.88
321.504	317.88
321.733	331.88
321.962	339.88
322.191	325.88
322.42	335.88
322.649	343.88
322.878	355.88
323.108	351.88
323.337	371.88
323.566	384.88
323.795	405.88
324.024	424.88
324.253	471.88
324.482	642.88
324.71	920.88
324.939	1183.88
325.168	998.88
325.397	601.88
325.626	439.88
325.855	404.88
326.084	387.88
326.313	394.88
326.542	386.88
326.77	401.88
326.999	471.88
327.228	591.88
327.457	802.88
327.686	930.88
327.914	650.88
328.143	469.88
328.372	428.88
328.6	424.88
328.829	422.88
329.058	447.88
329.287	441.88
329.515	425.88
329.744	400.88
329.972	411.88
330.201	413.88
330.43	435.88
330.658	450.88
330.887	467.88
331.115	445.88
331.344	413.88
331.572	401.88
331.801	410.88
332.03	392.88
332.258	391.88
332.486	395.88
332.715	411.88
332.943	400.88
333.172	401.88
333.4	394.88
333.629	425.88
333.857	419.88
334.085	412.88
334.314	436.88
334.542	478.88
334.771	464.88
334.999	429.88
335.227	419.88
335.455	398.88
335.684	395.88
335.912	409.88
336.14	393.88
336.369	390.88
336.597	383.88
336.825	389.88
337.053	399.88
337.281	385.88
337.51	380.88
337.738	387.88
337.966	379.88
338.194	374.88
338.422	384.88
338.65	362.88
338.878	361.88
339.106	352.88
339.334	385.88
339.562	359.88
339.79	338.88
340.018	372.88
340.246	373.88
340.474	361.88
340.702	365.88
340.93	345.88
341.158	374.88
341.386	375.88
341.614	377.88
341.842	347.88
342.07	378.88
342.298	368.88
342.526	360.88
342.754	365.88
342.981	339.88
343.209	367.88
343.437	371.88
343.665	369.88
343.893	384.88
344.12	393.88
344.348	417.88
344.576	373.88
344.804	371.88
345.031	356.88
345.259	369.88
345.487	371.88
345.714	369.88
345.942	352.88
346.17	349.88
346.397	346.88
346.625	350.88
346.853	333.88
347.08	342.88
347.308	344.88
347.535	360.88
347.763	350.88
347.99	357.88
348.218	353.88
348.445	352.88
348.673	366.88
348.9	356.88
349.128	361.88
349.355	351.88
349.583	344.88
349.81	355.88
350.037	322.88
350.265	330.88
350.492	341.88
350.72	341.88
350.947	342.88
351.174	350.88
351.402	341.88
351.629	343.88
351.856	334.88
352.083	365.88
352.311	343.88
352.538	342.88
352.765	327.88
352.992	368.88
353.22	339.88
353.447	348.88
353.674	344.88
353.901	327.88
354.128	341.88
354.355	330.88
354.583	324.88
354.81	325.88
355.037	318.88
355.264	305.88
355.491	326.88
355.718	328.88
355.945	349.88
356.172	309.88
356.399	307.88
356.626	325.88
356.853	326.88
357.08	316.88
357.307	329.88
357.534	326.88
357.761	343.88
357.988	325.88
358.215	320.88
358.441	318.88
358.668	328.88
358.895	322.88
359.122	331.88
359.349	330.88
359.576	328.88
359.802	354.88
360.029	354.88
360.256	366.88
360.483	362.88
360.709	347.88
360.936	334.88
361.163	333.88
361.39	335.88
361.616	326.88
361.843	339.88
362.07	331.88
362.296	334.88
362.523	347.88
362.749	335.88
362.976	329.88
363.203	340.88
363.429	338.88
363.656	341.88
363.882	315.88
364.109	306.88
364.335	340.88
364.562	331.88
364.788	332.88
365.015	347.88
365.241	339.88
365.468	338.88
365.694	337.88
365.92	342.88
366.147	328.88
366.373	332.88
366.599	311.88
366.826	313.88
367.052	324.88
367.278	324.88
367.505	320.88
367.731	345.88
367.957	322.88
368.184	317.88
368.41	337.88
368.636	340.88
368.862	356.88
369.089	327.88
369.315	325.88
369.541	328.88
369.767	318.88
369.993	347.88
370.219	339.88
370.445	328.88
370.672	331.88
370.898	331.88
371.124	345.88
371.35	343.88
371.576	322.88
371.802	341.88
372.028	333.88
372.254	329.88
372.48	326.88
372.706	343.88
372.932	343.88
373.158	354.88
373.384	344.88
373.61	343.88
373.835	326.88
374.061	345.88
374.287	330.88
374.513	347.88
374.739	346.88
374.965	354.88
375.191	367.88
375.416	339.88
375.642	347.88
375.868	345.88
376.094	349.88
376.319	346.88
376.545	331.88
376.771	344.88
376.997	335.88
377.222	322.88
377.448	349.88
377.674	320.88
377.899	336.88
378.125	329.88
378.35	344.88
378.576	328.88
378.802	333.88
379.027	338.88
379.253	328.88
379.478	329.88
379.704	321.88
379.929	338.88
380.155	341.88
380.38	337.88
380.606	326.88
380.831	338.88
381.057	345.88
381.282	337.88
381.507	325.88
381.733	336.88
381.958	350.88
382.184	351.88
382.409	342.88
382.634	336.88
382.86	357.88
383.085	352.88
383.31	355.88
383.535	359.88
383.761	361.88
383.986	357.88
384.211	359.88
384.436	348.88
384.662	354.88
384.887	351.88
385.112	362.88
385.337	383.88
385.562	383.88
385.787	366.88
386.013	377.88
386.238	365.88
386.463	377.88
386.688	376.88
386.913	358.88
387.138	372.88
387.363	369.88
387.588	385.88
387.813	366.88
388.038	373.88
388.263	353.88
388.488	381.88
388.713	367.88
388.938	362.88
389.163	360.88
389.387	366.88
389.612	371.88
389.837	354.88
390.062	379.88
390.287	369.88
390.512	376.88
390.736	381.88
390.961	363.88
391.186	381.88
391.411	395.88
391.636	398.88
391.86	390.88
392.085	396.88
392.31	373.88
392.534	381.88
392.759	379.88
392.984	378.88
393.208	381.88
393.433	370.88
393.658	385.88
393.882	374.88
394.107	382.88
394.331	394.88
394.556	383.88
394.78	381.88
395.005	389.88
395.229	402.88
395.454	398.88
395.678	389.88
395.903	413.88
396.127	410.88
396.352	389.88
396.576	410.88
396.801	389.88
397.025	391.88
397.249	410.88
397.474	409.88
397.698	417.88
397.922	409.88
398.147	415.88
398.371	440.88
398.595	421.88
398.82	431.88
399.044	449.88
399.268	484.88
399.492	541.88
399.717	537.88
399.941	559.88
400.165	554.88
400.389	557.88
400.613	487.88
400.837	458.88
401.062	455.88
401.286	449.88
401.51	441.88
401.734	445.88
401.958	446.88
402.182	420.88
402.406	434.88
402.63	452.88
402.854	465.88
403.078	445.88
403.302	443.88
403.526	465.88
403.75	470.88
403.974	467.88
404.198	452.88
404.422	467.88
404.645	475.88
404.869	470.88
405.093	504.88
405.317	518.88
405.541	522.88
405.765	479.88
405.988	477.88
406.212	485.88
406.436	510.88
406.66	523.88
406.883	495.88
407.107	511.88
407.331	538.88
407.555	583.88
407.778	585.88
408.002	547.88
408.226	487.88
408.449	507.88
408.673	495.88
408.896	495.88
409.12	521.88
409.344	491.88
409.567	467.88
409.791	471.88
410.014	442.88
410.238	472.88
410.461	443.88
410.685	451.88
410.908	454.88
411.132	482.88
411.355	490.88
411.578	506.88
411.802	459.88
412.025	463.88
412.249	458.88
412.472	484.88
412.695	467.88
412.919	466.88
413.142	462.88
413.365	446.88
413.589	440.88
413.812	430.88
414.035	441.88
414.258	425.88
414.482	438.88
414.705	433.88
414.928	446.88
415.151	426.88
415.374	441.88
415.597	425.88
415.821	422.88
416.044	424.88
416.267	452.88
416.49	431.88
416.713	430.88
416.936	416.88
417.159	411.88
417.382	422.88
417.605	450.88
417.828	437.88
418.051	427.88
418.274	450.88
418.497	439.88
418.72	445.88
418.943	445.88
419.166	443.88
419.389	477.88
419.611	469.88
419.834	445.88
420.057	436.88
420.28	460.88
420.503	447.88
420.726	435.88
420.948	474.88
421.171	467.88
421.394	486.88
421.617	456.88
421.839	441.88
422.062	441.88
422.285	457.88
422.507	487.88
422.73	536.88
422.953	502.88
423.175	464.88
423.398	459.88
423.621	483.88
423.843	481.88
424.066	467.88
424.288	467.88
424.511	477.88
424.733	483.88
424.956	547.88
425.178	524.88
425.401	520.88
425.623	539.88
425.846	479.88
426.068	456.88
426.291	444.88
426.513	467.88
426.735	464.88
426.958	466.88
427.18	517.88
427.402	600.88
427.625	622.88
427.847	553.88
428.069	521.88
428.292	469.88
428.514	418.88
428.736	445.88
428.958	397.88
429.181	425.88
429.403	424.88
429.625	432.88
429.847	441.88
430.069	462.88
430.292	469.88
430.514	401.88
430.736	432.88
430.958	421.88
431.18	409.88
431.402	402.88
431.624	417.88
431.846	406.88
432.068	403.88
432.29	380.88
432.512	412.88
432.734	413.88
432.956	394.88
433.178	410.88
433.4	403.88
433.622	393.88
433.844	426.88
434.066	415.88
434.287	423.88
434.509	417.88
434.731	405.88
434.953	431.88
435.175	452.88
435.397	471.88
435.618	443.88
435.84	474.88
436.062	515.88
436.284	550.88
436.505	462.88
436.727	445.88
436.949	416.88
437.17	423.88
437.392	412.88
437.614	409.88
437.835	438.88
438.057	493.88
438.278	527.88
438.5	538.88
438.721	585.88
438.943	561.88
439.165	468.88
439.386	435.88
439.608	458.88
439.829	457.88
440.05	458.88
440.272	458.88
440.493	458.88
440.715	414.88
440.936	433.88
441.158	428.88
441.379	440.88
441.6	428.88
441.822	457.88
442.043	460.88
442.264	518.88
442.486	548.88
442.707	484.88
442.928	471.88
443.149	461.88
443.371	478.88
443.592	493.88
443.813	582.88
444.034	604.88
444.255	508.88
444.476	481.88
444.698	506.88
444.919	497.88
445.14	603.88
445.361	505.88
445.582	488.88
445.803	546.88
446.024	553.88
446.245	576.88
446.466	524.88
446.687	465.88
446.908	441.88
447.129	433.88
447.35	419.88
447.571	429.88
447.792	422.88
448.013	401.88
448.234	408.88
448.455	456.88
448.675	509.88
448.896	553.88
449.117	531.88
449.338	482.88
449.559	539.88
449.779	575.88
450	480.88
450.221	417.88
450.442	417.88
450.662	401.88
450.883	413.88
451.104	417.88
451.324	397.88
451.545	402.88
451.766	382.88
451.986	396.88
452.207	371.88
452.428	385.88
452.648	372.88
452.869	379.88
453.089	378.88
453.31	392.88
453.53	384.88
453.751	376.88
453.971	371.88
454.192	390.88
454.412	368.88
454.633	367.88
454.853	393.88
455.073	393.88
455.294	392.88
455.514	426.88
455.734	386.88
455.955	371.88
456.175	363.88
456.395	350.88
456.616	338.88
456.836	358.88
457.056	349.88
457.276	346.88
457.497	355.88
457.717	359.88
457.937	357.88
458.157	363.88
458.377	357.88
458.598	378.88
458.818	407.88
459.038	475.88
459.258	493.88
459.478	453.88
459.698	398.88
459.918	407.88
460.138	418.88
460.358	446.88
460.578	411.88
460.798	439.88
461.018	435.88
461.238	434.88
461.458	439.88
461.678	434.88
461.898	454.88
462.118	458.88
462.338	452.88
462.558	462.88
462.777	455.88
462.997	517.88
463.217	512.88
463.437	530.88
463.657	499.88
463.876	476.88
464.096	474.88
464.316	466.88
464.536	488.88
464.755	463.88
464.975	474.88
465.195	497.88
465.414	507.88
465.634	456.88
465.854	427.88
466.073	414.88
466.293	387.88
466.512	386.88
466.732	386.88
466.951	402.88
467.171	384.88
467.391	385.88
467.61	378.88
467.829	394.88
468.049	414.88
468.268	382.88
468.488	376.88
468.707	363.88
468.927	373.88
469.146	381.88
469.365	389.88
469.585	380.88
469.804	394.88
470.023	388.88
470.243	398.88
470.462	392.88
470.681	432.88
470.901	407.88
471.12	403.88
471.339	392.88
471.558	406.88
471.777	408.88
471.997	391.88
472.216	419.88
472.435	418.88
472.654	395.88
472.873	373.88
473.092	405.88
473.311	399.88
473.53	387.88
473.749	374.88
473.968	397.88
474.187	462.88
474.406	484.88
474.625	425.88
474.844	398.88
475.063	384.88
475.282	414.88
475.501	395.88
475.72	365.88
475.939	415.88
476.158	409.88
476.377	385.88
476.596	391.88
476.814	413.88
477.033	425.88
477.252	399.88
477.471	400.88
477.69	426.88
477.908	426.88
478.127	449.88
478.346	442.88
478.564	457.88
478.783	443.88
479.002	468.88
479.22	456.88
479.439	466.88
479.658	463.88
479.876	486.88
480.095	488.88
480.313	492.88
480.532	509.88
480.751	502.88
480.969	472.88
481.188	521.88
481.406	536.88
481.624	471.88
481.843	449.88
482.061	475.88
482.28	451.88
482.498	443.88
482.717	449.88
482.935	447.88
483.153	437.88
483.372	450.88
483.59	465.88
483.808	458.88
484.027	439.88
484.245	458.88
484.463	465.88
484.681	475.88
484.9	457.88
485.118	441.88
485.336	447.88
485.554	464.88
485.772	454.88
485.99	470.88
486.209	474.88
486.427	443.88
486.645	479.88
486.863	475.88
487.081	496.88
487.299	481.88
487.517	490.88
487.735	486.88
487.953	454.88
488.171	478.88
488.389	473.88
488.607	489.88
488.825	454.88
489.043	467.88
489.261	488.88
489.479	461.88
489.696	486.88
489.914	471.88
490.132	469.88
490.35	506.88
490.568	499.88
490.786	513.88
491.003	494.88
491.221	548.88
491.439	546.88
491.657	538.88
491.874	550.88
492.092	543.88
492.31	576.88
492.527	542.88
492.745	557.88
492.963	563.88
493.18	547.88
493.398	571.88
493.615	574.88
493.833	572.88
494.05	555.88
494.268	580.88
494.485	550.88
494.703	538.88
494.92	573.88
495.138	548.88
495.355	581.88
495.573	582.88
495.79	570.88
496.008	562.88
496.225	553.88
496.442	568.88
496.66	569.88
496.877	576.88
497.094	593.88
497.312	595.88
497.529	576.88
497.746	600.88
497.963	600.88
498.181	625.88
498.398	638.88
498.615	645.88
498.832	687.88
499.049	714.88
499.267	717.88
499.484	768.88
499.701	837.88
499.918	863.88
500.135	913.88
500.352	984.88
500.569	1002.88
500.786	993.88
501.003	987.88
501.22	927.88
501.437	856.88
501.654	823.88
501.871	773.88
502.088	749.88
502.305	690.88
502.522	683.88
502.739	657.88
502.956	632.88
503.172	592.88
503.389	571.88
503.606	600.88
503.823	566.88
504.04	588.88
504.256	573.88
504.473	605.88
504.69	607.88
504.907	571.88
505.123	581.88
505.34	541.88
505.557	521.88
505.773	560.88
505.99	521.88
506.207	527.88
506.423	515.88
506.64	530.88
506.856	503.88
507.073	501.88
507.289	512.88
507.506	499.88
507.722	510.88
507.939	492.88
508.155	524.88
508.372	507.88
508.588	488.88
508.805	479.88
509.021	493.88
509.238	513.88
509.454	500.88
509.67	478.88
509.887	474.88
510.103	479.88
510.319	498.88
510.536	529.88
510.752	777.88
510.968	633.88
511.184	452.88
511.401	465.88
511.617	481.88
511.833	459.88
512.049	460.88
512.265	458.88
512.481	467.88
512.698	460.88
512.914	457.88
513.13	464.88
513.346	457.88
513.562	449.88
513.778	436.88
513.994	457.88
514.21	457.88
514.426	499.88
514.642	488.88
514.858	493.88
515.074	522.88
515.29	605.88
515.506	808.88
515.721	698.88
515.937	521.88
516.153	467.88
516.369	506.88
516.585	482.88
516.801	505.88
517.016	524.88
517.232	500.88
517.448	539.88
517.664	542.88
517.879	533.88
518.095	531.88
518.311	519.88
518.527	527.88
518.742	499.88
518.958	477.88
519.173	493.88
519.389	491.88
519.605	490.88
519.82	462.88
520.036	460.88
520.251	470.88
520.467	502.88
520.682	493.88
520.898	459.88
521.113	499.88
521.329	506.88
521.544	543.88
521.76	636.88
521.975	975.88
522.19	977.88
522.406	608.88
522.621	478.88
522.836	451.88
523.052	422.88
523.267	443.88
523.482	429.88
523.698	424.88
523.913	394.88
524.128	411.88
524.343	396.88
524.559	409.88
524.774	425.88
524.989	413.88
525.204	414.88
525.419	410.88
525.634	396.88
525.849	402.88
526.064	394.88
526.28	413.88
526.495	385.88
526.71	386.88
526.925	378.88
527.14	378.88
527.355	382.88
527.57	391.88
527.785	404.88
527.999	384.88
528.214	385.88
528.429	388.88
528.644	383.88
528.859	377.88
529.074	371.88
529.289	418.88
529.503	462.88
529.718	422.88
529.933	406.88
530.148	395.88
530.363	391.88
530.577	387.88
530.792	364.88
531.007	372.88
531.221	369.88
531.436	351.88
531.651	369.88
531.865	379.88
532.08	377.88
532.295	393.88
532.509	369.88
532.724	374.88
532.938	383.88
533.153	377.88
533.367	367.88
533.582	372.88
533.796	372.88
534.011	371.88
534.225	387.88
534.44	357.88
534.654	375.88
534.868	358.88
535.083	359.88
535.297	366.88
535.511	365.88
535.726	381.88
535.94	377.88
536.154	370.88
536.369	374.88
536.583	358.88
536.797	357.88
537.011	380.88
537.225	359.88
537.44	372.88
537.654	368.88
537.868	348.88
538.082	362.88
538.296	352.88
538.51	355.88
538.724	366.88
538.938	383.88
539.153	363.88
539.367	363.88
539.581	349.88
539.795	346.88
540.009	355.88
540.222	350.88
540.436	349.88
540.65	352.88
540.864	359.88
541.078	380.88
541.292	377.88
541.506	369.88
541.72	368.88
541.934	362.88
542.147	356.88
542.361	365.88
542.575	355.88
542.789	381.88
543.002	367.88
543.216	345.88
543.43	363.88
543.644	348.88
543.857	353.88
544.071	345.88
544.285	370.88
544.498	369.88
544.712	366.88
544.925	369.88
545.139	357.88
545.352	371.88
545.566	380.88
545.779	336.88
545.993	342.88
546.206	371.88
546.42	377.88
546.633	351.88
546.847	343.88
547.06	365.88
547.274	363.88
547.487	342.88
547.7	353.88
547.914	346.88
548.127	361.88
548.34	367.88
548.554	349.88
548.767	353.88
548.98	379.88
549.193	369.88
549.407	352.88
549.62	359.88
549.833	353.88
550.046	383.88
550.259	351.88
550.473	347.88
550.686	362.88
550.899	338.88
551.112	335.88
551.325	352.88
551.538	353.88
551.751	353.88
551.964	353.88
552.177	368.88
552.39	339.88
552.603	362.88
552.816	362.88
553.029	381.88
553.242	381.88
553.455	404.88
553.667	383.88
553.88	379.88
554.093	388.88
554.306	360.88
554.519	357.88
554.732	361.88
554.944	349.88
555.157	365.88
555.37	357.88
555.583	330.88
555.795	364.88
556.008	344.88
556.221	325.88
556.433	334.88
556.646	322.88
556.859	323.88
557.071	316.88
557.284	325.88
557.496	322.88
557.709	328.88
557.921	319.88
558.134	317.88
558.346	316.88
558.559	314.88
558.771	314.88
558.984	312.88
559.196	309.88
559.409	314.88
559.621	319.88
559.833	318.88
560.046	306.88
560.258	288.88
560.47	313.88
560.683	319.88
560.895	299.88
561.107	292.88
561.32	295.88
561.532	318.88
561.744	319.88
561.956	331.88
562.168	320.88
562.381	323.88
562.593	327.88
562.805	318.88
563.017	315.88
563.229	307.88
563.441	313.88
563.653	307.88
563.865	318.88
564.077	322.88
564.289	315.88
564.501	331.88
564.713	331.88
564.925	343.88
565.137	335.88
565.349	334.88
565.561	350.88
565.773	359.88
565.985	391.88
566.197	373.88
566.408	402.88
566.62	430.88
566.832	429.88
567.044	438.88
567.255	433.88
567.467	453.88
567.679	451.88
567.891	477.88
568.102	471.88
568.314	457.88
568.526	445.88
568.737	417.88
568.949	402.88
569.161	379.88
569.372	350.88
569.584	338.88
569.795	329.88
570.007	331.88
570.218	360.88
570.43	343.88
570.641	329.88
570.853	317.88
571.064	320.88
571.276	311.88
571.487	301.88
571.698	305.88
571.91	309.88
572.121	287.88
572.333	305.88
572.544	292.88
572.755	289.88
572.966	291.88
573.178	280.88
573.389	285.88
573.6	289.88
573.811	280.88
574.023	261.88
574.234	263.88
574.445	292.88
574.656	279.88
574.867	283.88
575.078	273.88
575.289	280.88
575.501	280.88
575.712	280.88
575.923	248.88
576.134	285.88
576.345	280.88
576.556	260.88
576.767	274.88
576.978	270.88
577.188	267.88
577.399	253.88
577.61	266.88
577.821	269.88
578.032	269.88
578.243	267.88
578.454	386.88
578.665	333.88
578.875	251.88
579.086	249.88
579.297	262.88
579.508	257.88
579.718	261.88
579.929	270.88
580.14	245.88
580.35	256.88
580.561	245.88
580.772	258.88
580.982	246.88
581.193	248.88
581.403	257.88
581.614	266.88
581.825	249.88
582.035	242.88
582.246	248.88
582.456	243.88
582.667	253.88
582.877	249.88
583.087	256.88
583.298	258.88
583.508	241.88
583.719	253.88
583.929	251.88
584.139	251.88
584.35	250.88
584.56	238.88
584.77	260.88
584.981	236.88
585.191	245.88
585.401	237.88
585.611	239.88
585.821	237.88
586.032	239.88
586.242	243.88
586.452	249.88
586.662	237.88
586.872	234.88
587.082	235.88
587.292	232.88
587.502	254.88
587.713	241.88
587.923	235.88
588.133	236.88
588.343	247.88
588.553	234.88
588.762	224.88
588.972	241.88
589.182	244.88
589.392	243.88
589.602	245.88
589.812	247.88
590.022	245.88
590.232	234.88
590.441	228.88
590.651	239.88
590.861	243.88
591.071	232.88
591.281	250.88
591.49	249.88
591.7	246.88
591.91	253.88
592.119	234.88
592.329	243.88
592.539	274.88
592.748	300.88
592.958	271.88
593.167	288.88
593.377	294.88
593.587	296.88
593.796	298.88
594.006	291.88
594.215	317.88
594.424	288.88
594.634	282.88
594.843	271.88
595.053	264.88
595.262	276.88
595.472	246.88
595.681	259.88
595.89	249.88
596.1	229.88
596.309	241.88
596.518	246.88
596.727	219.88
596.937	247.88
597.146	241.88
597.355	230.88
597.564	207.88
597.774	228.88
597.983	201.88
598.192	238.88
598.401	210.88
598.61	222.88
598.819	216.88
599.028	208.88
599.237	214.88
599.446	215.88
599.655	225.88
599.864	216.88
600.073	206.88
600.282	202.88
600.491	186.88
600.7	219.88
600.909	230.88
601.118	219.88
601.327	223.88
601.536	213.88
601.745	217.88
601.953	213.88
602.162	210.88
602.371	202.88
602.58	212.88
602.789	205.88
602.997	211.88
603.206	215.88
603.415	205.88
603.623	217.88
603.832	203.88
604.041	208.88
604.249	218.88
604.458	205.88
604.666	212.88
604.875	194.88
605.084	203.88
605.292	203.88
605.501	207.88
605.709	202.88
605.918	218.88
606.126	214.88
606.334	214.88
606.543	211.88
606.751	206.88
606.96	207.88
607.168	204.88
607.376	212.88
607.585	207.88
607.793	192.88
608.001	209.88
608.21	209.88
608.418	177.88
608.626	196.88
608.834	211.88
609.043	209.88
609.251	189.88
609.459	202.88
609.667	197.88
609.875	202.88
610.083	199.88
610.291	223.88
610.499	203.88
610.707	221.88
610.916	199.88
611.124	211.88
611.332	201.88
611.54	213.88
611.748	206.88
611.955	210.88
612.163	190.88
612.371	197.88
612.579	191.88
612.787	220.88
612.995	213.88
613.203	221.88
613.411	190.88
613.618	191.88
613.826	213.88
614.034	208.88
614.242	203.88
614.449	208.88
614.657	189.88
614.865	214.88
615.072	208.88
615.28	200.88
615.488	216.88
615.695	216.88
615.903	216.88
616.111	201.88
616.318	200.88
616.526	195.88
616.733	219.88
616.941	202.88
617.148	202.88
617.356	204.88
617.563	197.88
617.771	204.88
617.978	202.88
618.185	191.88
618.393	203.88
618.6	203.88
618.807	178.88
619.015	204.88
619.222	194.88
619.429	201.88
619.637	211.88
619.844	201.88
620.051	197.88
620.258	190.88
620.466	181.88
620.673	196.88
620.88	181.88
621.087	203.88
621.294	173.88
621.501	205.88
621.708	192.88
621.915	179.88
622.122	195.88
622.329	190.88
622.536	195.88
622.743	182.88
622.95	174.88
623.157	200.88
623.364	169.88
623.571	190.88
623.778	173.88
623.985	166.88
624.192	176.88
624.399	177.88
624.606	178.88
624.812	168.88
625.019	190.88
625.226	191.88
625.433	196.88
625.639	178.88
625.846	159.88
626.053	170.88
626.259	170.88
626.466	176.88
626.673	184.88
626.879	173.88
627.086	162.88
627.293	200.88
627.499	179.88
627.706	183.88
627.912	190.88
628.119	181.88
628.325	173.88
628.532	163.88
628.738	173.88
628.945	189.88
629.151	200.88
629.357	185.88
629.564	169.88
629.77	177.88
629.976	158.88
630.183	165.88
630.389	164.88
630.595	166.88
630.802	176.88
631.008	173.88
631.214	172.88
631.42	167.88
631.627	165.88
631.833	165.88
632.039	169.88
632.245	161.88
632.451	170.88
632.657	178.88
632.863	151.88
633.069	156.88
633.275	154.88
633.481	166.88
633.688	174.88
633.893	183.88
634.099	165.88
634.305	172.88
634.511	162.88
634.717	152.88
634.923	163.88
635.129	163.88
635.335	167.88
635.541	167.88
635.747	178.88
635.952	157.88
636.158	149.88
636.364	165.88
636.57	152.88
636.775	170.88
636.981	160.88
637.187	168.88
637.392	164.88
637.598	155.88
637.804	161.88
638.009	146.88
638.215	156.88
638.421	168.88
638.626	154.88
638.832	146.88
639.037	145.88
639.243	140.88
639.448	146.88
639.654	146.88
639.859	143.88
640.065	151.88
640.27	145.88
640.475	155.88
640.681	156.88
640.886	154.88
641.091	160.88
641.297	157.88
641.502	149.88
641.707	153.88
641.913	134.88
642.118	135.88
642.323	148.88
642.528	157.88
642.733	137.88
642.939	137.88
643.144	153.88
643.349	153.88
643.554	142.88
643.759	161.88
643.964	152.88
644.169	152.88
644.374	149.88
644.579	141.88
644.784	150.88
644.989	155.88
645.194	161.88
645.399	129.88
645.604	145.88
645.809	133.88
646.014	151.88
646.219	142.88
646.423	146.88
646.628	147.88
646.833	164.88
647.038	140.88
647.243	145.88
647.447	151.88
647.652	153.88
647.857	156.88
648.062	146.88
648.266	162.88
648.471	158.88
648.676	170.88
648.88	164.88
649.085	135.88
649.289	151.88
649.494	140.88
649.698	160.88
649.903	167.88
650.107	149.88
650.312	153.88
650.516	136.88
650.721	139.88
650.925	155.88
651.13	134.88
651.334	143.88
651.539	135.88
651.743	133.88
651.947	128.88
652.152	127.88
652.356	122.88
652.56	133.88
652.764	136.88
652.969	137.88
653.173	137.88
653.377	128.88
653.581	127.88
653.785	131.88
653.99	122.88
654.194	127.88
654.398	140.88
654.602	125.88
654.806	110.88
655.01	130.88
655.214	138.88
655.418	135.88
655.622	129.88
655.826	127.88
656.03	125.88
656.234	133.88
656.438	109.88
656.642	130.88
656.846	115.88
657.049	118.88
657.253	122.88
657.457	110.88
657.661	102.88
657.865	113.88
658.068	121.88
658.272	107.88
658.476	99.88
658.68	109.88
658.883	94.88
659.087	101.88
659.291	98.88
659.494	109.88
659.698	97.88
659.901	92.88
660.105	106.88
660.309	77.88
660.512	85.88
660.716	87.88
660.919	85.88
661.123	99.88
661.326	101.88
661.53	98.88
661.733	89.88
661.936	73.88
662.14	84.88
662.343	96.88
662.546	81.88
662.75	87.88
662.953	78.88
663.156	100.88
663.36	79.88
663.563	79.88
663.766	86.88
663.969	75.88
664.173	100.88
664.376	66.88
664.579	75.88
664.782	73.88
664.985	79.88
665.188	85.88
665.391	93.88
665.594	69.88
665.797	73.88
666	81.88
666.203	69.88
666.406	76.88
666.609	74.88
666.812	87.88
667.015	74.88
667.218	89.88
667.421	90.88
667.624	70.88
667.827	71.88
668.03	79.88
668.232	83.88
668.435	78.88
668.638	56.88
668.841	58.88
669.043	63.88
669.246	73.88
669.449	75.88
669.651	87.88
669.854	85.88
670.057	75.88
670.259	82.88
670.462	82.88
670.665	81.88
670.867	84.88
671.07	86.88
671.272	89.88
671.475	66.88
671.677	67.88
671.88	80.88
672.082	76.88
672.284	78.88
672.487	82.88
672.689	79.88
672.892	81.88
