Data from 1969.PennyLincolnUp.Lamp.En5.5.200Scan.071719.P1._HRD10591_14-55-07-972.txt Node
Date: Thu Jul 18 14:55:07 EDT 2019
User: cochatt
Spectrometer: HR+D1059
Trigger mode: 1
Integration Time (sec): 1.000000E-1
Scans to average: 1
Electric dark correction enabled: true
Nonlinearity correction enabled: false
Boxcar width: 0
XAxis mode: Wavelengths
Number of Pixels in Spectrum: 2048
>>>>>Begin Spectral Data<<<<<
223.165	-17.62
223.4	-17.62
223.635	-17.62
223.869	-4.62
224.104	-26.62
224.338	-13.62
224.573	-8.62
224.808	-14.62
225.042	-14.62
225.277	-13.62
225.511	-4.62
225.746	-1.62
225.98	4.38
226.215	18.38
226.449	20.38
226.683	22.38
226.918	24.38
227.152	30.38
227.387	31.38
227.621	43.38
227.856	39.38
228.09	33.38
228.324	42.38
228.559	54.38
228.793	57.38
229.027	79.38
229.262	77.38
229.496	82.38
229.73	100.38
229.964	106.38
230.199	100.38
230.433	101.38
230.667	104.38
230.901	108.38
231.136	108.38
231.37	97.38
231.604	95.38
231.838	98.38
232.072	90.38
232.306	96.38
232.541	101.38
232.775	99.38
233.009	115.38
233.243	106.38
233.477	102.38
233.711	85.38
233.945	100.38
234.179	107.38
234.413	99.38
234.647	106.38
234.881	106.38
235.115	107.38
235.349	107.38
235.583	109.38
235.817	125.38
236.051	120.38
236.285	113.38
236.519	110.38
236.753	119.38
236.987	118.38
237.221	130.38
237.455	151.38
237.689	131.38
237.922	123.38
238.156	131.38
238.39	109.38
238.624	125.38
238.858	98.38
239.091	106.38
239.325	109.38
239.559	115.38
239.793	121.38
240.027	122.38
240.26	103.38
240.494	124.38
240.728	120.38
240.961	112.38
241.195	119.38
241.429	119.38
241.662	124.38
241.896	117.38
242.13	120.38
242.363	118.38
242.597	119.38
242.83	128.38
243.064	109.38
243.298	129.38
243.531	121.38
243.765	119.38
243.998	117.38
244.232	126.38
244.465	124.38
244.699	121.38
244.932	106.38
245.166	126.38
245.399	130.38
245.633	123.38
245.866	136.38
246.099	136.38
246.333	136.38
246.566	131.38
246.8	124.38
247.033	132.38
247.266	138.38
247.5	151.38
247.733	136.38
247.966	149.38
248.2	146.38
248.433	129.38
248.666	140.38
248.899	132.38
249.133	145.38
249.366	154.38
249.599	164.38
249.832	146.38
250.066	154.38
250.299	142.38
250.532	152.38
250.765	156.38
250.998	185.38
251.231	173.38
251.465	171.38
251.698	185.38
251.931	161.38
252.164	166.38
252.397	155.38
252.63	158.38
252.863	158.38
253.096	181.38
253.329	165.38
253.562	162.38
253.795	178.38
254.028	168.38
254.261	187.38
254.494	174.38
254.727	199.38
254.96	226.38
255.193	187.38
255.426	181.38
255.659	163.38
255.892	179.38
256.124	188.38
256.357	182.38
256.59	188.38
256.823	178.38
257.056	163.38
257.289	176.38
257.521	157.38
257.754	157.38
257.987	159.38
258.22	184.38
258.452	169.38
258.685	180.38
258.918	178.38
259.151	168.38
259.383	180.38
259.616	180.38
259.849	178.38
260.081	187.38
260.314	193.38
260.547	188.38
260.779	182.38
261.012	198.38
261.244	181.38
261.477	188.38
261.71	169.38
261.942	172.38
262.175	180.38
262.407	195.38
262.64	184.38
262.872	180.38
263.105	196.38
263.337	183.38
263.57	180.38
263.802	182.38
264.035	172.38
264.267	182.38
264.499	180.38
264.732	166.38
264.964	194.38
265.197	178.38
265.429	174.38
265.661	177.38
265.894	180.38
266.126	183.38
266.358	190.38
266.591	180.38
266.823	181.38
267.055	166.38
267.287	178.38
267.52	194.38
267.752	201.38
267.984	196.38
268.216	189.38
268.448	184.38
268.681	194.38
268.913	193.38
269.145	215.38
269.377	221.38
269.609	221.38
269.841	207.38
270.073	212.38
270.306	218.38
270.538	244.38
270.77	220.38
271.002	230.38
271.234	227.38
271.466	228.38
271.698	260.38
271.93	241.38
272.162	236.38
272.394	240.38
272.626	231.38
272.858	223.38
273.09	219.38
273.322	220.38
273.553	213.38
273.785	236.38
274.017	224.38
274.249	228.38
274.481	210.38
274.713	213.38
274.945	214.38
275.176	210.38
275.408	232.38
275.64	218.38
275.872	211.38
276.104	204.38
276.335	213.38
276.567	218.38
276.799	241.38
277.031	240.38
277.262	264.38
277.494	242.38
277.726	238.38
277.957	227.38
278.189	233.38
278.421	243.38
278.652	232.38
278.884	220.38
279.115	219.38
279.347	219.38
279.579	228.38
279.81	232.38
280.042	234.38
280.273	234.38
280.505	227.38
280.736	210.38
280.968	235.38
281.199	232.38
281.431	233.38
281.662	241.38
281.894	227.38
282.125	231.38
282.356	235.38
282.588	241.38
282.819	240.38
283.051	234.38
283.282	233.38
283.513	232.38
283.745	236.38
283.976	243.38
284.207	243.38
284.439	240.38
284.67	237.38
284.901	240.38
285.132	223.38
285.364	222.38
285.595	243.38
285.826	232.38
286.057	257.38
286.288	229.38
286.52	260.38
286.751	250.38
286.982	227.38
287.213	252.38
287.444	250.38
287.675	259.38
287.906	252.38
288.138	256.38
288.369	247.38
288.6	238.38
288.831	264.38
289.062	240.38
289.293	250.38
289.524	253.38
289.755	249.38
289.986	245.38
290.217	255.38
290.448	272.38
290.679	253.38
290.91	233.38
291.141	235.38
291.371	261.38
291.602	252.38
291.833	245.38
292.064	236.38
292.295	240.38
292.526	261.38
292.757	249.38
292.987	250.38
293.218	263.38
293.449	249.38
293.68	266.38
293.91	235.38
294.141	233.38
294.372	231.38
294.603	275.38
294.833	250.38
295.064	248.38
295.295	255.38
295.525	250.38
295.756	269.38
295.987	264.38
296.217	264.38
296.448	254.38
296.679	250.38
296.909	250.38
297.14	267.38
297.37	263.38
297.601	267.38
297.831	265.38
298.062	250.38
298.292	268.38
298.523	265.38
298.753	247.38
298.984	247.38
299.214	262.38
299.445	281.38
299.675	272.38
299.905	257.38
300.136	270.38
300.366	276.38
300.597	270.38
300.827	272.38
301.057	286.38
301.288	284.38
301.518	286.38
301.748	283.38
301.979	290.38
302.209	304.38
302.439	278.38
302.669	280.38
302.9	284.38
303.13	282.38
303.36	277.38
303.59	280.38
303.82	307.38
304.051	283.38
304.281	285.38
304.511	262.38
304.741	282.38
304.971	277.38
305.201	280.38
305.431	298.38
305.661	277.38
305.891	275.38
306.121	280.38
306.352	285.38
306.582	275.38
306.812	288.38
307.042	280.38
307.272	282.38
307.502	278.38
307.731	277.38
307.961	291.38
308.191	298.38
308.421	274.38
308.651	272.38
308.881	279.38
309.111	302.38
309.341	286.38
309.571	286.38
309.8	301.38
310.03	286.38
310.26	304.38
310.49	286.38
310.72	285.38
310.949	314.38
311.179	321.38
311.409	302.38
311.639	306.38
311.868	300.38
312.098	308.38
312.328	304.38
312.557	308.38
312.787	297.38
313.017	320.38
313.246	317.38
313.476	314.38
313.706	298.38
313.935	307.38
314.165	324.38
314.394	318.38
314.624	332.38
314.853	320.38
315.083	305.38
315.312	306.38
315.542	306.38
315.771	308.38
316.001	306.38
316.23	308.38
316.46	322.38
316.689	327.38
316.919	317.38
317.148	310.38
317.377	317.38
317.607	320.38
317.836	313.38
318.065	295.38
318.295	315.38
318.524	296.38
318.753	307.38
318.983	314.38
319.212	312.38
319.441	304.38
319.67	307.38
319.9	320.38
320.129	304.38
320.358	309.38
320.587	306.38
320.816	302.38
321.046	311.38
321.275	326.38
321.504	320.38
321.733	322.38
321.962	321.38
322.191	338.38
322.42	332.38
322.649	343.38
322.878	334.38
323.108	342.38
323.337	346.38
323.566	362.38
323.795	351.38
324.024	383.38
324.253	415.38
324.482	539.38
324.71	772.38
324.939	1027.38
325.168	842.38
325.397	512.38
325.626	402.38
325.855	373.38
326.084	358.38
326.313	356.38
326.542	362.38
326.77	389.38
326.999	421.38
327.228	524.38
327.457	722.38
327.686	814.38
327.914	581.38
328.143	454.38
328.372	412.38
328.6	404.38
328.829	380.38
329.058	392.38
329.287	382.38
329.515	392.38
329.744	369.38
329.972	373.38
330.201	387.38
330.43	398.38
330.658	405.38
330.887	403.38
331.115	385.38
331.344	373.38
331.572	370.38
331.801	344.38
332.03	370.38
332.258	376.38
332.486	386.38
332.715	351.38
332.943	374.38
333.172	398.38
333.4	376.38
333.629	407.38
333.857	401.38
334.085	415.38
334.314	453.38
334.542	452.38
334.771	432.38
334.999	397.38
335.227	396.38
335.455	412.38
335.684	377.38
335.912	363.38
336.14	372.38
336.369	380.38
336.597	352.38
336.825	370.38
337.053	357.38
337.281	370.38
337.51	359.38
337.738	373.38
337.966	362.38
338.194	353.38
338.422	360.38
338.65	378.38
338.878	354.38
339.106	366.38
339.334	343.38
339.562	342.38
339.79	349.38
340.018	370.38
340.246	357.38
340.474	340.38
340.702	330.38
340.93	340.38
341.158	342.38
341.386	361.38
341.614	350.38
341.842	330.38
342.07	358.38
342.298	349.38
342.526	360.38
342.754	338.38
342.981	351.38
343.209	365.38
343.437	348.38
343.665	354.38
343.893	365.38
344.12	362.38
344.348	372.38
344.576	365.38
344.804	367.38
345.031	363.38
345.259	357.38
345.487	354.38
345.714	345.38
345.942	340.38
346.17	325.38
346.397	322.38
346.625	317.38
346.853	334.38
347.08	348.38
347.308	346.38
347.535	321.38
347.763	343.38
347.99	330.38
348.218	361.38
348.445	344.38
348.673	324.38
348.9	346.38
349.128	325.38
349.355	306.38
349.583	320.38
349.81	310.38
350.037	325.38
350.265	331.38
350.492	332.38
350.72	308.38
350.947	317.38
351.174	306.38
351.402	327.38
351.629	327.38
351.856	343.38
352.083	322.38
352.311	335.38
352.538	314.38
352.765	320.38
352.992	314.38
353.22	318.38
353.447	327.38
353.674	328.38
353.901	324.38
354.128	302.38
354.355	306.38
354.583	329.38
354.81	312.38
355.037	304.38
355.264	326.38
355.491	326.38
355.718	324.38
355.945	320.38
356.172	317.38
356.399	306.38
356.626	307.38
356.853	310.38
357.08	331.38
357.307	316.38
357.534	306.38
357.761	304.38
357.988	305.38
358.215	310.38
358.441	326.38
358.668	324.38
358.895	306.38
359.122	330.38
359.349	317.38
359.576	322.38
359.802	346.38
360.029	342.38
360.256	340.38
360.483	334.38
360.709	329.38
360.936	345.38
361.163	325.38
361.39	318.38
361.616	304.38
361.843	325.38
362.07	306.38
362.296	323.38
362.523	325.38
362.749	316.38
362.976	333.38
363.203	315.38
363.429	318.38
363.656	319.38
363.882	335.38
364.109	312.38
364.335	299.38
364.562	324.38
364.788	307.38
365.015	329.38
365.241	320.38
365.468	319.38
365.694	315.38
365.92	311.38
366.147	315.38
366.373	316.38
366.599	326.38
366.826	291.38
367.052	302.38
367.278	311.38
367.505	304.38
367.731	333.38
367.957	315.38
368.184	297.38
368.41	326.38
368.636	315.38
368.862	332.38
369.089	324.38
369.315	327.38
369.541	318.38
369.767	325.38
369.993	326.38
370.219	326.38
370.445	320.38
370.672	326.38
370.898	330.38
371.124	317.38
371.35	317.38
371.576	322.38
371.802	320.38
372.028	311.38
372.254	337.38
372.48	327.38
372.706	313.38
372.932	320.38
373.158	328.38
373.384	323.38
373.61	324.38
373.835	323.38
374.061	317.38
374.287	340.38
374.513	332.38
374.739	322.38
374.965	325.38
375.191	337.38
375.416	360.38
375.642	332.38
375.868	322.38
376.094	307.38
376.319	318.38
376.545	300.38
376.771	329.38
376.997	321.38
377.222	319.38
377.448	325.38
377.674	322.38
377.899	324.38
378.125	323.38
378.35	329.38
378.576	342.38
378.802	338.38
379.027	313.38
379.253	328.38
379.478	304.38
379.704	317.38
379.929	313.38
380.155	321.38
380.38	308.38
380.606	329.38
380.831	330.38
381.057	339.38
381.282	323.38
381.507	330.38
381.733	337.38
381.958	334.38
382.184	336.38
382.409	316.38
382.634	329.38
382.86	320.38
383.085	341.38
383.31	349.38
383.535	357.38
383.761	326.38
383.986	347.38
384.211	346.38
384.436	350.38
384.662	353.38
384.887	372.38
385.112	356.38
385.337	381.38
385.562	343.38
385.787	363.38
386.013	361.38
386.238	344.38
386.463	374.38
386.688	362.38
386.913	364.38
387.138	350.38
387.363	362.38
387.588	354.38
387.813	369.38
388.038	366.38
388.263	392.38
388.488	378.38
388.713	365.38
388.938	351.38
389.163	356.38
389.387	352.38
389.612	347.38
389.837	377.38
390.062	348.38
390.287	345.38
390.512	350.38
390.736	362.38
390.961	354.38
391.186	385.38
391.411	378.38
391.636	359.38
391.86	391.38
392.085	391.38
392.31	374.38
392.534	368.38
392.759	364.38
392.984	357.38
393.208	368.38
393.433	363.38
393.658	377.38
393.882	370.38
394.107	354.38
394.331	355.38
394.556	374.38
394.78	370.38
395.005	373.38
395.229	355.38
395.454	354.38
395.678	378.38
395.903	400.38
396.127	395.38
396.352	366.38
396.576	370.38
396.801	355.38
397.025	384.38
397.249	374.38
397.474	382.38
397.698	393.38
397.922	376.38
398.147	388.38
398.371	394.38
398.595	407.38
398.82	420.38
399.044	443.38
399.268	469.38
399.492	513.38
399.717	547.38
399.941	558.38
400.165	506.38
400.389	485.38
400.613	450.38
400.837	433.38
401.062	413.38
401.286	434.38
401.51	425.38
401.734	411.38
401.958	423.38
402.182	429.38
402.406	412.38
402.63	428.38
402.854	453.38
403.078	438.38
403.302	448.38
403.526	456.38
403.75	448.38
403.974	440.38
404.198	455.38
404.422	442.38
404.645	467.38
404.869	484.38
405.093	486.38
405.317	497.38
405.541	501.38
405.765	461.38
405.988	443.38
406.212	467.38
406.436	460.38
406.66	476.38
406.883	474.38
407.107	493.38
407.331	533.38
407.555	546.38
407.778	551.38
408.002	514.38
408.226	472.38
408.449	484.38
408.673	467.38
408.896	468.38
409.12	501.38
409.344	460.38
409.567	448.38
409.791	443.38
410.014	449.38
410.238	449.38
410.461	434.38
410.685	449.38
410.908	445.38
411.132	441.38
411.355	458.38
411.578	455.38
411.802	424.38
412.025	424.38
412.249	438.38
412.472	450.38
412.695	462.38
412.919	443.38
413.142	440.38
413.365	423.38
413.589	424.38
413.812	417.38
414.035	407.38
414.258	420.38
414.482	400.38
414.705	412.38
414.928	427.38
415.151	408.38
415.374	417.38
415.597	412.38
415.821	406.38
416.044	403.38
416.267	412.38
416.49	432.38
416.713	414.38
416.936	406.38
417.159	393.38
417.382	414.38
417.605	422.38
417.828	445.38
418.051	434.38
418.274	427.38
418.497	425.38
418.72	421.38
418.943	416.38
419.166	424.38
419.389	448.38
419.611	456.38
419.834	437.38
420.057	433.38
420.28	460.38
420.503	421.38
420.726	414.38
420.948	433.38
421.171	465.38
421.394	437.38
421.617	427.38
421.839	427.38
422.062	419.38
422.285	414.38
422.507	446.38
422.73	481.38
422.953	480.38
423.175	447.38
423.398	429.38
423.621	432.38
423.843	447.38
424.066	458.38
424.288	430.38
424.511	458.38
424.733	479.38
424.956	537.38
425.178	502.38
425.401	478.38
425.623	500.38
425.846	439.38
426.068	412.38
426.291	406.38
426.513	411.38
426.735	451.38
426.958	438.38
427.18	471.38
427.402	553.38
427.625	606.38
427.847	506.38
428.069	470.38
428.292	436.38
428.514	405.38
428.736	396.38
428.958	406.38
429.181	380.38
429.403	385.38
429.625	406.38
429.847	426.38
430.069	434.38
430.292	450.38
430.514	399.38
430.736	397.38
430.958	384.38
431.18	371.38
431.402	378.38
431.624	380.38
431.846	380.38
432.068	382.38
432.29	409.38
432.512	412.38
432.734	397.38
432.956	377.38
433.178	402.38
433.4	392.38
433.622	391.38
433.844	395.38
434.066	384.38
434.287	411.38
434.509	424.38
434.731	407.38
434.953	399.38
435.175	407.38
435.397	436.38
435.618	409.38
435.84	432.38
436.062	480.38
436.284	502.38
436.505	459.38
436.727	420.38
436.949	419.38
437.17	400.38
437.392	390.38
437.614	400.38
437.835	404.38
438.057	464.38
438.278	518.38
438.5	499.38
438.721	547.38
438.943	506.38
439.165	439.38
439.386	414.38
439.608	421.38
439.829	433.38
440.05	412.38
440.272	463.38
440.493	442.38
440.715	436.38
440.936	414.38
441.158	411.38
441.379	422.38
441.6	433.38
441.822	456.38
442.043	479.38
442.264	498.38
442.486	539.38
442.707	448.38
442.928	444.38
443.149	428.38
443.371	458.38
443.592	480.38
443.813	516.38
444.034	543.38
444.255	495.38
444.476	465.38
444.698	460.38
444.919	477.38
445.14	558.38
445.361	491.38
445.582	462.38
445.803	471.38
446.024	523.38
446.245	519.38
446.466	490.38
446.687	438.38
446.908	419.38
447.129	408.38
447.35	374.38
447.571	414.38
447.792	401.38
448.013	378.38
448.234	412.38
448.455	436.38
448.675	472.38
448.896	532.38
449.117	469.38
449.338	446.38
449.559	493.38
449.779	555.38
450	450.38
450.221	397.38
450.442	372.38
450.662	391.38
450.883	388.38
451.104	382.38
451.324	390.38
451.545	369.38
451.766	357.38
451.986	363.38
452.207	364.38
452.428	364.38
452.648	373.38
452.869	350.38
453.089	339.38
453.31	364.38
453.53	337.38
453.751	363.38
453.971	362.38
454.192	371.38
454.412	360.38
454.633	334.38
454.853	350.38
455.073	346.38
455.294	352.38
455.514	412.38
455.734	365.38
455.955	352.38
456.175	349.38
456.395	338.38
456.616	329.38
456.836	330.38
457.056	330.38
457.276	333.38
457.497	315.38
457.717	335.38
457.937	331.38
458.157	354.38
458.377	364.38
458.598	361.38
458.818	389.38
459.038	438.38
459.258	436.38
459.478	410.38
459.698	388.38
459.918	396.38
460.138	412.38
460.358	413.38
460.578	416.38
460.798	442.38
461.018	406.38
461.238	412.38
461.458	430.38
461.678	410.38
461.898	404.38
462.118	414.38
462.338	442.38
462.558	457.38
462.777	455.38
462.997	492.38
463.217	475.38
463.437	521.38
463.657	470.38
463.876	451.38
464.096	444.38
464.316	454.38
464.536	454.38
464.755	450.38
464.975	458.38
465.195	453.38
465.414	468.38
465.634	401.38
465.854	417.38
466.073	410.38
466.293	398.38
466.512	365.38
466.732	365.38
466.951	369.38
467.171	372.38
467.391	359.38
467.61	369.38
467.829	376.38
468.049	382.38
468.268	386.38
468.488	382.38
468.707	362.38
468.927	372.38
469.146	366.38
469.365	349.38
469.585	362.38
469.804	373.38
470.023	406.38
470.243	388.38
470.462	368.38
470.681	406.38
470.901	401.38
471.12	384.38
471.339	358.38
471.558	376.38
471.777	388.38
471.997	383.38
472.216	378.38
472.435	400.38
472.654	374.38
472.873	381.38
473.092	368.38
473.311	368.38
473.53	393.38
473.749	382.38
473.968	411.38
474.187	450.38
474.406	463.38
474.625	399.38
474.844	372.38
475.063	369.38
475.282	368.38
475.501	365.38
475.72	388.38
475.939	363.38
476.158	377.38
476.377	382.38
476.596	388.38
476.814	379.38
477.033	396.38
477.252	386.38
477.471	403.38
477.69	396.38
477.908	413.38
478.127	412.38
478.346	426.38
478.564	424.38
478.783	434.38
479.002	433.38
479.22	411.38
479.439	442.38
479.658	448.38
479.876	456.38
480.095	456.38
480.313	471.38
480.532	479.38
480.751	480.38
480.969	464.38
481.188	472.38
481.406	485.38
481.624	454.38
481.843	434.38
482.061	419.38
482.28	406.38
482.498	418.38
482.717	425.38
482.935	434.38
483.153	420.38
483.372	410.38
483.59	428.38
483.808	408.38
484.027	408.38
484.245	419.38
484.463	432.38
484.681	436.38
484.9	445.38
485.118	429.38
485.336	437.38
485.554	429.38
485.772	442.38
485.99	424.38
486.209	435.38
486.427	446.38
486.645	465.38
486.863	445.38
487.081	459.38
487.299	470.38
487.517	442.38
487.735	457.38
487.953	432.38
488.171	477.38
488.389	458.38
488.607	449.38
488.825	449.38
489.043	457.38
489.261	445.38
489.479	442.38
489.696	467.38
489.914	474.38
490.132	468.38
490.35	456.38
490.568	472.38
490.786	483.38
491.003	475.38
491.221	496.38
491.439	512.38
491.657	503.38
491.874	521.38
492.092	504.38
492.31	531.38
492.527	523.38
492.745	525.38
492.963	524.38
493.18	518.38
493.398	521.38
493.615	522.38
493.833	522.38
494.05	539.38
494.268	518.38
494.485	527.38
494.703	515.38
494.92	548.38
495.138	524.38
495.355	539.38
495.573	526.38
495.79	536.38
496.008	530.38
496.225	524.38
496.442	526.38
496.66	532.38
496.877	526.38
497.094	553.38
497.312	540.38
497.529	546.38
497.746	572.38
497.963	560.38
498.181	584.38
498.398	593.38
498.615	620.38
498.832	631.38
499.049	688.38
499.267	694.38
499.484	726.38
499.701	758.38
499.918	822.38
500.135	877.38
500.352	954.38
500.569	963.38
500.786	969.38
501.003	894.38
501.22	872.38
501.437	814.38
501.654	778.38
501.871	745.38
502.088	712.38
502.305	641.38
502.522	616.38
502.739	608.38
502.956	604.38
503.172	572.38
503.389	556.38
503.606	580.38
503.823	538.38
504.04	546.38
504.256	566.38
504.473	581.38
504.69	556.38
504.907	536.38
505.123	532.38
505.34	515.38
505.557	532.38
505.773	506.38
505.99	504.38
506.207	507.38
506.423	514.38
506.64	488.38
506.856	471.38
507.073	496.38
507.289	467.38
507.506	461.38
507.722	485.38
507.939	457.38
508.155	460.38
508.372	454.38
508.588	453.38
508.805	479.38
509.021	462.38
509.238	457.38
509.454	476.38
509.67	482.38
509.887	454.38
510.103	442.38
510.319	449.38
510.536	512.38
510.752	721.38
510.968	601.38
511.184	432.38
511.401	438.38
511.617	428.38
511.833	412.38
512.049	430.38
512.265	447.38
512.481	422.38
512.698	437.38
512.914	440.38
513.13	436.38
513.346	423.38
513.562	441.38
513.778	422.38
513.994	448.38
514.21	445.38
514.426	454.38
514.642	465.38
514.858	471.38
515.074	477.38
515.29	551.38
515.506	692.38
515.721	628.38
515.937	498.38
516.153	484.38
516.369	472.38
516.585	468.38
516.801	467.38
517.016	483.38
517.232	486.38
517.448	501.38
517.664	494.38
517.879	502.38
518.095	496.38
518.311	498.38
518.527	484.38
518.742	483.38
518.958	466.38
519.173	463.38
519.389	450.38
519.605	439.38
519.82	464.38
520.036	442.38
520.251	419.38
520.467	474.38
520.682	459.38
520.898	462.38
521.113	455.38
521.329	472.38
521.544	483.38
521.76	569.38
521.975	850.38
522.19	838.38
522.406	540.38
522.621	446.38
522.836	416.38
523.052	407.38
523.267	404.38
523.482	419.38
523.698	404.38
523.913	383.38
524.128	423.38
524.343	404.38
524.559	374.38
524.774	391.38
524.989	378.38
525.204	402.38
525.419	386.38
525.634	377.38
525.849	379.38
526.064	374.38
526.28	364.38
526.495	370.38
526.71	355.38
526.925	372.38
527.14	361.38
527.355	364.38
527.57	363.38
527.785	370.38
527.999	372.38
528.214	378.38
528.429	360.38
528.644	354.38
528.859	377.38
529.074	370.38
529.289	394.38
529.503	395.38
529.718	387.38
529.933	382.38
530.148	387.38
530.363	380.38
530.577	359.38
530.792	384.38
531.007	365.38
531.221	362.38
531.436	357.38
531.651	375.38
531.865	368.38
532.08	364.38
532.295	376.38
532.509	345.38
532.724	352.38
532.938	347.38
533.153	353.38
533.367	346.38
533.582	357.38
533.796	356.38
534.011	360.38
534.225	349.38
534.44	353.38
534.654	364.38
534.868	358.38
535.083	357.38
535.297	368.38
535.511	351.38
535.726	354.38
535.94	382.38
536.154	370.38
536.369	368.38
536.583	353.38
536.797	342.38
537.011	331.38
537.225	353.38
537.44	330.38
537.654	338.38
537.868	335.38
538.082	352.38
538.296	345.38
538.51	360.38
538.724	361.38
538.938	348.38
539.153	350.38
539.367	332.38
539.581	349.38
539.795	338.38
540.009	342.38
540.222	329.38
540.436	340.38
540.65	350.38
540.864	341.38
541.078	343.38
541.292	349.38
541.506	369.38
541.72	368.38
541.934	354.38
542.147	360.38
542.361	340.38
542.575	357.38
542.789	344.38
543.002	338.38
543.216	352.38
543.43	360.38
543.644	346.38
543.857	360.38
544.071	357.38
544.285	352.38
544.498	354.38
544.712	334.38
544.925	354.38
545.139	337.38
545.352	366.38
545.566	342.38
545.779	351.38
545.993	365.38
546.206	346.38
546.42	364.38
546.633	343.38
546.847	351.38
547.06	347.38
547.274	338.38
547.487	352.38
547.7	339.38
547.914	320.38
548.127	349.38
548.34	365.38
548.554	346.38
548.767	339.38
548.98	366.38
549.193	325.38
549.407	337.38
549.62	361.38
549.833	339.38
550.046	339.38
550.259	371.38
550.473	359.38
550.686	340.38
550.899	359.38
551.112	334.38
551.325	333.38
551.538	339.38
551.751	336.38
551.964	324.38
552.177	352.38
552.39	349.38
552.603	360.38
552.816	357.38
553.029	373.38
553.242	374.38
553.455	358.38
553.667	376.38
553.88	377.38
554.093	355.38
554.306	341.38
554.519	359.38
554.732	324.38
554.944	357.38
555.157	354.38
555.37	344.38
555.583	330.38
555.795	321.38
556.008	319.38
556.221	323.38
556.433	318.38
556.646	320.38
556.859	316.38
557.071	293.38
557.284	306.38
557.496	295.38
557.709	313.38
557.921	324.38
558.134	299.38
558.346	309.38
558.559	314.38
558.771	302.38
558.984	291.38
559.196	311.38
559.409	306.38
559.621	277.38
559.833	292.38
560.046	306.38
560.258	314.38
560.47	310.38
560.683	292.38
560.895	294.38
561.107	322.38
561.32	291.38
561.532	317.38
561.744	296.38
561.956	301.38
562.168	297.38
562.381	300.38
562.593	285.38
562.805	316.38
563.017	310.38
563.229	326.38
563.441	330.38
563.653	308.38
563.865	293.38
564.077	301.38
564.289	301.38
564.501	321.38
564.713	310.38
564.925	322.38
565.137	340.38
565.349	334.38
565.561	333.38
565.773	331.38
565.985	354.38
566.197	338.38
566.408	397.38
566.62	401.38
566.832	404.38
567.044	417.38
567.255	428.38
567.467	419.38
567.679	474.38
567.891	460.38
568.102	459.38
568.314	454.38
568.526	415.38
568.737	392.38
568.949	368.38
569.161	344.38
569.372	356.38
569.584	343.38
569.795	324.38
570.007	334.38
570.218	343.38
570.43	308.38
570.641	307.38
570.853	295.38
571.064	318.38
571.276	308.38
571.487	291.38
571.698	276.38
571.91	292.38
572.121	289.38
572.333	275.38
572.544	264.38
572.755	264.38
572.966	262.38
573.178	269.38
573.389	264.38
573.6	269.38
573.811	266.38
574.023	270.38
574.234	256.38
574.445	284.38
574.656	261.38
574.867	249.38
575.078	265.38
575.289	263.38
575.501	264.38
575.712	256.38
575.923	248.38
576.134	246.38
576.345	266.38
576.556	263.38
576.767	258.38
576.978	261.38
577.188	277.38
577.399	252.38
577.61	264.38
577.821	244.38
578.032	249.38
578.243	266.38
578.454	347.38
578.665	307.38
578.875	263.38
579.086	256.38
579.297	238.38
579.508	224.38
579.718	235.38
579.929	225.38
580.14	240.38
580.35	234.38
580.561	242.38
580.772	258.38
580.982	222.38
581.193	234.38
581.403	229.38
581.614	244.38
581.825	258.38
582.035	249.38
582.246	242.38
582.456	234.38
582.667	246.38
582.877	239.38
583.087	230.38
583.298	227.38
583.508	229.38
583.719	263.38
583.929	250.38
584.139	232.38
584.35	254.38
584.56	247.38
584.77	253.38
584.981	250.38
585.191	229.38
585.401	247.38
585.611	224.38
585.821	233.38
586.032	240.38
586.242	222.38
586.452	216.38
586.662	240.38
586.872	227.38
587.082	221.38
587.292	235.38
587.502	215.38
587.713	228.38
587.923	230.38
588.133	230.38
588.343	238.38
588.553	258.38
588.762	222.38
588.972	230.38
589.182	224.38
589.392	222.38
589.602	236.38
589.812	241.38
590.022	248.38
590.232	239.38
590.441	249.38
590.651	232.38
590.861	242.38
591.071	239.38
591.281	240.38
591.49	223.38
591.7	244.38
591.91	247.38
592.119	248.38
592.329	239.38
592.539	274.38
592.748	263.38
592.958	267.38
593.167	288.38
593.377	288.38
593.587	285.38
593.796	258.38
594.006	266.38
594.215	272.38
594.424	288.38
594.634	282.38
594.843	281.38
595.053	248.38
595.262	246.38
595.472	237.38
595.681	240.38
595.89	237.38
596.1	238.38
596.309	241.38
596.518	230.38
596.727	231.38
596.937	229.38
597.146	235.38
597.355	218.38
597.564	225.38
597.774	212.38
597.983	230.38
598.192	212.38
598.401	214.38
598.61	213.38
598.819	203.38
599.028	225.38
599.237	240.38
599.446	202.38
599.655	208.38
599.864	213.38
600.073	206.38
600.282	212.38
600.491	227.38
600.7	212.38
600.909	202.38
601.118	216.38
601.327	202.38
601.536	212.38
601.745	210.38
601.953	200.38
602.162	200.38
602.371	217.38
602.58	205.38
602.789	207.38
602.997	199.38
603.206	212.38
603.415	212.38
603.623	205.38
603.832	200.38
604.041	205.38
604.249	196.38
604.458	199.38
604.666	197.38
604.875	203.38
605.084	208.38
605.292	203.38
605.501	208.38
605.709	201.38
605.918	197.38
606.126	199.38
606.334	209.38
606.543	194.38
606.751	182.38
606.96	202.38
607.168	201.38
607.376	197.38
607.585	203.38
607.793	190.38
608.001	198.38
608.21	208.38
608.418	190.38
608.626	193.38
608.834	196.38
609.043	220.38
609.251	199.38
609.459	209.38
609.667	213.38
609.875	201.38
610.083	195.38
610.291	192.38
610.499	187.38
610.707	181.38
610.916	214.38
611.124	211.38
611.332	210.38
611.54	211.38
611.748	216.38
611.955	213.38
612.163	198.38
612.371	212.38
612.579	208.38
612.787	180.38
612.995	195.38
613.203	194.38
613.411	212.38
613.618	174.38
613.826	200.38
614.034	192.38
614.242	201.38
614.449	196.38
614.657	204.38
614.865	213.38
615.072	195.38
615.28	203.38
615.488	201.38
615.695	193.38
615.903	194.38
616.111	215.38
616.318	200.38
616.526	210.38
616.733	197.38
616.941	200.38
617.148	200.38
617.356	190.38
617.563	185.38
617.771	179.38
617.978	189.38
618.185	199.38
618.393	196.38
618.6	194.38
618.807	187.38
619.015	187.38
619.222	182.38
619.429	197.38
619.637	198.38
619.844	185.38
620.051	190.38
620.258	187.38
620.466	200.38
620.673	184.38
620.88	177.38
621.087	180.38
621.294	175.38
621.501	197.38
621.708	173.38
621.915	190.38
622.122	197.38
622.329	210.38
622.536	209.38
622.743	198.38
622.95	192.38
623.157	186.38
623.364	178.38
623.571	183.38
623.778	181.38
623.985	185.38
624.192	182.38
624.399	180.38
624.606	185.38
624.812	184.38
625.019	170.38
625.226	181.38
625.433	171.38
625.639	178.38
625.846	173.38
626.053	179.38
626.259	193.38
626.466	175.38
626.673	188.38
626.879	170.38
627.086	177.38
627.293	180.38
627.499	186.38
627.706	171.38
627.912	182.38
628.119	194.38
628.325	168.38
628.532	180.38
628.738	173.38
628.945	168.38
629.151	167.38
629.357	170.38
629.564	186.38
629.77	169.38
629.976	169.38
630.183	174.38
630.389	171.38
630.595	164.38
630.802	160.38
631.008	144.38
631.214	155.38
631.42	171.38
631.627	165.38
631.833	171.38
632.039	171.38
632.245	154.38
632.451	169.38
632.657	160.38
632.863	168.38
633.069	169.38
633.275	154.38
633.481	166.38
633.688	152.38
633.893	155.38
634.099	141.38
634.305	164.38
634.511	161.38
634.717	141.38
634.923	140.38
635.129	151.38
635.335	156.38
635.541	153.38
635.747	167.38
635.952	154.38
636.158	173.38
636.364	157.38
636.57	180.38
636.775	160.38
636.981	176.38
637.187	163.38
637.392	155.38
637.598	164.38
637.804	154.38
638.009	150.38
638.215	158.38
638.421	149.38
638.626	159.38
638.832	142.38
639.037	151.38
639.243	147.38
639.448	163.38
639.654	160.38
639.859	138.38
640.065	147.38
640.27	160.38
640.475	150.38
640.681	155.38
640.886	136.38
641.091	153.38
641.297	166.38
641.502	142.38
641.707	149.38
641.913	144.38
642.118	146.38
642.323	134.38
642.528	148.38
642.733	150.38
642.939	154.38
643.144	155.38
643.349	136.38
643.554	154.38
643.759	127.38
643.964	150.38
644.169	140.38
644.374	158.38
644.579	165.38
644.784	142.38
644.989	139.38
645.194	150.38
645.399	153.38
645.604	153.38
645.809	141.38
646.014	152.38
646.219	160.38
646.423	132.38
646.628	157.38
646.833	151.38
647.038	152.38
647.243	146.38
647.447	140.38
647.652	150.38
647.857	152.38
648.062	147.38
648.266	147.38
648.471	153.38
648.676	154.38
648.88	168.38
649.085	143.38
649.289	135.38
649.494	148.38
649.698	149.38
649.903	162.38
650.107	150.38
650.312	150.38
650.516	134.38
650.721	122.38
650.925	143.38
651.13	145.38
651.334	141.38
651.539	128.38
651.743	132.38
651.947	133.38
652.152	133.38
652.356	132.38
652.56	125.38
652.764	118.38
652.969	124.38
653.173	142.38
653.377	135.38
653.581	122.38
653.785	133.38
653.99	139.38
654.194	128.38
654.398	120.38
654.602	121.38
654.806	117.38
655.01	130.38
655.214	130.38
655.418	130.38
655.622	119.38
655.826	127.38
656.03	132.38
656.234	125.38
656.438	128.38
656.642	122.38
656.846	137.38
657.049	114.38
657.253	114.38
657.457	110.38
657.661	130.38
657.865	116.38
658.068	98.38
658.272	105.38
658.476	99.38
658.68	94.38
658.883	99.38
659.087	106.38
659.291	116.38
659.494	106.38
659.698	95.38
659.901	81.38
660.105	94.38
660.309	81.38
660.512	86.38
660.716	92.38
660.919	91.38
661.123	80.38
661.326	88.38
661.53	95.38
661.733	95.38
661.936	108.38
662.14	97.38
662.343	93.38
662.546	96.38
662.75	80.38
662.953	91.38
663.156	73.38
663.36	74.38
663.563	73.38
663.766	81.38
663.969	76.38
664.173	101.38
664.376	78.38
664.579	77.38
664.782	90.38
664.985	78.38
665.188	76.38
665.391	70.38
665.594	83.38
665.797	90.38
666	81.38
666.203	97.38
666.406	94.38
666.609	83.38
666.812	74.38
667.015	71.38
667.218	86.38
667.421	82.38
667.624	91.38
667.827	80.38
668.03	92.38
668.232	71.38
668.435	74.38
668.638	86.38
668.841	80.38
669.043	69.38
669.246	69.38
669.449	79.38
669.651	81.38
669.854	82.38
670.057	98.38
670.259	85.38
670.462	100.38
670.665	88.38
670.867	85.38
671.07	79.38
671.272	84.38
671.475	73.38
671.677	85.38
671.88	88.38
672.082	80.38
672.284	83.38
672.487	71.38
672.689	71.38
672.892	79.38
