Data from 1969.PennyLincolnUp.Lamp.En5.5.200Scan.071719.P1._HRD10591_14-55-38-973.txt Node
Date: Thu Jul 18 14:55:38 EDT 2019
User: cochatt
Spectrometer: HR+D1059
Trigger mode: 1
Integration Time (sec): 1.000000E-1
Scans to average: 1
Electric dark correction enabled: true
Nonlinearity correction enabled: false
Boxcar width: 0
XAxis mode: Wavelengths
Number of Pixels in Spectrum: 2048
>>>>>Begin Spectral Data<<<<<
223.165	-8.94
223.4	-8.94
223.635	-8.94
223.869	-12.94
224.104	-26.94
224.338	-9.94
224.573	-19.94
224.808	-19.94
225.042	-1.94
225.277	-9.94
225.511	0.06
225.746	6.06
225.98	10.06
226.215	14.06
226.449	22.06
226.683	19.06
226.918	18.06
227.152	21.06
227.387	20.06
227.621	43.06
227.856	34.06
228.09	39.06
228.324	58.06
228.559	55.06
228.793	52.06
229.027	97.06
229.262	94.06
229.496	105.06
229.73	98.06
229.964	117.06
230.199	109.06
230.433	103.06
230.667	103.06
230.901	95.06
231.136	101.06
231.37	85.06
231.604	108.06
231.838	109.06
232.072	97.06
232.306	124.06
232.541	97.06
232.775	100.06
233.009	102.06
233.243	105.06
233.477	98.06
233.711	122.06
233.945	95.06
234.179	91.06
234.413	99.06
234.647	98.06
234.881	113.06
235.115	111.06
235.349	102.06
235.583	99.06
235.817	99.06
236.051	117.06
236.285	111.06
236.519	114.06
236.753	119.06
236.987	140.06
237.221	153.06
237.455	163.06
237.689	143.06
237.922	121.06
238.156	115.06
238.39	114.06
238.624	123.06
238.858	116.06
239.091	106.06
239.325	95.06
239.559	118.06
239.793	115.06
240.027	116.06
240.26	114.06
240.494	142.06
240.728	116.06
240.961	134.06
241.195	139.06
241.429	129.06
241.662	125.06
241.896	113.06
242.13	106.06
242.363	125.06
242.597	132.06
242.83	110.06
243.064	143.06
243.298	117.06
243.531	125.06
243.765	135.06
243.998	119.06
244.232	117.06
244.465	114.06
244.699	109.06
244.932	131.06
245.166	128.06
245.399	127.06
245.633	129.06
245.866	144.06
246.099	135.06
246.333	111.06
246.566	129.06
246.8	138.06
247.033	141.06
247.266	138.06
247.5	145.06
247.733	133.06
247.966	125.06
248.2	146.06
248.433	147.06
248.666	143.06
248.899	140.06
249.133	170.06
249.366	166.06
249.599	165.06
249.832	158.06
250.066	144.06
250.299	158.06
250.532	159.06
250.765	169.06
250.998	180.06
251.231	187.06
251.465	188.06
251.698	170.06
251.931	153.06
252.164	160.06
252.397	174.06
252.63	174.06
252.863	172.06
253.096	190.06
253.329	179.06
253.562	173.06
253.795	175.06
254.028	166.06
254.261	187.06
254.494	190.06
254.727	200.06
254.96	232.06
255.193	200.06
255.426	193.06
255.659	183.06
255.892	191.06
256.124	210.06
256.357	192.06
256.59	186.06
256.823	194.06
257.056	183.06
257.289	173.06
257.521	200.06
257.754	188.06
257.987	191.06
258.22	178.06
258.452	186.06
258.685	175.06
258.918	153.06
259.151	162.06
259.383	186.06
259.616	191.06
259.849	182.06
260.081	191.06
260.314	210.06
260.547	215.06
260.779	174.06
261.012	194.06
261.244	192.06
261.477	179.06
261.71	184.06
261.942	207.06
262.175	205.06
262.407	187.06
262.64	189.06
262.872	193.06
263.105	169.06
263.337	192.06
263.57	196.06
263.802	169.06
264.035	182.06
264.267	180.06
264.499	174.06
264.732	188.06
264.964	184.06
265.197	181.06
265.429	192.06
265.661	184.06
265.894	185.06
266.126	171.06
266.358	181.06
266.591	179.06
266.823	183.06
267.055	202.06
267.287	185.06
267.52	202.06
267.752	218.06
267.984	201.06
268.216	193.06
268.448	200.06
268.681	196.06
268.913	219.06
269.145	228.06
269.377	229.06
269.609	212.06
269.841	234.06
270.073	205.06
270.306	245.06
270.538	270.06
270.77	258.06
271.002	243.06
271.234	241.06
271.466	243.06
271.698	243.06
271.93	245.06
272.162	259.06
272.394	254.06
272.626	226.06
272.858	234.06
273.09	232.06
273.322	231.06
273.553	232.06
273.785	236.06
274.017	230.06
274.249	228.06
274.481	214.06
274.713	218.06
274.945	233.06
275.176	210.06
275.408	212.06
275.64	226.06
275.872	219.06
276.104	215.06
276.335	231.06
276.567	232.06
276.799	251.06
277.031	257.06
277.262	260.06
277.494	272.06
277.726	246.06
277.957	224.06
278.189	227.06
278.421	237.06
278.652	233.06
278.884	228.06
279.115	229.06
279.347	235.06
279.579	225.06
279.81	205.06
280.042	227.06
280.273	225.06
280.505	225.06
280.736	227.06
280.968	218.06
281.199	225.06
281.431	233.06
281.662	238.06
281.894	247.06
282.125	226.06
282.356	237.06
282.588	261.06
282.819	255.06
283.051	242.06
283.282	233.06
283.513	248.06
283.745	248.06
283.976	250.06
284.207	244.06
284.439	245.06
284.67	253.06
284.901	244.06
285.132	258.06
285.364	253.06
285.595	252.06
285.826	255.06
286.057	259.06
286.288	244.06
286.52	242.06
286.751	246.06
286.982	245.06
287.213	244.06
287.444	249.06
287.675	271.06
287.906	269.06
288.138	267.06
288.369	279.06
288.6	244.06
288.831	241.06
289.062	267.06
289.293	255.06
289.524	246.06
289.755	261.06
289.986	256.06
290.217	260.06
290.448	243.06
290.679	238.06
290.91	273.06
291.141	256.06
291.371	250.06
291.602	249.06
291.833	270.06
292.064	257.06
292.295	264.06
292.526	252.06
292.757	251.06
292.987	279.06
293.218	248.06
293.449	253.06
293.68	261.06
293.91	259.06
294.141	255.06
294.372	265.06
294.603	265.06
294.833	270.06
295.064	277.06
295.295	269.06
295.525	259.06
295.756	258.06
295.987	274.06
296.217	295.06
296.448	297.06
296.679	277.06
296.909	258.06
297.14	269.06
297.37	289.06
297.601	277.06
297.831	272.06
298.062	295.06
298.292	264.06
298.523	279.06
298.753	280.06
298.984	294.06
299.214	280.06
299.445	282.06
299.675	290.06
299.905	283.06
300.136	291.06
300.366	260.06
300.597	294.06
300.827	272.06
301.057	284.06
301.288	284.06
301.518	278.06
301.748	292.06
301.979	295.06
302.209	311.06
302.439	308.06
302.669	307.06
302.9	291.06
303.13	299.06
303.36	293.06
303.59	291.06
303.82	290.06
304.051	303.06
304.281	269.06
304.511	280.06
304.741	294.06
304.971	301.06
305.201	277.06
305.431	289.06
305.661	285.06
305.891	280.06
306.121	302.06
306.352	297.06
306.582	302.06
306.812	287.06
307.042	278.06
307.272	281.06
307.502	291.06
307.731	282.06
307.961	303.06
308.191	284.06
308.421	285.06
308.651	283.06
308.881	282.06
309.111	301.06
309.341	315.06
309.571	300.06
309.8	292.06
310.03	298.06
310.26	325.06
310.49	313.06
310.72	331.06
310.949	327.06
311.179	322.06
311.409	317.06
311.639	331.06
311.868	310.06
312.098	316.06
312.328	341.06
312.557	331.06
312.787	329.06
313.017	350.06
313.246	346.06
313.476	316.06
313.706	315.06
313.935	314.06
314.165	324.06
314.394	322.06
314.624	309.06
314.853	341.06
315.083	321.06
315.312	335.06
315.542	314.06
315.771	325.06
316.001	325.06
316.23	324.06
316.46	307.06
316.689	321.06
316.919	319.06
317.148	329.06
317.377	339.06
317.607	315.06
317.836	326.06
318.065	305.06
318.295	307.06
318.524	323.06
318.753	316.06
318.983	327.06
319.212	298.06
319.441	306.06
319.67	318.06
319.9	313.06
320.129	307.06
320.358	315.06
320.587	309.06
320.816	310.06
321.046	325.06
321.275	322.06
321.504	322.06
321.733	326.06
321.962	358.06
322.191	356.06
322.42	334.06
322.649	345.06
322.878	361.06
323.108	372.06
323.337	370.06
323.566	379.06
323.795	390.06
324.024	417.06
324.253	460.06
324.482	611.06
324.71	883.06
324.939	1148.06
325.168	971.06
325.397	557.06
325.626	411.06
325.855	388.06
326.084	377.06
326.313	392.06
326.542	383.06
326.77	403.06
326.999	466.06
327.228	564.06
327.457	777.06
327.686	897.06
327.914	636.06
328.143	477.06
328.372	438.06
328.6	422.06
328.829	415.06
329.058	429.06
329.287	424.06
329.515	395.06
329.744	363.06
329.972	375.06
330.201	395.06
330.43	446.06
330.658	439.06
330.887	437.06
331.115	421.06
331.344	414.06
331.572	382.06
331.801	407.06
332.03	390.06
332.258	373.06
332.486	378.06
332.715	395.06
332.943	374.06
333.172	390.06
333.4	388.06
333.629	407.06
333.857	430.06
334.085	452.06
334.314	439.06
334.542	443.06
334.771	450.06
334.999	435.06
335.227	412.06
335.455	398.06
335.684	402.06
335.912	393.06
336.14	375.06
336.369	390.06
336.597	386.06
336.825	366.06
337.053	381.06
337.281	376.06
337.51	352.06
337.738	363.06
337.966	373.06
338.194	373.06
338.422	382.06
338.65	396.06
338.878	364.06
339.106	370.06
339.334	381.06
339.562	352.06
339.79	349.06
340.018	355.06
340.246	365.06
340.474	362.06
340.702	360.06
340.93	354.06
341.158	352.06
341.386	345.06
341.614	364.06
341.842	361.06
342.07	363.06
342.298	361.06
342.526	361.06
342.754	355.06
342.981	334.06
343.209	360.06
343.437	364.06
343.665	380.06
343.893	395.06
344.12	377.06
344.348	378.06
344.576	370.06
344.804	363.06
345.031	375.06
345.259	373.06
345.487	351.06
345.714	363.06
345.942	343.06
346.17	327.06
346.397	345.06
346.625	331.06
346.853	351.06
347.08	339.06
347.308	350.06
347.535	344.06
347.763	358.06
347.99	340.06
348.218	353.06
348.445	342.06
348.673	344.06
348.9	346.06
349.128	346.06
349.355	332.06
349.583	326.06
349.81	335.06
350.037	343.06
350.265	347.06
350.492	334.06
350.72	348.06
350.947	327.06
351.174	357.06
351.402	359.06
351.629	348.06
351.856	344.06
352.083	319.06
352.311	350.06
352.538	351.06
352.765	340.06
352.992	321.06
353.22	342.06
353.447	338.06
353.674	340.06
353.901	315.06
354.128	332.06
354.355	332.06
354.583	330.06
354.81	319.06
355.037	331.06
355.264	316.06
355.491	302.06
355.718	314.06
355.945	328.06
356.172	331.06
356.399	318.06
356.626	315.06
356.853	329.06
357.08	305.06
357.307	313.06
357.534	327.06
357.761	299.06
357.988	317.06
358.215	336.06
358.441	335.06
358.668	329.06
358.895	335.06
359.122	311.06
359.349	332.06
359.576	333.06
359.802	330.06
360.029	335.06
360.256	365.06
360.483	368.06
360.709	353.06
360.936	350.06
361.163	345.06
361.39	350.06
361.616	343.06
361.843	327.06
362.07	328.06
362.296	337.06
362.523	330.06
362.749	330.06
362.976	338.06
363.203	343.06
363.429	338.06
363.656	326.06
363.882	333.06
364.109	326.06
364.335	324.06
364.562	327.06
364.788	316.06
365.015	315.06
365.241	330.06
365.468	346.06
365.694	326.06
365.92	326.06
366.147	302.06
366.373	323.06
366.599	322.06
366.826	344.06
367.052	333.06
367.278	316.06
367.505	322.06
367.731	338.06
367.957	318.06
368.184	329.06
368.41	350.06
368.636	334.06
368.862	337.06
369.089	335.06
369.315	313.06
369.541	345.06
369.767	344.06
369.993	326.06
370.219	323.06
370.445	318.06
370.672	323.06
370.898	334.06
371.124	342.06
371.35	330.06
371.576	339.06
371.802	354.06
372.028	336.06
372.254	356.06
372.48	330.06
372.706	333.06
372.932	333.06
373.158	345.06
373.384	358.06
373.61	350.06
373.835	360.06
374.061	338.06
374.287	350.06
374.513	343.06
374.739	333.06
374.965	332.06
375.191	341.06
375.416	339.06
375.642	324.06
375.868	335.06
376.094	346.06
376.319	352.06
376.545	342.06
376.771	335.06
376.997	331.06
377.222	324.06
377.448	337.06
377.674	345.06
377.899	319.06
378.125	326.06
378.35	324.06
378.576	326.06
378.802	335.06
379.027	311.06
379.253	321.06
379.478	347.06
379.704	330.06
379.929	326.06
380.155	332.06
380.38	331.06
380.606	322.06
380.831	344.06
381.057	339.06
381.282	339.06
381.507	328.06
381.733	325.06
381.958	350.06
382.184	318.06
382.409	341.06
382.634	338.06
382.86	344.06
383.085	345.06
383.31	343.06
383.535	357.06
383.761	362.06
383.986	365.06
384.211	346.06
384.436	361.06
384.662	374.06
384.887	373.06
385.112	388.06
385.337	350.06
385.562	354.06
385.787	360.06
386.013	372.06
386.238	364.06
386.463	380.06
386.688	381.06
386.913	382.06
387.138	359.06
387.363	371.06
387.588	363.06
387.813	374.06
388.038	360.06
388.263	367.06
388.488	367.06
388.713	371.06
388.938	377.06
389.163	358.06
389.387	372.06
389.612	350.06
389.837	383.06
390.062	370.06
390.287	362.06
390.512	354.06
390.736	351.06
390.961	360.06
391.186	360.06
391.411	376.06
391.636	387.06
391.86	398.06
392.085	411.06
392.31	403.06
392.534	379.06
392.759	395.06
392.984	387.06
393.208	370.06
393.433	365.06
393.658	361.06
393.882	367.06
394.107	373.06
394.331	374.06
394.556	370.06
394.78	381.06
395.005	375.06
395.229	376.06
395.454	398.06
395.678	406.06
395.903	409.06
396.127	406.06
396.352	395.06
396.576	389.06
396.801	379.06
397.025	391.06
397.249	390.06
397.474	377.06
397.698	410.06
397.922	429.06
398.147	410.06
398.371	417.06
398.595	419.06
398.82	440.06
399.044	463.06
399.268	475.06
399.492	522.06
399.717	538.06
399.941	562.06
400.165	532.06
400.389	503.06
400.613	467.06
400.837	453.06
401.062	433.06
401.286	420.06
401.51	417.06
401.734	438.06
401.958	452.06
402.182	437.06
402.406	449.06
402.63	432.06
402.854	458.06
403.078	454.06
403.302	440.06
403.526	450.06
403.75	468.06
403.974	481.06
404.198	468.06
404.422	462.06
404.645	469.06
404.869	479.06
405.093	470.06
405.317	504.06
405.541	505.06
405.765	475.06
405.988	462.06
406.212	446.06
406.436	490.06
406.66	488.06
406.883	457.06
407.107	499.06
407.331	581.06
407.555	569.06
407.778	585.06
408.002	540.06
408.226	518.06
408.449	493.06
408.673	489.06
408.896	510.06
409.12	525.06
409.344	489.06
409.567	461.06
409.791	472.06
410.014	458.06
410.238	449.06
410.461	447.06
410.685	443.06
410.908	474.06
411.132	479.06
411.355	484.06
411.578	457.06
411.802	455.06
412.025	442.06
412.249	436.06
412.472	443.06
412.695	493.06
412.919	466.06
413.142	453.06
413.365	444.06
413.589	450.06
413.812	423.06
414.035	427.06
414.258	417.06
414.482	446.06
414.705	427.06
414.928	437.06
415.151	429.06
415.374	421.06
415.597	423.06
415.821	442.06
416.044	426.06
416.267	417.06
416.49	437.06
416.713	424.06
416.936	428.06
417.159	418.06
417.382	407.06
417.605	420.06
417.828	424.06
418.051	447.06
418.274	446.06
418.497	422.06
418.72	413.06
418.943	438.06
419.166	449.06
419.389	451.06
419.611	471.06
419.834	451.06
420.057	466.06
420.28	447.06
420.503	435.06
420.726	457.06
420.948	435.06
421.171	460.06
421.394	475.06
421.617	434.06
421.839	442.06
422.062	422.06
422.285	426.06
422.507	485.06
422.73	513.06
422.953	501.06
423.175	460.06
423.398	454.06
423.621	444.06
423.843	478.06
424.066	460.06
424.288	472.06
424.511	462.06
424.733	505.06
424.956	520.06
425.178	491.06
425.401	497.06
425.623	513.06
425.846	455.06
426.068	450.06
426.291	454.06
426.513	443.06
426.735	461.06
426.958	477.06
427.18	500.06
427.402	585.06
427.625	623.06
427.847	548.06
428.069	464.06
428.292	446.06
428.514	440.06
428.736	406.06
428.958	403.06
429.181	415.06
429.403	398.06
429.625	410.06
429.847	431.06
430.069	461.06
430.292	449.06
430.514	385.06
430.736	424.06
430.958	425.06
431.18	389.06
431.402	364.06
431.624	394.06
431.846	411.06
432.068	395.06
432.29	402.06
432.512	396.06
432.734	398.06
432.956	372.06
433.178	414.06
433.4	406.06
433.622	394.06
433.844	390.06
434.066	405.06
434.287	408.06
434.509	406.06
434.731	430.06
434.953	453.06
435.175	443.06
435.397	439.06
435.618	439.06
435.84	444.06
436.062	500.06
436.284	517.06
436.505	469.06
436.727	419.06
436.949	417.06
437.17	404.06
437.392	403.06
437.614	420.06
437.835	440.06
438.057	470.06
438.278	537.06
438.5	565.06
438.721	591.06
438.943	553.06
439.165	469.06
439.386	429.06
439.608	447.06
439.829	454.06
440.05	447.06
440.272	483.06
440.493	447.06
440.715	443.06
440.936	417.06
441.158	405.06
441.379	419.06
441.6	445.06
441.822	466.06
442.043	469.06
442.264	523.06
442.486	548.06
442.707	487.06
442.928	463.06
443.149	466.06
443.371	473.06
443.592	492.06
443.813	546.06
444.034	561.06
444.255	529.06
444.476	474.06
444.698	496.06
444.919	488.06
445.14	615.06
445.361	535.06
445.582	479.06
445.803	511.06
446.024	559.06
446.245	566.06
446.466	498.06
446.687	447.06
446.908	449.06
447.129	428.06
447.35	411.06
447.571	394.06
447.792	383.06
448.013	393.06
448.234	402.06
448.455	435.06
448.675	514.06
448.896	556.06
449.117	495.06
449.338	475.06
449.559	542.06
449.779	587.06
450	453.06
450.221	406.06
450.442	390.06
450.662	377.06
450.883	387.06
451.104	418.06
451.324	406.06
451.545	376.06
451.766	350.06
451.986	379.06
452.207	377.06
452.428	376.06
452.648	376.06
452.869	388.06
453.089	383.06
453.31	375.06
453.53	367.06
453.751	375.06
453.971	373.06
454.192	374.06
454.412	355.06
454.633	353.06
454.853	363.06
455.073	347.06
455.294	394.06
455.514	413.06
455.734	404.06
455.955	363.06
456.175	359.06
456.395	346.06
456.616	343.06
456.836	344.06
457.056	345.06
457.276	344.06
457.497	339.06
457.717	343.06
457.937	348.06
458.157	366.06
458.377	356.06
458.598	394.06
458.818	385.06
459.038	457.06
459.258	460.06
459.478	419.06
459.698	397.06
459.918	407.06
460.138	404.06
460.358	433.06
460.578	422.06
460.798	430.06
461.018	426.06
461.238	419.06
461.458	416.06
461.678	413.06
461.898	421.06
462.118	433.06
462.338	468.06
462.558	457.06
462.777	464.06
462.997	487.06
463.217	531.06
463.437	505.06
463.657	471.06
463.876	476.06
464.096	479.06
464.316	457.06
464.536	463.06
464.755	450.06
464.975	455.06
465.195	481.06
465.414	528.06
465.634	454.06
465.854	409.06
466.073	403.06
466.293	388.06
466.512	366.06
466.732	381.06
466.951	365.06
467.171	389.06
467.391	377.06
467.61	399.06
467.829	389.06
468.049	381.06
468.268	387.06
468.488	387.06
468.707	370.06
468.927	359.06
469.146	371.06
469.365	401.06
469.585	389.06
469.804	400.06
470.023	389.06
470.243	400.06
470.462	416.06
470.681	403.06
470.901	399.06
471.12	402.06
471.339	383.06
471.558	420.06
471.777	395.06
471.997	407.06
472.216	402.06
472.435	394.06
472.654	420.06
472.873	390.06
473.092	387.06
473.311	369.06
473.53	390.06
473.749	409.06
473.968	417.06
474.187	461.06
474.406	473.06
474.625	413.06
474.844	407.06
475.063	388.06
475.282	377.06
475.501	382.06
475.72	391.06
475.939	400.06
476.158	389.06
476.377	402.06
476.596	393.06
476.814	401.06
477.033	378.06
477.252	414.06
477.471	416.06
477.69	393.06
477.908	409.06
478.127	426.06
478.346	443.06
478.564	444.06
478.783	425.06
479.002	458.06
479.22	439.06
479.439	456.06
479.658	462.06
479.876	475.06
480.095	482.06
480.313	509.06
480.532	496.06
480.751	467.06
480.969	457.06
481.188	516.06
481.406	510.06
481.624	470.06
481.843	449.06
482.061	453.06
482.28	446.06
482.498	437.06
482.717	438.06
482.935	443.06
483.153	445.06
483.372	431.06
483.59	426.06
483.808	461.06
484.027	435.06
484.245	447.06
484.463	454.06
484.681	450.06
484.9	434.06
485.118	450.06
485.336	449.06
485.554	436.06
485.772	463.06
485.99	467.06
486.209	455.06
486.427	466.06
486.645	469.06
486.863	490.06
487.081	461.06
487.299	452.06
487.517	474.06
487.735	478.06
487.953	482.06
488.171	470.06
488.389	462.06
488.607	468.06
488.825	461.06
489.043	485.06
489.261	480.06
489.479	476.06
489.696	454.06
489.914	477.06
490.132	478.06
490.35	491.06
490.568	502.06
490.786	501.06
491.003	503.06
491.221	525.06
491.439	540.06
491.657	531.06
491.874	539.06
492.092	550.06
492.31	528.06
492.527	540.06
492.745	557.06
492.963	546.06
493.18	545.06
493.398	549.06
493.615	567.06
493.833	561.06
494.05	563.06
494.268	545.06
494.485	556.06
494.703	540.06
494.92	539.06
495.138	557.06
495.355	550.06
495.573	549.06
495.79	536.06
496.008	548.06
496.225	550.06
496.442	542.06
496.66	577.06
496.877	562.06
497.094	561.06
497.312	542.06
497.529	567.06
497.746	611.06
497.963	602.06
498.181	586.06
498.398	594.06
498.615	665.06
498.832	647.06
499.049	667.06
499.267	715.06
499.484	770.06
499.701	807.06
499.918	841.06
500.135	901.06
500.352	950.06
500.569	983.06
500.786	1004.06
501.003	942.06
501.22	888.06
501.437	834.06
501.654	798.06
501.871	787.06
502.088	712.06
502.305	709.06
502.522	666.06
502.739	641.06
502.956	609.06
503.172	597.06
503.389	610.06
503.606	571.06
503.823	566.06
504.04	562.06
504.256	589.06
504.473	570.06
504.69	592.06
504.907	549.06
505.123	535.06
505.34	554.06
505.557	548.06
505.773	531.06
505.99	527.06
506.207	530.06
506.423	527.06
506.64	542.06
506.856	472.06
507.073	519.06
507.289	514.06
507.506	510.06
507.722	498.06
507.939	525.06
508.155	463.06
508.372	480.06
508.588	467.06
508.805	472.06
509.021	471.06
509.238	497.06
509.454	497.06
509.67	486.06
509.887	494.06
510.103	463.06
510.319	496.06
510.536	521.06
510.752	748.06
510.968	628.06
511.184	470.06
511.401	457.06
511.617	449.06
511.833	449.06
512.049	466.06
512.265	449.06
512.481	443.06
512.698	450.06
512.914	445.06
513.13	455.06
513.346	423.06
513.562	440.06
513.778	441.06
513.994	438.06
514.21	468.06
514.426	466.06
514.642	485.06
514.858	488.06
515.074	498.06
515.29	589.06
515.506	789.06
515.721	695.06
515.937	509.06
516.153	493.06
516.369	472.06
516.585	464.06
516.801	497.06
517.016	469.06
517.232	524.06
517.448	521.06
517.664	533.06
517.879	522.06
518.095	521.06
518.311	518.06
518.527	500.06
518.742	500.06
518.958	467.06
519.173	468.06
519.389	458.06
519.605	461.06
519.82	454.06
520.036	469.06
520.251	467.06
520.467	472.06
520.682	465.06
520.898	455.06
521.113	462.06
521.329	499.06
521.544	548.06
521.76	630.06
521.975	975.06
522.19	989.06
522.406	574.06
522.621	467.06
522.836	421.06
523.052	473.06
523.267	414.06
523.482	408.06
523.698	427.06
523.913	400.06
524.128	405.06
524.343	388.06
524.559	387.06
524.774	390.06
524.989	411.06
525.204	394.06
525.419	405.06
525.634	389.06
525.849	392.06
526.064	408.06
526.28	391.06
526.495	379.06
526.71	388.06
526.925	381.06
527.14	387.06
527.355	380.06
527.57	375.06
527.785	366.06
527.999	367.06
528.214	358.06
528.429	397.06
528.644	379.06
528.859	366.06
529.074	387.06
529.289	396.06
529.503	431.06
529.718	430.06
529.933	397.06
530.148	380.06
530.363	385.06
530.577	384.06
530.792	373.06
531.007	374.06
531.221	369.06
531.436	367.06
531.651	369.06
531.865	382.06
532.08	376.06
532.295	376.06
532.509	376.06
532.724	360.06
532.938	365.06
533.153	379.06
533.367	367.06
533.582	386.06
533.796	361.06
534.011	373.06
534.225	365.06
534.44	362.06
534.654	367.06
534.868	370.06
535.083	364.06
535.297	369.06
535.511	383.06
535.726	355.06
535.94	371.06
536.154	375.06
536.369	352.06
536.583	364.06
536.797	353.06
537.011	348.06
537.225	342.06
537.44	356.06
537.654	366.06
537.868	360.06
538.082	352.06
538.296	370.06
538.51	377.06
538.724	357.06
538.938	357.06
539.153	356.06
539.367	341.06
539.581	351.06
539.795	353.06
540.009	362.06
540.222	348.06
540.436	357.06
540.65	372.06
540.864	365.06
541.078	372.06
541.292	367.06
541.506	375.06
541.72	339.06
541.934	364.06
542.147	354.06
542.361	366.06
542.575	369.06
542.789	329.06
543.002	337.06
543.216	358.06
543.43	358.06
543.644	361.06
543.857	353.06
544.071	347.06
544.285	369.06
544.498	372.06
544.712	360.06
544.925	349.06
545.139	343.06
545.352	350.06
545.566	355.06
545.779	349.06
545.993	353.06
546.206	376.06
546.42	373.06
546.633	377.06
546.847	379.06
547.06	351.06
547.274	342.06
547.487	363.06
547.7	360.06
547.914	366.06
548.127	338.06
548.34	351.06
548.554	363.06
548.767	369.06
548.98	353.06
549.193	358.06
549.407	357.06
549.62	345.06
549.833	352.06
550.046	363.06
550.259	356.06
550.473	351.06
550.686	366.06
550.899	354.06
551.112	338.06
551.325	341.06
551.538	343.06
551.751	337.06
551.964	359.06
552.177	351.06
552.39	335.06
552.603	353.06
552.816	376.06
553.029	389.06
553.242	370.06
553.455	355.06
553.667	384.06
553.88	369.06
554.093	381.06
554.306	369.06
554.519	362.06
554.732	350.06
554.944	351.06
555.157	357.06
555.37	329.06
555.583	330.06
555.795	327.06
556.008	331.06
556.221	339.06
556.433	324.06
556.646	322.06
556.859	334.06
557.071	323.06
557.284	334.06
557.496	315.06
557.709	323.06
557.921	323.06
558.134	301.06
558.346	308.06
558.559	305.06
558.771	309.06
558.984	315.06
559.196	306.06
559.409	318.06
559.621	321.06
559.833	309.06
560.046	292.06
560.258	287.06
560.47	311.06
560.683	310.06
560.895	303.06
561.107	318.06
561.32	295.06
561.532	309.06
561.744	316.06
561.956	307.06
562.168	325.06
562.381	300.06
562.593	320.06
562.805	326.06
563.017	316.06
563.229	307.06
563.441	314.06
563.653	324.06
563.865	320.06
564.077	309.06
564.289	322.06
564.501	309.06
564.713	339.06
564.925	335.06
565.137	346.06
565.349	344.06
565.561	357.06
565.773	360.06
565.985	357.06
566.197	366.06
566.408	391.06
566.62	403.06
566.832	414.06
567.044	438.06
567.255	436.06
567.467	452.06
567.679	446.06
567.891	466.06
568.102	472.06
568.314	441.06
568.526	429.06
568.737	411.06
568.949	390.06
569.161	377.06
569.372	342.06
569.584	339.06
569.795	347.06
570.007	330.06
570.218	335.06
570.43	350.06
570.641	316.06
570.853	312.06
571.064	309.06
571.276	306.06
571.487	318.06
571.698	314.06
571.91	308.06
572.121	296.06
572.333	294.06
572.544	296.06
572.755	278.06
572.966	270.06
573.178	283.06
573.389	283.06
573.6	280.06
573.811	269.06
574.023	279.06
574.234	285.06
574.445	277.06
574.656	276.06
574.867	268.06
575.078	261.06
575.289	267.06
575.501	265.06
575.712	259.06
575.923	259.06
576.134	274.06
576.345	249.06
576.556	264.06
576.767	271.06
576.978	253.06
577.188	260.06
577.399	271.06
577.61	272.06
577.821	268.06
578.032	257.06
578.243	280.06
578.454	380.06
578.665	323.06
578.875	259.06
579.086	263.06
579.297	252.06
579.508	250.06
579.718	249.06
579.929	237.06
580.14	251.06
580.35	247.06
580.561	251.06
580.772	266.06
580.982	262.06
581.193	249.06
581.403	251.06
581.614	246.06
581.825	255.06
582.035	247.06
582.246	261.06
582.456	247.06
582.667	235.06
582.877	257.06
583.087	233.06
583.298	248.06
583.508	247.06
583.719	246.06
583.929	245.06
584.139	219.06
584.35	221.06
584.56	243.06
584.77	256.06
584.981	243.06
585.191	234.06
585.401	249.06
585.611	237.06
585.821	251.06
586.032	236.06
586.242	233.06
586.452	243.06
586.662	234.06
586.872	236.06
587.082	243.06
587.292	228.06
587.502	227.06
587.713	241.06
587.923	236.06
588.133	230.06
588.343	230.06
588.553	240.06
588.762	238.06
588.972	234.06
589.182	238.06
589.392	252.06
589.602	242.06
589.812	243.06
590.022	249.06
590.232	248.06
590.441	251.06
590.651	257.06
590.861	227.06
591.071	244.06
591.281	241.06
591.49	244.06
591.7	257.06
591.91	261.06
592.119	258.06
592.329	271.06
592.539	273.06
592.748	269.06
592.958	282.06
593.167	271.06
593.377	270.06
593.587	280.06
593.796	273.06
594.006	280.06
594.215	277.06
594.424	294.06
594.634	265.06
594.843	265.06
595.053	265.06
595.262	289.06
595.472	253.06
595.681	230.06
595.89	241.06
596.1	253.06
596.309	222.06
596.518	244.06
596.727	219.06
596.937	230.06
597.146	233.06
597.355	232.06
597.564	206.06
597.774	244.06
597.983	223.06
598.192	222.06
598.401	198.06
598.61	220.06
598.819	214.06
599.028	218.06
599.237	226.06
599.446	216.06
599.655	227.06
599.864	214.06
600.073	233.06
600.282	217.06
600.491	216.06
600.7	218.06
600.909	203.06
601.118	210.06
601.327	217.06
601.536	221.06
601.745	208.06
601.953	226.06
602.162	203.06
602.371	212.06
602.58	216.06
602.789	217.06
602.997	207.06
603.206	217.06
603.415	210.06
603.623	200.06
603.832	191.06
604.041	192.06
604.249	212.06
604.458	210.06
604.666	204.06
604.875	202.06
605.084	199.06
605.292	209.06
605.501	203.06
605.709	206.06
605.918	206.06
606.126	220.06
606.334	210.06
606.543	213.06
606.751	226.06
606.96	218.06
607.168	207.06
607.376	215.06
607.585	197.06
607.793	190.06
608.001	221.06
608.21	211.06
608.418	213.06
608.626	197.06
608.834	187.06
609.043	195.06
609.251	190.06
609.459	206.06
609.667	194.06
609.875	214.06
610.083	202.06
610.291	216.06
610.499	211.06
610.707	194.06
610.916	215.06
611.124	215.06
611.332	216.06
611.54	215.06
611.748	217.06
611.955	220.06
612.163	202.06
612.371	219.06
612.579	219.06
612.787	218.06
612.995	210.06
613.203	202.06
613.411	210.06
613.618	195.06
613.826	212.06
614.034	198.06
614.242	185.06
614.449	204.06
614.657	204.06
614.865	195.06
615.072	204.06
615.28	199.06
615.488	203.06
615.695	194.06
615.903	203.06
616.111	211.06
616.318	205.06
616.526	207.06
616.733	193.06
616.941	207.06
617.148	188.06
617.356	211.06
617.563	198.06
617.771	203.06
617.978	207.06
618.185	205.06
618.393	202.06
618.6	203.06
618.807	195.06
619.015	197.06
619.222	213.06
619.429	197.06
619.637	186.06
619.844	211.06
620.051	190.06
620.258	200.06
620.466	204.06
620.673	179.06
620.88	201.06
621.087	185.06
621.294	182.06
621.501	181.06
621.708	191.06
621.915	181.06
622.122	189.06
622.329	190.06
622.536	181.06
622.743	189.06
622.95	205.06
623.157	190.06
623.364	187.06
623.571	199.06
623.778	205.06
623.985	194.06
624.192	182.06
624.399	193.06
624.606	193.06
624.812	190.06
625.019	189.06
625.226	181.06
625.433	186.06
625.639	183.06
625.846	184.06
626.053	174.06
626.259	174.06
626.466	193.06
626.673	177.06
626.879	187.06
627.086	185.06
627.293	163.06
627.499	183.06
627.706	174.06
627.912	193.06
628.119	168.06
628.325	171.06
628.532	186.06
628.738	174.06
628.945	179.06
629.151	177.06
629.357	193.06
629.564	174.06
629.77	179.06
629.976	177.06
630.183	181.06
630.389	166.06
630.595	183.06
630.802	164.06
631.008	175.06
631.214	171.06
631.42	173.06
631.627	183.06
631.833	170.06
632.039	174.06
632.245	170.06
632.451	157.06
632.657	170.06
632.863	160.06
633.069	177.06
633.275	151.06
633.481	165.06
633.688	170.06
633.893	173.06
634.099	169.06
634.305	154.06
634.511	161.06
634.717	155.06
634.923	157.06
635.129	162.06
635.335	165.06
635.541	171.06
635.747	169.06
635.952	173.06
636.158	168.06
636.364	166.06
636.57	165.06
636.775	163.06
636.981	155.06
637.187	140.06
637.392	158.06
637.598	162.06
637.804	162.06
638.009	155.06
638.215	163.06
638.421	155.06
638.626	150.06
638.832	167.06
639.037	153.06
639.243	151.06
639.448	147.06
639.654	146.06
639.859	161.06
640.065	157.06
640.27	149.06
640.475	162.06
640.681	156.06
640.886	146.06
641.091	153.06
641.297	161.06
641.502	155.06
641.707	151.06
641.913	165.06
642.118	145.06
642.323	143.06
642.528	160.06
642.733	149.06
642.939	153.06
643.144	134.06
643.349	158.06
643.554	137.06
643.759	158.06
643.964	144.06
644.169	145.06
644.374	146.06
644.579	141.06
644.784	149.06
644.989	149.06
645.194	161.06
645.399	139.06
645.604	156.06
645.809	149.06
646.014	146.06
646.219	142.06
646.423	154.06
646.628	159.06
646.833	158.06
647.038	155.06
647.243	169.06
647.447	141.06
647.652	171.06
647.857	150.06
648.062	151.06
648.266	143.06
648.471	154.06
648.676	165.06
648.88	140.06
649.085	147.06
649.289	164.06
649.494	145.06
649.698	161.06
649.903	159.06
650.107	151.06
650.312	156.06
650.516	152.06
650.721	146.06
650.925	124.06
651.13	115.06
651.334	143.06
651.539	146.06
651.743	140.06
651.947	146.06
652.152	147.06
652.356	127.06
652.56	121.06
652.764	134.06
652.969	134.06
653.173	119.06
653.377	118.06
653.581	139.06
653.785	119.06
653.99	138.06
654.194	135.06
654.398	126.06
654.602	115.06
654.806	133.06
655.01	135.06
655.214	134.06
655.418	135.06
655.622	126.06
655.826	129.06
656.03	131.06
656.234	136.06
656.438	144.06
656.642	147.06
656.846	122.06
657.049	123.06
657.253	132.06
657.457	115.06
657.661	121.06
657.865	118.06
658.068	110.06
658.272	115.06
658.476	105.06
658.68	99.06
658.883	107.06
659.087	100.06
659.291	100.06
659.494	102.06
659.698	101.06
659.901	110.06
660.105	81.06
660.309	91.06
660.512	88.06
660.716	103.06
660.919	100.06
661.123	105.06
661.326	91.06
661.53	91.06
661.733	109.06
661.936	95.06
662.14	97.06
662.343	90.06
662.546	60.06
662.75	78.06
662.953	89.06
663.156	75.06
663.36	91.06
663.563	87.06
663.766	81.06
663.969	63.06
664.173	88.06
664.376	75.06
664.579	90.06
664.782	80.06
664.985	75.06
665.188	73.06
665.391	98.06
665.594	77.06
665.797	95.06
666	86.06
666.203	87.06
666.406	77.06
666.609	78.06
666.812	98.06
667.015	100.06
667.218	78.06
667.421	85.06
667.624	74.06
667.827	94.06
668.03	99.06
668.232	89.06
668.435	81.06
668.638	85.06
668.841	94.06
669.043	99.06
669.246	83.06
669.449	77.06
669.651	88.06
669.854	85.06
670.057	96.06
670.259	89.06
670.462	86.06
670.665	85.06
670.867	82.06
671.07	77.06
671.272	93.06
671.475	83.06
671.677	82.06
671.88	94.06
672.082	86.06
672.284	84.06
672.487	89.06
672.689	69.06
672.892	90.06
