Data from 1969.PennyLincolnUp.Lamp.En5.5.200Scan.071719.P1._HRD10591_14-55-56-975.txt Node
Date: Thu Jul 18 14:55:56 EDT 2019
User: cochatt
Spectrometer: HR+D1059
Trigger mode: 1
Integration Time (sec): 1.000000E-1
Scans to average: 1
Electric dark correction enabled: true
Nonlinearity correction enabled: false
Boxcar width: 0
XAxis mode: Wavelengths
Number of Pixels in Spectrum: 2048
>>>>>Begin Spectral Data<<<<<
223.165	-8.94
223.4	-8.94
223.635	-8.94
223.869	-17.94
224.104	-10.94
224.338	-16.94
224.573	-15.94
224.808	-20.94
225.042	-12.94
225.277	-0.94
225.511	3.06
225.746	3.06
225.98	11.06
226.215	13.06
226.449	16.06
226.683	29.06
226.918	1.06
227.152	29.06
227.387	35.06
227.621	35.06
227.856	38.06
228.09	47.06
228.324	41.06
228.559	54.06
228.793	72.06
229.027	80.06
229.262	104.06
229.496	95.06
229.73	100.06
229.964	129.06
230.199	107.06
230.433	104.06
230.667	100.06
230.901	115.06
231.136	90.06
231.37	106.06
231.604	103.06
231.838	96.06
232.072	105.06
232.306	105.06
232.541	103.06
232.775	95.06
233.009	103.06
233.243	108.06
233.477	115.06
233.711	106.06
233.945	109.06
234.179	103.06
234.413	100.06
234.647	91.06
234.881	119.06
235.115	107.06
235.349	119.06
235.583	112.06
235.817	119.06
236.051	117.06
236.285	104.06
236.519	110.06
236.753	121.06
236.987	122.06
237.221	153.06
237.455	169.06
237.689	140.06
237.922	129.06
238.156	117.06
238.39	124.06
238.624	112.06
238.858	118.06
239.091	102.06
239.325	108.06
239.559	118.06
239.793	126.06
240.027	135.06
240.26	123.06
240.494	145.06
240.728	131.06
240.961	135.06
241.195	128.06
241.429	121.06
241.662	112.06
241.896	124.06
242.13	111.06
242.363	125.06
242.597	130.06
242.83	127.06
243.064	118.06
243.298	133.06
243.531	115.06
243.765	131.06
243.998	130.06
244.232	125.06
244.465	123.06
244.699	139.06
244.932	140.06
245.166	135.06
245.399	129.06
245.633	125.06
245.866	127.06
246.099	126.06
246.333	148.06
246.566	125.06
246.8	135.06
247.033	148.06
247.266	141.06
247.5	151.06
247.733	155.06
247.966	149.06
248.2	152.06
248.433	152.06
248.666	144.06
248.899	167.06
249.133	168.06
249.366	167.06
249.599	146.06
249.832	144.06
250.066	151.06
250.299	143.06
250.532	159.06
250.765	179.06
250.998	180.06
251.231	178.06
251.465	181.06
251.698	160.06
251.931	169.06
252.164	156.06
252.397	171.06
252.63	177.06
252.863	189.06
253.096	172.06
253.329	177.06
253.562	185.06
253.795	179.06
254.028	180.06
254.261	176.06
254.494	197.06
254.727	185.06
254.96	232.06
255.193	224.06
255.426	188.06
255.659	179.06
255.892	207.06
256.124	199.06
256.357	183.06
256.59	188.06
256.823	197.06
257.056	165.06
257.289	176.06
257.521	188.06
257.754	171.06
257.987	180.06
258.22	169.06
258.452	164.06
258.685	179.06
258.918	193.06
259.151	183.06
259.383	170.06
259.616	187.06
259.849	185.06
260.081	200.06
260.314	191.06
260.547	204.06
260.779	207.06
261.012	190.06
261.244	187.06
261.477	212.06
261.71	187.06
261.942	202.06
262.175	188.06
262.407	179.06
262.64	166.06
262.872	176.06
263.105	188.06
263.337	191.06
263.57	202.06
263.802	188.06
264.035	191.06
264.267	174.06
264.499	193.06
264.732	188.06
264.964	187.06
265.197	179.06
265.429	188.06
265.661	191.06
265.894	196.06
266.126	193.06
266.358	196.06
266.591	197.06
266.823	192.06
267.055	186.06
267.287	210.06
267.52	213.06
267.752	201.06
267.984	187.06
268.216	204.06
268.448	218.06
268.681	190.06
268.913	208.06
269.145	223.06
269.377	220.06
269.609	226.06
269.841	231.06
270.073	233.06
270.306	248.06
270.538	259.06
270.77	261.06
271.002	261.06
271.234	232.06
271.466	247.06
271.698	245.06
271.93	252.06
272.162	273.06
272.394	249.06
272.626	232.06
272.858	232.06
273.09	230.06
273.322	231.06
273.553	214.06
273.785	228.06
274.017	230.06
274.249	225.06
274.481	237.06
274.713	212.06
274.945	233.06
275.176	213.06
275.408	227.06
275.64	230.06
275.872	232.06
276.104	212.06
276.335	226.06
276.567	231.06
276.799	236.06
277.031	267.06
277.262	262.06
277.494	276.06
277.726	263.06
277.957	228.06
278.189	224.06
278.421	238.06
278.652	228.06
278.884	229.06
279.115	224.06
279.347	232.06
279.579	233.06
279.81	235.06
280.042	231.06
280.273	230.06
280.505	227.06
280.736	236.06
280.968	226.06
281.199	228.06
281.431	225.06
281.662	229.06
281.894	248.06
282.125	240.06
282.356	261.06
282.588	244.06
282.819	251.06
283.051	231.06
283.282	222.06
283.513	241.06
283.745	261.06
283.976	240.06
284.207	249.06
284.439	248.06
284.67	250.06
284.901	248.06
285.132	244.06
285.364	256.06
285.595	260.06
285.826	241.06
286.057	275.06
286.288	262.06
286.52	267.06
286.751	275.06
286.982	238.06
287.213	253.06
287.444	269.06
287.675	251.06
287.906	265.06
288.138	262.06
288.369	245.06
288.6	255.06
288.831	262.06
289.062	268.06
289.293	275.06
289.524	261.06
289.755	251.06
289.986	248.06
290.217	240.06
290.448	272.06
290.679	269.06
290.91	252.06
291.141	262.06
291.371	266.06
291.602	263.06
291.833	246.06
292.064	267.06
292.295	256.06
292.526	272.06
292.757	250.06
292.987	250.06
293.218	268.06
293.449	249.06
293.68	268.06
293.91	257.06
294.141	253.06
294.372	268.06
294.603	281.06
294.833	250.06
295.064	265.06
295.295	276.06
295.525	271.06
295.756	270.06
295.987	250.06
296.217	280.06
296.448	278.06
296.679	280.06
296.909	279.06
297.14	255.06
297.37	272.06
297.601	272.06
297.831	271.06
298.062	289.06
298.292	270.06
298.523	278.06
298.753	271.06
298.984	284.06
299.214	275.06
299.445	257.06
299.675	269.06
299.905	276.06
300.136	272.06
300.366	271.06
300.597	295.06
300.827	281.06
301.057	296.06
301.288	309.06
301.518	293.06
301.748	298.06
301.979	302.06
302.209	324.06
302.439	307.06
302.669	285.06
302.9	296.06
303.13	280.06
303.36	294.06
303.59	297.06
303.82	296.06
304.051	299.06
304.281	295.06
304.511	291.06
304.741	292.06
304.971	278.06
305.201	295.06
305.431	289.06
305.661	276.06
305.891	270.06
306.121	281.06
306.352	285.06
306.582	295.06
306.812	296.06
307.042	288.06
307.272	296.06
307.502	272.06
307.731	293.06
307.961	274.06
308.191	283.06
308.421	286.06
308.651	300.06
308.881	295.06
309.111	288.06
309.341	294.06
309.571	315.06
309.8	314.06
310.03	329.06
310.26	302.06
310.49	307.06
310.72	302.06
310.949	335.06
311.179	331.06
311.409	320.06
311.639	319.06
311.868	303.06
312.098	321.06
312.328	329.06
312.557	335.06
312.787	337.06
313.017	337.06
313.246	317.06
313.476	323.06
313.706	326.06
313.935	322.06
314.165	325.06
314.394	333.06
314.624	349.06
314.853	313.06
315.083	321.06
315.312	323.06
315.542	317.06
315.771	318.06
316.001	325.06
316.23	327.06
316.46	322.06
316.689	327.06
316.919	343.06
317.148	326.06
317.377	325.06
317.607	335.06
317.836	325.06
318.065	318.06
318.295	317.06
318.524	328.06
318.753	294.06
318.983	316.06
319.212	324.06
319.441	326.06
319.67	339.06
319.9	311.06
320.129	310.06
320.358	315.06
320.587	321.06
320.816	334.06
321.046	328.06
321.275	338.06
321.504	335.06
321.733	343.06
321.962	347.06
322.191	345.06
322.42	357.06
322.649	352.06
322.878	357.06
323.108	353.06
323.337	359.06
323.566	380.06
323.795	385.06
324.024	391.06
324.253	461.06
324.482	635.06
324.71	878.06
324.939	1155.06
325.168	959.06
325.397	553.06
325.626	419.06
325.855	383.06
326.084	377.06
326.313	377.06
326.542	392.06
326.77	386.06
326.999	460.06
327.228	563.06
327.457	764.06
327.686	902.06
327.914	603.06
328.143	454.06
328.372	426.06
328.6	448.06
328.829	391.06
329.058	425.06
329.287	428.06
329.515	418.06
329.744	395.06
329.972	388.06
330.201	411.06
330.43	432.06
330.658	457.06
330.887	445.06
331.115	444.06
331.344	406.06
331.572	389.06
331.801	392.06
332.03	388.06
332.258	381.06
332.486	390.06
332.715	398.06
332.943	398.06
333.172	387.06
333.4	408.06
333.629	406.06
333.857	421.06
334.085	422.06
334.314	437.06
334.542	451.06
334.771	461.06
334.999	438.06
335.227	406.06
335.455	395.06
335.684	379.06
335.912	381.06
336.14	369.06
336.369	369.06
336.597	404.06
336.825	407.06
337.053	359.06
337.281	361.06
337.51	380.06
337.738	360.06
337.966	380.06
338.194	381.06
338.422	374.06
338.65	363.06
338.878	363.06
339.106	372.06
339.334	351.06
339.562	371.06
339.79	371.06
340.018	358.06
340.246	371.06
340.474	364.06
340.702	355.06
340.93	355.06
341.158	353.06
341.386	356.06
341.614	356.06
341.842	368.06
342.07	351.06
342.298	364.06
342.526	345.06
342.754	355.06
342.981	355.06
343.209	362.06
343.437	345.06
343.665	373.06
343.893	381.06
344.12	394.06
344.348	396.06
344.576	368.06
344.804	363.06
345.031	357.06
345.259	383.06
345.487	363.06
345.714	341.06
345.942	355.06
346.17	338.06
346.397	342.06
346.625	329.06
346.853	333.06
347.08	349.06
347.308	343.06
347.535	364.06
347.763	350.06
347.99	325.06
348.218	364.06
348.445	344.06
348.673	346.06
348.9	339.06
349.128	340.06
349.355	330.06
349.583	337.06
349.81	327.06
350.037	337.06
350.265	345.06
350.492	336.06
350.72	327.06
350.947	332.06
351.174	344.06
351.402	342.06
351.629	337.06
351.856	333.06
352.083	344.06
352.311	341.06
352.538	362.06
352.765	337.06
352.992	329.06
353.22	332.06
353.447	334.06
353.674	331.06
353.901	337.06
354.128	337.06
354.355	340.06
354.583	316.06
354.81	309.06
355.037	328.06
355.264	329.06
355.491	325.06
355.718	333.06
355.945	338.06
356.172	340.06
356.399	320.06
356.626	333.06
356.853	302.06
357.08	305.06
357.307	320.06
357.534	341.06
357.761	325.06
357.988	335.06
358.215	309.06
358.441	329.06
358.668	334.06
358.895	337.06
359.122	325.06
359.349	334.06
359.576	336.06
359.802	353.06
360.029	366.06
360.256	380.06
360.483	356.06
360.709	343.06
360.936	333.06
361.163	343.06
361.39	339.06
361.616	334.06
361.843	345.06
362.07	334.06
362.296	315.06
362.523	337.06
362.749	340.06
362.976	332.06
363.203	320.06
363.429	336.06
363.656	328.06
363.882	336.06
364.109	343.06
364.335	316.06
364.562	331.06
364.788	324.06
365.015	331.06
365.241	327.06
365.468	333.06
365.694	329.06
365.92	310.06
366.147	329.06
366.373	339.06
366.599	328.06
366.826	332.06
367.052	318.06
367.278	325.06
367.505	344.06
367.731	335.06
367.957	346.06
368.184	332.06
368.41	321.06
368.636	352.06
368.862	357.06
369.089	339.06
369.315	338.06
369.541	332.06
369.767	325.06
369.993	338.06
370.219	332.06
370.445	324.06
370.672	308.06
370.898	350.06
371.124	333.06
371.35	314.06
371.576	326.06
371.802	339.06
372.028	323.06
372.254	349.06
372.48	329.06
372.706	331.06
372.932	337.06
373.158	348.06
373.384	345.06
373.61	318.06
373.835	343.06
374.061	337.06
374.287	348.06
374.513	352.06
374.739	359.06
374.965	349.06
375.191	361.06
375.416	344.06
375.642	341.06
375.868	354.06
376.094	336.06
376.319	340.06
376.545	325.06
376.771	319.06
376.997	356.06
377.222	344.06
377.448	344.06
377.674	343.06
377.899	333.06
378.125	333.06
378.35	330.06
378.576	335.06
378.802	331.06
379.027	342.06
379.253	328.06
379.478	324.06
379.704	351.06
379.929	342.06
380.155	341.06
380.38	329.06
380.606	320.06
380.831	335.06
381.057	337.06
381.282	327.06
381.507	325.06
381.733	337.06
381.958	340.06
382.184	343.06
382.409	332.06
382.634	345.06
382.86	333.06
383.085	333.06
383.31	355.06
383.535	344.06
383.761	346.06
383.986	335.06
384.211	360.06
384.436	371.06
384.662	355.06
384.887	365.06
385.112	369.06
385.337	366.06
385.562	359.06
385.787	374.06
386.013	391.06
386.238	365.06
386.463	385.06
386.688	384.06
386.913	377.06
387.138	377.06
387.363	378.06
387.588	378.06
387.813	369.06
388.038	375.06
388.263	384.06
388.488	377.06
388.713	367.06
388.938	372.06
389.163	370.06
389.387	351.06
389.612	357.06
389.837	360.06
390.062	358.06
390.287	356.06
390.512	351.06
390.736	367.06
390.961	382.06
391.186	382.06
391.411	365.06
391.636	367.06
391.86	389.06
392.085	393.06
392.31	407.06
392.534	404.06
392.759	399.06
392.984	374.06
393.208	393.06
393.433	375.06
393.658	376.06
393.882	372.06
394.107	364.06
394.331	373.06
394.556	382.06
394.78	383.06
395.005	393.06
395.229	390.06
395.454	381.06
395.678	392.06
395.903	416.06
396.127	416.06
396.352	408.06
396.576	380.06
396.801	380.06
397.025	384.06
397.249	414.06
397.474	411.06
397.698	396.06
397.922	409.06
398.147	411.06
398.371	401.06
398.595	400.06
398.82	440.06
399.044	455.06
399.268	483.06
399.492	514.06
399.717	580.06
399.941	553.06
400.165	565.06
400.389	529.06
400.613	480.06
400.837	470.06
401.062	444.06
401.286	463.06
401.51	433.06
401.734	430.06
401.958	432.06
402.182	427.06
402.406	460.06
402.63	438.06
402.854	441.06
403.078	449.06
403.302	455.06
403.526	487.06
403.75	472.06
403.974	475.06
404.198	469.06
404.422	475.06
404.645	477.06
404.869	465.06
405.093	499.06
405.317	507.06
405.541	524.06
405.765	512.06
405.988	473.06
406.212	481.06
406.436	491.06
406.66	500.06
406.883	463.06
407.107	495.06
407.331	552.06
407.555	576.06
407.778	554.06
408.002	505.06
408.226	504.06
408.449	487.06
408.673	477.06
408.896	488.06
409.12	507.06
409.344	485.06
409.567	472.06
409.791	449.06
410.014	449.06
410.238	449.06
410.461	454.06
410.685	461.06
410.908	449.06
411.132	481.06
411.355	481.06
411.578	452.06
411.802	466.06
412.025	449.06
412.249	471.06
412.472	478.06
412.695	464.06
412.919	501.06
413.142	448.06
413.365	439.06
413.589	447.06
413.812	442.06
414.035	421.06
414.258	438.06
414.482	419.06
414.705	409.06
414.928	436.06
415.151	423.06
415.374	402.06
415.597	427.06
415.821	420.06
416.044	407.06
416.267	429.06
416.49	420.06
416.713	425.06
416.936	419.06
417.159	405.06
417.382	413.06
417.605	427.06
417.828	447.06
418.051	456.06
418.274	448.06
418.497	442.06
418.72	437.06
418.943	428.06
419.166	453.06
419.389	468.06
419.611	469.06
419.834	439.06
420.057	432.06
420.28	465.06
420.503	453.06
420.726	447.06
420.948	418.06
421.171	471.06
421.394	491.06
421.617	436.06
421.839	442.06
422.062	444.06
422.285	455.06
422.507	483.06
422.73	514.06
422.953	490.06
423.175	480.06
423.398	471.06
423.621	453.06
423.843	457.06
424.066	473.06
424.288	478.06
424.511	467.06
424.733	522.06
424.956	533.06
425.178	534.06
425.401	506.06
425.623	536.06
425.846	485.06
426.068	455.06
426.291	432.06
426.513	432.06
426.735	457.06
426.958	465.06
427.18	524.06
427.402	576.06
427.625	631.06
427.847	552.06
428.069	500.06
428.292	446.06
428.514	424.06
428.736	419.06
428.958	409.06
429.181	421.06
429.403	415.06
429.625	414.06
429.847	432.06
430.069	473.06
430.292	473.06
430.514	428.06
430.736	411.06
430.958	404.06
431.18	414.06
431.402	398.06
431.624	407.06
431.846	395.06
432.068	421.06
432.29	413.06
432.512	390.06
432.734	407.06
432.956	390.06
433.178	396.06
433.4	403.06
433.622	393.06
433.844	402.06
434.066	390.06
434.287	396.06
434.509	438.06
434.731	428.06
434.953	429.06
435.175	433.06
435.397	470.06
435.618	447.06
435.84	453.06
436.062	526.06
436.284	539.06
436.505	447.06
436.727	452.06
436.949	430.06
437.17	409.06
437.392	409.06
437.614	419.06
437.835	431.06
438.057	473.06
438.278	523.06
438.5	515.06
438.721	556.06
438.943	552.06
439.165	471.06
439.386	440.06
439.608	456.06
439.829	448.06
440.05	447.06
440.272	465.06
440.493	448.06
440.715	427.06
440.936	441.06
441.158	424.06
441.379	416.06
441.6	434.06
441.822	460.06
442.043	478.06
442.264	520.06
442.486	528.06
442.707	480.06
442.928	473.06
443.149	486.06
443.371	492.06
443.592	492.06
443.813	549.06
444.034	577.06
444.255	504.06
444.476	477.06
444.698	483.06
444.919	488.06
445.14	607.06
445.361	538.06
445.582	497.06
445.803	525.06
446.024	555.06
446.245	538.06
446.466	524.06
446.687	460.06
446.908	440.06
447.129	408.06
447.35	393.06
447.571	416.06
447.792	389.06
448.013	389.06
448.234	424.06
448.455	453.06
448.675	505.06
448.896	569.06
449.117	476.06
449.338	469.06
449.559	532.06
449.779	576.06
450	471.06
450.221	439.06
450.442	397.06
450.662	409.06
450.883	384.06
451.104	408.06
451.324	387.06
451.545	394.06
451.766	409.06
451.986	369.06
452.207	389.06
452.428	385.06
452.648	360.06
452.869	361.06
453.089	383.06
453.31	391.06
453.53	375.06
453.751	375.06
453.971	392.06
454.192	380.06
454.412	360.06
454.633	364.06
454.853	348.06
455.073	353.06
455.294	380.06
455.514	415.06
455.734	393.06
455.955	353.06
456.175	349.06
456.395	351.06
456.616	366.06
456.836	353.06
457.056	352.06
457.276	337.06
457.497	355.06
457.717	350.06
457.937	352.06
458.157	372.06
458.377	359.06
458.598	386.06
458.818	413.06
459.038	456.06
459.258	460.06
459.478	426.06
459.698	398.06
459.918	422.06
460.138	408.06
460.358	414.06
460.578	416.06
460.798	442.06
461.018	437.06
461.238	447.06
461.458	424.06
461.678	413.06
461.898	425.06
462.118	447.06
462.338	451.06
462.558	463.06
462.777	468.06
462.997	484.06
463.217	527.06
463.437	519.06
463.657	485.06
463.876	479.06
464.096	485.06
464.316	472.06
464.536	473.06
464.755	478.06
464.975	456.06
465.195	477.06
465.414	505.06
465.634	425.06
465.854	421.06
466.073	412.06
466.293	404.06
466.512	386.06
466.732	389.06
466.951	382.06
467.171	380.06
467.391	395.06
467.61	384.06
467.829	395.06
468.049	379.06
468.268	395.06
468.488	399.06
468.707	373.06
468.927	372.06
469.146	380.06
469.365	361.06
469.585	385.06
469.804	392.06
470.023	411.06
470.243	405.06
470.462	406.06
470.681	424.06
470.901	410.06
471.12	399.06
471.339	397.06
471.558	391.06
471.777	402.06
471.997	390.06
472.216	383.06
472.435	423.06
472.654	393.06
472.873	382.06
473.092	373.06
473.311	392.06
473.53	408.06
473.749	388.06
473.968	421.06
474.187	452.06
474.406	451.06
474.625	407.06
474.844	396.06
475.063	391.06
475.282	381.06
475.501	397.06
475.72	397.06
475.939	392.06
476.158	392.06
476.377	396.06
476.596	400.06
476.814	415.06
477.033	402.06
477.252	410.06
477.471	427.06
477.69	436.06
477.908	416.06
478.127	432.06
478.346	430.06
478.564	432.06
478.783	449.06
479.002	463.06
479.22	443.06
479.439	469.06
479.658	453.06
479.876	472.06
480.095	473.06
480.313	502.06
480.532	516.06
480.751	489.06
480.969	483.06
481.188	527.06
481.406	521.06
481.624	491.06
481.843	443.06
482.061	445.06
482.28	440.06
482.498	434.06
482.717	427.06
482.935	440.06
483.153	417.06
483.372	432.06
483.59	457.06
483.808	434.06
484.027	432.06
484.245	433.06
484.463	455.06
484.681	431.06
484.9	440.06
485.118	444.06
485.336	457.06
485.554	464.06
485.772	436.06
485.99	469.06
486.209	468.06
486.427	469.06
486.645	497.06
486.863	459.06
487.081	465.06
487.299	471.06
487.517	472.06
487.735	476.06
487.953	472.06
488.171	462.06
488.389	474.06
488.607	479.06
488.825	447.06
489.043	480.06
489.261	478.06
489.479	468.06
489.696	484.06
489.914	495.06
490.132	488.06
490.35	507.06
490.568	497.06
490.786	496.06
491.003	493.06
491.221	529.06
491.439	532.06
491.657	539.06
491.874	527.06
492.092	552.06
492.31	542.06
492.527	550.06
492.745	533.06
492.963	545.06
493.18	554.06
493.398	571.06
493.615	552.06
493.833	566.06
494.05	549.06
494.268	577.06
494.485	568.06
494.703	540.06
494.92	533.06
495.138	559.06
495.355	555.06
495.573	554.06
495.79	539.06
496.008	544.06
496.225	536.06
496.442	569.06
496.66	552.06
496.877	564.06
497.094	581.06
497.312	586.06
497.529	569.06
497.746	604.06
497.963	636.06
498.181	606.06
498.398	639.06
498.615	625.06
498.832	635.06
499.049	645.06
499.267	724.06
499.484	748.06
499.701	776.06
499.918	862.06
500.135	941.06
500.352	997.06
500.569	1000.06
500.786	1001.06
501.003	943.06
501.22	901.06
501.437	847.06
501.654	797.06
501.871	752.06
502.088	719.06
502.305	704.06
502.522	640.06
502.739	622.06
502.956	622.06
503.172	590.06
503.389	571.06
503.606	586.06
503.823	583.06
504.04	579.06
504.256	568.06
504.473	567.06
504.69	554.06
504.907	576.06
505.123	528.06
505.34	538.06
505.557	534.06
505.773	521.06
505.99	512.06
506.207	528.06
506.423	541.06
506.64	507.06
506.856	516.06
507.073	517.06
507.289	516.06
507.506	510.06
507.722	519.06
507.939	488.06
508.155	488.06
508.372	481.06
508.588	476.06
508.805	496.06
509.021	487.06
509.238	496.06
509.454	487.06
509.67	475.06
509.887	471.06
510.103	472.06
510.319	468.06
510.536	535.06
510.752	744.06
510.968	648.06
511.184	459.06
511.401	436.06
511.617	451.06
511.833	435.06
512.049	460.06
512.265	444.06
512.481	456.06
512.698	452.06
512.914	459.06
513.13	440.06
513.346	438.06
513.562	451.06
513.778	424.06
513.994	439.06
514.21	464.06
514.426	466.06
514.642	490.06
514.858	481.06
515.074	505.06
515.29	589.06
515.506	793.06
515.721	677.06
515.937	529.06
516.153	471.06
516.369	489.06
516.585	502.06
516.801	491.06
517.016	505.06
517.232	485.06
517.448	496.06
517.664	527.06
517.879	524.06
518.095	523.06
518.311	515.06
518.527	503.06
518.742	489.06
518.958	496.06
519.173	471.06
519.389	470.06
519.605	452.06
519.82	452.06
520.036	467.06
520.251	484.06
520.467	484.06
520.682	461.06
520.898	455.06
521.113	470.06
521.329	490.06
521.544	537.06
521.76	651.06
521.975	983.06
522.19	957.06
522.406	584.06
522.621	473.06
522.836	440.06
523.052	428.06
523.267	424.06
523.482	414.06
523.698	415.06
523.913	417.06
524.128	400.06
524.343	424.06
524.559	399.06
524.774	392.06
524.989	409.06
525.204	407.06
525.419	414.06
525.634	397.06
525.849	402.06
526.064	397.06
526.28	400.06
526.495	387.06
526.71	379.06
526.925	380.06
527.14	382.06
527.355	392.06
527.57	374.06
527.785	380.06
527.999	375.06
528.214	373.06
528.429	381.06
528.644	376.06
528.859	385.06
529.074	367.06
529.289	387.06
529.503	437.06
529.718	430.06
529.933	389.06
530.148	405.06
530.363	387.06
530.577	361.06
530.792	367.06
531.007	375.06
531.221	373.06
531.436	380.06
531.651	372.06
531.865	352.06
532.08	373.06
532.295	362.06
532.509	366.06
532.724	355.06
532.938	375.06
533.153	384.06
533.367	367.06
533.582	376.06
533.796	367.06
534.011	378.06
534.225	363.06
534.44	387.06
534.654	377.06
534.868	357.06
535.083	353.06
535.297	366.06
535.511	359.06
535.726	363.06
535.94	362.06
536.154	362.06
536.369	379.06
536.583	348.06
536.797	345.06
537.011	365.06
537.225	378.06
537.44	357.06
537.654	343.06
537.868	361.06
538.082	344.06
538.296	355.06
538.51	368.06
538.724	367.06
538.938	357.06
539.153	369.06
539.367	366.06
539.581	368.06
539.795	349.06
540.009	346.06
540.222	361.06
540.436	373.06
540.65	360.06
540.864	352.06
541.078	366.06
541.292	365.06
541.506	349.06
541.72	355.06
541.934	349.06
542.147	379.06
542.361	355.06
542.575	371.06
542.789	365.06
543.002	367.06
543.216	351.06
543.43	368.06
543.644	364.06
543.857	384.06
544.071	361.06
544.285	366.06
544.498	360.06
544.712	362.06
544.925	355.06
545.139	361.06
545.352	349.06
545.566	357.06
545.779	324.06
545.993	342.06
546.206	373.06
546.42	379.06
546.633	356.06
546.847	354.06
547.06	375.06
547.274	331.06
547.487	351.06
547.7	369.06
547.914	378.06
548.127	363.06
548.34	362.06
548.554	357.06
548.767	357.06
548.98	366.06
549.193	363.06
549.407	339.06
549.62	347.06
549.833	355.06
550.046	351.06
550.259	356.06
550.473	345.06
550.686	352.06
550.899	349.06
551.112	343.06
551.325	354.06
551.538	352.06
551.751	345.06
551.964	342.06
552.177	368.06
552.39	376.06
552.603	362.06
552.816	360.06
553.029	364.06
553.242	369.06
553.455	377.06
553.667	381.06
553.88	359.06
554.093	376.06
554.306	375.06
554.519	375.06
554.732	377.06
554.944	361.06
555.157	349.06
555.37	328.06
555.583	341.06
555.795	347.06
556.008	344.06
556.221	338.06
556.433	343.06
556.646	316.06
556.859	314.06
557.071	313.06
557.284	339.06
557.496	323.06
557.709	312.06
557.921	347.06
558.134	315.06
558.346	323.06
558.559	299.06
558.771	329.06
558.984	298.06
559.196	313.06
559.409	314.06
559.621	327.06
559.833	300.06
560.046	319.06
560.258	308.06
560.47	303.06
560.683	311.06
560.895	301.06
561.107	307.06
561.32	305.06
561.532	309.06
561.744	300.06
561.956	311.06
562.168	315.06
562.381	312.06
562.593	308.06
562.805	323.06
563.017	321.06
563.229	319.06
563.441	316.06
563.653	305.06
563.865	306.06
564.077	335.06
564.289	325.06
564.501	311.06
564.713	312.06
564.925	337.06
565.137	336.06
565.349	353.06
565.561	346.06
565.773	346.06
565.985	375.06
566.197	369.06
566.408	387.06
566.62	403.06
566.832	438.06
567.044	451.06
567.255	439.06
567.467	444.06
567.679	439.06
567.891	473.06
568.102	446.06
568.314	448.06
568.526	432.06
568.737	420.06
568.949	384.06
569.161	367.06
569.372	344.06
569.584	345.06
569.795	332.06
570.007	325.06
570.218	320.06
570.43	326.06
570.641	330.06
570.853	316.06
571.064	318.06
571.276	328.06
571.487	312.06
571.698	325.06
571.91	296.06
572.121	288.06
572.333	305.06
572.544	286.06
572.755	286.06
572.966	285.06
573.178	269.06
573.389	277.06
573.6	281.06
573.811	280.06
574.023	277.06
574.234	276.06
574.445	270.06
574.656	287.06
574.867	277.06
575.078	271.06
575.289	267.06
575.501	266.06
575.712	267.06
575.923	262.06
576.134	267.06
576.345	247.06
576.556	256.06
576.767	259.06
576.978	273.06
577.188	261.06
577.399	267.06
577.61	246.06
577.821	249.06
578.032	256.06
578.243	280.06
578.454	382.06
578.665	317.06
578.875	271.06
579.086	243.06
579.297	247.06
579.508	264.06
579.718	235.06
579.929	251.06
580.14	248.06
580.35	257.06
580.561	253.06
580.772	246.06
580.982	239.06
581.193	255.06
581.403	251.06
581.614	239.06
581.825	249.06
582.035	232.06
582.246	249.06
582.456	242.06
582.667	250.06
582.877	249.06
583.087	253.06
583.298	241.06
583.508	243.06
583.719	245.06
583.929	237.06
584.139	248.06
584.35	235.06
584.56	265.06
584.77	240.06
584.981	234.06
585.191	228.06
585.401	248.06
585.611	222.06
585.821	214.06
586.032	245.06
586.242	252.06
586.452	240.06
586.662	238.06
586.872	237.06
587.082	236.06
587.292	240.06
587.502	234.06
587.713	219.06
587.923	237.06
588.133	235.06
588.343	231.06
588.553	253.06
588.762	238.06
588.972	247.06
589.182	249.06
589.392	238.06
589.602	238.06
589.812	242.06
590.022	245.06
590.232	232.06
590.441	249.06
590.651	230.06
590.861	247.06
591.071	232.06
591.281	264.06
591.49	259.06
591.7	251.06
591.91	250.06
592.119	250.06
592.329	264.06
592.539	257.06
592.748	274.06
592.958	260.06
593.167	277.06
593.377	277.06
593.587	283.06
593.796	273.06
594.006	287.06
594.215	293.06
594.424	265.06
594.634	267.06
594.843	279.06
595.053	271.06
595.262	265.06
595.472	238.06
595.681	248.06
595.89	246.06
596.1	245.06
596.309	239.06
596.518	236.06
596.727	231.06
596.937	240.06
597.146	250.06
597.355	223.06
597.564	232.06
597.774	218.06
597.983	226.06
598.192	225.06
598.401	227.06
598.61	224.06
598.819	228.06
599.028	217.06
599.237	228.06
599.446	222.06
599.655	237.06
599.864	219.06
600.073	214.06
600.282	207.06
600.491	212.06
600.7	217.06
600.909	217.06
601.118	199.06
601.327	203.06
601.536	214.06
601.745	216.06
601.953	228.06
602.162	222.06
602.371	207.06
602.58	213.06
602.789	206.06
602.997	226.06
603.206	211.06
603.415	208.06
603.623	195.06
603.832	217.06
604.041	204.06
604.249	199.06
604.458	219.06
604.666	192.06
604.875	196.06
605.084	199.06
605.292	202.06
605.501	207.06
605.709	203.06
605.918	210.06
606.126	207.06
606.334	208.06
606.543	199.06
606.751	192.06
606.96	208.06
607.168	212.06
607.376	196.06
607.585	208.06
607.793	203.06
608.001	209.06
608.21	204.06
608.418	225.06
608.626	224.06
608.834	200.06
609.043	201.06
609.251	210.06
609.459	196.06
609.667	214.06
609.875	222.06
610.083	223.06
610.291	221.06
610.499	233.06
610.707	195.06
610.916	215.06
611.124	219.06
611.332	218.06
611.54	216.06
611.748	223.06
611.955	198.06
612.163	203.06
612.371	212.06
612.579	204.06
612.787	205.06
612.995	206.06
613.203	193.06
613.411	204.06
613.618	192.06
613.826	206.06
614.034	203.06
614.242	190.06
614.449	226.06
614.657	201.06
614.865	205.06
615.072	194.06
615.28	198.06
615.488	200.06
615.695	204.06
615.903	191.06
616.111	211.06
616.318	207.06
616.526	200.06
616.733	216.06
616.941	196.06
617.148	204.06
617.356	195.06
617.563	197.06
617.771	214.06
617.978	182.06
618.185	199.06
618.393	204.06
618.6	187.06
618.807	211.06
619.015	200.06
619.222	198.06
619.429	203.06
619.637	213.06
619.844	196.06
620.051	198.06
620.258	192.06
620.466	177.06
620.673	196.06
620.88	185.06
621.087	184.06
621.294	196.06
621.501	188.06
621.708	209.06
621.915	187.06
622.122	177.06
622.329	189.06
622.536	190.06
622.743	203.06
622.95	190.06
623.157	184.06
623.364	177.06
623.571	191.06
623.778	179.06
623.985	202.06
624.192	188.06
624.399	188.06
624.606	185.06
624.812	182.06
625.019	181.06
625.226	204.06
625.433	181.06
625.639	183.06
625.846	184.06
626.053	183.06
626.259	195.06
626.466	185.06
626.673	180.06
626.879	150.06
627.086	173.06
627.293	168.06
627.499	163.06
627.706	195.06
627.912	183.06
628.119	186.06
628.325	171.06
628.532	198.06
628.738	172.06
628.945	176.06
629.151	166.06
629.357	173.06
629.564	181.06
629.77	165.06
629.976	174.06
630.183	164.06
630.389	167.06
630.595	167.06
630.802	173.06
631.008	193.06
631.214	188.06
631.42	168.06
631.627	185.06
631.833	185.06
632.039	169.06
632.245	173.06
632.451	163.06
632.657	158.06
632.863	164.06
633.069	181.06
633.275	166.06
633.481	161.06
633.688	167.06
633.893	174.06
634.099	175.06
634.305	164.06
634.511	163.06
634.717	158.06
634.923	167.06
635.129	163.06
635.335	152.06
635.541	150.06
635.747	168.06
635.952	168.06
636.158	174.06
636.364	166.06
636.57	161.06
636.775	164.06
636.981	172.06
637.187	171.06
637.392	172.06
637.598	163.06
637.804	163.06
638.009	159.06
638.215	161.06
638.421	158.06
638.626	149.06
638.832	157.06
639.037	157.06
639.243	169.06
639.448	146.06
639.654	153.06
639.859	145.06
640.065	144.06
640.27	149.06
640.475	155.06
640.681	152.06
640.886	161.06
641.091	142.06
641.297	170.06
641.502	146.06
641.707	152.06
641.913	166.06
642.118	151.06
642.323	153.06
642.528	164.06
642.733	145.06
642.939	144.06
643.144	156.06
643.349	170.06
643.554	160.06
643.759	147.06
643.964	147.06
644.169	162.06
644.374	159.06
644.579	137.06
644.784	151.06
644.989	158.06
645.194	156.06
645.399	138.06
645.604	144.06
645.809	144.06
646.014	158.06
646.219	151.06
646.423	141.06
646.628	171.06
646.833	141.06
647.038	151.06
647.243	165.06
647.447	147.06
647.652	176.06
647.857	176.06
648.062	158.06
648.266	162.06
648.471	171.06
648.676	179.06
648.88	161.06
649.085	148.06
649.289	156.06
649.494	157.06
649.698	158.06
649.903	145.06
650.107	145.06
650.312	153.06
650.516	153.06
650.721	150.06
650.925	158.06
651.13	139.06
651.334	129.06
651.539	140.06
651.743	117.06
651.947	153.06
652.152	144.06
652.356	149.06
652.56	127.06
652.764	119.06
652.969	135.06
653.173	140.06
653.377	129.06
653.581	139.06
653.785	133.06
653.99	151.06
654.194	138.06
654.398	125.06
654.602	128.06
654.806	127.06
655.01	133.06
655.214	125.06
655.418	132.06
655.622	131.06
655.826	125.06
656.03	122.06
656.234	122.06
656.438	137.06
656.642	143.06
656.846	139.06
657.049	123.06
657.253	134.06
657.457	136.06
657.661	118.06
657.865	125.06
658.068	126.06
658.272	106.06
658.476	119.06
658.68	98.06
658.883	89.06
659.087	100.06
659.291	109.06
659.494	107.06
659.698	101.06
659.901	97.06
660.105	95.06
660.309	99.06
660.512	99.06
660.716	92.06
660.919	100.06
661.123	102.06
661.326	104.06
661.53	89.06
661.733	102.06
661.936	83.06
662.14	92.06
662.343	88.06
662.546	86.06
662.75	93.06
662.953	85.06
663.156	95.06
663.36	80.06
663.563	83.06
663.766	93.06
663.969	86.06
664.173	87.06
664.376	81.06
664.579	71.06
664.782	87.06
664.985	91.06
665.188	95.06
665.391	96.06
665.594	82.06
665.797	103.06
666	90.06
666.203	86.06
666.406	95.06
666.609	88.06
666.812	90.06
667.015	88.06
667.218	96.06
667.421	88.06
667.624	92.06
667.827	91.06
668.03	75.06
668.232	72.06
668.435	74.06
668.638	64.06
668.841	81.06
669.043	83.06
669.246	83.06
669.449	86.06
669.651	102.06
669.854	91.06
670.057	71.06
670.259	92.06
670.462	88.06
670.665	87.06
670.867	94.06
671.07	108.06
671.272	92.06
671.475	79.06
671.677	76.06
671.88	104.06
672.082	94.06
672.284	85.06
672.487	74.06
672.689	72.06
672.892	87.06
