Data from 1969.PennyLincolnUp.Lamp.En5.5.200Scan.071719.P1._HRD10591_14-56-21-972.txt Node
Date: Thu Jul 18 14:56:21 EDT 2019
User: cochatt
Spectrometer: HR+D1059
Trigger mode: 1
Integration Time (sec): 1.000000E-1
Scans to average: 1
Electric dark correction enabled: true
Nonlinearity correction enabled: false
Boxcar width: 0
XAxis mode: Wavelengths
Number of Pixels in Spectrum: 2048
>>>>>Begin Spectral Data<<<<<
223.165	4.88
223.4	4.88
223.635	4.88
223.869	-14.12
224.104	-25.12
224.338	2.88
224.573	-21.12
224.808	-15.12
225.042	-8.12
225.277	-12.12
225.511	-10.12
225.746	-6.12
225.98	12.88
226.215	24.88
226.449	12.88
226.683	-2.12
226.918	25.88
227.152	29.88
227.387	35.88
227.621	19.88
227.856	55.88
228.09	42.88
228.324	54.88
228.559	52.88
228.793	67.88
229.027	78.88
229.262	96.88
229.496	86.88
229.73	101.88
229.964	125.88
230.199	120.88
230.433	88.88
230.667	129.88
230.901	124.88
231.136	102.88
231.37	82.88
231.604	106.88
231.838	100.88
232.072	94.88
232.306	116.88
232.541	112.88
232.775	121.88
233.009	94.88
233.243	103.88
233.477	113.88
233.711	104.88
233.945	111.88
234.179	114.88
234.413	108.88
234.647	100.88
234.881	113.88
235.115	99.88
235.349	116.88
235.583	108.88
235.817	118.88
236.051	118.88
236.285	123.88
236.519	116.88
236.753	121.88
236.987	112.88
237.221	150.88
237.455	184.88
237.689	136.88
237.922	115.88
238.156	114.88
238.39	115.88
238.624	122.88
238.858	109.88
239.091	116.88
239.325	110.88
239.559	119.88
239.793	120.88
240.027	128.88
240.26	131.88
240.494	133.88
240.728	123.88
240.961	138.88
241.195	116.88
241.429	122.88
241.662	110.88
241.896	127.88
242.13	116.88
242.363	112.88
242.597	128.88
242.83	133.88
243.064	130.88
243.298	114.88
243.531	114.88
243.765	119.88
243.998	128.88
244.232	138.88
244.465	120.88
244.699	126.88
244.932	113.88
245.166	113.88
245.399	128.88
245.633	143.88
245.866	123.88
246.099	125.88
246.333	123.88
246.566	116.88
246.8	133.88
247.033	148.88
247.266	142.88
247.5	141.88
247.733	140.88
247.966	153.88
248.2	144.88
248.433	150.88
248.666	152.88
248.899	159.88
249.133	173.88
249.366	159.88
249.599	166.88
249.832	164.88
250.066	148.88
250.299	178.88
250.532	164.88
250.765	192.88
250.998	174.88
251.231	188.88
251.465	190.88
251.698	180.88
251.931	179.88
252.164	160.88
252.397	159.88
252.63	171.88
252.863	176.88
253.096	185.88
253.329	181.88
253.562	175.88
253.795	189.88
254.028	178.88
254.261	187.88
254.494	197.88
254.727	200.88
254.96	230.88
255.193	213.88
255.426	203.88
255.659	183.88
255.892	181.88
256.124	193.88
256.357	194.88
256.59	186.88
256.823	179.88
257.056	185.88
257.289	173.88
257.521	182.88
257.754	178.88
257.987	179.88
258.22	181.88
258.452	174.88
258.685	181.88
258.918	182.88
259.151	185.88
259.383	196.88
259.616	196.88
259.849	194.88
260.081	189.88
260.314	221.88
260.547	215.88
260.779	210.88
261.012	208.88
261.244	191.88
261.477	189.88
261.71	192.88
261.942	194.88
262.175	196.88
262.407	200.88
262.64	173.88
262.872	198.88
263.105	187.88
263.337	200.88
263.57	188.88
263.802	185.88
264.035	184.88
264.267	196.88
264.499	193.88
264.732	172.88
264.964	186.88
265.197	190.88
265.429	179.88
265.661	205.88
265.894	198.88
266.126	178.88
266.358	189.88
266.591	194.88
266.823	196.88
267.055	190.88
267.287	207.88
267.52	192.88
267.752	185.88
267.984	204.88
268.216	198.88
268.448	193.88
268.681	203.88
268.913	235.88
269.145	234.88
269.377	244.88
269.609	243.88
269.841	225.88
270.073	234.88
270.306	250.88
270.538	258.88
270.77	255.88
271.002	256.88
271.234	238.88
271.466	241.88
271.698	256.88
271.93	263.88
272.162	260.88
272.394	262.88
272.626	253.88
272.858	242.88
273.09	224.88
273.322	229.88
273.553	228.88
273.785	221.88
274.017	225.88
274.249	240.88
274.481	218.88
274.713	236.88
274.945	239.88
275.176	212.88
275.408	222.88
275.64	240.88
275.872	232.88
276.104	229.88
276.335	224.88
276.567	247.88
276.799	260.88
277.031	260.88
277.262	262.88
277.494	266.88
277.726	249.88
277.957	244.88
278.189	241.88
278.421	242.88
278.652	247.88
278.884	243.88
279.115	247.88
279.347	230.88
279.579	250.88
279.81	227.88
280.042	245.88
280.273	218.88
280.505	239.88
280.736	254.88
280.968	243.88
281.199	225.88
281.431	253.88
281.662	249.88
281.894	246.88
282.125	257.88
282.356	260.88
282.588	260.88
282.819	258.88
283.051	254.88
283.282	257.88
283.513	266.88
283.745	248.88
283.976	256.88
284.207	245.88
284.439	266.88
284.67	260.88
284.901	256.88
285.132	243.88
285.364	262.88
285.595	248.88
285.826	241.88
286.057	259.88
286.288	257.88
286.52	264.88
286.751	266.88
286.982	265.88
287.213	253.88
287.444	256.88
287.675	252.88
287.906	265.88
288.138	272.88
288.369	260.88
288.6	269.88
288.831	284.88
289.062	262.88
289.293	263.88
289.524	249.88
289.755	259.88
289.986	264.88
290.217	251.88
290.448	261.88
290.679	264.88
290.91	276.88
291.141	273.88
291.371	254.88
291.602	263.88
291.833	286.88
292.064	270.88
292.295	270.88
292.526	262.88
292.757	269.88
292.987	274.88
293.218	266.88
293.449	261.88
293.68	292.88
293.91	262.88
294.141	266.88
294.372	260.88
294.603	247.88
294.833	258.88
295.064	272.88
295.295	261.88
295.525	276.88
295.756	265.88
295.987	278.88
296.217	277.88
296.448	291.88
296.679	256.88
296.909	276.88
297.14	282.88
297.37	272.88
297.601	273.88
297.831	278.88
298.062	291.88
298.292	285.88
298.523	298.88
298.753	285.88
298.984	276.88
299.214	269.88
299.445	285.88
299.675	282.88
299.905	278.88
300.136	280.88
300.366	285.88
300.597	284.88
300.827	279.88
301.057	285.88
301.288	296.88
301.518	295.88
301.748	293.88
301.979	303.88
302.209	306.88
302.439	303.88
302.669	282.88
302.9	296.88
303.13	291.88
303.36	301.88
303.59	299.88
303.82	295.88
304.051	298.88
304.281	305.88
304.511	269.88
304.741	306.88
304.971	302.88
305.201	292.88
305.431	282.88
305.661	285.88
305.891	290.88
306.121	294.88
306.352	285.88
306.582	305.88
306.812	299.88
307.042	296.88
307.272	300.88
307.502	293.88
307.731	293.88
307.961	295.88
308.191	285.88
308.421	294.88
308.651	298.88
308.881	294.88
309.111	306.88
309.341	299.88
309.571	304.88
309.8	321.88
310.03	316.88
310.26	305.88
310.49	331.88
310.72	326.88
310.949	320.88
311.179	323.88
311.409	327.88
311.639	334.88
311.868	308.88
312.098	304.88
312.328	335.88
312.557	325.88
312.787	341.88
313.017	353.88
313.246	294.88
313.476	313.88
313.706	336.88
313.935	337.88
314.165	334.88
314.394	350.88
314.624	348.88
314.853	337.88
315.083	336.88
315.312	341.88
315.542	295.88
315.771	316.88
316.001	331.88
316.23	316.88
316.46	329.88
316.689	345.88
316.919	335.88
317.148	325.88
317.377	344.88
317.607	341.88
317.836	329.88
318.065	329.88
318.295	317.88
318.524	343.88
318.753	326.88
318.983	304.88
319.212	305.88
319.441	321.88
319.67	331.88
319.9	333.88
320.129	342.88
320.358	321.88
320.587	327.88
320.816	334.88
321.046	340.88
321.275	338.88
321.504	348.88
321.733	341.88
321.962	343.88
322.191	342.88
322.42	374.88
322.649	364.88
322.878	378.88
323.108	382.88
323.337	362.88
323.566	387.88
323.795	405.88
324.024	421.88
324.253	487.88
324.482	664.88
324.71	915.88
324.939	1243.88
325.168	1042.88
325.397	579.88
325.626	448.88
325.855	389.88
326.084	404.88
326.313	389.88
326.542	386.88
326.77	430.88
326.999	468.88
327.228	631.88
327.457	852.88
327.686	940.88
327.914	663.88
328.143	501.88
328.372	458.88
328.6	448.88
328.829	426.88
329.058	440.88
329.287	444.88
329.515	437.88
329.744	394.88
329.972	405.88
330.201	446.88
330.43	450.88
330.658	442.88
330.887	476.88
331.115	473.88
331.344	418.88
331.572	401.88
331.801	411.88
332.03	408.88
332.258	402.88
332.486	398.88
332.715	387.88
332.943	389.88
333.172	416.88
333.4	407.88
333.629	418.88
333.857	434.88
334.085	442.88
334.314	442.88
334.542	441.88
334.771	469.88
334.999	457.88
335.227	409.88
335.455	426.88
335.684	395.88
335.912	392.88
336.14	377.88
336.369	387.88
336.597	402.88
336.825	409.88
337.053	405.88
337.281	390.88
337.51	379.88
337.738	390.88
337.966	365.88
338.194	373.88
338.422	383.88
338.65	373.88
338.878	382.88
339.106	377.88
339.334	371.88
339.562	368.88
339.79	375.88
340.018	378.88
340.246	382.88
340.474	367.88
340.702	361.88
340.93	354.88
341.158	379.88
341.386	353.88
341.614	370.88
341.842	370.88
342.07	359.88
342.298	372.88
342.526	340.88
342.754	349.88
342.981	357.88
343.209	360.88
343.437	371.88
343.665	382.88
343.893	388.88
344.12	398.88
344.348	393.88
344.576	381.88
344.804	382.88
345.031	387.88
345.259	381.88
345.487	370.88
345.714	363.88
345.942	363.88
346.17	359.88
346.397	343.88
346.625	355.88
346.853	352.88
347.08	342.88
347.308	353.88
347.535	370.88
347.763	363.88
347.99	365.88
348.218	354.88
348.445	356.88
348.673	348.88
348.9	372.88
349.128	335.88
349.355	363.88
349.583	350.88
349.81	333.88
350.037	341.88
350.265	342.88
350.492	329.88
350.72	341.88
350.947	335.88
351.174	362.88
351.402	345.88
351.629	344.88
351.856	334.88
352.083	337.88
352.311	367.88
352.538	346.88
352.765	354.88
352.992	349.88
353.22	361.88
353.447	353.88
353.674	343.88
353.901	343.88
354.128	316.88
354.355	341.88
354.583	333.88
354.81	326.88
355.037	321.88
355.264	336.88
355.491	329.88
355.718	340.88
355.945	338.88
356.172	338.88
356.399	316.88
356.626	330.88
356.853	340.88
357.08	330.88
357.307	321.88
357.534	337.88
357.761	336.88
357.988	339.88
358.215	317.88
358.441	348.88
358.668	327.88
358.895	340.88
359.122	316.88
359.349	327.88
359.576	357.88
359.802	341.88
360.029	361.88
360.256	384.88
360.483	362.88
360.709	348.88
360.936	341.88
361.163	337.88
361.39	339.88
361.616	355.88
361.843	337.88
362.07	340.88
362.296	338.88
362.523	333.88
362.749	334.88
362.976	332.88
363.203	364.88
363.429	347.88
363.656	328.88
363.882	318.88
364.109	322.88
364.335	345.88
364.562	322.88
364.788	332.88
365.015	327.88
365.241	337.88
365.468	314.88
365.694	326.88
365.92	363.88
366.147	333.88
366.373	345.88
366.599	318.88
366.826	322.88
367.052	338.88
367.278	330.88
367.505	347.88
367.731	334.88
367.957	329.88
368.184	335.88
368.41	349.88
368.636	335.88
368.862	344.88
369.089	334.88
369.315	346.88
369.541	323.88
369.767	337.88
369.993	335.88
370.219	341.88
370.445	341.88
370.672	323.88
370.898	339.88
371.124	350.88
371.35	349.88
371.576	338.88
371.802	337.88
372.028	360.88
372.254	349.88
372.48	356.88
372.706	365.88
372.932	366.88
373.158	340.88
373.384	332.88
373.61	334.88
373.835	344.88
374.061	354.88
374.287	351.88
374.513	333.88
374.739	363.88
374.965	357.88
375.191	366.88
375.416	363.88
375.642	356.88
375.868	358.88
376.094	345.88
376.319	346.88
376.545	346.88
376.771	353.88
376.997	337.88
377.222	350.88
377.448	331.88
377.674	338.88
377.899	325.88
378.125	321.88
378.35	348.88
378.576	346.88
378.802	331.88
379.027	348.88
379.253	340.88
379.478	339.88
379.704	329.88
379.929	330.88
380.155	330.88
380.38	331.88
380.606	335.88
380.831	337.88
381.057	348.88
381.282	337.88
381.507	332.88
381.733	331.88
381.958	345.88
382.184	334.88
382.409	355.88
382.634	340.88
382.86	348.88
383.085	349.88
383.31	340.88
383.535	346.88
383.761	362.88
383.986	365.88
384.211	355.88
384.436	368.88
384.662	350.88
384.887	380.88
385.112	380.88
385.337	374.88
385.562	372.88
385.787	389.88
386.013	408.88
386.238	399.88
386.463	379.88
386.688	371.88
386.913	384.88
387.138	375.88
387.363	378.88
387.588	380.88
387.813	375.88
388.038	367.88
388.263	359.88
388.488	373.88
388.713	376.88
388.938	378.88
389.163	384.88
389.387	395.88
389.612	351.88
389.837	375.88
390.062	384.88
390.287	385.88
390.512	378.88
390.736	374.88
390.961	373.88
391.186	376.88
391.411	402.88
391.636	401.88
391.86	400.88
392.085	413.88
392.31	398.88
392.534	401.88
392.759	398.88
392.984	384.88
393.208	372.88
393.433	382.88
393.658	369.88
393.882	370.88
394.107	376.88
394.331	377.88
394.556	376.88
394.78	402.88
395.005	380.88
395.229	395.88
395.454	398.88
395.678	407.88
395.903	386.88
396.127	419.88
396.352	400.88
396.576	404.88
396.801	405.88
397.025	404.88
397.249	391.88
397.474	402.88
397.698	408.88
397.922	417.88
398.147	432.88
398.371	429.88
398.595	441.88
398.82	444.88
399.044	458.88
399.268	491.88
399.492	532.88
399.717	561.88
399.941	576.88
400.165	535.88
400.389	545.88
400.613	484.88
400.837	466.88
401.062	463.88
401.286	458.88
401.51	436.88
401.734	434.88
401.958	430.88
402.182	458.88
402.406	472.88
402.63	465.88
402.854	470.88
403.078	459.88
403.302	477.88
403.526	479.88
403.75	473.88
403.974	470.88
404.198	471.88
404.422	481.88
404.645	473.88
404.869	467.88
405.093	480.88
405.317	509.88
405.541	554.88
405.765	488.88
405.988	499.88
406.212	496.88
406.436	512.88
406.66	525.88
406.883	497.88
407.107	512.88
407.331	551.88
407.555	610.88
407.778	585.88
408.002	542.88
408.226	522.88
408.449	500.88
408.673	485.88
408.896	514.88
409.12	514.88
409.344	507.88
409.567	461.88
409.791	488.88
410.014	460.88
410.238	443.88
410.461	470.88
410.685	488.88
410.908	464.88
411.132	486.88
411.355	487.88
411.578	475.88
411.802	476.88
412.025	449.88
412.249	472.88
412.472	458.88
412.695	475.88
412.919	483.88
413.142	461.88
413.365	450.88
413.589	450.88
413.812	438.88
414.035	433.88
414.258	421.88
414.482	426.88
414.705	438.88
414.928	440.88
415.151	440.88
415.374	415.88
415.597	448.88
415.821	440.88
416.044	418.88
416.267	453.88
416.49	410.88
416.713	441.88
416.936	438.88
417.159	441.88
417.382	422.88
417.605	440.88
417.828	458.88
418.051	445.88
418.274	462.88
418.497	434.88
418.72	457.88
418.943	445.88
419.166	474.88
419.389	480.88
419.611	480.88
419.834	468.88
420.057	471.88
420.28	440.88
420.503	439.88
420.726	453.88
420.948	455.88
421.171	480.88
421.394	479.88
421.617	455.88
421.839	456.88
422.062	456.88
422.285	447.88
422.507	483.88
422.73	554.88
422.953	532.88
423.175	470.88
423.398	491.88
423.621	464.88
423.843	467.88
424.066	521.88
424.288	510.88
424.511	480.88
424.733	500.88
424.956	557.88
425.178	541.88
425.401	522.88
425.623	541.88
425.846	475.88
426.068	460.88
426.291	453.88
426.513	454.88
426.735	460.88
426.958	496.88
427.18	524.88
427.402	608.88
427.625	623.88
427.847	577.88
428.069	488.88
428.292	498.88
428.514	445.88
428.736	410.88
428.958	440.88
429.181	419.88
429.403	404.88
429.625	416.88
429.847	453.88
430.069	465.88
430.292	492.88
430.514	436.88
430.736	410.88
430.958	420.88
431.18	430.88
431.402	411.88
431.624	411.88
431.846	396.88
432.068	407.88
432.29	403.88
432.512	430.88
432.734	430.88
432.956	413.88
433.178	393.88
433.4	418.88
433.622	398.88
433.844	401.88
434.066	383.88
434.287	421.88
434.509	418.88
434.731	427.88
434.953	455.88
435.175	437.88
435.397	469.88
435.618	467.88
435.84	489.88
436.062	532.88
436.284	547.88
436.505	486.88
436.727	451.88
436.949	456.88
437.17	435.88
437.392	419.88
437.614	418.88
437.835	437.88
438.057	503.88
438.278	549.88
438.5	550.88
438.721	589.88
438.943	559.88
439.165	465.88
439.386	451.88
439.608	440.88
439.829	455.88
440.05	470.88
440.272	477.88
440.493	459.88
440.715	453.88
440.936	439.88
441.158	435.88
441.379	438.88
441.6	459.88
441.822	467.88
442.043	487.88
442.264	541.88
442.486	553.88
442.707	513.88
442.928	477.88
443.149	485.88
443.371	498.88
443.592	491.88
443.813	561.88
444.034	566.88
444.255	491.88
444.476	475.88
444.698	484.88
444.919	513.88
445.14	576.88
445.361	530.88
445.582	496.88
445.803	526.88
446.024	576.88
446.245	594.88
446.466	523.88
446.687	465.88
446.908	464.88
447.129	419.88
447.35	404.88
447.571	406.88
447.792	417.88
448.013	393.88
448.234	415.88
448.455	456.88
448.675	535.88
448.896	578.88
449.117	496.88
449.338	500.88
449.559	534.88
449.779	609.88
450	508.88
450.221	468.88
450.442	419.88
450.662	401.88
450.883	389.88
451.104	405.88
451.324	405.88
451.545	397.88
451.766	408.88
451.986	360.88
452.207	390.88
452.428	367.88
452.648	391.88
452.869	396.88
453.089	379.88
453.31	386.88
453.53	380.88
453.751	378.88
453.971	397.88
454.192	398.88
454.412	392.88
454.633	358.88
454.853	375.88
455.073	376.88
455.294	401.88
455.514	438.88
455.734	411.88
455.955	366.88
456.175	364.88
456.395	358.88
456.616	347.88
456.836	373.88
457.056	375.88
457.276	352.88
457.497	362.88
457.717	365.88
457.937	361.88
458.157	359.88
458.377	376.88
458.598	370.88
458.818	425.88
459.038	482.88
459.258	469.88
459.478	411.88
459.698	427.88
459.918	420.88
460.138	419.88
460.358	441.88
460.578	432.88
460.798	437.88
461.018	446.88
461.238	446.88
461.458	437.88
461.678	439.88
461.898	458.88
462.118	450.88
462.338	466.88
462.558	474.88
462.777	460.88
462.997	514.88
463.217	535.88
463.437	532.88
463.657	487.88
463.876	473.88
464.096	470.88
464.316	476.88
464.536	486.88
464.755	473.88
464.975	452.88
465.195	473.88
465.414	516.88
465.634	466.88
465.854	450.88
466.073	427.88
466.293	395.88
466.512	411.88
466.732	411.88
466.951	420.88
467.171	399.88
467.391	391.88
467.61	405.88
467.829	403.88
468.049	374.88
468.268	417.88
468.488	400.88
468.707	388.88
468.927	395.88
469.146	377.88
469.365	397.88
469.585	404.88
469.804	398.88
470.023	418.88
470.243	419.88
470.462	399.88
470.681	413.88
470.901	421.88
471.12	413.88
471.339	381.88
471.558	413.88
471.777	407.88
471.997	408.88
472.216	393.88
472.435	417.88
472.654	393.88
472.873	383.88
473.092	392.88
473.311	401.88
473.53	412.88
473.749	413.88
473.968	406.88
474.187	472.88
474.406	500.88
474.625	434.88
474.844	408.88
475.063	405.88
475.282	373.88
475.501	377.88
475.72	397.88
475.939	385.88
476.158	420.88
476.377	393.88
476.596	424.88
476.814	405.88
477.033	408.88
477.252	403.88
477.471	425.88
477.69	440.88
477.908	427.88
478.127	442.88
478.346	454.88
478.564	463.88
478.783	451.88
479.002	448.88
479.22	440.88
479.439	459.88
479.658	473.88
479.876	480.88
480.095	490.88
480.313	517.88
480.532	516.88
480.751	488.88
480.969	492.88
481.188	520.88
481.406	546.88
481.624	493.88
481.843	460.88
482.061	463.88
482.28	460.88
482.498	452.88
482.717	449.88
482.935	429.88
483.153	469.88
483.372	448.88
483.59	444.88
483.808	443.88
484.027	472.88
484.245	463.88
484.463	453.88
484.681	491.88
484.9	450.88
485.118	461.88
485.336	436.88
485.554	462.88
485.772	478.88
485.99	468.88
486.209	449.88
486.427	461.88
486.645	483.88
486.863	497.88
487.081	491.88
487.299	491.88
487.517	472.88
487.735	490.88
487.953	469.88
488.171	486.88
488.389	488.88
488.607	475.88
488.825	483.88
489.043	482.88
489.261	500.88
489.479	482.88
489.696	488.88
489.914	494.88
490.132	495.88
490.35	516.88
490.568	507.88
490.786	511.88
491.003	542.88
491.221	523.88
491.439	536.88
491.657	548.88
491.874	561.88
492.092	549.88
492.31	561.88
492.527	557.88
492.745	550.88
492.963	545.88
493.18	573.88
493.398	578.88
493.615	565.88
493.833	560.88
494.05	561.88
494.268	586.88
494.485	570.88
494.703	576.88
494.92	561.88
495.138	593.88
495.355	593.88
495.573	576.88
495.79	586.88
496.008	572.88
496.225	577.88
496.442	604.88
496.66	587.88
496.877	566.88
497.094	580.88
497.312	595.88
497.529	602.88
497.746	594.88
497.963	629.88
498.181	640.88
498.398	638.88
498.615	670.88
498.832	667.88
499.049	713.88
499.267	747.88
499.484	800.88
499.701	855.88
499.918	876.88
500.135	904.88
500.352	1001.88
500.569	1001.88
500.786	988.88
501.003	968.88
501.22	928.88
501.437	881.88
501.654	830.88
501.871	805.88
502.088	754.88
502.305	717.88
502.522	665.88
502.739	658.88
502.956	637.88
503.172	619.88
503.389	624.88
503.606	626.88
503.823	613.88
504.04	600.88
504.256	589.88
504.473	588.88
504.69	578.88
504.907	592.88
505.123	570.88
505.34	552.88
505.557	543.88
505.773	552.88
505.99	524.88
506.207	519.88
506.423	535.88
506.64	521.88
506.856	498.88
507.073	508.88
507.289	524.88
507.506	489.88
507.722	509.88
507.939	526.88
508.155	514.88
508.372	485.88
508.588	493.88
508.805	480.88
509.021	499.88
509.238	493.88
509.454	494.88
509.67	509.88
509.887	512.88
510.103	476.88
510.319	492.88
510.536	540.88
510.752	802.88
510.968	669.88
511.184	493.88
511.401	477.88
511.617	461.88
511.833	480.88
512.049	477.88
512.265	480.88
512.481	463.88
512.698	467.88
512.914	454.88
513.13	467.88
513.346	438.88
513.562	456.88
513.778	447.88
513.994	486.88
514.21	474.88
514.426	475.88
514.642	499.88
514.858	526.88
515.074	524.88
515.29	596.88
515.506	858.88
515.721	687.88
515.937	540.88
516.153	501.88
516.369	507.88
516.585	515.88
516.801	514.88
517.016	513.88
517.232	526.88
517.448	555.88
517.664	530.88
517.879	530.88
518.095	537.88
518.311	519.88
518.527	538.88
518.742	490.88
518.958	495.88
519.173	498.88
519.389	491.88
519.605	468.88
519.82	450.88
520.036	472.88
520.251	502.88
520.467	493.88
520.682	485.88
520.898	514.88
521.113	498.88
521.329	506.88
521.544	555.88
521.76	672.88
521.975	1040.88
522.19	1004.88
522.406	596.88
522.621	500.88
522.836	462.88
523.052	447.88
523.267	411.88
523.482	418.88
523.698	422.88
523.913	409.88
524.128	408.88
524.343	405.88
524.559	408.88
524.774	408.88
524.989	407.88
525.204	396.88
525.419	418.88
525.634	391.88
525.849	406.88
526.064	408.88
526.28	396.88
526.495	381.88
526.71	404.88
526.925	395.88
527.14	390.88
527.355	376.88
527.57	377.88
527.785	357.88
527.999	394.88
528.214	402.88
528.429	390.88
528.644	394.88
528.859	410.88
529.074	397.88
529.289	388.88
529.503	438.88
529.718	430.88
529.933	404.88
530.148	376.88
530.363	383.88
530.577	393.88
530.792	376.88
531.007	386.88
531.221	397.88
531.436	369.88
531.651	395.88
531.865	399.88
532.08	386.88
532.295	378.88
532.509	363.88
532.724	378.88
532.938	388.88
533.153	391.88
533.367	376.88
533.582	386.88
533.796	363.88
534.011	370.88
534.225	376.88
534.44	387.88
534.654	372.88
534.868	358.88
535.083	366.88
535.297	378.88
535.511	364.88
535.726	378.88
535.94	386.88
536.154	384.88
536.369	374.88
536.583	353.88
536.797	368.88
537.011	363.88
537.225	344.88
537.44	361.88
537.654	362.88
537.868	373.88
538.082	354.88
538.296	360.88
538.51	376.88
538.724	381.88
538.938	367.88
539.153	356.88
539.367	370.88
539.581	377.88
539.795	350.88
540.009	354.88
540.222	346.88
540.436	361.88
540.65	353.88
540.864	377.88
541.078	368.88
541.292	358.88
541.506	364.88
541.72	380.88
541.934	354.88
542.147	378.88
542.361	369.88
542.575	361.88
542.789	368.88
543.002	362.88
543.216	370.88
543.43	370.88
543.644	347.88
543.857	363.88
544.071	373.88
544.285	377.88
544.498	369.88
544.712	350.88
544.925	374.88
545.139	368.88
545.352	373.88
545.566	378.88
545.779	379.88
545.993	371.88
546.206	381.88
546.42	364.88
546.633	351.88
546.847	348.88
547.06	368.88
547.274	345.88
547.487	378.88
547.7	364.88
547.914	363.88
548.127	371.88
548.34	354.88
548.554	368.88
548.767	366.88
548.98	359.88
549.193	364.88
549.407	338.88
549.62	377.88
549.833	352.88
550.046	372.88
550.259	360.88
550.473	333.88
550.686	366.88
550.899	356.88
551.112	352.88
551.325	367.88
551.538	360.88
551.751	368.88
551.964	342.88
552.177	358.88
552.39	349.88
552.603	354.88
552.816	383.88
553.029	370.88
553.242	360.88
553.455	381.88
553.667	394.88
553.88	378.88
554.093	389.88
554.306	372.88
554.519	372.88
554.732	369.88
554.944	352.88
555.157	338.88
555.37	353.88
555.583	348.88
555.795	339.88
556.008	344.88
556.221	338.88
556.433	315.88
556.646	339.88
556.859	320.88
557.071	322.88
557.284	341.88
557.496	329.88
557.709	327.88
557.921	310.88
558.134	326.88
558.346	312.88
558.559	325.88
558.771	321.88
558.984	326.88
559.196	307.88
559.409	308.88
559.621	311.88
559.833	321.88
560.046	307.88
560.258	328.88
560.47	330.88
560.683	316.88
560.895	309.88
561.107	307.88
561.32	313.88
561.532	327.88
561.744	304.88
561.956	319.88
562.168	309.88
562.381	324.88
562.593	313.88
562.805	316.88
563.017	333.88
563.229	310.88
563.441	325.88
563.653	330.88
563.865	318.88
564.077	330.88
564.289	319.88
564.501	335.88
564.713	341.88
564.925	336.88
565.137	336.88
565.349	348.88
565.561	360.88
565.773	364.88
565.985	346.88
566.197	396.88
566.408	411.88
566.62	419.88
566.832	423.88
567.044	448.88
567.255	434.88
567.467	459.88
567.679	469.88
567.891	470.88
568.102	489.88
568.314	468.88
568.526	442.88
568.737	416.88
568.949	388.88
569.161	389.88
569.372	347.88
569.584	342.88
569.795	331.88
570.007	342.88
570.218	345.88
570.43	349.88
570.641	325.88
570.853	320.88
571.064	345.88
571.276	333.88
571.487	311.88
571.698	305.88
571.91	289.88
572.121	310.88
572.333	292.88
572.544	289.88
572.755	293.88
572.966	293.88
573.178	277.88
573.389	269.88
573.6	281.88
573.811	281.88
574.023	268.88
574.234	270.88
574.445	295.88
574.656	278.88
574.867	266.88
575.078	270.88
575.289	290.88
575.501	279.88
575.712	264.88
575.923	260.88
576.134	274.88
576.345	267.88
576.556	263.88
576.767	255.88
576.978	251.88
577.188	264.88
577.399	257.88
577.61	258.88
577.821	267.88
578.032	248.88
578.243	283.88
578.454	390.88
578.665	306.88
578.875	278.88
579.086	267.88
579.297	245.88
579.508	240.88
579.718	258.88
579.929	248.88
580.14	250.88
580.35	252.88
580.561	256.88
580.772	271.88
580.982	256.88
581.193	248.88
581.403	254.88
581.614	244.88
581.825	258.88
582.035	236.88
582.246	241.88
582.456	241.88
582.667	254.88
582.877	253.88
583.087	252.88
583.298	247.88
583.508	237.88
583.719	246.88
583.929	256.88
584.139	247.88
584.35	247.88
584.56	246.88
584.77	234.88
584.981	258.88
585.191	260.88
585.401	238.88
585.611	234.88
585.821	259.88
586.032	242.88
586.242	232.88
586.452	230.88
586.662	241.88
586.872	231.88
587.082	254.88
587.292	261.88
587.502	232.88
587.713	244.88
587.923	227.88
588.133	248.88
588.343	262.88
588.553	239.88
588.762	233.88
588.972	240.88
589.182	248.88
589.392	249.88
589.602	237.88
589.812	230.88
590.022	248.88
590.232	246.88
590.441	243.88
590.651	227.88
590.861	243.88
591.071	256.88
591.281	246.88
591.49	230.88
591.7	236.88
591.91	267.88
592.119	244.88
592.329	261.88
592.539	267.88
592.748	269.88
592.958	280.88
593.167	273.88
593.377	292.88
593.587	293.88
593.796	284.88
594.006	298.88
594.215	298.88
594.424	289.88
594.634	289.88
594.843	263.88
595.053	270.88
595.262	260.88
595.472	274.88
595.681	248.88
595.89	250.88
596.1	230.88
596.309	228.88
596.518	233.88
596.727	259.88
596.937	240.88
597.146	238.88
597.355	225.88
597.564	220.88
597.774	229.88
597.983	207.88
598.192	224.88
598.401	208.88
598.61	210.88
598.819	234.88
599.028	230.88
599.237	223.88
599.446	258.88
599.655	214.88
599.864	215.88
600.073	221.88
600.282	216.88
600.491	212.88
600.7	235.88
600.909	211.88
601.118	207.88
601.327	216.88
601.536	222.88
601.745	206.88
601.953	215.88
602.162	220.88
602.371	227.88
602.58	208.88
602.789	204.88
602.997	223.88
603.206	206.88
603.415	204.88
603.623	207.88
603.832	205.88
604.041	212.88
604.249	219.88
604.458	213.88
604.666	201.88
604.875	208.88
605.084	199.88
605.292	228.88
605.501	210.88
605.709	217.88
605.918	194.88
606.126	203.88
606.334	192.88
606.543	200.88
606.751	206.88
606.96	190.88
607.168	203.88
607.376	208.88
607.585	214.88
607.793	199.88
608.001	209.88
608.21	219.88
608.418	201.88
608.626	190.88
608.834	208.88
609.043	216.88
609.251	197.88
609.459	204.88
609.667	215.88
609.875	215.88
610.083	190.88
610.291	200.88
610.499	195.88
610.707	204.88
610.916	221.88
611.124	205.88
611.332	215.88
611.54	196.88
611.748	232.88
611.955	214.88
612.163	214.88
612.371	219.88
612.579	202.88
612.787	216.88
612.995	217.88
613.203	210.88
613.411	198.88
613.618	199.88
613.826	206.88
614.034	194.88
614.242	211.88
614.449	202.88
614.657	195.88
614.865	207.88
615.072	211.88
615.28	198.88
615.488	210.88
615.695	219.88
615.903	204.88
616.111	221.88
616.318	209.88
616.526	209.88
616.733	189.88
616.941	212.88
617.148	217.88
617.356	213.88
617.563	218.88
617.771	209.88
617.978	193.88
618.185	215.88
618.393	183.88
618.6	204.88
618.807	201.88
619.015	212.88
619.222	218.88
619.429	195.88
619.637	192.88
619.844	203.88
620.051	202.88
620.258	184.88
620.466	177.88
620.673	179.88
620.88	185.88
621.087	178.88
621.294	205.88
621.501	189.88
621.708	187.88
621.915	192.88
622.122	179.88
622.329	175.88
622.536	190.88
622.743	186.88
622.95	198.88
623.157	198.88
623.364	186.88
623.571	185.88
623.778	189.88
623.985	190.88
624.192	187.88
624.399	171.88
624.606	187.88
624.812	179.88
625.019	180.88
625.226	181.88
625.433	186.88
625.639	170.88
625.846	177.88
626.053	192.88
626.259	195.88
626.466	189.88
626.673	170.88
626.879	170.88
627.086	186.88
627.293	188.88
627.499	180.88
627.706	195.88
627.912	183.88
628.119	173.88
628.325	182.88
628.532	168.88
628.738	171.88
628.945	166.88
629.151	184.88
629.357	167.88
629.564	185.88
629.77	187.88
629.976	178.88
630.183	170.88
630.389	187.88
630.595	178.88
630.802	178.88
631.008	190.88
631.214	169.88
631.42	172.88
631.627	183.88
631.833	168.88
632.039	167.88
632.245	159.88
632.451	167.88
632.657	165.88
632.863	172.88
633.069	152.88
633.275	158.88
633.481	174.88
633.688	159.88
633.893	167.88
634.099	164.88
634.305	158.88
634.511	170.88
634.717	162.88
634.923	167.88
635.129	172.88
635.335	156.88
635.541	156.88
635.747	169.88
635.952	156.88
636.158	169.88
636.364	166.88
636.57	184.88
636.775	180.88
636.981	170.88
637.187	164.88
637.392	164.88
637.598	174.88
637.804	172.88
638.009	177.88
638.215	158.88
638.421	161.88
638.626	165.88
638.832	161.88
639.037	154.88
639.243	179.88
639.448	146.88
639.654	166.88
639.859	162.88
640.065	167.88
640.27	163.88
640.475	155.88
640.681	158.88
640.886	148.88
641.091	157.88
641.297	147.88
641.502	161.88
641.707	158.88
641.913	146.88
642.118	151.88
642.323	137.88
642.528	158.88
642.733	135.88
642.939	152.88
643.144	134.88
643.349	160.88
643.554	152.88
643.759	157.88
643.964	155.88
644.169	168.88
644.374	152.88
644.579	148.88
644.784	152.88
644.989	147.88
645.194	153.88
645.399	148.88
645.604	159.88
645.809	144.88
646.014	148.88
646.219	147.88
646.423	163.88
646.628	161.88
646.833	154.88
647.038	150.88
647.243	152.88
647.447	161.88
647.652	159.88
647.857	147.88
648.062	176.88
648.266	141.88
648.471	158.88
648.676	165.88
648.88	163.88
649.085	148.88
649.289	164.88
649.494	157.88
649.698	166.88
649.903	160.88
650.107	155.88
650.312	158.88
650.516	155.88
650.721	153.88
650.925	149.88
651.13	156.88
651.334	134.88
651.539	161.88
651.743	146.88
651.947	142.88
652.152	137.88
652.356	148.88
652.56	132.88
652.764	131.88
652.969	152.88
653.173	137.88
653.377	133.88
653.581	115.88
653.785	125.88
653.99	129.88
654.194	137.88
654.398	132.88
654.602	125.88
654.806	138.88
655.01	125.88
655.214	138.88
655.418	112.88
655.622	120.88
655.826	124.88
656.03	122.88
656.234	136.88
656.438	140.88
656.642	143.88
656.846	132.88
657.049	134.88
657.253	113.88
657.457	123.88
657.661	124.88
657.865	117.88
658.068	109.88
658.272	98.88
658.476	113.88
658.68	105.88
658.883	110.88
659.087	104.88
659.291	118.88
659.494	107.88
659.698	93.88
659.901	85.88
660.105	88.88
660.309	113.88
660.512	93.88
660.716	97.88
660.919	98.88
661.123	105.88
661.326	88.88
661.53	92.88
661.733	98.88
661.936	89.88
662.14	96.88
662.343	84.88
662.546	78.88
662.75	83.88
662.953	96.88
663.156	97.88
663.36	84.88
663.563	90.88
663.766	88.88
663.969	90.88
664.173	92.88
664.376	87.88
664.579	80.88
664.782	77.88
664.985	89.88
665.188	90.88
665.391	85.88
665.594	87.88
665.797	80.88
666	77.88
666.203	87.88
666.406	78.88
666.609	79.88
666.812	74.88
667.015	82.88
667.218	80.88
667.421	79.88
667.624	85.88
667.827	85.88
668.03	78.88
668.232	83.88
668.435	75.88
668.638	79.88
668.841	86.88
669.043	80.88
669.246	82.88
669.449	77.88
669.651	89.88
669.854	80.88
670.057	87.88
670.259	77.88
670.462	84.88
670.665	83.88
670.867	84.88
671.07	80.88
671.272	85.88
671.475	79.88
671.677	84.88
671.88	82.88
672.082	85.88
672.284	97.88
672.487	88.88
672.689	78.88
672.892	68.88
