Data from 1969.PennyLincolnUp.Lamp.En5.5.200Scan.071719.P1._HRD10591_14-54-52-971.txt Node
Date: Thu Jul 18 14:54:52 EDT 2019
User: cochatt
Spectrometer: HR+D1059
Trigger mode: 1
Integration Time (sec): 1.000000E-1
Scans to average: 1
Electric dark correction enabled: true
Nonlinearity correction enabled: false
Boxcar width: 0
XAxis mode: Wavelengths
Number of Pixels in Spectrum: 2048
>>>>>Begin Spectral Data<<<<<
223.165	-24.94
223.4	-24.94
223.635	-24.94
223.869	-21.94
224.104	-13.94
224.338	-12.94
224.573	-11.94
224.808	4.06
225.042	-13.94
225.277	3.06
225.511	-2.94
225.746	-1.94
225.98	6.06
226.215	-6.94
226.449	18.06
226.683	25.06
226.918	22.06
227.152	33.06
227.387	28.06
227.621	28.06
227.856	26.06
228.09	46.06
228.324	46.06
228.559	58.06
228.793	64.06
229.027	72.06
229.262	78.06
229.496	102.06
229.73	98.06
229.964	116.06
230.199	98.06
230.433	92.06
230.667	109.06
230.901	96.06
231.136	103.06
231.37	106.06
231.604	94.06
231.838	99.06
232.072	102.06
232.306	109.06
232.541	110.06
232.775	107.06
233.009	100.06
233.243	116.06
233.477	92.06
233.711	107.06
233.945	102.06
234.179	99.06
234.413	108.06
234.647	112.06
234.881	101.06
235.115	114.06
235.349	109.06
235.583	101.06
235.817	102.06
236.051	102.06
236.285	93.06
236.519	116.06
236.753	117.06
236.987	125.06
237.221	125.06
237.455	154.06
237.689	125.06
237.922	108.06
238.156	114.06
238.39	109.06
238.624	114.06
238.858	115.06
239.091	113.06
239.325	115.06
239.559	115.06
239.793	106.06
240.027	100.06
240.26	119.06
240.494	131.06
240.728	122.06
240.961	125.06
241.195	119.06
241.429	112.06
241.662	109.06
241.896	110.06
242.13	128.06
242.363	137.06
242.597	132.06
242.83	118.06
243.064	105.06
243.298	126.06
243.531	123.06
243.765	107.06
243.998	133.06
244.232	126.06
244.465	128.06
244.699	122.06
244.932	123.06
245.166	140.06
245.399	127.06
245.633	115.06
245.866	136.06
246.099	130.06
246.333	132.06
246.566	131.06
246.8	126.06
247.033	136.06
247.266	136.06
247.5	146.06
247.733	136.06
247.966	138.06
248.2	149.06
248.433	145.06
248.666	146.06
248.899	154.06
249.133	174.06
249.366	158.06
249.599	162.06
249.832	141.06
250.066	136.06
250.299	148.06
250.532	167.06
250.765	152.06
250.998	168.06
251.231	199.06
251.465	178.06
251.698	160.06
251.931	163.06
252.164	176.06
252.397	160.06
252.63	144.06
252.863	156.06
253.096	168.06
253.329	180.06
253.562	174.06
253.795	162.06
254.028	185.06
254.261	176.06
254.494	185.06
254.727	192.06
254.96	213.06
255.193	192.06
255.426	194.06
255.659	186.06
255.892	187.06
256.124	188.06
256.357	178.06
256.59	193.06
256.823	174.06
257.056	186.06
257.289	182.06
257.521	171.06
257.754	180.06
257.987	174.06
258.22	162.06
258.452	157.06
258.685	166.06
258.918	177.06
259.151	158.06
259.383	165.06
259.616	192.06
259.849	180.06
260.081	200.06
260.314	196.06
260.547	214.06
260.779	192.06
261.012	185.06
261.244	173.06
261.477	186.06
261.71	173.06
261.942	188.06
262.175	180.06
262.407	192.06
262.64	180.06
262.872	181.06
263.105	179.06
263.337	177.06
263.57	161.06
263.802	169.06
264.035	198.06
264.267	171.06
264.499	192.06
264.732	166.06
264.964	185.06
265.197	191.06
265.429	166.06
265.661	164.06
265.894	170.06
266.126	194.06
266.358	196.06
266.591	185.06
266.823	200.06
267.055	186.06
267.287	193.06
267.52	198.06
267.752	194.06
267.984	190.06
268.216	192.06
268.448	207.06
268.681	202.06
268.913	216.06
269.145	210.06
269.377	226.06
269.609	222.06
269.841	224.06
270.073	219.06
270.306	242.06
270.538	261.06
270.77	235.06
271.002	237.06
271.234	234.06
271.466	221.06
271.698	221.06
271.93	259.06
272.162	242.06
272.394	238.06
272.626	242.06
272.858	217.06
273.09	216.06
273.322	208.06
273.553	206.06
273.785	228.06
274.017	217.06
274.249	218.06
274.481	215.06
274.713	206.06
274.945	203.06
275.176	222.06
275.408	207.06
275.64	212.06
275.872	218.06
276.104	219.06
276.335	199.06
276.567	229.06
276.799	234.06
277.031	240.06
277.262	260.06
277.494	253.06
277.726	252.06
277.957	227.06
278.189	218.06
278.421	222.06
278.652	232.06
278.884	233.06
279.115	245.06
279.347	244.06
279.579	233.06
279.81	211.06
280.042	219.06
280.273	227.06
280.505	233.06
280.736	236.06
280.968	243.06
281.199	237.06
281.431	227.06
281.662	229.06
281.894	223.06
282.125	224.06
282.356	243.06
282.588	244.06
282.819	243.06
283.051	229.06
283.282	244.06
283.513	229.06
283.745	234.06
283.976	238.06
284.207	237.06
284.439	250.06
284.67	250.06
284.901	251.06
285.132	248.06
285.364	249.06
285.595	269.06
285.826	264.06
286.057	248.06
286.288	236.06
286.52	235.06
286.751	234.06
286.982	225.06
287.213	254.06
287.444	263.06
287.675	263.06
287.906	277.06
288.138	260.06
288.369	278.06
288.6	254.06
288.831	256.06
289.062	249.06
289.293	260.06
289.524	251.06
289.755	268.06
289.986	255.06
290.217	252.06
290.448	234.06
290.679	242.06
290.91	240.06
291.141	254.06
291.371	240.06
291.602	252.06
291.833	274.06
292.064	260.06
292.295	268.06
292.526	278.06
292.757	246.06
292.987	241.06
293.218	253.06
293.449	241.06
293.68	268.06
293.91	258.06
294.141	256.06
294.372	249.06
294.603	253.06
294.833	260.06
295.064	268.06
295.295	264.06
295.525	261.06
295.756	276.06
295.987	245.06
296.217	262.06
296.448	283.06
296.679	262.06
296.909	260.06
297.14	273.06
297.37	253.06
297.601	256.06
297.831	264.06
298.062	265.06
298.292	270.06
298.523	268.06
298.753	264.06
298.984	284.06
299.214	281.06
299.445	265.06
299.675	263.06
299.905	274.06
300.136	268.06
300.366	277.06
300.597	271.06
300.827	281.06
301.057	308.06
301.288	271.06
301.518	284.06
301.748	292.06
301.979	285.06
302.209	274.06
302.439	284.06
302.669	261.06
302.9	302.06
303.13	285.06
303.36	304.06
303.59	292.06
303.82	281.06
304.051	288.06
304.281	271.06
304.511	298.06
304.741	274.06
304.971	290.06
305.201	301.06
305.431	290.06
305.661	294.06
305.891	283.06
306.121	283.06
306.352	281.06
306.582	279.06
306.812	305.06
307.042	304.06
307.272	273.06
307.502	282.06
307.731	272.06
307.961	296.06
308.191	292.06
308.421	289.06
308.651	302.06
308.881	314.06
309.111	294.06
309.341	292.06
309.571	292.06
309.8	306.06
310.03	304.06
310.26	301.06
310.49	286.06
310.72	293.06
310.949	309.06
311.179	320.06
311.409	313.06
311.639	308.06
311.868	318.06
312.098	310.06
312.328	316.06
312.557	327.06
312.787	313.06
313.017	319.06
313.246	313.06
313.476	311.06
313.706	319.06
313.935	318.06
314.165	324.06
314.394	332.06
314.624	326.06
314.853	330.06
315.083	316.06
315.312	321.06
315.542	322.06
315.771	309.06
316.001	313.06
316.23	297.06
316.46	329.06
316.689	304.06
316.919	313.06
317.148	317.06
317.377	318.06
317.607	317.06
317.836	323.06
318.065	311.06
318.295	326.06
318.524	320.06
318.753	308.06
318.983	342.06
319.212	315.06
319.441	313.06
319.67	326.06
319.9	326.06
320.129	315.06
320.358	301.06
320.587	310.06
320.816	324.06
321.046	320.06
321.275	340.06
321.504	333.06
321.733	319.06
321.962	329.06
322.191	333.06
322.42	333.06
322.649	337.06
322.878	358.06
323.108	339.06
323.337	368.06
323.566	372.06
323.795	351.06
324.024	391.06
324.253	434.06
324.482	577.06
324.71	824.06
324.939	1083.06
325.168	878.06
325.397	518.06
325.626	410.06
325.855	370.06
326.084	362.06
326.313	354.06
326.542	371.06
326.77	386.06
326.999	426.06
327.228	556.06
327.457	699.06
327.686	820.06
327.914	590.06
328.143	462.06
328.372	414.06
328.6	409.06
328.829	381.06
329.058	381.06
329.287	407.06
329.515	388.06
329.744	382.06
329.972	389.06
330.201	403.06
330.43	408.06
330.658	420.06
330.887	425.06
331.115	418.06
331.344	393.06
331.572	394.06
331.801	393.06
332.03	390.06
332.258	383.06
332.486	390.06
332.715	385.06
332.943	376.06
333.172	387.06
333.4	389.06
333.629	414.06
333.857	412.06
334.085	425.06
334.314	431.06
334.542	424.06
334.771	426.06
334.999	417.06
335.227	413.06
335.455	388.06
335.684	402.06
335.912	384.06
336.14	376.06
336.369	376.06
336.597	385.06
336.825	378.06
337.053	360.06
337.281	392.06
337.51	346.06
337.738	359.06
337.966	361.06
338.194	369.06
338.422	357.06
338.65	359.06
338.878	348.06
339.106	350.06
339.334	349.06
339.562	348.06
339.79	349.06
340.018	364.06
340.246	354.06
340.474	378.06
340.702	361.06
340.93	346.06
341.158	357.06
341.386	355.06
341.614	357.06
341.842	361.06
342.07	346.06
342.298	353.06
342.526	342.06
342.754	341.06
342.981	359.06
343.209	348.06
343.437	342.06
343.665	369.06
343.893	376.06
344.12	399.06
344.348	378.06
344.576	367.06
344.804	368.06
345.031	370.06
345.259	349.06
345.487	347.06
345.714	346.06
345.942	319.06
346.17	335.06
346.397	324.06
346.625	338.06
346.853	342.06
347.08	338.06
347.308	333.06
347.535	340.06
347.763	324.06
347.99	340.06
348.218	327.06
348.445	329.06
348.673	341.06
348.9	344.06
349.128	338.06
349.355	329.06
349.583	331.06
349.81	315.06
350.037	327.06
350.265	323.06
350.492	305.06
350.72	334.06
350.947	346.06
351.174	318.06
351.402	345.06
351.629	348.06
351.856	351.06
352.083	327.06
352.311	322.06
352.538	326.06
352.765	330.06
352.992	337.06
353.22	345.06
353.447	322.06
353.674	338.06
353.901	329.06
354.128	335.06
354.355	320.06
354.583	320.06
354.81	328.06
355.037	335.06
355.264	324.06
355.491	304.06
355.718	324.06
355.945	292.06
356.172	323.06
356.399	314.06
356.626	318.06
356.853	326.06
357.08	321.06
357.307	314.06
357.534	316.06
357.761	299.06
357.988	318.06
358.215	330.06
358.441	307.06
358.668	314.06
358.895	322.06
359.122	306.06
359.349	334.06
359.576	334.06
359.802	347.06
360.029	369.06
360.256	355.06
360.483	361.06
360.709	324.06
360.936	319.06
361.163	316.06
361.39	313.06
361.616	329.06
361.843	334.06
362.07	321.06
362.296	310.06
362.523	331.06
362.749	325.06
362.976	317.06
363.203	331.06
363.429	340.06
363.656	326.06
363.882	326.06
364.109	317.06
364.335	327.06
364.562	339.06
364.788	316.06
365.015	310.06
365.241	318.06
365.468	331.06
365.694	306.06
365.92	332.06
366.147	330.06
366.373	326.06
366.599	321.06
366.826	325.06
367.052	315.06
367.278	297.06
367.505	340.06
367.731	316.06
367.957	332.06
368.184	316.06
368.41	307.06
368.636	342.06
368.862	320.06
369.089	330.06
369.315	333.06
369.541	317.06
369.767	335.06
369.993	321.06
370.219	322.06
370.445	320.06
370.672	321.06
370.898	331.06
371.124	332.06
371.35	311.06
371.576	330.06
371.802	309.06
372.028	340.06
372.254	342.06
372.48	327.06
372.706	312.06
372.932	350.06
373.158	355.06
373.384	333.06
373.61	348.06
373.835	334.06
374.061	324.06
374.287	347.06
374.513	346.06
374.739	325.06
374.965	363.06
375.191	340.06
375.416	350.06
375.642	315.06
375.868	337.06
376.094	325.06
376.319	328.06
376.545	333.06
376.771	330.06
376.997	317.06
377.222	336.06
377.448	327.06
377.674	315.06
377.899	335.06
378.125	335.06
378.35	319.06
378.576	328.06
378.802	326.06
379.027	328.06
379.253	327.06
379.478	320.06
379.704	333.06
379.929	317.06
380.155	325.06
380.38	331.06
380.606	332.06
380.831	301.06
381.057	329.06
381.282	327.06
381.507	331.06
381.733	363.06
381.958	341.06
382.184	318.06
382.409	338.06
382.634	312.06
382.86	348.06
383.085	343.06
383.31	347.06
383.535	346.06
383.761	357.06
383.986	366.06
384.211	360.06
384.436	372.06
384.662	344.06
384.887	365.06
385.112	376.06
385.337	376.06
385.562	355.06
385.787	362.06
386.013	357.06
386.238	361.06
386.463	356.06
386.688	366.06
386.913	374.06
387.138	370.06
387.363	346.06
387.588	337.06
387.813	368.06
388.038	360.06
388.263	379.06
388.488	368.06
388.713	358.06
388.938	373.06
389.163	376.06
389.387	374.06
389.612	353.06
389.837	346.06
390.062	366.06
390.287	376.06
390.512	366.06
390.736	361.06
390.961	357.06
391.186	370.06
391.411	395.06
391.636	392.06
391.86	387.06
392.085	412.06
392.31	396.06
392.534	373.06
392.759	371.06
392.984	376.06
393.208	398.06
393.433	380.06
393.658	387.06
393.882	380.06
394.107	379.06
394.331	372.06
394.556	345.06
394.78	361.06
395.005	373.06
395.229	380.06
395.454	401.06
395.678	368.06
395.903	397.06
396.127	408.06
396.352	413.06
396.576	379.06
396.801	384.06
397.025	391.06
397.249	384.06
397.474	420.06
397.698	395.06
397.922	408.06
398.147	409.06
398.371	408.06
398.595	391.06
398.82	436.06
399.044	442.06
399.268	471.06
399.492	507.06
399.717	544.06
399.941	546.06
400.165	534.06
400.389	520.06
400.613	458.06
400.837	442.06
401.062	432.06
401.286	441.06
401.51	432.06
401.734	406.06
401.958	424.06
402.182	432.06
402.406	439.06
402.63	460.06
402.854	436.06
403.078	455.06
403.302	455.06
403.526	463.06
403.75	470.06
403.974	434.06
404.198	437.06
404.422	461.06
404.645	465.06
404.869	451.06
405.093	455.06
405.317	524.06
405.541	514.06
405.765	486.06
405.988	464.06
406.212	453.06
406.436	475.06
406.66	506.06
406.883	496.06
407.107	518.06
407.331	539.06
407.555	587.06
407.778	560.06
408.002	498.06
408.226	499.06
408.449	485.06
408.673	466.06
408.896	517.06
409.12	505.06
409.344	461.06
409.567	458.06
409.791	475.06
410.014	442.06
410.238	450.06
410.461	448.06
410.685	450.06
410.908	456.06
411.132	455.06
411.355	460.06
411.578	456.06
411.802	429.06
412.025	438.06
412.249	456.06
412.472	457.06
412.695	477.06
412.919	468.06
413.142	441.06
413.365	438.06
413.589	436.06
413.812	424.06
414.035	422.06
414.258	434.06
414.482	444.06
414.705	425.06
414.928	440.06
415.151	415.06
415.374	430.06
415.597	417.06
415.821	420.06
416.044	428.06
416.267	408.06
416.49	414.06
416.713	422.06
416.936	405.06
417.159	420.06
417.382	419.06
417.605	421.06
417.828	423.06
418.051	430.06
418.274	451.06
418.497	421.06
418.72	437.06
418.943	418.06
419.166	468.06
419.389	454.06
419.611	472.06
419.834	446.06
420.057	441.06
420.28	429.06
420.503	450.06
420.726	438.06
420.948	434.06
421.171	448.06
421.394	452.06
421.617	442.06
421.839	425.06
422.062	437.06
422.285	421.06
422.507	472.06
422.73	492.06
422.953	472.06
423.175	457.06
423.398	464.06
423.621	456.06
423.843	461.06
424.066	483.06
424.288	480.06
424.511	469.06
424.733	491.06
424.956	521.06
425.178	494.06
425.401	502.06
425.623	504.06
425.846	474.06
426.068	426.06
426.291	434.06
426.513	441.06
426.735	445.06
426.958	458.06
427.18	492.06
427.402	556.06
427.625	596.06
427.847	517.06
428.069	461.06
428.292	435.06
428.514	426.06
428.736	419.06
428.958	413.06
429.181	392.06
429.403	386.06
429.625	389.06
429.847	410.06
430.069	441.06
430.292	446.06
430.514	434.06
430.736	396.06
430.958	398.06
431.18	381.06
431.402	405.06
431.624	406.06
431.846	413.06
432.068	378.06
432.29	397.06
432.512	394.06
432.734	418.06
432.956	396.06
433.178	387.06
433.4	404.06
433.622	397.06
433.844	425.06
434.066	405.06
434.287	394.06
434.509	419.06
434.731	426.06
434.953	426.06
435.175	438.06
435.397	438.06
435.618	437.06
435.84	466.06
436.062	497.06
436.284	524.06
436.505	474.06
436.727	444.06
436.949	413.06
437.17	422.06
437.392	401.06
437.614	404.06
437.835	407.06
438.057	473.06
438.278	510.06
438.5	536.06
438.721	570.06
438.943	541.06
439.165	445.06
439.386	413.06
439.608	421.06
439.829	413.06
440.05	440.06
440.272	451.06
440.493	456.06
440.715	430.06
440.936	430.06
441.158	429.06
441.379	407.06
441.6	429.06
441.822	443.06
442.043	456.06
442.264	522.06
442.486	515.06
442.707	473.06
442.928	461.06
443.149	461.06
443.371	461.06
443.592	476.06
443.813	526.06
444.034	566.06
444.255	485.06
444.476	457.06
444.698	481.06
444.919	474.06
445.14	555.06
445.361	496.06
445.582	476.06
445.803	512.06
446.024	526.06
446.245	524.06
446.466	474.06
446.687	447.06
446.908	420.06
447.129	414.06
447.35	416.06
447.571	386.06
447.792	397.06
448.013	398.06
448.234	410.06
448.455	426.06
448.675	474.06
448.896	526.06
449.117	473.06
449.338	466.06
449.559	496.06
449.779	542.06
450	460.06
450.221	390.06
450.442	414.06
450.662	397.06
450.883	376.06
451.104	411.06
451.324	390.06
451.545	382.06
451.766	380.06
451.986	369.06
452.207	353.06
452.428	362.06
452.648	375.06
452.869	373.06
453.089	368.06
453.31	393.06
453.53	360.06
453.751	357.06
453.971	358.06
454.192	357.06
454.412	342.06
454.633	357.06
454.853	352.06
455.073	362.06
455.294	386.06
455.514	402.06
455.734	385.06
455.955	358.06
456.175	344.06
456.395	344.06
456.616	346.06
456.836	338.06
457.056	334.06
457.276	340.06
457.497	349.06
457.717	342.06
457.937	358.06
458.157	354.06
458.377	366.06
458.598	358.06
458.818	421.06
459.038	429.06
459.258	437.06
459.478	401.06
459.698	398.06
459.918	398.06
460.138	403.06
460.358	418.06
460.578	440.06
460.798	441.06
461.018	405.06
461.238	420.06
461.458	424.06
461.678	420.06
461.898	426.06
462.118	430.06
462.338	446.06
462.558	435.06
462.777	478.06
462.997	457.06
463.217	492.06
463.437	490.06
463.657	485.06
463.876	451.06
464.096	477.06
464.316	462.06
464.536	473.06
464.755	467.06
464.975	452.06
465.195	453.06
465.414	470.06
465.634	434.06
465.854	422.06
466.073	412.06
466.293	380.06
466.512	374.06
466.732	393.06
466.951	398.06
467.171	381.06
467.391	380.06
467.61	375.06
467.829	385.06
468.049	378.06
468.268	372.06
468.488	392.06
468.707	375.06
468.927	381.06
469.146	368.06
469.365	372.06
469.585	375.06
469.804	386.06
470.023	402.06
470.243	382.06
470.462	390.06
470.681	394.06
470.901	408.06
471.12	406.06
471.339	390.06
471.558	386.06
471.777	380.06
471.997	394.06
472.216	388.06
472.435	408.06
472.654	366.06
472.873	374.06
473.092	356.06
473.311	382.06
473.53	368.06
473.749	365.06
473.968	406.06
474.187	452.06
474.406	439.06
474.625	418.06
474.844	390.06
475.063	365.06
475.282	378.06
475.501	372.06
475.72	382.06
475.939	396.06
476.158	405.06
476.377	406.06
476.596	395.06
476.814	386.06
477.033	387.06
477.252	391.06
477.471	428.06
477.69	434.06
477.908	412.06
478.127	425.06
478.346	421.06
478.564	428.06
478.783	412.06
479.002	437.06
479.22	449.06
479.439	450.06
479.658	471.06
479.876	445.06
480.095	472.06
480.313	497.06
480.532	469.06
480.751	473.06
480.969	490.06
481.188	512.06
481.406	501.06
481.624	463.06
481.843	446.06
482.061	441.06
482.28	431.06
482.498	443.06
482.717	439.06
482.935	426.06
483.153	436.06
483.372	461.06
483.59	446.06
483.808	417.06
484.027	436.06
484.245	430.06
484.463	468.06
484.681	434.06
484.9	442.06
485.118	443.06
485.336	448.06
485.554	450.06
485.772	468.06
485.99	466.06
486.209	452.06
486.427	436.06
486.645	458.06
486.863	479.06
487.081	464.06
487.299	473.06
487.517	461.06
487.735	461.06
487.953	462.06
488.171	492.06
488.389	463.06
488.607	470.06
488.825	481.06
489.043	464.06
489.261	496.06
489.479	468.06
489.696	460.06
489.914	461.06
490.132	477.06
490.35	460.06
490.568	481.06
490.786	487.06
491.003	486.06
491.221	483.06
491.439	529.06
491.657	519.06
491.874	520.06
492.092	515.06
492.31	498.06
492.527	530.06
492.745	539.06
492.963	549.06
493.18	534.06
493.398	555.06
493.615	515.06
493.833	521.06
494.05	547.06
494.268	523.06
494.485	532.06
494.703	531.06
494.92	543.06
495.138	556.06
495.355	535.06
495.573	545.06
495.79	545.06
496.008	535.06
496.225	530.06
496.442	552.06
496.66	556.06
496.877	555.06
497.094	542.06
497.312	546.06
497.529	588.06
497.746	578.06
497.963	579.06
498.181	602.06
498.398	632.06
498.615	616.06
498.832	641.06
499.049	685.06
499.267	722.06
499.484	732.06
499.701	764.06
499.918	822.06
500.135	905.06
500.352	963.06
500.569	978.06
500.786	972.06
501.003	965.06
501.22	901.06
501.437	845.06
501.654	772.06
501.871	760.06
502.088	717.06
502.305	671.06
502.522	661.06
502.739	646.06
502.956	620.06
503.172	598.06
503.389	591.06
503.606	577.06
503.823	581.06
504.04	573.06
504.256	550.06
504.473	571.06
504.69	577.06
504.907	564.06
505.123	549.06
505.34	536.06
505.557	504.06
505.773	517.06
505.99	491.06
506.207	501.06
506.423	490.06
506.64	491.06
506.856	498.06
507.073	492.06
507.289	474.06
507.506	473.06
507.722	494.06
507.939	472.06
508.155	481.06
508.372	473.06
508.588	480.06
508.805	482.06
509.021	471.06
509.238	482.06
509.454	506.06
509.67	472.06
509.887	458.06
510.103	479.06
510.319	468.06
510.536	508.06
510.752	715.06
510.968	608.06
511.184	459.06
511.401	455.06
511.617	432.06
511.833	462.06
512.049	443.06
512.265	445.06
512.481	466.06
512.698	436.06
512.914	436.06
513.13	432.06
513.346	438.06
513.562	433.06
513.778	457.06
513.994	440.06
514.21	459.06
514.426	473.06
514.642	484.06
514.858	470.06
515.074	472.06
515.29	544.06
515.506	755.06
515.721	646.06
515.937	486.06
516.153	475.06
516.369	461.06
516.585	462.06
516.801	491.06
517.016	473.06
517.232	499.06
517.448	507.06
517.664	516.06
517.879	541.06
518.095	502.06
518.311	515.06
518.527	492.06
518.742	490.06
518.958	468.06
519.173	472.06
519.389	460.06
519.605	453.06
519.82	450.06
520.036	458.06
520.251	449.06
520.467	460.06
520.682	471.06
520.898	481.06
521.113	456.06
521.329	460.06
521.544	494.06
521.76	587.06
521.975	910.06
522.19	877.06
522.406	559.06
522.621	453.06
522.836	424.06
523.052	410.06
523.267	403.06
523.482	419.06
523.698	398.06
523.913	397.06
524.128	384.06
524.343	414.06
524.559	399.06
524.774	369.06
524.989	373.06
525.204	384.06
525.419	397.06
525.634	378.06
525.849	394.06
526.064	377.06
526.28	373.06
526.495	380.06
526.71	369.06
526.925	375.06
527.14	368.06
527.355	363.06
527.57	384.06
527.785	374.06
527.999	350.06
528.214	379.06
528.429	377.06
528.644	376.06
528.859	381.06
529.074	380.06
529.289	385.06
529.503	422.06
529.718	415.06
529.933	383.06
530.148	349.06
530.363	372.06
530.577	376.06
530.792	368.06
531.007	374.06
531.221	374.06
531.436	361.06
531.651	368.06
531.865	384.06
532.08	369.06
532.295	377.06
532.509	376.06
532.724	367.06
532.938	370.06
533.153	369.06
533.367	369.06
533.582	374.06
533.796	384.06
534.011	361.06
534.225	371.06
534.44	358.06
534.654	357.06
534.868	375.06
535.083	372.06
535.297	374.06
535.511	363.06
535.726	354.06
535.94	379.06
536.154	338.06
536.369	332.06
536.583	354.06
536.797	344.06
537.011	337.06
537.225	348.06
537.44	339.06
537.654	326.06
537.868	337.06
538.082	369.06
538.296	347.06
538.51	366.06
538.724	357.06
538.938	348.06
539.153	340.06
539.367	360.06
539.581	338.06
539.795	352.06
540.009	336.06
540.222	364.06
540.436	363.06
540.65	360.06
540.864	362.06
541.078	341.06
541.292	340.06
541.506	346.06
541.72	330.06
541.934	345.06
542.147	358.06
542.361	365.06
542.575	344.06
542.789	358.06
543.002	357.06
543.216	353.06
543.43	347.06
543.644	363.06
543.857	371.06
544.071	349.06
544.285	364.06
544.498	356.06
544.712	347.06
544.925	346.06
545.139	357.06
545.352	360.06
545.566	365.06
545.779	345.06
545.993	365.06
546.206	364.06
546.42	380.06
546.633	363.06
546.847	347.06
547.06	345.06
547.274	356.06
547.487	378.06
547.7	339.06
547.914	356.06
548.127	347.06
548.34	363.06
548.554	348.06
548.767	362.06
548.98	353.06
549.193	357.06
549.407	354.06
549.62	373.06
549.833	360.06
550.046	357.06
550.259	384.06
550.473	357.06
550.686	356.06
550.899	325.06
551.112	371.06
551.325	342.06
551.538	347.06
551.751	348.06
551.964	356.06
552.177	349.06
552.39	348.06
552.603	359.06
552.816	365.06
553.029	361.06
553.242	363.06
553.455	382.06
553.667	375.06
553.88	365.06
554.093	376.06
554.306	371.06
554.519	346.06
554.732	364.06
554.944	356.06
555.157	332.06
555.37	332.06
555.583	326.06
555.795	318.06
556.008	334.06
556.221	310.06
556.433	338.06
556.646	329.06
556.859	311.06
557.071	314.06
557.284	327.06
557.496	333.06
557.709	297.06
557.921	311.06
558.134	305.06
558.346	317.06
558.559	309.06
558.771	324.06
558.984	324.06
559.196	315.06
559.409	312.06
559.621	317.06
559.833	306.06
560.046	307.06
560.258	288.06
560.47	315.06
560.683	316.06
560.895	292.06
561.107	298.06
561.32	285.06
561.532	313.06
561.744	297.06
561.956	310.06
562.168	321.06
562.381	309.06
562.593	301.06
562.805	321.06
563.017	312.06
563.229	300.06
563.441	328.06
563.653	333.06
563.865	307.06
564.077	309.06
564.289	310.06
564.501	324.06
564.713	316.06
564.925	346.06
565.137	332.06
565.349	328.06
565.561	341.06
565.773	346.06
565.985	374.06
566.197	376.06
566.408	385.06
566.62	416.06
566.832	419.06
567.044	424.06
567.255	418.06
567.467	457.06
567.679	448.06
567.891	468.06
568.102	464.06
568.314	453.06
568.526	434.06
568.737	420.06
568.949	381.06
569.161	373.06
569.372	357.06
569.584	355.06
569.795	326.06
570.007	325.06
570.218	326.06
570.43	328.06
570.641	329.06
570.853	300.06
571.064	327.06
571.276	323.06
571.487	314.06
571.698	297.06
571.91	305.06
572.121	273.06
572.333	300.06
572.544	280.06
572.755	283.06
572.966	283.06
573.178	296.06
573.389	287.06
573.6	284.06
573.811	285.06
574.023	261.06
574.234	272.06
574.445	275.06
574.656	262.06
574.867	264.06
575.078	266.06
575.289	242.06
575.501	270.06
575.712	281.06
575.923	257.06
576.134	264.06
576.345	291.06
576.556	241.06
576.767	277.06
576.978	261.06
577.188	256.06
577.399	256.06
577.61	277.06
577.821	269.06
578.032	250.06
578.243	275.06
578.454	369.06
578.665	309.06
578.875	264.06
579.086	246.06
579.297	246.06
579.508	265.06
579.718	245.06
579.929	253.06
580.14	247.06
580.35	239.06
580.561	236.06
580.772	254.06
580.982	256.06
581.193	234.06
581.403	253.06
581.614	258.06
581.825	260.06
582.035	262.06
582.246	248.06
582.456	233.06
582.667	237.06
582.877	239.06
583.087	246.06
583.298	244.06
583.508	256.06
583.719	240.06
583.929	243.06
584.139	246.06
584.35	260.06
584.56	263.06
584.77	243.06
584.981	217.06
585.191	240.06
585.401	221.06
585.611	213.06
585.821	236.06
586.032	223.06
586.242	243.06
586.452	263.06
586.662	250.06
586.872	241.06
587.082	233.06
587.292	233.06
587.502	232.06
587.713	232.06
587.923	244.06
588.133	248.06
588.343	250.06
588.553	247.06
588.762	235.06
588.972	240.06
589.182	244.06
589.392	241.06
589.602	230.06
589.812	220.06
590.022	246.06
590.232	248.06
590.441	239.06
590.651	234.06
590.861	248.06
591.071	242.06
591.281	240.06
591.49	249.06
591.7	242.06
591.91	254.06
592.119	274.06
592.329	253.06
592.539	255.06
592.748	268.06
592.958	262.06
593.167	273.06
593.377	279.06
593.587	294.06
593.796	297.06
594.006	290.06
594.215	288.06
594.424	276.06
594.634	290.06
594.843	254.06
595.053	273.06
595.262	276.06
595.472	248.06
595.681	259.06
595.89	248.06
596.1	227.06
596.309	222.06
596.518	238.06
596.727	229.06
596.937	237.06
597.146	230.06
597.355	231.06
597.564	226.06
597.774	216.06
597.983	240.06
598.192	202.06
598.401	211.06
598.61	231.06
598.819	221.06
599.028	211.06
599.237	224.06
599.446	208.06
599.655	206.06
599.864	212.06
600.073	219.06
600.282	222.06
600.491	208.06
600.7	216.06
600.909	215.06
601.118	215.06
601.327	212.06
601.536	216.06
601.745	206.06
601.953	217.06
602.162	210.06
602.371	225.06
602.58	210.06
602.789	216.06
602.997	198.06
603.206	218.06
603.415	213.06
603.623	212.06
603.832	200.06
604.041	206.06
604.249	204.06
604.458	210.06
604.666	206.06
604.875	193.06
605.084	214.06
605.292	213.06
605.501	201.06
605.709	192.06
605.918	205.06
606.126	209.06
606.334	195.06
606.543	210.06
606.751	213.06
606.96	203.06
607.168	198.06
607.376	187.06
607.585	210.06
607.793	205.06
608.001	190.06
608.21	204.06
608.418	206.06
608.626	198.06
608.834	201.06
609.043	182.06
609.251	205.06
609.459	193.06
609.667	204.06
609.875	200.06
610.083	195.06
610.291	196.06
610.499	216.06
610.707	195.06
610.916	207.06
611.124	205.06
611.332	216.06
611.54	206.06
611.748	224.06
611.955	193.06
612.163	213.06
612.371	198.06
612.579	196.06
612.787	193.06
612.995	193.06
613.203	200.06
613.411	210.06
613.618	213.06
613.826	203.06
614.034	205.06
614.242	200.06
614.449	199.06
614.657	201.06
614.865	206.06
615.072	202.06
615.28	199.06
615.488	197.06
615.695	189.06
615.903	208.06
616.111	187.06
616.318	205.06
616.526	194.06
616.733	192.06
616.941	200.06
617.148	210.06
617.356	181.06
617.563	200.06
617.771	180.06
617.978	200.06
618.185	208.06
618.393	193.06
618.6	203.06
618.807	201.06
619.015	212.06
619.222	188.06
619.429	186.06
619.637	203.06
619.844	199.06
620.051	204.06
620.258	195.06
620.466	180.06
620.673	189.06
620.88	188.06
621.087	178.06
621.294	175.06
621.501	185.06
621.708	186.06
621.915	177.06
622.122	174.06
622.329	184.06
622.536	184.06
622.743	194.06
622.95	182.06
623.157	180.06
623.364	181.06
623.571	205.06
623.778	189.06
623.985	188.06
624.192	201.06
624.399	168.06
624.606	189.06
624.812	195.06
625.019	177.06
625.226	171.06
625.433	187.06
625.639	172.06
625.846	191.06
626.053	179.06
626.259	177.06
626.466	154.06
626.673	172.06
626.879	178.06
627.086	174.06
627.293	189.06
627.499	182.06
627.706	172.06
627.912	175.06
628.119	180.06
628.325	186.06
628.532	169.06
628.738	171.06
628.945	190.06
629.151	180.06
629.357	160.06
629.564	179.06
629.77	161.06
629.976	180.06
630.183	177.06
630.389	152.06
630.595	168.06
630.802	164.06
631.008	160.06
631.214	169.06
631.42	169.06
631.627	174.06
631.833	172.06
632.039	161.06
632.245	158.06
632.451	178.06
632.657	177.06
632.863	154.06
633.069	142.06
633.275	162.06
633.481	177.06
633.688	156.06
633.893	176.06
634.099	173.06
634.305	161.06
634.511	166.06
634.717	169.06
634.923	165.06
635.129	163.06
635.335	149.06
635.541	148.06
635.747	163.06
635.952	161.06
636.158	152.06
636.364	163.06
636.57	169.06
636.775	158.06
636.981	148.06
637.187	170.06
637.392	163.06
637.598	157.06
637.804	160.06
638.009	155.06
638.215	156.06
638.421	150.06
638.626	152.06
638.832	156.06
639.037	161.06
639.243	153.06
639.448	146.06
639.654	148.06
639.859	152.06
640.065	147.06
640.27	167.06
640.475	151.06
640.681	146.06
640.886	145.06
641.091	147.06
641.297	148.06
641.502	145.06
641.707	166.06
641.913	151.06
642.118	146.06
642.323	156.06
642.528	164.06
642.733	156.06
642.939	169.06
643.144	160.06
643.349	168.06
643.554	142.06
643.759	151.06
643.964	135.06
644.169	143.06
644.374	136.06
644.579	146.06
644.784	142.06
644.989	148.06
645.194	164.06
645.399	159.06
645.604	161.06
645.809	146.06
646.014	158.06
646.219	152.06
646.423	150.06
646.628	154.06
646.833	154.06
647.038	142.06
647.243	147.06
647.447	155.06
647.652	148.06
647.857	147.06
648.062	153.06
648.266	149.06
648.471	161.06
648.676	152.06
648.88	144.06
649.085	152.06
649.289	148.06
649.494	154.06
649.698	163.06
649.903	156.06
650.107	160.06
650.312	147.06
650.516	151.06
650.721	133.06
650.925	148.06
651.13	135.06
651.334	136.06
651.539	140.06
651.743	128.06
651.947	140.06
652.152	151.06
652.356	132.06
652.56	122.06
652.764	133.06
652.969	138.06
653.173	123.06
653.377	128.06
653.581	116.06
653.785	120.06
653.99	116.06
654.194	142.06
654.398	132.06
654.602	124.06
654.806	114.06
655.01	131.06
655.214	138.06
655.418	122.06
655.622	143.06
655.826	136.06
656.03	124.06
656.234	147.06
656.438	124.06
656.642	128.06
656.846	126.06
657.049	132.06
657.253	118.06
657.457	122.06
657.661	119.06
657.865	109.06
658.068	114.06
658.272	112.06
658.476	113.06
658.68	102.06
658.883	114.06
659.087	101.06
659.291	104.06
659.494	116.06
659.698	97.06
659.901	108.06
660.105	108.06
660.309	92.06
660.512	80.06
660.716	116.06
660.919	73.06
661.123	94.06
661.326	89.06
661.53	89.06
661.733	102.06
661.936	78.06
662.14	88.06
662.343	77.06
662.546	85.06
662.75	90.06
662.953	93.06
663.156	70.06
663.36	81.06
663.563	83.06
663.766	76.06
663.969	87.06
664.173	86.06
664.376	72.06
664.579	61.06
664.782	74.06
664.985	80.06
665.188	80.06
665.391	88.06
665.594	82.06
665.797	75.06
666	94.06
666.203	77.06
666.406	82.06
666.609	71.06
666.812	76.06
667.015	81.06
667.218	75.06
667.421	74.06
667.624	82.06
667.827	73.06
668.03	83.06
668.232	73.06
668.435	69.06
668.638	81.06
668.841	85.06
669.043	90.06
669.246	86.06
669.449	81.06
669.651	73.06
669.854	76.06
670.057	77.06
670.259	76.06
670.462	77.06
670.665	77.06
670.867	70.06
671.07	87.06
671.272	66.06
671.475	81.06
671.677	84.06
671.88	82.06
672.082	83.06
672.284	98.06
672.487	75.06
672.689	81.06
672.892	80.06
