Data from 1969.PennyLincolnUp.Lamp.En5.5.200Scan.071719.P1._HRD10591_14-55-15-972.txt Node
Date: Thu Jul 18 14:55:15 EDT 2019
User: cochatt
Spectrometer: HR+D1059
Trigger mode: 1
Integration Time (sec): 1.000000E-1
Scans to average: 1
Electric dark correction enabled: true
Nonlinearity correction enabled: false
Boxcar width: 0
XAxis mode: Wavelengths
Number of Pixels in Spectrum: 2048
>>>>>Begin Spectral Data<<<<<
223.165	-8.94
223.4	-8.94
223.635	-8.94
223.869	-17.94
224.104	-17.94
224.338	-18.94
224.573	-10.94
224.808	-13.94
225.042	0.06
225.277	-9.94
225.511	3.06
225.746	-0.94
225.98	4.06
226.215	10.06
226.449	14.06
226.683	17.06
226.918	28.06
227.152	23.06
227.387	37.06
227.621	43.06
227.856	53.06
228.09	47.06
228.324	57.06
228.559	51.06
228.793	82.06
229.027	89.06
229.262	85.06
229.496	106.06
229.73	89.06
229.964	118.06
230.199	106.06
230.433	106.06
230.667	85.06
230.901	116.06
231.136	107.06
231.37	112.06
231.604	91.06
231.838	101.06
232.072	95.06
232.306	100.06
232.541	117.06
232.775	115.06
233.009	116.06
233.243	106.06
233.477	113.06
233.711	113.06
233.945	108.06
234.179	117.06
234.413	100.06
234.647	101.06
234.881	111.06
235.115	107.06
235.349	89.06
235.583	104.06
235.817	111.06
236.051	107.06
236.285	117.06
236.519	125.06
236.753	115.06
236.987	124.06
237.221	146.06
237.455	167.06
237.689	130.06
237.922	117.06
238.156	113.06
238.39	113.06
238.624	120.06
238.858	118.06
239.091	107.06
239.325	121.06
239.559	124.06
239.793	111.06
240.027	127.06
240.26	131.06
240.494	131.06
240.728	132.06
240.961	131.06
241.195	136.06
241.429	119.06
241.662	123.06
241.896	129.06
242.13	132.06
242.363	123.06
242.597	122.06
242.83	117.06
243.064	135.06
243.298	123.06
243.531	132.06
243.765	135.06
243.998	123.06
244.232	124.06
244.465	143.06
244.699	138.06
244.932	137.06
245.166	136.06
245.399	137.06
245.633	136.06
245.866	144.06
246.099	147.06
246.333	146.06
246.566	143.06
246.8	140.06
247.033	153.06
247.266	151.06
247.5	152.06
247.733	144.06
247.966	152.06
248.2	153.06
248.433	149.06
248.666	140.06
248.899	159.06
249.133	165.06
249.366	156.06
249.599	161.06
249.832	156.06
250.066	167.06
250.299	166.06
250.532	159.06
250.765	167.06
250.998	175.06
251.231	181.06
251.465	173.06
251.698	170.06
251.931	168.06
252.164	172.06
252.397	163.06
252.63	157.06
252.863	188.06
253.096	188.06
253.329	196.06
253.562	180.06
253.795	176.06
254.028	179.06
254.261	179.06
254.494	211.06
254.727	207.06
254.96	212.06
255.193	219.06
255.426	205.06
255.659	207.06
255.892	187.06
256.124	172.06
256.357	193.06
256.59	195.06
256.823	180.06
257.056	183.06
257.289	182.06
257.521	183.06
257.754	170.06
257.987	187.06
258.22	189.06
258.452	172.06
258.685	163.06
258.918	180.06
259.151	180.06
259.383	195.06
259.616	174.06
259.849	181.06
260.081	193.06
260.314	202.06
260.547	208.06
260.779	215.06
261.012	209.06
261.244	185.06
261.477	188.06
261.71	188.06
261.942	200.06
262.175	182.06
262.407	167.06
262.64	189.06
262.872	181.06
263.105	201.06
263.337	192.06
263.57	168.06
263.802	183.06
264.035	199.06
264.267	168.06
264.499	196.06
264.732	188.06
264.964	181.06
265.197	198.06
265.429	188.06
265.661	177.06
265.894	181.06
266.126	192.06
266.358	188.06
266.591	176.06
266.823	190.06
267.055	206.06
267.287	213.06
267.52	215.06
267.752	199.06
267.984	211.06
268.216	187.06
268.448	214.06
268.681	201.06
268.913	202.06
269.145	227.06
269.377	235.06
269.609	224.06
269.841	214.06
270.073	232.06
270.306	235.06
270.538	261.06
270.77	271.06
271.002	263.06
271.234	233.06
271.466	246.06
271.698	245.06
271.93	255.06
272.162	276.06
272.394	271.06
272.626	267.06
272.858	230.06
273.09	232.06
273.322	226.06
273.553	214.06
273.785	228.06
274.017	225.06
274.249	226.06
274.481	235.06
274.713	245.06
274.945	227.06
275.176	227.06
275.408	236.06
275.64	228.06
275.872	233.06
276.104	214.06
276.335	232.06
276.567	229.06
276.799	248.06
277.031	268.06
277.262	269.06
277.494	264.06
277.726	256.06
277.957	251.06
278.189	229.06
278.421	248.06
278.652	238.06
278.884	230.06
279.115	229.06
279.347	251.06
279.579	249.06
279.81	225.06
280.042	222.06
280.273	248.06
280.505	234.06
280.736	222.06
280.968	244.06
281.199	249.06
281.431	245.06
281.662	224.06
281.894	229.06
282.125	246.06
282.356	244.06
282.588	245.06
282.819	260.06
283.051	248.06
283.282	233.06
283.513	240.06
283.745	257.06
283.976	243.06
284.207	252.06
284.439	256.06
284.67	254.06
284.901	247.06
285.132	241.06
285.364	249.06
285.595	247.06
285.826	258.06
286.057	267.06
286.288	261.06
286.52	246.06
286.751	240.06
286.982	254.06
287.213	250.06
287.444	267.06
287.675	257.06
287.906	279.06
288.138	286.06
288.369	274.06
288.6	262.06
288.831	249.06
289.062	267.06
289.293	249.06
289.524	280.06
289.755	268.06
289.986	264.06
290.217	264.06
290.448	264.06
290.679	244.06
290.91	263.06
291.141	238.06
291.371	260.06
291.602	266.06
291.833	263.06
292.064	253.06
292.295	262.06
292.526	271.06
292.757	268.06
292.987	255.06
293.218	251.06
293.449	251.06
293.68	280.06
293.91	263.06
294.141	272.06
294.372	266.06
294.603	282.06
294.833	255.06
295.064	263.06
295.295	264.06
295.525	262.06
295.756	275.06
295.987	288.06
296.217	282.06
296.448	281.06
296.679	283.06
296.909	264.06
297.14	269.06
297.37	256.06
297.601	260.06
297.831	280.06
298.062	275.06
298.292	279.06
298.523	291.06
298.753	282.06
298.984	278.06
299.214	278.06
299.445	292.06
299.675	269.06
299.905	271.06
300.136	280.06
300.366	304.06
300.597	298.06
300.827	302.06
301.057	286.06
301.288	313.06
301.518	297.06
301.748	297.06
301.979	299.06
302.209	310.06
302.439	315.06
302.669	301.06
302.9	290.06
303.13	286.06
303.36	294.06
303.59	303.06
303.82	318.06
304.051	310.06
304.281	287.06
304.511	291.06
304.741	309.06
304.971	295.06
305.201	307.06
305.431	300.06
305.661	274.06
305.891	291.06
306.121	309.06
306.352	282.06
306.582	311.06
306.812	284.06
307.042	293.06
307.272	305.06
307.502	297.06
307.731	288.06
307.961	285.06
308.191	302.06
308.421	305.06
308.651	297.06
308.881	318.06
309.111	316.06
309.341	278.06
309.571	311.06
309.8	304.06
310.03	313.06
310.26	319.06
310.49	317.06
310.72	308.06
310.949	320.06
311.179	330.06
311.409	323.06
311.639	331.06
311.868	318.06
312.098	322.06
312.328	322.06
312.557	336.06
312.787	347.06
313.017	347.06
313.246	323.06
313.476	317.06
313.706	301.06
313.935	335.06
314.165	336.06
314.394	324.06
314.624	324.06
314.853	333.06
315.083	323.06
315.312	329.06
315.542	334.06
315.771	301.06
316.001	323.06
316.23	327.06
316.46	315.06
316.689	326.06
316.919	311.06
317.148	325.06
317.377	322.06
317.607	314.06
317.836	320.06
318.065	330.06
318.295	325.06
318.524	309.06
318.753	320.06
318.983	311.06
319.212	321.06
319.441	319.06
319.67	338.06
319.9	320.06
320.129	313.06
320.358	341.06
320.587	319.06
320.816	333.06
321.046	326.06
321.275	325.06
321.504	345.06
321.733	322.06
321.962	331.06
322.191	336.06
322.42	356.06
322.649	347.06
322.878	361.06
323.108	341.06
323.337	378.06
323.566	385.06
323.795	412.06
324.024	433.06
324.253	468.06
324.482	645.06
324.71	898.06
324.939	1176.06
325.168	1005.06
325.397	574.06
325.626	446.06
325.855	411.06
326.084	371.06
326.313	391.06
326.542	395.06
326.77	431.06
326.999	495.06
327.228	600.06
327.457	796.06
327.686	927.06
327.914	629.06
328.143	457.06
328.372	468.06
328.6	443.06
328.829	425.06
329.058	427.06
329.287	431.06
329.515	421.06
329.744	418.06
329.972	426.06
330.201	416.06
330.43	451.06
330.658	450.06
330.887	451.06
331.115	457.06
331.344	425.06
331.572	380.06
331.801	402.06
332.03	408.06
332.258	409.06
332.486	392.06
332.715	393.06
332.943	397.06
333.172	405.06
333.4	403.06
333.629	433.06
333.857	440.06
334.085	428.06
334.314	439.06
334.542	442.06
334.771	470.06
334.999	444.06
335.227	417.06
335.455	403.06
335.684	412.06
335.912	386.06
336.14	388.06
336.369	402.06
336.597	407.06
336.825	394.06
337.053	377.06
337.281	379.06
337.51	388.06
337.738	396.06
337.966	381.06
338.194	378.06
338.422	381.06
338.65	381.06
338.878	371.06
339.106	367.06
339.334	364.06
339.562	376.06
339.79	363.06
340.018	377.06
340.246	371.06
340.474	358.06
340.702	385.06
340.93	376.06
341.158	371.06
341.386	362.06
341.614	345.06
341.842	346.06
342.07	344.06
342.298	371.06
342.526	363.06
342.754	348.06
342.981	364.06
343.209	373.06
343.437	365.06
343.665	377.06
343.893	407.06
344.12	413.06
344.348	396.06
344.576	365.06
344.804	376.06
345.031	361.06
345.259	381.06
345.487	368.06
345.714	360.06
345.942	351.06
346.17	338.06
346.397	332.06
346.625	344.06
346.853	357.06
347.08	333.06
347.308	361.06
347.535	353.06
347.763	349.06
347.99	346.06
348.218	353.06
348.445	351.06
348.673	360.06
348.9	353.06
349.128	350.06
349.355	320.06
349.583	327.06
349.81	334.06
350.037	332.06
350.265	334.06
350.492	341.06
350.72	333.06
350.947	338.06
351.174	344.06
351.402	338.06
351.629	343.06
351.856	347.06
352.083	342.06
352.311	360.06
352.538	333.06
352.765	358.06
352.992	364.06
353.22	338.06
353.447	341.06
353.674	333.06
353.901	336.06
354.128	345.06
354.355	313.06
354.583	332.06
354.81	343.06
355.037	337.06
355.264	333.06
355.491	344.06
355.718	327.06
355.945	315.06
356.172	335.06
356.399	322.06
356.626	344.06
356.853	339.06
357.08	342.06
357.307	333.06
357.534	305.06
357.761	330.06
357.988	347.06
358.215	340.06
358.441	329.06
358.668	322.06
358.895	333.06
359.122	347.06
359.349	339.06
359.576	349.06
359.802	360.06
360.029	362.06
360.256	375.06
360.483	377.06
360.709	337.06
360.936	334.06
361.163	336.06
361.39	346.06
361.616	341.06
361.843	341.06
362.07	330.06
362.296	339.06
362.523	347.06
362.749	325.06
362.976	327.06
363.203	358.06
363.429	321.06
363.656	342.06
363.882	330.06
364.109	336.06
364.335	319.06
364.562	347.06
364.788	320.06
365.015	324.06
365.241	323.06
365.468	323.06
365.694	346.06
365.92	339.06
366.147	332.06
366.373	319.06
366.599	327.06
366.826	329.06
367.052	318.06
367.278	327.06
367.505	331.06
367.731	334.06
367.957	327.06
368.184	327.06
368.41	326.06
368.636	354.06
368.862	335.06
369.089	348.06
369.315	356.06
369.541	337.06
369.767	325.06
369.993	336.06
370.219	335.06
370.445	330.06
370.672	330.06
370.898	317.06
371.124	345.06
371.35	355.06
371.576	343.06
371.802	347.06
372.028	336.06
372.254	348.06
372.48	335.06
372.706	352.06
372.932	360.06
373.158	345.06
373.384	342.06
373.61	355.06
373.835	335.06
374.061	343.06
374.287	339.06
374.513	338.06
374.739	345.06
374.965	357.06
375.191	383.06
375.416	351.06
375.642	347.06
375.868	342.06
376.094	347.06
376.319	319.06
376.545	314.06
376.771	336.06
376.997	331.06
377.222	349.06
377.448	349.06
377.674	341.06
377.899	335.06
378.125	336.06
378.35	349.06
378.576	343.06
378.802	349.06
379.027	333.06
379.253	317.06
379.478	325.06
379.704	319.06
379.929	336.06
380.155	323.06
380.38	343.06
380.606	336.06
380.831	336.06
381.057	329.06
381.282	315.06
381.507	334.06
381.733	348.06
381.958	359.06
382.184	338.06
382.409	353.06
382.634	356.06
382.86	326.06
383.085	364.06
383.31	334.06
383.535	340.06
383.761	351.06
383.986	341.06
384.211	364.06
384.436	368.06
384.662	383.06
384.887	375.06
385.112	376.06
385.337	387.06
385.562	379.06
385.787	383.06
386.013	388.06
386.238	385.06
386.463	363.06
386.688	364.06
386.913	383.06
387.138	382.06
387.363	377.06
387.588	372.06
387.813	347.06
388.038	369.06
388.263	381.06
388.488	387.06
388.713	361.06
388.938	360.06
389.163	379.06
389.387	383.06
389.612	367.06
389.837	362.06
390.062	368.06
390.287	367.06
390.512	350.06
390.736	342.06
390.961	380.06
391.186	377.06
391.411	371.06
391.636	391.06
391.86	384.06
392.085	395.06
392.31	391.06
392.534	395.06
392.759	399.06
392.984	379.06
393.208	385.06
393.433	379.06
393.658	367.06
393.882	369.06
394.107	372.06
394.331	388.06
394.556	386.06
394.78	381.06
395.005	393.06
395.229	386.06
395.454	393.06
395.678	405.06
395.903	381.06
396.127	399.06
396.352	402.06
396.576	393.06
396.801	387.06
397.025	387.06
397.249	387.06
397.474	412.06
397.698	411.06
397.922	415.06
398.147	427.06
398.371	411.06
398.595	436.06
398.82	435.06
399.044	474.06
399.268	465.06
399.492	523.06
399.717	558.06
399.941	576.06
400.165	549.06
400.389	515.06
400.613	491.06
400.837	464.06
401.062	452.06
401.286	464.06
401.51	421.06
401.734	414.06
401.958	443.06
402.182	445.06
402.406	454.06
402.63	464.06
402.854	467.06
403.078	456.06
403.302	464.06
403.526	472.06
403.75	453.06
403.974	475.06
404.198	477.06
404.422	482.06
404.645	486.06
404.869	472.06
405.093	483.06
405.317	510.06
405.541	528.06
405.765	516.06
405.988	498.06
406.212	475.06
406.436	496.06
406.66	497.06
406.883	494.06
407.107	513.06
407.331	537.06
407.555	591.06
407.778	589.06
408.002	531.06
408.226	492.06
408.449	496.06
408.673	496.06
408.896	524.06
409.12	507.06
409.344	490.06
409.567	455.06
409.791	455.06
410.014	458.06
410.238	468.06
410.461	454.06
410.685	449.06
410.908	457.06
411.132	485.06
411.355	485.06
411.578	491.06
411.802	444.06
412.025	466.06
412.249	473.06
412.472	472.06
412.695	502.06
412.919	478.06
413.142	465.06
413.365	456.06
413.589	427.06
413.812	437.06
414.035	435.06
414.258	419.06
414.482	451.06
414.705	457.06
414.928	444.06
415.151	446.06
415.374	444.06
415.597	405.06
415.821	438.06
416.044	440.06
416.267	421.06
416.49	437.06
416.713	449.06
416.936	443.06
417.159	453.06
417.382	440.06
417.605	432.06
417.828	439.06
418.051	445.06
418.274	418.06
418.497	440.06
418.72	439.06
418.943	443.06
419.166	459.06
419.389	488.06
419.611	470.06
419.834	470.06
420.057	454.06
420.28	449.06
420.503	452.06
420.726	469.06
420.948	459.06
421.171	494.06
421.394	488.06
421.617	457.06
421.839	428.06
422.062	445.06
422.285	465.06
422.507	461.06
422.73	501.06
422.953	519.06
423.175	476.06
423.398	458.06
423.621	462.06
423.843	466.06
424.066	457.06
424.288	460.06
424.511	466.06
424.733	494.06
424.956	547.06
425.178	542.06
425.401	507.06
425.623	522.06
425.846	484.06
426.068	451.06
426.291	429.06
426.513	439.06
426.735	456.06
426.958	478.06
427.18	533.06
427.402	588.06
427.625	639.06
427.847	559.06
428.069	494.06
428.292	465.06
428.514	433.06
428.736	419.06
428.958	412.06
429.181	439.06
429.403	407.06
429.625	429.06
429.847	411.06
430.069	465.06
430.292	471.06
430.514	417.06
430.736	409.06
430.958	413.06
431.18	415.06
431.402	405.06
431.624	401.06
431.846	401.06
432.068	404.06
432.29	396.06
432.512	408.06
432.734	420.06
432.956	391.06
433.178	412.06
433.4	409.06
433.622	395.06
433.844	412.06
434.066	388.06
434.287	399.06
434.509	429.06
434.731	439.06
434.953	424.06
435.175	439.06
435.397	464.06
435.618	456.06
435.84	500.06
436.062	519.06
436.284	538.06
436.505	470.06
436.727	447.06
436.949	441.06
437.17	417.06
437.392	419.06
437.614	432.06
437.835	430.06
438.057	488.06
438.278	543.06
438.5	519.06
438.721	601.06
438.943	563.06
439.165	465.06
439.386	443.06
439.608	453.06
439.829	439.06
440.05	461.06
440.272	515.06
440.493	450.06
440.715	446.06
440.936	448.06
441.158	439.06
441.379	430.06
441.6	459.06
441.822	465.06
442.043	495.06
442.264	527.06
442.486	565.06
442.707	494.06
442.928	456.06
443.149	472.06
443.371	476.06
443.592	511.06
443.813	555.06
444.034	593.06
444.255	535.06
444.476	494.06
444.698	513.06
444.919	489.06
445.14	583.06
445.361	537.06
445.582	504.06
445.803	491.06
446.024	549.06
446.245	572.06
446.466	527.06
446.687	478.06
446.908	445.06
447.129	417.06
447.35	421.06
447.571	398.06
447.792	411.06
448.013	409.06
448.234	432.06
448.455	445.06
448.675	506.06
448.896	569.06
449.117	465.06
449.338	484.06
449.559	539.06
449.779	583.06
450	468.06
450.221	437.06
450.442	408.06
450.662	401.06
450.883	399.06
451.104	387.06
451.324	383.06
451.545	393.06
451.766	375.06
451.986	377.06
452.207	376.06
452.428	382.06
452.648	359.06
452.869	374.06
453.089	387.06
453.31	392.06
453.53	394.06
453.751	398.06
453.971	388.06
454.192	390.06
454.412	378.06
454.633	371.06
454.853	349.06
455.073	380.06
455.294	375.06
455.514	420.06
455.734	390.06
455.955	371.06
456.175	354.06
456.395	356.06
456.616	367.06
456.836	347.06
457.056	359.06
457.276	355.06
457.497	351.06
457.717	347.06
457.937	362.06
458.157	364.06
458.377	375.06
458.598	395.06
458.818	417.06
459.038	470.06
459.258	473.06
459.478	419.06
459.698	415.06
459.918	429.06
460.138	427.06
460.358	444.06
460.578	435.06
460.798	431.06
461.018	461.06
461.238	452.06
461.458	427.06
461.678	416.06
461.898	439.06
462.118	443.06
462.338	455.06
462.558	463.06
462.777	463.06
462.997	510.06
463.217	489.06
463.437	502.06
463.657	487.06
463.876	488.06
464.096	458.06
464.316	485.06
464.536	492.06
464.755	492.06
464.975	471.06
465.195	476.06
465.414	522.06
465.634	449.06
465.854	429.06
466.073	395.06
466.293	427.06
466.512	413.06
466.732	413.06
466.951	385.06
467.171	399.06
467.391	385.06
467.61	417.06
467.829	404.06
468.049	393.06
468.268	384.06
468.488	405.06
468.707	391.06
468.927	391.06
469.146	384.06
469.365	378.06
469.585	375.06
469.804	413.06
470.023	393.06
470.243	390.06
470.462	408.06
470.681	400.06
470.901	422.06
471.12	413.06
471.339	428.06
471.558	425.06
471.777	402.06
471.997	414.06
472.216	391.06
472.435	417.06
472.654	398.06
472.873	391.06
473.092	379.06
473.311	375.06
473.53	371.06
473.749	385.06
473.968	408.06
474.187	475.06
474.406	468.06
474.625	408.06
474.844	391.06
475.063	376.06
475.282	394.06
475.501	391.06
475.72	383.06
475.939	399.06
476.158	390.06
476.377	415.06
476.596	407.06
476.814	408.06
477.033	409.06
477.252	402.06
477.471	426.06
477.69	431.06
477.908	433.06
478.127	444.06
478.346	432.06
478.564	458.06
478.783	449.06
479.002	451.06
479.22	456.06
479.439	484.06
479.658	475.06
479.876	472.06
480.095	473.06
480.313	493.06
480.532	513.06
480.751	504.06
480.969	515.06
481.188	517.06
481.406	542.06
481.624	516.06
481.843	462.06
482.061	447.06
482.28	454.06
482.498	456.06
482.717	443.06
482.935	452.06
483.153	437.06
483.372	461.06
483.59	457.06
483.808	448.06
484.027	456.06
484.245	455.06
484.463	455.06
484.681	471.06
484.9	486.06
485.118	459.06
485.336	471.06
485.554	474.06
485.772	481.06
485.99	457.06
486.209	485.06
486.427	462.06
486.645	479.06
486.863	482.06
487.081	478.06
487.299	471.06
487.517	475.06
487.735	469.06
487.953	464.06
488.171	487.06
488.389	474.06
488.607	473.06
488.825	476.06
489.043	492.06
489.261	486.06
489.479	478.06
489.696	486.06
489.914	479.06
490.132	474.06
490.35	482.06
490.568	519.06
490.786	518.06
491.003	507.06
491.221	533.06
491.439	544.06
491.657	552.06
491.874	536.06
492.092	543.06
492.31	564.06
492.527	552.06
492.745	571.06
492.963	533.06
493.18	566.06
493.398	581.06
493.615	562.06
493.833	558.06
494.05	548.06
494.268	563.06
494.485	587.06
494.703	555.06
494.92	558.06
495.138	569.06
495.355	567.06
495.573	554.06
495.79	567.06
496.008	544.06
496.225	560.06
496.442	557.06
496.66	549.06
496.877	564.06
497.094	552.06
497.312	583.06
497.529	592.06
497.746	585.06
497.963	592.06
498.181	623.06
498.398	630.06
498.615	643.06
498.832	675.06
499.049	711.06
499.267	708.06
499.484	767.06
499.701	777.06
499.918	831.06
500.135	901.06
500.352	984.06
500.569	1004.06
500.786	976.06
501.003	956.06
501.22	918.06
501.437	857.06
501.654	785.06
501.871	760.06
502.088	737.06
502.305	691.06
502.522	651.06
502.739	656.06
502.956	608.06
503.172	639.06
503.389	586.06
503.606	589.06
503.823	586.06
504.04	587.06
504.256	595.06
504.473	589.06
504.69	592.06
504.907	582.06
505.123	546.06
505.34	568.06
505.557	529.06
505.773	523.06
505.99	514.06
506.207	531.06
506.423	523.06
506.64	508.06
506.856	501.06
507.073	500.06
507.289	506.06
507.506	514.06
507.722	515.06
507.939	507.06
508.155	515.06
508.372	471.06
508.588	486.06
508.805	467.06
509.021	476.06
509.238	494.06
509.454	501.06
509.67	509.06
509.887	491.06
510.103	495.06
510.319	472.06
510.536	527.06
510.752	783.06
510.968	676.06
511.184	481.06
511.401	469.06
511.617	463.06
511.833	457.06
512.049	461.06
512.265	464.06
512.481	462.06
512.698	453.06
512.914	455.06
513.13	450.06
513.346	473.06
513.562	459.06
513.778	465.06
513.994	446.06
514.21	463.06
514.426	473.06
514.642	493.06
514.858	503.06
515.074	515.06
515.29	600.06
515.506	839.06
515.721	714.06
515.937	521.06
516.153	481.06
516.369	511.06
516.585	509.06
516.801	497.06
517.016	505.06
517.232	537.06
517.448	515.06
517.664	526.06
517.879	514.06
518.095	515.06
518.311	515.06
518.527	518.06
518.742	511.06
518.958	494.06
519.173	494.06
519.389	484.06
519.605	464.06
519.82	483.06
520.036	477.06
520.251	490.06
520.467	505.06
520.682	463.06
520.898	473.06
521.113	483.06
521.329	493.06
521.544	540.06
521.76	656.06
521.975	1002.06
522.19	1011.06
522.406	597.06
522.621	499.06
522.836	449.06
523.052	444.06
523.267	430.06
523.482	453.06
523.698	420.06
523.913	423.06
524.128	409.06
524.343	425.06
524.559	393.06
524.774	404.06
524.989	430.06
525.204	400.06
525.419	418.06
525.634	389.06
525.849	389.06
526.064	388.06
526.28	379.06
526.495	400.06
526.71	392.06
526.925	382.06
527.14	408.06
527.355	391.06
527.57	383.06
527.785	399.06
527.999	373.06
528.214	391.06
528.429	384.06
528.644	379.06
528.859	393.06
529.074	395.06
529.289	397.06
529.503	460.06
529.718	407.06
529.933	382.06
530.148	390.06
530.363	386.06
530.577	384.06
530.792	384.06
531.007	360.06
531.221	384.06
531.436	367.06
531.651	381.06
531.865	379.06
532.08	386.06
532.295	391.06
532.509	365.06
532.724	375.06
532.938	366.06
533.153	381.06
533.367	369.06
533.582	381.06
533.796	377.06
534.011	367.06
534.225	379.06
534.44	381.06
534.654	379.06
534.868	382.06
535.083	378.06
535.297	369.06
535.511	389.06
535.726	386.06
535.94	367.06
536.154	363.06
536.369	351.06
536.583	356.06
536.797	379.06
537.011	369.06
537.225	360.06
537.44	361.06
537.654	371.06
537.868	359.06
538.082	371.06
538.296	350.06
538.51	373.06
538.724	351.06
538.938	352.06
539.153	356.06
539.367	365.06
539.581	337.06
539.795	355.06
540.009	359.06
540.222	354.06
540.436	351.06
540.65	357.06
540.864	365.06
541.078	374.06
541.292	365.06
541.506	350.06
541.72	372.06
541.934	363.06
542.147	373.06
542.361	360.06
542.575	371.06
542.789	359.06
543.002	363.06
543.216	366.06
543.43	379.06
543.644	360.06
543.857	355.06
544.071	378.06
544.285	341.06
544.498	359.06
544.712	363.06
544.925	361.06
545.139	355.06
545.352	365.06
545.566	380.06
545.779	359.06
545.993	375.06
546.206	374.06
546.42	352.06
546.633	376.06
546.847	367.06
547.06	343.06
547.274	361.06
547.487	356.06
547.7	357.06
547.914	371.06
548.127	363.06
548.34	382.06
548.554	349.06
548.767	362.06
548.98	363.06
549.193	362.06
549.407	373.06
549.62	360.06
549.833	363.06
550.046	361.06
550.259	359.06
550.473	358.06
550.686	341.06
550.899	360.06
551.112	349.06
551.325	359.06
551.538	326.06
551.751	351.06
551.964	349.06
552.177	340.06
552.39	357.06
552.603	351.06
552.816	368.06
553.029	363.06
553.242	381.06
553.455	367.06
553.667	400.06
553.88	387.06
554.093	377.06
554.306	391.06
554.519	373.06
554.732	367.06
554.944	358.06
555.157	330.06
555.37	340.06
555.583	359.06
555.795	326.06
556.008	327.06
556.221	344.06
556.433	339.06
556.646	337.06
556.859	319.06
557.071	311.06
557.284	334.06
557.496	341.06
557.709	320.06
557.921	310.06
558.134	307.06
558.346	288.06
558.559	311.06
558.771	309.06
558.984	329.06
559.196	301.06
559.409	315.06
559.621	307.06
559.833	325.06
560.046	310.06
560.258	312.06
560.47	320.06
560.683	309.06
560.895	313.06
561.107	297.06
561.32	312.06
561.532	327.06
561.744	311.06
561.956	315.06
562.168	321.06
562.381	332.06
562.593	316.06
562.805	318.06
563.017	308.06
563.229	329.06
563.441	331.06
563.653	318.06
563.865	302.06
564.077	316.06
564.289	327.06
564.501	315.06
564.713	321.06
564.925	331.06
565.137	337.06
565.349	336.06
565.561	360.06
565.773	364.06
565.985	377.06
566.197	379.06
566.408	397.06
566.62	423.06
566.832	414.06
567.044	460.06
567.255	445.06
567.467	448.06
567.679	471.06
567.891	510.06
568.102	471.06
568.314	462.06
568.526	439.06
568.737	404.06
568.949	391.06
569.161	355.06
569.372	336.06
569.584	339.06
569.795	332.06
570.007	355.06
570.218	326.06
570.43	354.06
570.641	315.06
570.853	325.06
571.064	333.06
571.276	327.06
571.487	318.06
571.698	304.06
571.91	314.06
572.121	296.06
572.333	293.06
572.544	300.06
572.755	293.06
572.966	281.06
573.178	284.06
573.389	286.06
573.6	284.06
573.811	273.06
574.023	292.06
574.234	282.06
574.445	274.06
574.656	272.06
574.867	283.06
575.078	294.06
575.289	283.06
575.501	268.06
575.712	281.06
575.923	282.06
576.134	258.06
576.345	275.06
576.556	262.06
576.767	268.06
576.978	271.06
577.188	270.06
577.399	278.06
577.61	240.06
577.821	269.06
578.032	280.06
578.243	285.06
578.454	399.06
578.665	319.06
578.875	269.06
579.086	243.06
579.297	246.06
579.508	238.06
579.718	257.06
579.929	267.06
580.14	235.06
580.35	237.06
580.561	252.06
580.772	260.06
580.982	253.06
581.193	247.06
581.403	244.06
581.614	266.06
581.825	247.06
582.035	247.06
582.246	243.06
582.456	238.06
582.667	251.06
582.877	257.06
583.087	244.06
583.298	236.06
583.508	233.06
583.719	247.06
583.929	253.06
584.139	253.06
584.35	245.06
584.56	227.06
584.77	250.06
584.981	235.06
585.191	244.06
585.401	238.06
585.611	217.06
585.821	234.06
586.032	263.06
586.242	219.06
586.452	249.06
586.662	251.06
586.872	230.06
587.082	239.06
587.292	250.06
587.502	243.06
587.713	234.06
587.923	236.06
588.133	248.06
588.343	239.06
588.553	240.06
588.762	231.06
588.972	239.06
589.182	235.06
589.392	243.06
589.602	241.06
589.812	230.06
590.022	242.06
590.232	247.06
590.441	234.06
590.651	232.06
590.861	246.06
591.071	220.06
591.281	248.06
591.49	239.06
591.7	261.06
591.91	263.06
592.119	268.06
592.329	271.06
592.539	257.06
592.748	282.06
592.958	276.06
593.167	255.06
593.377	282.06
593.587	287.06
593.796	277.06
594.006	280.06
594.215	275.06
594.424	294.06
594.634	293.06
594.843	283.06
595.053	281.06
595.262	253.06
595.472	263.06
595.681	259.06
595.89	247.06
596.1	243.06
596.309	247.06
596.518	237.06
596.727	241.06
596.937	227.06
597.146	235.06
597.355	221.06
597.564	219.06
597.774	220.06
597.983	223.06
598.192	216.06
598.401	234.06
598.61	223.06
598.819	221.06
599.028	215.06
599.237	226.06
599.446	224.06
599.655	216.06
599.864	220.06
600.073	228.06
600.282	228.06
600.491	229.06
600.7	237.06
600.909	213.06
601.118	201.06
601.327	226.06
601.536	228.06
601.745	203.06
601.953	224.06
602.162	211.06
602.371	214.06
602.58	211.06
602.789	217.06
602.997	210.06
603.206	227.06
603.415	240.06
603.623	215.06
603.832	200.06
604.041	221.06
604.249	215.06
604.458	218.06
604.666	195.06
604.875	199.06
605.084	207.06
605.292	208.06
605.501	195.06
605.709	221.06
605.918	200.06
606.126	201.06
606.334	212.06
606.543	222.06
606.751	200.06
606.96	192.06
607.168	207.06
607.376	196.06
607.585	198.06
607.793	210.06
608.001	214.06
608.21	230.06
608.418	214.06
608.626	198.06
608.834	208.06
609.043	224.06
609.251	218.06
609.459	202.06
609.667	216.06
609.875	196.06
610.083	204.06
610.291	200.06
610.499	222.06
610.707	213.06
610.916	202.06
611.124	220.06
611.332	234.06
611.54	211.06
611.748	223.06
611.955	198.06
612.163	197.06
612.371	193.06
612.579	207.06
612.787	194.06
612.995	197.06
613.203	206.06
613.411	224.06
613.618	215.06
613.826	209.06
614.034	204.06
614.242	206.06
614.449	204.06
614.657	188.06
614.865	187.06
615.072	199.06
615.28	193.06
615.488	195.06
615.695	203.06
615.903	208.06
616.111	190.06
616.318	215.06
616.526	220.06
616.733	197.06
616.941	213.06
617.148	192.06
617.356	199.06
617.563	190.06
617.771	203.06
617.978	206.06
618.185	207.06
618.393	197.06
618.6	227.06
618.807	210.06
619.015	196.06
619.222	205.06
619.429	204.06
619.637	196.06
619.844	188.06
620.051	189.06
620.258	202.06
620.466	195.06
620.673	201.06
620.88	187.06
621.087	191.06
621.294	190.06
621.501	198.06
621.708	211.06
621.915	189.06
622.122	197.06
622.329	195.06
622.536	192.06
622.743	182.06
622.95	186.06
623.157	185.06
623.364	201.06
623.571	177.06
623.778	188.06
623.985	195.06
624.192	211.06
624.399	200.06
624.606	194.06
624.812	188.06
625.019	179.06
625.226	180.06
625.433	197.06
625.639	186.06
625.846	179.06
626.053	176.06
626.259	173.06
626.466	174.06
626.673	190.06
626.879	173.06
627.086	179.06
627.293	181.06
627.499	182.06
627.706	199.06
627.912	187.06
628.119	174.06
628.325	191.06
628.532	165.06
628.738	163.06
628.945	171.06
629.151	183.06
629.357	199.06
629.564	188.06
629.77	181.06
629.976	175.06
630.183	179.06
630.389	186.06
630.595	174.06
630.802	187.06
631.008	171.06
631.214	180.06
631.42	183.06
631.627	159.06
631.833	181.06
632.039	169.06
632.245	179.06
632.451	176.06
632.657	171.06
632.863	158.06
633.069	166.06
633.275	167.06
633.481	167.06
633.688	171.06
633.893	174.06
634.099	165.06
634.305	179.06
634.511	167.06
634.717	166.06
634.923	171.06
635.129	166.06
635.335	177.06
635.541	166.06
635.747	147.06
635.952	173.06
636.158	160.06
636.364	164.06
636.57	163.06
636.775	174.06
636.981	164.06
637.187	164.06
637.392	170.06
637.598	157.06
637.804	160.06
638.009	161.06
638.215	153.06
638.421	155.06
638.626	138.06
638.832	158.06
639.037	161.06
639.243	145.06
639.448	161.06
639.654	166.06
639.859	159.06
640.065	149.06
640.27	160.06
640.475	156.06
640.681	148.06
640.886	163.06
641.091	143.06
641.297	157.06
641.502	152.06
641.707	158.06
641.913	156.06
642.118	172.06
642.323	152.06
642.528	164.06
642.733	167.06
642.939	153.06
643.144	153.06
643.349	150.06
643.554	156.06
643.759	160.06
643.964	158.06
644.169	155.06
644.374	155.06
644.579	156.06
644.784	157.06
644.989	149.06
645.194	144.06
645.399	172.06
645.604	150.06
645.809	144.06
646.014	155.06
646.219	158.06
646.423	150.06
646.628	150.06
646.833	152.06
647.038	153.06
647.243	155.06
647.447	155.06
647.652	151.06
647.857	163.06
648.062	140.06
648.266	158.06
648.471	162.06
648.676	176.06
648.88	169.06
649.085	168.06
649.289	132.06
649.494	163.06
649.698	161.06
649.903	169.06
650.107	158.06
650.312	145.06
650.516	165.06
650.721	135.06
650.925	139.06
651.13	155.06
651.334	136.06
651.539	145.06
651.743	144.06
651.947	137.06
652.152	129.06
652.356	145.06
652.56	144.06
652.764	143.06
652.969	145.06
653.173	149.06
653.377	133.06
653.581	132.06
653.785	126.06
653.99	130.06
654.194	123.06
654.398	132.06
654.602	139.06
654.806	131.06
655.01	141.06
655.214	133.06
655.418	121.06
655.622	124.06
655.826	133.06
656.03	133.06
656.234	118.06
656.438	125.06
656.642	142.06
656.846	130.06
657.049	138.06
657.253	129.06
657.457	124.06
657.661	135.06
657.865	113.06
658.068	115.06
658.272	110.06
658.476	112.06
658.68	102.06
658.883	114.06
659.087	102.06
659.291	114.06
659.494	108.06
659.698	100.06
659.901	105.06
660.105	103.06
660.309	99.06
660.512	102.06
660.716	93.06
660.919	84.06
661.123	117.06
661.326	91.06
661.53	87.06
661.733	117.06
661.936	95.06
662.14	83.06
662.343	91.06
662.546	84.06
662.75	90.06
662.953	103.06
663.156	77.06
663.36	84.06
663.563	86.06
663.766	95.06
663.969	76.06
664.173	89.06
664.376	88.06
664.579	96.06
664.782	83.06
664.985	84.06
665.188	85.06
665.391	106.06
665.594	83.06
665.797	84.06
666	79.06
666.203	89.06
666.406	79.06
666.609	97.06
666.812	78.06
667.015	83.06
667.218	91.06
667.421	86.06
667.624	83.06
667.827	85.06
668.03	79.06
668.232	80.06
668.435	84.06
668.638	78.06
668.841	100.06
669.043	74.06
669.246	78.06
669.449	81.06
669.651	75.06
669.854	76.06
670.057	90.06
670.259	93.06
670.462	78.06
670.665	87.06
670.867	93.06
671.07	89.06
671.272	88.06
671.475	88.06
671.677	94.06
671.88	79.06
672.082	82.06
672.284	83.06
672.487	88.06
672.689	73.06
672.892	67.06
