Data from 1969.PennyLincolnUp.Lamp.En5.5.200Scan.071719.P1._HRD10591_14-55-29-972.txt Node
Date: Thu Jul 18 14:55:29 EDT 2019
User: cochatt
Spectrometer: HR+D1059
Trigger mode: 1
Integration Time (sec): 1.000000E-1
Scans to average: 1
Electric dark correction enabled: true
Nonlinearity correction enabled: false
Boxcar width: 0
XAxis mode: Wavelengths
Number of Pixels in Spectrum: 2048
>>>>>Begin Spectral Data<<<<<
223.165	-21.31
223.4	-21.31
223.635	-21.31
223.869	-3.31
224.104	-20.31
224.338	-11.31
224.573	-8.31
224.808	-5.31
225.042	-22.31
225.277	-5.31
225.511	-8.31
225.746	2.69
225.98	15.69
226.215	14.69
226.449	4.69
226.683	16.69
226.918	19.69
227.152	31.69
227.387	31.69
227.621	38.69
227.856	42.69
228.09	41.69
228.324	44.69
228.559	42.69
228.793	66.69
229.027	88.69
229.262	92.69
229.496	106.69
229.73	119.69
229.964	102.69
230.199	102.69
230.433	92.69
230.667	97.69
230.901	102.69
231.136	98.69
231.37	90.69
231.604	97.69
231.838	92.69
232.072	96.69
232.306	98.69
232.541	89.69
232.775	110.69
233.009	95.69
233.243	82.69
233.477	105.69
233.711	95.69
233.945	105.69
234.179	92.69
234.413	99.69
234.647	100.69
234.881	104.69
235.115	102.69
235.349	106.69
235.583	113.69
235.817	104.69
236.051	94.69
236.285	111.69
236.519	110.69
236.753	104.69
236.987	119.69
237.221	135.69
237.455	173.69
237.689	144.69
237.922	116.69
238.156	122.69
238.39	97.69
238.624	98.69
238.858	104.69
239.091	107.69
239.325	105.69
239.559	117.69
239.793	99.69
240.027	110.69
240.26	126.69
240.494	123.69
240.728	115.69
240.961	123.69
241.195	111.69
241.429	111.69
241.662	121.69
241.896	123.69
242.13	104.69
242.363	106.69
242.597	128.69
242.83	126.69
243.064	111.69
243.298	116.69
243.531	140.69
243.765	122.69
243.998	112.69
244.232	129.69
244.465	128.69
244.699	119.69
244.932	117.69
245.166	125.69
245.399	120.69
245.633	129.69
245.866	129.69
246.099	121.69
246.333	123.69
246.566	131.69
246.8	143.69
247.033	139.69
247.266	141.69
247.5	143.69
247.733	127.69
247.966	141.69
248.2	153.69
248.433	156.69
248.666	154.69
248.899	159.69
249.133	171.69
249.366	174.69
249.599	169.69
249.832	166.69
250.066	139.69
250.299	152.69
250.532	162.69
250.765	165.69
250.998	184.69
251.231	199.69
251.465	163.69
251.698	162.69
251.931	160.69
252.164	154.69
252.397	172.69
252.63	150.69
252.863	176.69
253.096	154.69
253.329	161.69
253.562	165.69
253.795	175.69
254.028	185.69
254.261	170.69
254.494	176.69
254.727	210.69
254.96	205.69
255.193	182.69
255.426	178.69
255.659	185.69
255.892	171.69
256.124	198.69
256.357	185.69
256.59	185.69
256.823	176.69
257.056	155.69
257.289	163.69
257.521	176.69
257.754	158.69
257.987	174.69
258.22	176.69
258.452	176.69
258.685	167.69
258.918	175.69
259.151	187.69
259.383	171.69
259.616	187.69
259.849	202.69
260.081	200.69
260.314	199.69
260.547	209.69
260.779	196.69
261.012	185.69
261.244	194.69
261.477	192.69
261.71	191.69
261.942	194.69
262.175	191.69
262.407	182.69
262.64	171.69
262.872	189.69
263.105	167.69
263.337	195.69
263.57	185.69
263.802	197.69
264.035	169.69
264.267	191.69
264.499	183.69
264.732	185.69
264.964	192.69
265.197	186.69
265.429	163.69
265.661	194.69
265.894	180.69
266.126	195.69
266.358	180.69
266.591	190.69
266.823	192.69
267.055	188.69
267.287	194.69
267.52	195.69
267.752	186.69
267.984	202.69
268.216	187.69
268.448	188.69
268.681	186.69
268.913	214.69
269.145	219.69
269.377	221.69
269.609	216.69
269.841	211.69
270.073	223.69
270.306	218.69
270.538	264.69
270.77	238.69
271.002	247.69
271.234	229.69
271.466	257.69
271.698	236.69
271.93	260.69
272.162	224.69
272.394	240.69
272.626	237.69
272.858	236.69
273.09	250.69
273.322	218.69
273.553	211.69
273.785	214.69
274.017	213.69
274.249	215.69
274.481	214.69
274.713	224.69
274.945	224.69
275.176	223.69
275.408	212.69
275.64	236.69
275.872	202.69
276.104	225.69
276.335	206.69
276.567	230.69
276.799	228.69
277.031	263.69
277.262	251.69
277.494	268.69
277.726	266.69
277.957	244.69
278.189	225.69
278.421	234.69
278.652	230.69
278.884	225.69
279.115	229.69
279.347	229.69
279.579	226.69
279.81	221.69
280.042	226.69
280.273	231.69
280.505	240.69
280.736	219.69
280.968	223.69
281.199	219.69
281.431	229.69
281.662	250.69
281.894	242.69
282.125	221.69
282.356	231.69
282.588	243.69
282.819	255.69
283.051	231.69
283.282	236.69
283.513	250.69
283.745	243.69
283.976	235.69
284.207	254.69
284.439	248.69
284.67	231.69
284.901	243.69
285.132	253.69
285.364	228.69
285.595	235.69
285.826	229.69
286.057	235.69
286.288	243.69
286.52	231.69
286.751	253.69
286.982	260.69
287.213	236.69
287.444	258.69
287.675	249.69
287.906	255.69
288.138	280.69
288.369	257.69
288.6	260.69
288.831	271.69
289.062	274.69
289.293	256.69
289.524	247.69
289.755	251.69
289.986	240.69
290.217	252.69
290.448	238.69
290.679	253.69
290.91	253.69
291.141	251.69
291.371	238.69
291.602	248.69
291.833	242.69
292.064	241.69
292.295	282.69
292.526	264.69
292.757	267.69
292.987	264.69
293.218	260.69
293.449	260.69
293.68	236.69
293.91	262.69
294.141	249.69
294.372	254.69
294.603	261.69
294.833	263.69
295.064	264.69
295.295	255.69
295.525	267.69
295.756	254.69
295.987	250.69
296.217	290.69
296.448	262.69
296.679	283.69
296.909	258.69
297.14	256.69
297.37	257.69
297.601	258.69
297.831	269.69
298.062	264.69
298.292	266.69
298.523	266.69
298.753	266.69
298.984	278.69
299.214	286.69
299.445	260.69
299.675	263.69
299.905	268.69
300.136	288.69
300.366	286.69
300.597	286.69
300.827	282.69
301.057	289.69
301.288	275.69
301.518	259.69
301.748	287.69
301.979	279.69
302.209	296.69
302.439	289.69
302.669	294.69
302.9	275.69
303.13	273.69
303.36	275.69
303.59	290.69
303.82	288.69
304.051	290.69
304.281	293.69
304.511	310.69
304.741	304.69
304.971	284.69
305.201	275.69
305.431	277.69
305.661	285.69
305.891	287.69
306.121	273.69
306.352	302.69
306.582	290.69
306.812	281.69
307.042	287.69
307.272	298.69
307.502	280.69
307.731	272.69
307.961	295.69
308.191	274.69
308.421	277.69
308.651	282.69
308.881	299.69
309.111	278.69
309.341	276.69
309.571	285.69
309.8	302.69
310.03	294.69
310.26	303.69
310.49	299.69
310.72	310.69
310.949	322.69
311.179	316.69
311.409	312.69
311.639	300.69
311.868	320.69
312.098	318.69
312.328	329.69
312.557	306.69
312.787	306.69
313.017	310.69
313.246	327.69
313.476	314.69
313.706	318.69
313.935	321.69
314.165	311.69
314.394	309.69
314.624	327.69
314.853	313.69
315.083	290.69
315.312	318.69
315.542	310.69
315.771	316.69
316.001	311.69
316.23	314.69
316.46	316.69
316.689	313.69
316.919	300.69
317.148	321.69
317.377	306.69
317.607	326.69
317.836	331.69
318.065	314.69
318.295	326.69
318.524	327.69
318.753	315.69
318.983	312.69
319.212	316.69
319.441	326.69
319.67	306.69
319.9	300.69
320.129	302.69
320.358	339.69
320.587	340.69
320.816	306.69
321.046	284.69
321.275	334.69
321.504	332.69
321.733	323.69
321.962	309.69
322.191	332.69
322.42	329.69
322.649	356.69
322.878	363.69
323.108	358.69
323.337	346.69
323.566	370.69
323.795	366.69
324.024	403.69
324.253	458.69
324.482	585.69
324.71	872.69
324.939	1120.69
325.168	932.69
325.397	558.69
325.626	424.69
325.855	373.69
326.084	374.69
326.313	355.69
326.542	378.69
326.77	400.69
326.999	434.69
327.228	562.69
327.457	782.69
327.686	875.69
327.914	599.69
328.143	458.69
328.372	451.69
328.6	403.69
328.829	399.69
329.058	415.69
329.287	412.69
329.515	402.69
329.744	395.69
329.972	378.69
330.201	390.69
330.43	423.69
330.658	411.69
330.887	441.69
331.115	438.69
331.344	390.69
331.572	401.69
331.801	380.69
332.03	385.69
332.258	353.69
332.486	380.69
332.715	400.69
332.943	383.69
333.172	385.69
333.4	405.69
333.629	412.69
333.857	422.69
334.085	426.69
334.314	430.69
334.542	447.69
334.771	445.69
334.999	439.69
335.227	388.69
335.455	398.69
335.684	386.69
335.912	385.69
336.14	390.69
336.369	386.69
336.597	391.69
336.825	379.69
337.053	380.69
337.281	368.69
337.51	376.69
337.738	369.69
337.966	370.69
338.194	373.69
338.422	354.69
338.65	368.69
338.878	356.69
339.106	367.69
339.334	385.69
339.562	358.69
339.79	352.69
340.018	352.69
340.246	342.69
340.474	343.69
340.702	342.69
340.93	350.69
341.158	339.69
341.386	329.69
341.614	354.69
341.842	355.69
342.07	341.69
342.298	347.69
342.526	328.69
342.754	329.69
342.981	346.69
343.209	342.69
343.437	363.69
343.665	369.69
343.893	352.69
344.12	368.69
344.348	366.69
344.576	355.69
344.804	378.69
345.031	354.69
345.259	366.69
345.487	353.69
345.714	337.69
345.942	337.69
346.17	339.69
346.397	333.69
346.625	350.69
346.853	337.69
347.08	337.69
347.308	320.69
347.535	336.69
347.763	324.69
347.99	345.69
348.218	334.69
348.445	339.69
348.673	348.69
348.9	335.69
349.128	311.69
349.355	330.69
349.583	341.69
349.81	307.69
350.037	335.69
350.265	313.69
350.492	322.69
350.72	340.69
350.947	329.69
351.174	340.69
351.402	336.69
351.629	338.69
351.856	335.69
352.083	330.69
352.311	327.69
352.538	351.69
352.765	337.69
352.992	330.69
353.22	329.69
353.447	325.69
353.674	339.69
353.901	330.69
354.128	321.69
354.355	319.69
354.583	343.69
354.81	312.69
355.037	313.69
355.264	319.69
355.491	326.69
355.718	327.69
355.945	326.69
356.172	319.69
356.399	328.69
356.626	310.69
356.853	321.69
357.08	308.69
357.307	326.69
357.534	328.69
357.761	313.69
357.988	316.69
358.215	317.69
358.441	312.69
358.668	319.69
358.895	324.69
359.122	317.69
359.349	313.69
359.576	328.69
359.802	343.69
360.029	359.69
360.256	350.69
360.483	366.69
360.709	337.69
360.936	328.69
361.163	336.69
361.39	326.69
361.616	323.69
361.843	347.69
362.07	332.69
362.296	339.69
362.523	346.69
362.749	320.69
362.976	323.69
363.203	324.69
363.429	312.69
363.656	336.69
363.882	331.69
364.109	318.69
364.335	325.69
364.562	316.69
364.788	307.69
365.015	317.69
365.241	315.69
365.468	316.69
365.694	328.69
365.92	322.69
366.147	303.69
366.373	319.69
366.599	327.69
366.826	306.69
367.052	313.69
367.278	322.69
367.505	307.69
367.731	320.69
367.957	315.69
368.184	334.69
368.41	318.69
368.636	337.69
368.862	334.69
369.089	316.69
369.315	322.69
369.541	302.69
369.767	308.69
369.993	313.69
370.219	324.69
370.445	313.69
370.672	328.69
370.898	327.69
371.124	324.69
371.35	313.69
371.576	335.69
371.802	343.69
372.028	327.69
372.254	321.69
372.48	336.69
372.706	320.69
372.932	343.69
373.158	322.69
373.384	327.69
373.61	329.69
373.835	331.69
374.061	334.69
374.287	333.69
374.513	336.69
374.739	344.69
374.965	339.69
375.191	354.69
375.416	338.69
375.642	331.69
375.868	324.69
376.094	329.69
376.319	339.69
376.545	335.69
376.771	328.69
376.997	323.69
377.222	327.69
377.448	313.69
377.674	311.69
377.899	320.69
378.125	318.69
378.35	311.69
378.576	336.69
378.802	332.69
379.027	319.69
379.253	330.69
379.478	332.69
379.704	325.69
379.929	325.69
380.155	312.69
380.38	314.69
380.606	319.69
380.831	323.69
381.057	329.69
381.282	332.69
381.507	339.69
381.733	345.69
381.958	335.69
382.184	318.69
382.409	331.69
382.634	332.69
382.86	338.69
383.085	343.69
383.31	327.69
383.535	354.69
383.761	331.69
383.986	361.69
384.211	341.69
384.436	356.69
384.662	344.69
384.887	352.69
385.112	356.69
385.337	363.69
385.562	349.69
385.787	369.69
386.013	362.69
386.238	372.69
386.463	370.69
386.688	371.69
386.913	359.69
387.138	361.69
387.363	373.69
387.588	354.69
387.813	361.69
388.038	361.69
388.263	375.69
388.488	354.69
388.713	358.69
388.938	351.69
389.163	354.69
389.387	363.69
389.612	354.69
389.837	360.69
390.062	351.69
390.287	376.69
390.512	369.69
390.736	358.69
390.961	339.69
391.186	338.69
391.411	378.69
391.636	359.69
391.86	394.69
392.085	402.69
392.31	392.69
392.534	394.69
392.759	385.69
392.984	361.69
393.208	391.69
393.433	398.69
393.658	379.69
393.882	373.69
394.107	386.69
394.331	378.69
394.556	357.69
394.78	378.69
395.005	376.69
395.229	370.69
395.454	367.69
395.678	369.69
395.903	411.69
396.127	404.69
396.352	418.69
396.576	362.69
396.801	372.69
397.025	373.69
397.249	378.69
397.474	385.69
397.698	382.69
397.922	381.69
398.147	400.69
398.371	422.69
398.595	409.69
398.82	417.69
399.044	424.69
399.268	469.69
399.492	500.69
399.717	515.69
399.941	561.69
400.165	532.69
400.389	517.69
400.613	478.69
400.837	434.69
401.062	446.69
401.286	442.69
401.51	419.69
401.734	420.69
401.958	437.69
402.182	419.69
402.406	443.69
402.63	466.69
402.854	454.69
403.078	433.69
403.302	458.69
403.526	447.69
403.75	454.69
403.974	448.69
404.198	449.69
404.422	452.69
404.645	452.69
404.869	465.69
405.093	482.69
405.317	484.69
405.541	507.69
405.765	497.69
405.988	470.69
406.212	460.69
406.436	483.69
406.66	505.69
406.883	467.69
407.107	482.69
407.331	534.69
407.555	586.69
407.778	572.69
408.002	525.69
408.226	512.69
408.449	498.69
408.673	459.69
408.896	488.69
409.12	499.69
409.344	516.69
409.567	461.69
409.791	448.69
410.014	449.69
410.238	443.69
410.461	439.69
410.685	431.69
410.908	451.69
411.132	462.69
411.355	491.69
411.578	472.69
411.802	447.69
412.025	446.69
412.249	447.69
412.472	449.69
412.695	453.69
412.919	452.69
413.142	421.69
413.365	419.69
413.589	421.69
413.812	419.69
414.035	421.69
414.258	436.69
414.482	404.69
414.705	426.69
414.928	405.69
415.151	422.69
415.374	426.69
415.597	426.69
415.821	420.69
416.044	396.69
416.267	426.69
416.49	405.69
416.713	411.69
416.936	414.69
417.159	411.69
417.382	425.69
417.605	427.69
417.828	434.69
418.051	415.69
418.274	424.69
418.497	424.69
418.72	425.69
418.943	442.69
419.166	419.69
419.389	440.69
419.611	443.69
419.834	450.69
420.057	440.69
420.28	450.69
420.503	444.69
420.726	456.69
420.948	438.69
421.171	460.69
421.394	464.69
421.617	449.69
421.839	418.69
422.062	446.69
422.285	426.69
422.507	470.69
422.73	523.69
422.953	508.69
423.175	468.69
423.398	451.69
423.621	463.69
423.843	484.69
424.066	468.69
424.288	468.69
424.511	468.69
424.733	488.69
424.956	530.69
425.178	510.69
425.401	517.69
425.623	511.69
425.846	449.69
426.068	449.69
426.291	415.69
426.513	432.69
426.735	454.69
426.958	461.69
427.18	496.69
427.402	578.69
427.625	590.69
427.847	532.69
428.069	495.69
428.292	456.69
428.514	411.69
428.736	412.69
428.958	414.69
429.181	399.69
429.403	399.69
429.625	396.69
429.847	438.69
430.069	474.69
430.292	433.69
430.514	407.69
430.736	415.69
430.958	394.69
431.18	395.69
431.402	396.69
431.624	385.69
431.846	390.69
432.068	394.69
432.29	396.69
432.512	396.69
432.734	414.69
432.956	393.69
433.178	401.69
433.4	392.69
433.622	400.69
433.844	394.69
434.066	417.69
434.287	412.69
434.509	390.69
434.731	418.69
434.953	424.69
435.175	446.69
435.397	434.69
435.618	446.69
435.84	448.69
436.062	481.69
436.284	528.69
436.505	438.69
436.727	438.69
436.949	433.69
437.17	422.69
437.392	398.69
437.614	395.69
437.835	402.69
438.057	474.69
438.278	502.69
438.5	518.69
438.721	554.69
438.943	542.69
439.165	450.69
439.386	446.69
439.608	426.69
439.829	430.69
440.05	434.69
440.272	446.69
440.493	454.69
440.715	414.69
440.936	417.69
441.158	408.69
441.379	423.69
441.6	415.69
441.822	447.69
442.043	472.69
442.264	510.69
442.486	521.69
442.707	469.69
442.928	452.69
443.149	465.69
443.371	468.69
443.592	484.69
443.813	551.69
444.034	562.69
444.255	489.69
444.476	479.69
444.698	467.69
444.919	477.69
445.14	615.69
445.361	528.69
445.582	485.69
445.803	533.69
446.024	550.69
446.245	561.69
446.466	495.69
446.687	446.69
446.908	432.69
447.129	410.69
447.35	395.69
447.571	401.69
447.792	406.69
448.013	405.69
448.234	399.69
448.455	454.69
448.675	510.69
448.896	570.69
449.117	468.69
449.338	459.69
449.559	514.69
449.779	577.69
450	489.69
450.221	405.69
450.442	377.69
450.662	379.69
450.883	409.69
451.104	397.69
451.324	393.69
451.545	386.69
451.766	376.69
451.986	346.69
452.207	359.69
452.428	373.69
452.648	355.69
452.869	384.69
453.089	392.69
453.31	360.69
453.53	380.69
453.751	361.69
453.971	359.69
454.192	364.69
454.412	355.69
454.633	364.69
454.853	360.69
455.073	381.69
455.294	387.69
455.514	411.69
455.734	393.69
455.955	339.69
456.175	346.69
456.395	350.69
456.616	347.69
456.836	332.69
457.056	345.69
457.276	332.69
457.497	332.69
457.717	355.69
457.937	359.69
458.157	359.69
458.377	357.69
458.598	382.69
458.818	418.69
459.038	442.69
459.258	454.69
459.478	420.69
459.698	400.69
459.918	414.69
460.138	421.69
460.358	418.69
460.578	411.69
460.798	430.69
461.018	439.69
461.238	426.69
461.458	414.69
461.678	433.69
461.898	420.69
462.118	427.69
462.338	452.69
462.558	439.69
462.777	471.69
462.997	461.69
463.217	478.69
463.437	502.69
463.657	461.69
463.876	459.69
464.096	466.69
464.316	449.69
464.536	455.69
464.755	465.69
464.975	436.69
465.195	457.69
465.414	488.69
465.634	440.69
465.854	402.69
466.073	412.69
466.293	385.69
466.512	378.69
466.732	384.69
466.951	369.69
467.171	362.69
467.391	390.69
467.61	382.69
467.829	390.69
468.049	384.69
468.268	389.69
468.488	370.69
468.707	362.69
468.927	363.69
469.146	386.69
469.365	370.69
469.585	375.69
469.804	372.69
470.023	396.69
470.243	398.69
470.462	400.69
470.681	408.69
470.901	402.69
471.12	405.69
471.339	388.69
471.558	408.69
471.777	379.69
471.997	369.69
472.216	378.69
472.435	402.69
472.654	386.69
472.873	375.69
473.092	377.69
473.311	384.69
473.53	376.69
473.749	388.69
473.968	414.69
474.187	460.69
474.406	457.69
474.625	423.69
474.844	398.69
475.063	374.69
475.282	374.69
475.501	359.69
475.72	402.69
475.939	382.69
476.158	399.69
476.377	372.69
476.596	372.69
476.814	403.69
477.033	391.69
477.252	405.69
477.471	404.69
477.69	410.69
477.908	416.69
478.127	442.69
478.346	423.69
478.564	430.69
478.783	446.69
479.002	426.69
479.22	436.69
479.439	455.69
479.658	448.69
479.876	469.69
480.095	468.69
480.313	486.69
480.532	500.69
480.751	473.69
480.969	461.69
481.188	492.69
481.406	510.69
481.624	464.69
481.843	428.69
482.061	432.69
482.28	442.69
482.498	422.69
482.717	438.69
482.935	438.69
483.153	426.69
483.372	428.69
483.59	442.69
483.808	431.69
484.027	431.69
484.245	449.69
484.463	433.69
484.681	444.69
484.9	447.69
485.118	447.69
485.336	440.69
485.554	461.69
485.772	448.69
485.99	445.69
486.209	444.69
486.427	458.69
486.645	474.69
486.863	476.69
487.081	458.69
487.299	468.69
487.517	467.69
487.735	443.69
487.953	446.69
488.171	470.69
488.389	458.69
488.607	454.69
488.825	469.69
489.043	462.69
489.261	451.69
489.479	482.69
489.696	474.69
489.914	476.69
490.132	484.69
490.35	488.69
490.568	483.69
490.786	518.69
491.003	492.69
491.221	485.69
491.439	510.69
491.657	529.69
491.874	523.69
492.092	547.69
492.31	542.69
492.527	540.69
492.745	523.69
492.963	534.69
493.18	539.69
493.398	553.69
493.615	544.69
493.833	548.69
494.05	545.69
494.268	545.69
494.485	537.69
494.703	540.69
494.92	547.69
495.138	524.69
495.355	532.69
495.573	544.69
495.79	535.69
496.008	533.69
496.225	535.69
496.442	528.69
496.66	548.69
496.877	547.69
497.094	574.69
497.312	570.69
497.529	560.69
497.746	566.69
497.963	588.69
498.181	602.69
498.398	595.69
498.615	622.69
498.832	653.69
499.049	672.69
499.267	702.69
499.484	743.69
499.701	786.69
499.918	851.69
500.135	903.69
500.352	946.69
500.569	970.69
500.786	998.69
501.003	932.69
501.22	891.69
501.437	845.69
501.654	792.69
501.871	772.69
502.088	728.69
502.305	667.69
502.522	658.69
502.739	647.69
502.956	595.69
503.172	602.69
503.389	592.69
503.606	590.69
503.823	560.69
504.04	573.69
504.256	555.69
504.473	553.69
504.69	588.69
504.907	549.69
505.123	509.69
505.34	525.69
505.557	530.69
505.773	520.69
505.99	525.69
506.207	519.69
506.423	514.69
506.64	534.69
506.856	488.69
507.073	495.69
507.289	518.69
507.506	483.69
507.722	486.69
507.939	487.69
508.155	475.69
508.372	467.69
508.588	480.69
508.805	456.69
509.021	451.69
509.238	476.69
509.454	460.69
509.67	480.69
509.887	472.69
510.103	460.69
510.319	468.69
510.536	525.69
510.752	715.69
510.968	642.69
511.184	452.69
511.401	436.69
511.617	457.69
511.833	450.69
512.049	445.69
512.265	438.69
512.481	443.69
512.698	451.69
512.914	457.69
513.13	439.69
513.346	435.69
513.562	417.69
513.778	448.69
513.994	442.69
514.21	443.69
514.426	467.69
514.642	509.69
514.858	484.69
515.074	502.69
515.29	566.69
515.506	786.69
515.721	660.69
515.937	509.69
516.153	487.69
516.369	467.69
516.585	456.69
516.801	490.69
517.016	491.69
517.232	512.69
517.448	512.69
517.664	495.69
517.879	515.69
518.095	504.69
518.311	519.69
518.527	505.69
518.742	481.69
518.958	472.69
519.173	455.69
519.389	466.69
519.605	469.69
519.82	450.69
520.036	425.69
520.251	450.69
520.467	481.69
520.682	468.69
520.898	449.69
521.113	458.69
521.329	487.69
521.544	510.69
521.76	617.69
521.975	952.69
522.19	940.69
522.406	556.69
522.621	456.69
522.836	426.69
523.052	422.69
523.267	408.69
523.482	403.69
523.698	406.69
523.913	415.69
524.128	394.69
524.343	396.69
524.559	378.69
524.774	416.69
524.989	376.69
525.204	404.69
525.419	393.69
525.634	380.69
525.849	376.69
526.064	369.69
526.28	404.69
526.495	366.69
526.71	374.69
526.925	350.69
527.14	384.69
527.355	390.69
527.57	375.69
527.785	362.69
527.999	374.69
528.214	379.69
528.429	372.69
528.644	380.69
528.859	378.69
529.074	379.69
529.289	384.69
529.503	456.69
529.718	412.69
529.933	389.69
530.148	388.69
530.363	362.69
530.577	374.69
530.792	360.69
531.007	366.69
531.221	373.69
531.436	351.69
531.651	368.69
531.865	386.69
532.08	355.69
532.295	373.69
532.509	376.69
532.724	347.69
532.938	386.69
533.153	377.69
533.367	368.69
533.582	384.69
533.796	359.69
534.011	380.69
534.225	356.69
534.44	356.69
534.654	359.69
534.868	372.69
535.083	371.69
535.297	360.69
535.511	372.69
535.726	359.69
535.94	360.69
536.154	374.69
536.369	341.69
536.583	353.69
536.797	368.69
537.011	340.69
537.225	369.69
537.44	368.69
537.654	352.69
537.868	341.69
538.082	359.69
538.296	351.69
538.51	355.69
538.724	340.69
538.938	354.69
539.153	363.69
539.367	381.69
539.581	353.69
539.795	356.69
540.009	359.69
540.222	336.69
540.436	364.69
540.65	365.69
540.864	376.69
541.078	353.69
541.292	362.69
541.506	336.69
541.72	352.69
541.934	346.69
542.147	373.69
542.361	357.69
542.575	345.69
542.789	355.69
543.002	363.69
543.216	348.69
543.43	350.69
543.644	340.69
543.857	361.69
544.071	357.69
544.285	351.69
544.498	364.69
544.712	371.69
544.925	344.69
545.139	358.69
545.352	348.69
545.566	367.69
545.779	346.69
545.993	366.69
546.206	368.69
546.42	375.69
546.633	354.69
546.847	345.69
547.06	336.69
547.274	350.69
547.487	355.69
547.7	366.69
547.914	350.69
548.127	339.69
548.34	338.69
548.554	335.69
548.767	348.69
548.98	346.69
549.193	376.69
549.407	354.69
549.62	374.69
549.833	354.69
550.046	340.69
550.259	359.69
550.473	349.69
550.686	358.69
550.899	353.69
551.112	339.69
551.325	340.69
551.538	332.69
551.751	350.69
551.964	347.69
552.177	369.69
552.39	366.69
552.603	359.69
552.816	344.69
553.029	374.69
553.242	374.69
553.455	363.69
553.667	385.69
553.88	396.69
554.093	362.69
554.306	358.69
554.519	361.69
554.732	345.69
554.944	342.69
555.157	328.69
555.37	337.69
555.583	342.69
555.795	325.69
556.008	313.69
556.221	314.69
556.433	319.69
556.646	327.69
556.859	312.69
557.071	324.69
557.284	314.69
557.496	319.69
557.709	318.69
557.921	318.69
558.134	313.69
558.346	306.69
558.559	309.69
558.771	299.69
558.984	314.69
559.196	316.69
559.409	311.69
559.621	295.69
559.833	298.69
560.046	305.69
560.258	306.69
560.47	308.69
560.683	314.69
560.895	304.69
561.107	319.69
561.32	314.69
561.532	309.69
561.744	308.69
561.956	307.69
562.168	290.69
562.381	310.69
562.593	299.69
562.805	314.69
563.017	310.69
563.229	314.69
563.441	292.69
563.653	315.69
563.865	311.69
564.077	311.69
564.289	318.69
564.501	306.69
564.713	320.69
564.925	328.69
565.137	332.69
565.349	345.69
565.561	352.69
565.773	346.69
565.985	369.69
566.197	375.69
566.408	391.69
566.62	379.69
566.832	425.69
567.044	441.69
567.255	435.69
567.467	422.69
567.679	438.69
567.891	447.69
568.102	465.69
568.314	458.69
568.526	433.69
568.737	414.69
568.949	364.69
569.161	358.69
569.372	345.69
569.584	321.69
569.795	326.69
570.007	308.69
570.218	344.69
570.43	324.69
570.641	318.69
570.853	311.69
571.064	338.69
571.276	308.69
571.487	298.69
571.698	306.69
571.91	285.69
572.121	279.69
572.333	300.69
572.544	288.69
572.755	271.69
572.966	282.69
573.178	271.69
573.389	276.69
573.6	262.69
573.811	282.69
574.023	255.69
574.234	278.69
574.445	275.69
574.656	266.69
574.867	267.69
575.078	265.69
575.289	261.69
575.501	285.69
575.712	275.69
575.923	267.69
576.134	264.69
576.345	251.69
576.556	272.69
576.767	258.69
576.978	248.69
577.188	239.69
577.399	241.69
577.61	235.69
577.821	244.69
578.032	265.69
578.243	266.69
578.454	362.69
578.665	312.69
578.875	260.69
579.086	250.69
579.297	241.69
579.508	251.69
579.718	238.69
579.929	243.69
580.14	235.69
580.35	254.69
580.561	260.69
580.772	248.69
580.982	253.69
581.193	226.69
581.403	229.69
581.614	231.69
581.825	233.69
582.035	242.69
582.246	231.69
582.456	254.69
582.667	252.69
582.877	245.69
583.087	233.69
583.298	231.69
583.508	240.69
583.719	238.69
583.929	247.69
584.139	220.69
584.35	237.69
584.56	240.69
584.77	231.69
584.981	235.69
585.191	211.69
585.401	238.69
585.611	223.69
585.821	233.69
586.032	247.69
586.242	248.69
586.452	234.69
586.662	253.69
586.872	249.69
587.082	229.69
587.292	230.69
587.502	240.69
587.713	225.69
587.923	220.69
588.133	223.69
588.343	226.69
588.553	239.69
588.762	229.69
588.972	241.69
589.182	240.69
589.392	222.69
589.602	243.69
589.812	222.69
590.022	245.69
590.232	214.69
590.441	238.69
590.651	227.69
590.861	240.69
591.071	252.69
591.281	253.69
591.49	229.69
591.7	249.69
591.91	239.69
592.119	239.69
592.329	268.69
592.539	248.69
592.748	281.69
592.958	265.69
593.167	265.69
593.377	295.69
593.587	274.69
593.796	276.69
594.006	287.69
594.215	289.69
594.424	265.69
594.634	256.69
594.843	272.69
595.053	251.69
595.262	272.69
595.472	248.69
595.681	230.69
595.89	243.69
596.1	244.69
596.309	228.69
596.518	230.69
596.727	235.69
596.937	226.69
597.146	221.69
597.355	232.69
597.564	225.69
597.774	209.69
597.983	219.69
598.192	216.69
598.401	208.69
598.61	226.69
598.819	218.69
599.028	208.69
599.237	208.69
599.446	214.69
599.655	220.69
599.864	208.69
600.073	192.69
600.282	193.69
600.491	205.69
600.7	220.69
600.909	197.69
601.118	215.69
601.327	209.69
601.536	203.69
601.745	205.69
601.953	201.69
602.162	212.69
602.371	204.69
602.58	212.69
602.789	208.69
602.997	206.69
603.206	220.69
603.415	214.69
603.623	230.69
603.832	220.69
604.041	202.69
604.249	201.69
604.458	205.69
604.666	215.69
604.875	199.69
605.084	204.69
605.292	206.69
605.501	192.69
605.709	191.69
605.918	189.69
606.126	198.69
606.334	213.69
606.543	214.69
606.751	196.69
606.96	214.69
607.168	198.69
607.376	210.69
607.585	196.69
607.793	211.69
608.001	184.69
608.21	195.69
608.418	188.69
608.626	211.69
608.834	191.69
609.043	216.69
609.251	213.69
609.459	199.69
609.667	208.69
609.875	206.69
610.083	185.69
610.291	194.69
610.499	198.69
610.707	193.69
610.916	210.69
611.124	198.69
611.332	214.69
611.54	209.69
611.748	209.69
611.955	213.69
612.163	206.69
612.371	208.69
612.579	198.69
612.787	203.69
612.995	197.69
613.203	219.69
613.411	196.69
613.618	203.69
613.826	195.69
614.034	195.69
614.242	192.69
614.449	188.69
614.657	198.69
614.865	196.69
615.072	203.69
615.28	217.69
615.488	176.69
615.695	200.69
615.903	190.69
616.111	194.69
616.318	212.69
616.526	200.69
616.733	208.69
616.941	187.69
617.148	198.69
617.356	198.69
617.563	194.69
617.771	206.69
617.978	198.69
618.185	188.69
618.393	183.69
618.6	183.69
618.807	193.69
619.015	200.69
619.222	190.69
619.429	187.69
619.637	190.69
619.844	200.69
620.051	185.69
620.258	198.69
620.466	198.69
620.673	182.69
620.88	183.69
621.087	183.69
621.294	178.69
621.501	178.69
621.708	188.69
621.915	185.69
622.122	187.69
622.329	180.69
622.536	181.69
622.743	188.69
622.95	193.69
623.157	191.69
623.364	182.69
623.571	211.69
623.778	192.69
623.985	174.69
624.192	177.69
624.399	193.69
624.606	168.69
624.812	176.69
625.019	171.69
625.226	199.69
625.433	181.69
625.639	186.69
625.846	167.69
626.053	174.69
626.259	171.69
626.466	183.69
626.673	162.69
626.879	159.69
627.086	180.69
627.293	174.69
627.499	173.69
627.706	195.69
627.912	189.69
628.119	177.69
628.325	175.69
628.532	185.69
628.738	169.69
628.945	176.69
629.151	166.69
629.357	175.69
629.564	179.69
629.77	166.69
629.976	162.69
630.183	171.69
630.389	174.69
630.595	174.69
630.802	153.69
631.008	170.69
631.214	183.69
631.42	176.69
631.627	176.69
631.833	168.69
632.039	171.69
632.245	156.69
632.451	162.69
632.657	170.69
632.863	164.69
633.069	156.69
633.275	161.69
633.481	160.69
633.688	172.69
633.893	162.69
634.099	157.69
634.305	145.69
634.511	152.69
634.717	146.69
634.923	138.69
635.129	154.69
635.335	146.69
635.541	158.69
635.747	154.69
635.952	151.69
636.158	163.69
636.364	171.69
636.57	161.69
636.775	147.69
636.981	154.69
637.187	160.69
637.392	157.69
637.598	158.69
637.804	150.69
638.009	150.69
638.215	157.69
638.421	157.69
638.626	140.69
638.832	154.69
639.037	161.69
639.243	150.69
639.448	150.69
639.654	146.69
639.859	169.69
640.065	154.69
640.27	158.69
640.475	154.69
640.681	150.69
640.886	155.69
641.091	158.69
641.297	149.69
641.502	150.69
641.707	144.69
641.913	140.69
642.118	146.69
642.323	138.69
642.528	138.69
642.733	147.69
642.939	146.69
643.144	134.69
643.349	151.69
643.554	142.69
643.759	148.69
643.964	143.69
644.169	147.69
644.374	149.69
644.579	135.69
644.784	144.69
644.989	157.69
645.194	142.69
645.399	146.69
645.604	139.69
645.809	148.69
646.014	134.69
646.219	147.69
646.423	158.69
646.628	140.69
646.833	176.69
647.038	146.69
647.243	143.69
647.447	122.69
647.652	147.69
647.857	153.69
648.062	140.69
648.266	153.69
648.471	139.69
648.676	163.69
648.88	146.69
649.085	145.69
649.289	141.69
649.494	147.69
649.698	157.69
649.903	159.69
650.107	152.69
650.312	152.69
650.516	133.69
650.721	138.69
650.925	129.69
651.13	155.69
651.334	146.69
651.539	139.69
651.743	138.69
651.947	133.69
652.152	141.69
652.356	132.69
652.56	121.69
652.764	128.69
652.969	125.69
653.173	133.69
653.377	136.69
653.581	127.69
653.785	130.69
653.99	133.69
654.194	130.69
654.398	126.69
654.602	136.69
654.806	117.69
655.01	135.69
655.214	137.69
655.418	111.69
655.622	121.69
655.826	126.69
656.03	110.69
656.234	121.69
656.438	129.69
656.642	137.69
656.846	124.69
657.049	114.69
657.253	113.69
657.457	112.69
657.661	121.69
657.865	119.69
658.068	125.69
658.272	101.69
658.476	103.69
658.68	100.69
658.883	90.69
659.087	92.69
659.291	96.69
659.494	88.69
659.698	84.69
659.901	106.69
660.105	97.69
660.309	95.69
660.512	95.69
660.716	91.69
660.919	91.69
661.123	90.69
661.326	79.69
661.53	95.69
661.733	99.69
661.936	92.69
662.14	92.69
662.343	74.69
662.546	82.69
662.75	87.69
662.953	95.69
663.156	75.69
663.36	79.69
663.563	84.69
663.766	69.69
663.969	83.69
664.173	85.69
664.376	67.69
664.579	92.69
664.782	82.69
664.985	85.69
665.188	82.69
665.391	75.69
665.594	81.69
665.797	82.69
666	70.69
666.203	84.69
666.406	78.69
666.609	73.69
666.812	82.69
667.015	92.69
667.218	76.69
667.421	88.69
667.624	78.69
667.827	92.69
668.03	73.69
668.232	88.69
668.435	81.69
668.638	81.69
668.841	70.69
669.043	69.69
669.246	83.69
669.449	86.69
669.651	77.69
669.854	74.69
670.057	69.69
670.259	81.69
670.462	77.69
670.665	82.69
670.867	69.69
671.07	86.69
671.272	78.69
671.475	82.69
671.677	83.69
671.88	85.69
672.082	70.69
672.284	85.69
672.487	83.69
672.689	64.69
672.892	94.69
