Data from 1969.PennyLincolnUp.Lamp.En5.5.200Scan.071719.P1._HRD10591_14-53-47-971.txt Node
Date: Thu Jul 18 14:53:47 EDT 2019
User: cochatt
Spectrometer: HR+D1059
Trigger mode: 1
Integration Time (sec): 1.000000E-1
Scans to average: 1
Electric dark correction enabled: true
Nonlinearity correction enabled: false
Boxcar width: 0
XAxis mode: Wavelengths
Number of Pixels in Spectrum: 2048
>>>>>Begin Spectral Data<<<<<
223.165	-17.31
223.4	-17.31
223.635	-17.31
223.869	-23.31
224.104	-9.31
224.338	-19.31
224.573	-10.31
224.808	-6.31
225.042	-5.31
225.277	-4.31
225.511	-4.31
225.746	-0.31
225.98	16.69
226.215	19.69
226.449	9.69
226.683	19.69
226.918	23.69
227.152	10.69
227.387	16.69
227.621	39.69
227.856	28.69
228.09	40.69
228.324	52.69
228.559	56.69
228.793	40.69
229.027	80.69
229.262	68.69
229.496	80.69
229.73	86.69
229.964	99.69
230.199	84.69
230.433	95.69
230.667	81.69
230.901	90.69
231.136	86.69
231.37	97.69
231.604	99.69
231.838	99.69
232.072	104.69
232.306	89.69
232.541	101.69
232.775	104.69
233.009	93.69
233.243	111.69
233.477	92.69
233.711	78.69
233.945	102.69
234.179	110.69
234.413	109.69
234.647	96.69
234.881	103.69
235.115	92.69
235.349	86.69
235.583	94.69
235.817	118.69
236.051	93.69
236.285	108.69
236.519	86.69
236.753	112.69
236.987	103.69
237.221	114.69
237.455	126.69
237.689	108.69
237.922	101.69
238.156	98.69
238.39	106.69
238.624	104.69
238.858	92.69
239.091	90.69
239.325	109.69
239.559	111.69
239.793	104.69
240.027	109.69
240.26	105.69
240.494	110.69
240.728	118.69
240.961	119.69
241.195	114.69
241.429	112.69
241.662	103.69
241.896	98.69
242.13	117.69
242.363	111.69
242.597	104.69
242.83	118.69
243.064	117.69
243.298	128.69
243.531	129.69
243.765	113.69
243.998	109.69
244.232	112.69
244.465	108.69
244.699	109.69
244.932	120.69
245.166	132.69
245.399	119.69
245.633	114.69
245.866	113.69
246.099	129.69
246.333	122.69
246.566	117.69
246.8	122.69
247.033	110.69
247.266	117.69
247.5	125.69
247.733	132.69
247.966	135.69
248.2	135.69
248.433	124.69
248.666	124.69
248.899	128.69
249.133	132.69
249.366	146.69
249.599	135.69
249.832	136.69
250.066	148.69
250.299	142.69
250.532	125.69
250.765	136.69
250.998	149.69
251.231	159.69
251.465	159.69
251.698	139.69
251.931	132.69
252.164	143.69
252.397	152.69
252.63	167.69
252.863	150.69
253.096	154.69
253.329	156.69
253.562	148.69
253.795	168.69
254.028	160.69
254.261	149.69
254.494	157.69
254.727	172.69
254.96	178.69
255.193	161.69
255.426	169.69
255.659	182.69
255.892	158.69
256.124	153.69
256.357	165.69
256.59	169.69
256.823	141.69
257.056	144.69
257.289	163.69
257.521	163.69
257.754	157.69
257.987	147.69
258.22	169.69
258.452	165.69
258.685	169.69
258.918	159.69
259.151	163.69
259.383	173.69
259.616	164.69
259.849	166.69
260.081	172.69
260.314	175.69
260.547	182.69
260.779	163.69
261.012	175.69
261.244	165.69
261.477	180.69
261.71	164.69
261.942	171.69
262.175	160.69
262.407	170.69
262.64	168.69
262.872	150.69
263.105	150.69
263.337	153.69
263.57	157.69
263.802	166.69
264.035	176.69
264.267	153.69
264.499	156.69
264.732	149.69
264.964	179.69
265.197	160.69
265.429	170.69
265.661	167.69
265.894	176.69
266.126	176.69
266.358	168.69
266.591	142.69
266.823	180.69
267.055	188.69
267.287	151.69
267.52	171.69
267.752	162.69
267.984	178.69
268.216	170.69
268.448	165.69
268.681	188.69
268.913	179.69
269.145	184.69
269.377	188.69
269.609	198.69
269.841	169.69
270.073	186.69
270.306	221.69
270.538	206.69
270.77	209.69
271.002	205.69
271.234	193.69
271.466	221.69
271.698	219.69
271.93	196.69
272.162	206.69
272.394	210.69
272.626	195.69
272.858	208.69
273.09	201.69
273.322	197.69
273.553	203.69
273.785	188.69
274.017	178.69
274.249	194.69
274.481	182.69
274.713	210.69
274.945	202.69
275.176	213.69
275.408	201.69
275.64	190.69
275.872	205.69
276.104	186.69
276.335	207.69
276.567	192.69
276.799	203.69
277.031	215.69
277.262	216.69
277.494	233.69
277.726	210.69
277.957	208.69
278.189	208.69
278.421	215.69
278.652	195.69
278.884	211.69
279.115	219.69
279.347	227.69
279.579	211.69
279.81	205.69
280.042	215.69
280.273	222.69
280.505	216.69
280.736	209.69
280.968	210.69
281.199	221.69
281.431	212.69
281.662	200.69
281.894	213.69
282.125	199.69
282.356	220.69
282.588	231.69
282.819	220.69
283.051	224.69
283.282	225.69
283.513	217.69
283.745	204.69
283.976	229.69
284.207	212.69
284.439	223.69
284.67	220.69
284.901	237.69
285.132	225.69
285.364	221.69
285.595	227.69
285.826	210.69
286.057	225.69
286.288	223.69
286.52	224.69
286.751	225.69
286.982	229.69
287.213	203.69
287.444	230.69
287.675	215.69
287.906	228.69
288.138	236.69
288.369	241.69
288.6	224.69
288.831	227.69
289.062	223.69
289.293	225.69
289.524	228.69
289.755	225.69
289.986	233.69
290.217	238.69
290.448	227.69
290.679	227.69
290.91	240.69
291.141	233.69
291.371	258.69
291.602	217.69
291.833	234.69
292.064	238.69
292.295	242.69
292.526	239.69
292.757	237.69
292.987	230.69
293.218	238.69
293.449	225.69
293.68	221.69
293.91	230.69
294.141	258.69
294.372	239.69
294.603	228.69
294.833	230.69
295.064	231.69
295.295	233.69
295.525	247.69
295.756	240.69
295.987	252.69
296.217	236.69
296.448	218.69
296.679	255.69
296.909	242.69
297.14	236.69
297.37	243.69
297.601	248.69
297.831	266.69
298.062	250.69
298.292	237.69
298.523	254.69
298.753	250.69
298.984	228.69
299.214	228.69
299.445	234.69
299.675	254.69
299.905	245.69
300.136	256.69
300.366	243.69
300.597	260.69
300.827	251.69
301.057	270.69
301.288	257.69
301.518	249.69
301.748	250.69
301.979	253.69
302.209	284.69
302.439	263.69
302.669	261.69
302.9	267.69
303.13	267.69
303.36	257.69
303.59	248.69
303.82	257.69
304.051	269.69
304.281	252.69
304.511	243.69
304.741	265.69
304.971	243.69
305.201	265.69
305.431	262.69
305.661	262.69
305.891	261.69
306.121	261.69
306.352	236.69
306.582	245.69
306.812	256.69
307.042	264.69
307.272	257.69
307.502	271.69
307.731	277.69
307.961	256.69
308.191	243.69
308.421	260.69
308.651	259.69
308.881	253.69
309.111	261.69
309.341	273.69
309.571	256.69
309.8	264.69
310.03	265.69
310.26	295.69
310.49	294.69
310.72	283.69
310.949	285.69
311.179	272.69
311.409	258.69
311.639	267.69
311.868	262.69
312.098	270.69
312.328	269.69
312.557	282.69
312.787	291.69
313.017	282.69
313.246	282.69
313.476	269.69
313.706	278.69
313.935	283.69
314.165	289.69
314.394	282.69
314.624	301.69
314.853	296.69
315.083	279.69
315.312	278.69
315.542	289.69
315.771	282.69
316.001	288.69
316.23	284.69
316.46	278.69
316.689	271.69
316.919	279.69
317.148	301.69
317.377	272.69
317.607	286.69
317.836	286.69
318.065	294.69
318.295	279.69
318.524	270.69
318.753	273.69
318.983	275.69
319.212	292.69
319.441	282.69
319.67	285.69
319.9	284.69
320.129	273.69
320.358	293.69
320.587	284.69
320.816	285.69
321.046	300.69
321.275	292.69
321.504	281.69
321.733	294.69
321.962	282.69
322.191	301.69
322.42	297.69
322.649	304.69
322.878	294.69
323.108	318.69
323.337	301.69
323.566	308.69
323.795	340.69
324.024	303.69
324.253	354.69
324.482	454.69
324.71	598.69
324.939	782.69
325.168	654.69
325.397	397.69
325.626	334.69
325.855	341.69
326.084	321.69
326.313	315.69
326.542	321.69
326.77	321.69
326.999	344.69
327.228	404.69
327.457	536.69
327.686	613.69
327.914	448.69
328.143	353.69
328.372	344.69
328.6	332.69
328.829	319.69
329.058	354.69
329.287	341.69
329.515	331.69
329.744	315.69
329.972	325.69
330.201	326.69
330.43	336.69
330.658	353.69
330.887	370.69
331.115	338.69
331.344	340.69
331.572	334.69
331.801	339.69
332.03	346.69
332.258	333.69
332.486	317.69
332.715	336.69
332.943	366.69
333.172	341.69
333.4	352.69
333.629	367.69
333.857	386.69
334.085	369.69
334.314	374.69
334.542	380.69
334.771	368.69
334.999	368.69
335.227	365.69
335.455	361.69
335.684	339.69
335.912	326.69
336.14	345.69
336.369	343.69
336.597	342.69
336.825	350.69
337.053	339.69
337.281	314.69
337.51	345.69
337.738	324.69
337.966	332.69
338.194	328.69
338.422	321.69
338.65	317.69
338.878	336.69
339.106	330.69
339.334	314.69
339.562	318.69
339.79	318.69
340.018	335.69
340.246	310.69
340.474	315.69
340.702	298.69
340.93	312.69
341.158	332.69
341.386	334.69
341.614	309.69
341.842	309.69
342.07	335.69
342.298	313.69
342.526	333.69
342.754	324.69
342.981	312.69
343.209	317.69
343.437	327.69
343.665	341.69
343.893	340.69
344.12	354.69
344.348	329.69
344.576	329.69
344.804	315.69
345.031	333.69
345.259	317.69
345.487	314.69
345.714	323.69
345.942	314.69
346.17	308.69
346.397	316.69
346.625	313.69
346.853	299.69
347.08	295.69
347.308	287.69
347.535	303.69
347.763	312.69
347.99	291.69
348.218	304.69
348.445	298.69
348.673	313.69
348.9	308.69
349.128	295.69
349.355	309.69
349.583	305.69
349.81	294.69
350.037	296.69
350.265	310.69
350.492	314.69
350.72	296.69
350.947	313.69
351.174	301.69
351.402	316.69
351.629	293.69
351.856	283.69
352.083	318.69
352.311	324.69
352.538	304.69
352.765	317.69
352.992	305.69
353.22	307.69
353.447	295.69
353.674	314.69
353.901	297.69
354.128	289.69
354.355	281.69
354.583	303.69
354.81	293.69
355.037	294.69
355.264	294.69
355.491	294.69
355.718	289.69
355.945	297.69
356.172	272.69
356.399	282.69
356.626	280.69
356.853	291.69
357.08	295.69
357.307	310.69
357.534	314.69
357.761	294.69
357.988	318.69
358.215	285.69
358.441	286.69
358.668	297.69
358.895	290.69
359.122	302.69
359.349	324.69
359.576	305.69
359.802	307.69
360.029	312.69
360.256	301.69
360.483	310.69
360.709	281.69
360.936	305.69
361.163	300.69
361.39	302.69
361.616	296.69
361.843	284.69
362.07	307.69
362.296	317.69
362.523	301.69
362.749	273.69
362.976	294.69
363.203	279.69
363.429	285.69
363.656	289.69
363.882	304.69
364.109	305.69
364.335	302.69
364.562	296.69
364.788	291.69
365.015	289.69
365.241	303.69
365.468	299.69
365.694	282.69
365.92	295.69
366.147	305.69
366.373	302.69
366.599	280.69
366.826	292.69
367.052	272.69
367.278	292.69
367.505	296.69
367.731	310.69
367.957	295.69
368.184	309.69
368.41	283.69
368.636	312.69
368.862	303.69
369.089	293.69
369.315	304.69
369.541	298.69
369.767	277.69
369.993	306.69
370.219	296.69
370.445	302.69
370.672	284.69
370.898	276.69
371.124	304.69
371.35	314.69
371.576	298.69
371.802	294.69
372.028	295.69
372.254	301.69
372.48	299.69
372.706	307.69
372.932	302.69
373.158	319.69
373.384	325.69
373.61	308.69
373.835	313.69
374.061	315.69
374.287	312.69
374.513	288.69
374.739	316.69
374.965	330.69
375.191	317.69
375.416	338.69
375.642	314.69
375.868	310.69
376.094	311.69
376.319	288.69
376.545	292.69
376.771	320.69
376.997	311.69
377.222	310.69
377.448	311.69
377.674	318.69
377.899	315.69
378.125	312.69
378.35	299.69
378.576	308.69
378.802	312.69
379.027	294.69
379.253	319.69
379.478	302.69
379.704	288.69
379.929	312.69
380.155	295.69
380.38	302.69
380.606	306.69
380.831	303.69
381.057	322.69
381.282	296.69
381.507	307.69
381.733	297.69
381.958	319.69
382.184	300.69
382.409	306.69
382.634	308.69
382.86	325.69
383.085	322.69
383.31	320.69
383.535	292.69
383.761	312.69
383.986	332.69
384.211	329.69
384.436	322.69
384.662	334.69
384.887	343.69
385.112	347.69
385.337	365.69
385.562	351.69
385.787	355.69
386.013	357.69
386.238	351.69
386.463	345.69
386.688	354.69
386.913	354.69
387.138	352.69
387.363	343.69
387.588	365.69
387.813	351.69
388.038	343.69
388.263	333.69
388.488	356.69
388.713	351.69
388.938	342.69
389.163	332.69
389.387	342.69
389.612	340.69
389.837	342.69
390.062	346.69
390.287	353.69
390.512	325.69
390.736	330.69
390.961	330.69
391.186	337.69
391.411	375.69
391.636	362.69
391.86	365.69
392.085	365.69
392.31	373.69
392.534	380.69
392.759	363.69
392.984	340.69
393.208	357.69
393.433	352.69
393.658	365.69
393.882	354.69
394.107	351.69
394.331	352.69
394.556	346.69
394.78	355.69
395.005	352.69
395.229	360.69
395.454	377.69
395.678	368.69
395.903	378.69
396.127	360.69
396.352	354.69
396.576	348.69
396.801	351.69
397.025	354.69
397.249	371.69
397.474	378.69
397.698	372.69
397.922	371.69
398.147	377.69
398.371	396.69
398.595	384.69
398.82	382.69
399.044	412.69
399.268	459.69
399.492	465.69
399.717	526.69
399.941	515.69
400.165	519.69
400.389	486.69
400.613	448.69
400.837	413.69
401.062	408.69
401.286	390.69
401.51	403.69
401.734	398.69
401.958	404.69
402.182	415.69
402.406	422.69
402.63	418.69
402.854	415.69
403.078	401.69
403.302	409.69
403.526	424.69
403.75	432.69
403.974	433.69
404.198	436.69
404.422	428.69
404.645	420.69
404.869	450.69
405.093	444.69
405.317	459.69
405.541	471.69
405.765	424.69
405.988	432.69
406.212	437.69
406.436	450.69
406.66	472.69
406.883	435.69
407.107	485.69
407.331	473.69
407.555	538.69
407.778	532.69
408.002	461.69
408.226	480.69
408.449	456.69
408.673	448.69
408.896	430.69
409.12	451.69
409.344	459.69
409.567	404.69
409.791	408.69
410.014	398.69
410.238	399.69
410.461	412.69
410.685	431.69
410.908	421.69
411.132	431.69
411.355	451.69
411.578	428.69
411.802	414.69
412.025	407.69
412.249	418.69
412.472	429.69
412.695	429.69
412.919	423.69
413.142	425.69
413.365	380.69
413.589	393.69
413.812	390.69
414.035	389.69
414.258	408.69
414.482	404.69
414.705	410.69
414.928	387.69
415.151	389.69
415.374	401.69
415.597	390.69
415.821	392.69
416.044	390.69
416.267	390.69
416.49	400.69
416.713	392.69
416.936	392.69
417.159	403.69
417.382	393.69
417.605	370.69
417.828	395.69
418.051	404.69
418.274	397.69
418.497	400.69
418.72	402.69
418.943	405.69
419.166	404.69
419.389	426.69
419.611	428.69
419.834	422.69
420.057	411.69
420.28	413.69
420.503	395.69
420.726	389.69
420.948	390.69
421.171	408.69
421.394	409.69
421.617	429.69
421.839	393.69
422.062	396.69
422.285	400.69
422.507	436.69
422.73	464.69
422.953	461.69
423.175	422.69
423.398	419.69
423.621	421.69
423.843	437.69
424.066	438.69
424.288	425.69
424.511	439.69
424.733	451.69
424.956	470.69
425.178	456.69
425.401	477.69
425.623	468.69
425.846	416.69
426.068	400.69
426.291	412.69
426.513	402.69
426.735	401.69
426.958	412.69
427.18	463.69
427.402	506.69
427.625	524.69
427.847	470.69
428.069	416.69
428.292	395.69
428.514	388.69
428.736	376.69
428.958	393.69
429.181	372.69
429.403	358.69
429.625	384.69
429.847	390.69
430.069	413.69
430.292	407.69
430.514	395.69
430.736	398.69
430.958	384.69
431.18	351.69
431.402	360.69
431.624	369.69
431.846	368.69
432.068	356.69
432.29	350.69
432.512	354.69
432.734	372.69
432.956	367.69
433.178	374.69
433.4	365.69
433.622	395.69
433.844	356.69
434.066	357.69
434.287	361.69
434.509	373.69
434.731	374.69
434.953	381.69
435.175	412.69
435.397	412.69
435.618	397.69
435.84	410.69
436.062	443.69
436.284	452.69
436.505	415.69
436.727	387.69
436.949	395.69
437.17	368.69
437.392	352.69
437.614	374.69
437.835	376.69
438.057	428.69
438.278	447.69
438.5	451.69
438.721	478.69
438.943	478.69
439.165	416.69
439.386	401.69
439.608	394.69
439.829	399.69
440.05	391.69
440.272	388.69
440.493	404.69
440.715	380.69
440.936	386.69
441.158	376.69
441.379	397.69
441.6	394.69
441.822	415.69
442.043	419.69
442.264	456.69
442.486	459.69
442.707	410.69
442.928	397.69
443.149	406.69
443.371	401.69
443.592	439.69
443.813	500.69
444.034	518.69
444.255	442.69
444.476	432.69
444.698	431.69
444.919	436.69
445.14	564.69
445.361	484.69
445.582	412.69
445.803	449.69
446.024	466.69
446.245	465.69
446.466	431.69
446.687	400.69
446.908	388.69
447.129	375.69
447.35	368.69
447.571	370.69
447.792	366.69
448.013	348.69
448.234	364.69
448.455	385.69
448.675	421.69
448.896	464.69
449.117	444.69
449.338	415.69
449.559	446.69
449.779	492.69
450	418.69
450.221	371.69
450.442	378.69
450.662	353.69
450.883	352.69
451.104	366.69
451.324	344.69
451.545	343.69
451.766	336.69
451.986	362.69
452.207	339.69
452.428	340.69
452.648	321.69
452.869	332.69
453.089	348.69
453.31	331.69
453.53	331.69
453.751	319.69
453.971	345.69
454.192	345.69
454.412	340.69
454.633	324.69
454.853	312.69
455.073	322.69
455.294	341.69
455.514	369.69
455.734	345.69
455.955	324.69
456.175	339.69
456.395	334.69
456.616	330.69
456.836	330.69
457.056	323.69
457.276	306.69
457.497	315.69
457.717	330.69
457.937	340.69
458.157	328.69
458.377	344.69
458.598	350.69
458.818	368.69
459.038	385.69
459.258	412.69
459.478	372.69
459.698	376.69
459.918	399.69
460.138	374.69
460.358	386.69
460.578	380.69
460.798	397.69
461.018	395.69
461.238	392.69
461.458	405.69
461.678	408.69
461.898	397.69
462.118	410.69
462.338	419.69
462.558	432.69
462.777	432.69
462.997	460.69
463.217	493.69
463.437	471.69
463.657	448.69
463.876	437.69
464.096	448.69
464.316	430.69
464.536	439.69
464.755	452.69
464.975	424.69
465.195	412.69
465.414	437.69
465.634	384.69
465.854	384.69
466.073	384.69
466.293	383.69
466.512	370.69
466.732	364.69
466.951	344.69
467.171	372.69
467.391	348.69
467.61	371.69
467.829	359.69
468.049	352.69
468.268	359.69
468.488	360.69
468.707	352.69
468.927	369.69
469.146	353.69
469.365	340.69
469.585	351.69
469.804	373.69
470.023	366.69
470.243	366.69
470.462	393.69
470.681	366.69
470.901	389.69
471.12	376.69
471.339	349.69
471.558	356.69
471.777	350.69
471.997	362.69
472.216	370.69
472.435	376.69
472.654	373.69
472.873	344.69
473.092	333.69
473.311	336.69
473.53	350.69
473.749	338.69
473.968	374.69
474.187	388.69
474.406	410.69
474.625	360.69
474.844	349.69
475.063	350.69
475.282	354.69
475.501	333.69
475.72	354.69
475.939	356.69
476.158	351.69
476.377	367.69
476.596	362.69
476.814	372.69
477.033	353.69
477.252	354.69
477.471	364.69
477.69	392.69
477.908	393.69
478.127	398.69
478.346	409.69
478.564	424.69
478.783	420.69
479.002	420.69
479.22	422.69
479.439	431.69
479.658	431.69
479.876	428.69
480.095	441.69
480.313	425.69
480.532	449.69
480.751	431.69
480.969	452.69
481.188	461.69
481.406	455.69
481.624	416.69
481.843	411.69
482.061	438.69
482.28	412.69
482.498	408.69
482.717	404.69
482.935	408.69
483.153	402.69
483.372	403.69
483.59	409.69
483.808	405.69
484.027	415.69
484.245	387.69
484.463	404.69
484.681	419.69
484.9	419.69
485.118	409.69
485.336	416.69
485.554	403.69
485.772	417.69
485.99	429.69
486.209	411.69
486.427	421.69
486.645	413.69
486.863	448.69
487.081	426.69
487.299	431.69
487.517	444.69
487.735	444.69
487.953	436.69
488.171	430.69
488.389	426.69
488.607	429.69
488.825	427.69
489.043	434.69
489.261	447.69
489.479	445.69
489.696	457.69
489.914	423.69
490.132	447.69
490.35	462.69
490.568	432.69
490.786	445.69
491.003	445.69
491.221	467.69
491.439	478.69
491.657	454.69
491.874	465.69
492.092	469.69
492.31	482.69
492.527	495.69
492.745	494.69
492.963	481.69
493.18	493.69
493.398	494.69
493.615	480.69
493.833	482.69
494.05	477.69
494.268	498.69
494.485	456.69
494.703	493.69
494.92	500.69
495.138	484.69
495.355	517.69
495.573	479.69
495.79	490.69
496.008	514.69
496.225	480.69
496.442	507.69
496.66	508.69
496.877	491.69
497.094	517.69
497.312	510.69
497.529	510.69
497.746	532.69
497.963	529.69
498.181	582.69
498.398	575.69
498.615	607.69
498.832	597.69
499.049	645.69
499.267	682.69
499.484	709.69
499.701	725.69
499.918	833.69
500.135	850.69
500.352	947.69
500.569	941.69
500.786	936.69
501.003	869.69
501.22	845.69
501.437	815.69
501.654	737.69
501.871	689.69
502.088	665.69
502.305	629.69
502.522	615.69
502.739	621.69
502.956	586.69
503.172	547.69
503.389	534.69
503.606	550.69
503.823	533.69
504.04	537.69
504.256	521.69
504.473	529.69
504.69	548.69
504.907	521.69
505.123	510.69
505.34	515.69
505.557	484.69
505.773	483.69
505.99	459.69
506.207	460.69
506.423	452.69
506.64	482.69
506.856	446.69
507.073	436.69
507.289	448.69
507.506	440.69
507.722	443.69
507.939	439.69
508.155	414.69
508.372	422.69
508.588	423.69
508.805	434.69
509.021	414.69
509.238	433.69
509.454	424.69
509.67	427.69
509.887	436.69
510.103	413.69
510.319	400.69
510.536	429.69
510.752	525.69
510.968	499.69
511.184	416.69
511.401	408.69
511.617	384.69
511.833	383.69
512.049	395.69
512.265	402.69
512.481	406.69
512.698	398.69
512.914	408.69
513.13	383.69
513.346	403.69
513.562	406.69
513.778	390.69
513.994	426.69
514.21	413.69
514.426	424.69
514.642	391.69
514.858	414.69
515.074	428.69
515.29	465.69
515.506	579.69
515.721	541.69
515.937	444.69
516.153	437.69
516.369	425.69
516.585	422.69
516.801	440.69
517.016	454.69
517.232	469.69
517.448	484.69
517.664	489.69
517.879	497.69
518.095	492.69
518.311	481.69
518.527	464.69
518.742	427.69
518.958	414.69
519.173	424.69
519.389	422.69
519.605	433.69
519.82	429.69
520.036	433.69
520.251	436.69
520.467	415.69
520.682	420.69
520.898	417.69
521.113	393.69
521.329	417.69
521.544	419.69
521.76	480.69
521.975	654.69
522.19	668.69
522.406	457.69
522.621	397.69
522.836	379.69
523.052	372.69
523.267	365.69
523.482	373.69
523.698	377.69
523.913	377.69
524.128	370.69
524.343	355.69
524.559	366.69
524.774	353.69
524.989	372.69
525.204	361.69
525.419	370.69
525.634	378.69
525.849	353.69
526.064	368.69
526.28	364.69
526.495	361.69
526.71	361.69
526.925	337.69
527.14	354.69
527.355	359.69
527.57	351.69
527.785	344.69
527.999	349.69
528.214	380.69
528.429	357.69
528.644	371.69
528.859	362.69
529.074	366.69
529.289	362.69
529.503	378.69
529.718	370.69
529.933	361.69
530.148	345.69
530.363	354.69
530.577	353.69
530.792	349.69
531.007	359.69
531.221	350.69
531.436	343.69
531.651	338.69
531.865	355.69
532.08	341.69
532.295	357.69
532.509	341.69
532.724	333.69
532.938	339.69
533.153	341.69
533.367	356.69
533.582	341.69
533.796	348.69
534.011	341.69
534.225	348.69
534.44	325.69
534.654	353.69
534.868	342.69
535.083	340.69
535.297	357.69
535.511	348.69
535.726	348.69
535.94	352.69
536.154	330.69
536.369	336.69
536.583	329.69
536.797	337.69
537.011	335.69
537.225	331.69
537.44	334.69
537.654	327.69
537.868	327.69
538.082	318.69
538.296	328.69
538.51	337.69
538.724	347.69
538.938	334.69
539.153	324.69
539.367	343.69
539.581	327.69
539.795	342.69
540.009	337.69
540.222	301.69
540.436	331.69
540.65	330.69
540.864	345.69
541.078	343.69
541.292	338.69
541.506	332.69
541.72	329.69
541.934	334.69
542.147	337.69
542.361	330.69
542.575	333.69
542.789	339.69
543.002	341.69
543.216	337.69
543.43	342.69
543.644	337.69
543.857	324.69
544.071	341.69
544.285	338.69
544.498	324.69
544.712	320.69
544.925	337.69
545.139	349.69
545.352	338.69
545.566	350.69
545.779	351.69
545.993	342.69
546.206	345.69
546.42	360.69
546.633	344.69
546.847	338.69
547.06	342.69
547.274	352.69
547.487	326.69
547.7	343.69
547.914	347.69
548.127	326.69
548.34	343.69
548.554	338.69
548.767	336.69
548.98	338.69
549.193	323.69
549.407	334.69
549.62	350.69
549.833	341.69
550.046	355.69
550.259	336.69
550.473	327.69
550.686	337.69
550.899	356.69
551.112	322.69
551.325	312.69
551.538	340.69
551.751	313.69
551.964	327.69
552.177	337.69
552.39	338.69
552.603	327.69
552.816	345.69
553.029	367.69
553.242	343.69
553.455	355.69
553.667	372.69
553.88	359.69
554.093	374.69
554.306	333.69
554.519	343.69
554.732	353.69
554.944	337.69
555.157	319.69
555.37	309.69
555.583	338.69
555.795	332.69
556.008	319.69
556.221	313.69
556.433	312.69
556.646	321.69
556.859	316.69
557.071	306.69
557.284	301.69
557.496	291.69
557.709	305.69
557.921	306.69
558.134	301.69
558.346	294.69
558.559	297.69
558.771	282.69
558.984	317.69
559.196	285.69
559.409	297.69
559.621	305.69
559.833	307.69
560.046	298.69
560.258	292.69
560.47	328.69
560.683	293.69
560.895	305.69
561.107	293.69
561.32	298.69
561.532	302.69
561.744	287.69
561.956	295.69
562.168	277.69
562.381	291.69
562.593	290.69
562.805	310.69
563.017	296.69
563.229	312.69
563.441	308.69
563.653	301.69
563.865	289.69
564.077	313.69
564.289	302.69
564.501	314.69
564.713	321.69
564.925	323.69
565.137	330.69
565.349	338.69
565.561	331.69
565.773	347.69
565.985	354.69
566.197	360.69
566.408	378.69
566.62	408.69
566.832	409.69
567.044	399.69
567.255	422.69
567.467	455.69
567.679	448.69
567.891	455.69
568.102	453.69
568.314	477.69
568.526	420.69
568.737	408.69
568.949	364.69
569.161	352.69
569.372	356.69
569.584	334.69
569.795	317.69
570.007	330.69
570.218	335.69
570.43	325.69
570.641	320.69
570.853	320.69
571.064	294.69
571.276	309.69
571.487	309.69
571.698	295.69
571.91	279.69
572.121	280.69
572.333	275.69
572.544	296.69
572.755	269.69
572.966	284.69
573.178	245.69
573.389	280.69
573.6	276.69
573.811	259.69
574.023	254.69
574.234	270.69
574.445	257.69
574.656	272.69
574.867	262.69
575.078	281.69
575.289	271.69
575.501	257.69
575.712	264.69
575.923	249.69
576.134	270.69
576.345	281.69
576.556	260.69
576.767	241.69
576.978	234.69
577.188	256.69
577.399	254.69
577.61	257.69
577.821	239.69
578.032	255.69
578.243	269.69
578.454	302.69
578.665	264.69
578.875	246.69
579.086	254.69
579.297	237.69
579.508	256.69
579.718	229.69
579.929	216.69
580.14	250.69
580.35	227.69
580.561	225.69
580.772	240.69
580.982	236.69
581.193	249.69
581.403	249.69
581.614	256.69
581.825	232.69
582.035	229.69
582.246	242.69
582.456	227.69
582.667	254.69
582.877	236.69
583.087	226.69
583.298	253.69
583.508	232.69
583.719	233.69
583.929	230.69
584.139	240.69
584.35	236.69
584.56	238.69
584.77	232.69
584.981	221.69
585.191	232.69
585.401	221.69
585.611	208.69
585.821	212.69
586.032	229.69
586.242	230.69
586.452	222.69
586.662	248.69
586.872	237.69
587.082	230.69
587.292	235.69
587.502	230.69
587.713	232.69
587.923	255.69
588.133	245.69
588.343	221.69
588.553	225.69
588.762	240.69
588.972	221.69
589.182	254.69
589.392	230.69
589.602	245.69
589.812	244.69
590.022	248.69
590.232	236.69
590.441	238.69
590.651	258.69
590.861	255.69
591.071	244.69
591.281	258.69
591.49	236.69
591.7	255.69
591.91	245.69
592.119	258.69
592.329	259.69
592.539	256.69
592.748	292.69
592.958	285.69
593.167	287.69
593.377	272.69
593.587	284.69
593.796	285.69
594.006	273.69
594.215	279.69
594.424	285.69
594.634	282.69
594.843	247.69
595.053	265.69
595.262	270.69
595.472	284.69
595.681	262.69
595.89	261.69
596.1	245.69
596.309	224.69
596.518	225.69
596.727	248.69
596.937	242.69
597.146	237.69
597.355	239.69
597.564	208.69
597.774	232.69
597.983	215.69
598.192	218.69
598.401	213.69
598.61	213.69
598.819	219.69
599.028	221.69
599.237	219.69
599.446	218.69
599.655	208.69
599.864	212.69
600.073	222.69
600.282	205.69
600.491	210.69
600.7	213.69
600.909	216.69
601.118	218.69
601.327	208.69
601.536	208.69
601.745	213.69
601.953	207.69
602.162	202.69
602.371	212.69
602.58	211.69
602.789	236.69
602.997	204.69
603.206	197.69
603.415	207.69
603.623	210.69
603.832	211.69
604.041	201.69
604.249	218.69
604.458	198.69
604.666	210.69
604.875	188.69
605.084	196.69
605.292	207.69
605.501	209.69
605.709	199.69
605.918	214.69
606.126	210.69
606.334	200.69
606.543	207.69
606.751	206.69
606.96	211.69
607.168	200.69
607.376	204.69
607.585	204.69
607.793	196.69
608.001	202.69
608.21	202.69
608.418	201.69
608.626	201.69
608.834	192.69
609.043	205.69
609.251	210.69
609.459	190.69
609.667	186.69
609.875	200.69
610.083	209.69
610.291	198.69
610.499	192.69
610.707	204.69
610.916	217.69
611.124	209.69
611.332	201.69
611.54	225.69
611.748	220.69
611.955	205.69
612.163	202.69
612.371	207.69
612.579	205.69
612.787	204.69
612.995	198.69
613.203	204.69
613.411	201.69
613.618	186.69
613.826	191.69
614.034	199.69
614.242	206.69
614.449	185.69
614.657	163.69
614.865	196.69
615.072	185.69
615.28	202.69
615.488	197.69
615.695	210.69
615.903	208.69
616.111	197.69
616.318	207.69
616.526	199.69
616.733	210.69
616.941	187.69
617.148	196.69
617.356	200.69
617.563	196.69
617.771	198.69
617.978	204.69
618.185	212.69
618.393	190.69
618.6	202.69
618.807	191.69
619.015	204.69
619.222	195.69
619.429	186.69
619.637	207.69
619.844	176.69
620.051	193.69
620.258	190.69
620.466	189.69
620.673	183.69
620.88	176.69
621.087	179.69
621.294	182.69
621.501	184.69
621.708	187.69
621.915	173.69
622.122	172.69
622.329	197.69
622.536	196.69
622.743	185.69
622.95	199.69
623.157	189.69
623.364	192.69
623.571	196.69
623.778	195.69
623.985	187.69
624.192	185.69
624.399	185.69
624.606	176.69
624.812	175.69
625.019	180.69
625.226	180.69
625.433	182.69
625.639	186.69
625.846	180.69
626.053	172.69
626.259	178.69
626.466	182.69
626.673	158.69
626.879	177.69
627.086	168.69
627.293	168.69
627.499	161.69
627.706	178.69
627.912	185.69
628.119	166.69
628.325	173.69
628.532	168.69
628.738	163.69
628.945	167.69
629.151	169.69
629.357	160.69
629.564	172.69
629.77	176.69
629.976	182.69
630.183	158.69
630.389	159.69
630.595	172.69
630.802	162.69
631.008	165.69
631.214	166.69
631.42	168.69
631.627	168.69
631.833	160.69
632.039	160.69
632.245	172.69
632.451	150.69
632.657	158.69
632.863	159.69
633.069	162.69
633.275	170.69
633.481	163.69
633.688	162.69
633.893	148.69
634.099	162.69
634.305	157.69
634.511	153.69
634.717	172.69
634.923	164.69
635.129	173.69
635.335	164.69
635.541	175.69
635.747	179.69
635.952	151.69
636.158	170.69
636.364	158.69
636.57	147.69
636.775	156.69
636.981	169.69
637.187	157.69
637.392	158.69
637.598	157.69
637.804	152.69
638.009	169.69
638.215	148.69
638.421	142.69
638.626	160.69
638.832	158.69
639.037	142.69
639.243	157.69
639.448	164.69
639.654	165.69
639.859	157.69
640.065	147.69
640.27	145.69
640.475	155.69
640.681	162.69
640.886	161.69
641.091	147.69
641.297	143.69
641.502	154.69
641.707	164.69
641.913	154.69
642.118	146.69
642.323	147.69
642.528	152.69
642.733	137.69
642.939	152.69
643.144	148.69
643.349	148.69
643.554	145.69
643.759	162.69
643.964	138.69
644.169	153.69
644.374	150.69
644.579	141.69
644.784	144.69
644.989	149.69
645.194	141.69
645.399	139.69
645.604	154.69
645.809	147.69
646.014	162.69
646.219	152.69
646.423	152.69
646.628	147.69
646.833	153.69
647.038	150.69
647.243	165.69
647.447	173.69
647.652	148.69
647.857	140.69
648.062	162.69
648.266	166.69
648.471	166.69
648.676	159.69
648.88	168.69
649.085	157.69
649.289	142.69
649.494	162.69
649.698	169.69
649.903	153.69
650.107	156.69
650.312	136.69
650.516	131.69
650.721	136.69
650.925	141.69
651.13	145.69
651.334	136.69
651.539	147.69
651.743	140.69
651.947	128.69
652.152	136.69
652.356	136.69
652.56	130.69
652.764	135.69
652.969	129.69
653.173	133.69
653.377	138.69
653.581	152.69
653.785	129.69
653.99	126.69
654.194	121.69
654.398	132.69
654.602	132.69
654.806	134.69
655.01	137.69
655.214	135.69
655.418	139.69
655.622	138.69
655.826	133.69
656.03	144.69
656.234	151.69
656.438	152.69
656.642	142.69
656.846	140.69
657.049	125.69
657.253	115.69
657.457	133.69
657.661	125.69
657.865	124.69
658.068	112.69
658.272	117.69
658.476	99.69
658.68	104.69
658.883	110.69
659.087	104.69
659.291	101.69
659.494	114.69
659.698	97.69
659.901	95.69
660.105	95.69
660.309	88.69
660.512	96.69
660.716	100.69
660.919	85.69
661.123	97.69
661.326	94.69
661.53	91.69
661.733	75.69
661.936	89.69
662.14	79.69
662.343	81.69
662.546	81.69
662.75	82.69
662.953	83.69
663.156	82.69
663.36	79.69
663.563	73.69
663.766	71.69
663.969	74.69
664.173	73.69
664.376	79.69
664.579	73.69
664.782	77.69
664.985	77.69
665.188	86.69
665.391	70.69
665.594	81.69
665.797	71.69
666	78.69
666.203	74.69
666.406	67.69
666.609	74.69
666.812	88.69
667.015	80.69
667.218	80.69
667.421	68.69
667.624	74.69
667.827	80.69
668.03	74.69
668.232	87.69
668.435	86.69
668.638	85.69
668.841	89.69
669.043	78.69
669.246	80.69
669.449	84.69
669.651	75.69
669.854	95.69
670.057	72.69
670.259	83.69
670.462	76.69
670.665	94.69
670.867	85.69
671.07	62.69
671.272	84.69
671.475	83.69
671.677	64.69
671.88	74.69
672.082	70.69
672.284	83.69
672.487	76.69
672.689	74.69
672.892	78.69
