Data from 1969.PennyLincolnUp.Lamp.En5.5.200Scan.071719.P1._HRD10591_14-56-19-973.txt Node
Date: Thu Jul 18 14:56:19 EDT 2019
User: cochatt
Spectrometer: HR+D1059
Trigger mode: 1
Integration Time (sec): 1.000000E-1
Scans to average: 1
Electric dark correction enabled: true
Nonlinearity correction enabled: false
Boxcar width: 0
XAxis mode: Wavelengths
Number of Pixels in Spectrum: 2048
>>>>>Begin Spectral Data<<<<<
223.165	-14.62
223.4	-14.62
223.635	-14.62
223.869	-20.62
224.104	-30.62
224.338	-24.62
224.573	-23.62
224.808	-7.62
225.042	-8.62
225.277	-17.62
225.511	-1.62
225.746	7.38
225.98	19.38
226.215	19.38
226.449	31.38
226.683	16.38
226.918	21.38
227.152	34.38
227.387	29.38
227.621	26.38
227.856	24.38
228.09	35.38
228.324	45.38
228.559	58.38
228.793	42.38
229.027	84.38
229.262	88.38
229.496	86.38
229.73	97.38
229.964	110.38
230.199	103.38
230.433	116.38
230.667	104.38
230.901	94.38
231.136	109.38
231.37	98.38
231.604	106.38
231.838	101.38
232.072	92.38
232.306	106.38
232.541	110.38
232.775	94.38
233.009	118.38
233.243	105.38
233.477	99.38
233.711	107.38
233.945	108.38
234.179	117.38
234.413	100.38
234.647	104.38
234.881	112.38
235.115	101.38
235.349	120.38
235.583	106.38
235.817	105.38
236.051	122.38
236.285	103.38
236.519	110.38
236.753	105.38
236.987	124.38
237.221	155.38
237.455	173.38
237.689	131.38
237.922	100.38
238.156	111.38
238.39	102.38
238.624	98.38
238.858	122.38
239.091	99.38
239.325	116.38
239.559	124.38
239.793	117.38
240.027	115.38
240.26	139.38
240.494	123.38
240.728	121.38
240.961	137.38
241.195	133.38
241.429	125.38
241.662	119.38
241.896	88.38
242.13	122.38
242.363	126.38
242.597	118.38
242.83	121.38
243.064	127.38
243.298	128.38
243.531	116.38
243.765	138.38
243.998	127.38
244.232	128.38
244.465	116.38
244.699	112.38
244.932	142.38
245.166	140.38
245.399	125.38
245.633	119.38
245.866	128.38
246.099	136.38
246.333	139.38
246.566	132.38
246.8	133.38
247.033	146.38
247.266	133.38
247.5	136.38
247.733	143.38
247.966	149.38
248.2	137.38
248.433	158.38
248.666	146.38
248.899	160.38
249.133	157.38
249.366	180.38
249.599	163.38
249.832	155.38
250.066	159.38
250.299	161.38
250.532	155.38
250.765	174.38
250.998	170.38
251.231	191.38
251.465	199.38
251.698	188.38
251.931	166.38
252.164	190.38
252.397	183.38
252.63	163.38
252.863	176.38
253.096	206.38
253.329	193.38
253.562	186.38
253.795	181.38
254.028	181.38
254.261	186.38
254.494	187.38
254.727	208.38
254.96	235.38
255.193	201.38
255.426	192.38
255.659	204.38
255.892	168.38
256.124	183.38
256.357	186.38
256.59	186.38
256.823	179.38
257.056	178.38
257.289	174.38
257.521	168.38
257.754	182.38
257.987	168.38
258.22	178.38
258.452	176.38
258.685	164.38
258.918	181.38
259.151	179.38
259.383	186.38
259.616	184.38
259.849	193.38
260.081	185.38
260.314	222.38
260.547	214.38
260.779	197.38
261.012	203.38
261.244	175.38
261.477	192.38
261.71	192.38
261.942	188.38
262.175	193.38
262.407	209.38
262.64	179.38
262.872	196.38
263.105	174.38
263.337	190.38
263.57	155.38
263.802	174.38
264.035	201.38
264.267	195.38
264.499	194.38
264.732	179.38
264.964	182.38
265.197	185.38
265.429	174.38
265.661	197.38
265.894	196.38
266.126	184.38
266.358	185.38
266.591	185.38
266.823	199.38
267.055	201.38
267.287	187.38
267.52	207.38
267.752	197.38
267.984	202.38
268.216	190.38
268.448	200.38
268.681	217.38
268.913	217.38
269.145	223.38
269.377	232.38
269.609	218.38
269.841	242.38
270.073	241.38
270.306	230.38
270.538	270.38
270.77	266.38
271.002	246.38
271.234	243.38
271.466	259.38
271.698	274.38
271.93	268.38
272.162	251.38
272.394	246.38
272.626	241.38
272.858	238.38
273.09	234.38
273.322	234.38
273.553	216.38
273.785	220.38
274.017	236.38
274.249	211.38
274.481	223.38
274.713	220.38
274.945	224.38
275.176	223.38
275.408	230.38
275.64	235.38
275.872	232.38
276.104	212.38
276.335	217.38
276.567	254.38
276.799	266.38
277.031	261.38
277.262	273.38
277.494	262.38
277.726	248.38
277.957	256.38
278.189	233.38
278.421	241.38
278.652	248.38
278.884	224.38
279.115	227.38
279.347	223.38
279.579	233.38
279.81	233.38
280.042	250.38
280.273	231.38
280.505	210.38
280.736	233.38
280.968	255.38
281.199	243.38
281.431	242.38
281.662	235.38
281.894	223.38
282.125	252.38
282.356	239.38
282.588	256.38
282.819	250.38
283.051	263.38
283.282	242.38
283.513	249.38
283.745	253.38
283.976	243.38
284.207	244.38
284.439	242.38
284.67	247.38
284.901	262.38
285.132	282.38
285.364	244.38
285.595	249.38
285.826	258.38
286.057	255.38
286.288	268.38
286.52	260.38
286.751	247.38
286.982	251.38
287.213	248.38
287.444	259.38
287.675	250.38
287.906	272.38
288.138	271.38
288.369	271.38
288.6	257.38
288.831	267.38
289.062	247.38
289.293	259.38
289.524	261.38
289.755	268.38
289.986	264.38
290.217	259.38
290.448	274.38
290.679	261.38
290.91	252.38
291.141	263.38
291.371	255.38
291.602	254.38
291.833	263.38
292.064	248.38
292.295	251.38
292.526	264.38
292.757	265.38
292.987	251.38
293.218	245.38
293.449	264.38
293.68	270.38
293.91	258.38
294.141	264.38
294.372	257.38
294.603	266.38
294.833	259.38
295.064	274.38
295.295	267.38
295.525	279.38
295.756	261.38
295.987	278.38
296.217	287.38
296.448	286.38
296.679	277.38
296.909	259.38
297.14	279.38
297.37	276.38
297.601	276.38
297.831	284.38
298.062	272.38
298.292	290.38
298.523	272.38
298.753	269.38
298.984	281.38
299.214	288.38
299.445	280.38
299.675	281.38
299.905	272.38
300.136	296.38
300.366	273.38
300.597	272.38
300.827	281.38
301.057	306.38
301.288	300.38
301.518	304.38
301.748	304.38
301.979	283.38
302.209	297.38
302.439	296.38
302.669	314.38
302.9	298.38
303.13	300.38
303.36	292.38
303.59	291.38
303.82	292.38
304.051	296.38
304.281	314.38
304.511	281.38
304.741	297.38
304.971	293.38
305.201	292.38
305.431	296.38
305.661	295.38
305.891	309.38
306.121	304.38
306.352	304.38
306.582	278.38
306.812	291.38
307.042	286.38
307.272	299.38
307.502	301.38
307.731	294.38
307.961	299.38
308.191	297.38
308.421	309.38
308.651	294.38
308.881	297.38
309.111	299.38
309.341	314.38
309.571	316.38
309.8	323.38
310.03	314.38
310.26	309.38
310.49	307.38
310.72	326.38
310.949	334.38
311.179	334.38
311.409	336.38
311.639	305.38
311.868	339.38
312.098	334.38
312.328	320.38
312.557	347.38
312.787	342.38
313.017	330.38
313.246	326.38
313.476	315.38
313.706	336.38
313.935	308.38
314.165	358.38
314.394	342.38
314.624	340.38
314.853	339.38
315.083	347.38
315.312	323.38
315.542	311.38
315.771	319.38
316.001	311.38
316.23	312.38
316.46	324.38
316.689	319.38
316.919	318.38
317.148	354.38
317.377	337.38
317.607	323.38
317.836	341.38
318.065	323.38
318.295	317.38
318.524	322.38
318.753	313.38
318.983	330.38
319.212	346.38
319.441	341.38
319.67	338.38
319.9	327.38
320.129	324.38
320.358	327.38
320.587	344.38
320.816	329.38
321.046	318.38
321.275	342.38
321.504	330.38
321.733	350.38
321.962	333.38
322.191	353.38
322.42	347.38
322.649	361.38
322.878	362.38
323.108	378.38
323.337	377.38
323.566	378.38
323.795	388.38
324.024	425.38
324.253	511.38
324.482	669.38
324.71	951.38
324.939	1268.38
325.168	1076.38
325.397	596.38
325.626	443.38
325.855	395.38
326.084	386.38
326.313	376.38
326.542	397.38
326.77	441.38
326.999	471.38
327.228	622.38
327.457	852.38
327.686	965.38
327.914	670.38
328.143	526.38
328.372	462.38
328.6	446.38
328.829	425.38
329.058	435.38
329.287	434.38
329.515	406.38
329.744	422.38
329.972	408.38
330.201	414.38
330.43	450.38
330.658	456.38
330.887	470.38
331.115	481.38
331.344	395.38
331.572	388.38
331.801	426.38
332.03	423.38
332.258	393.38
332.486	394.38
332.715	388.38
332.943	407.38
333.172	406.38
333.4	422.38
333.629	433.38
333.857	441.38
334.085	446.38
334.314	443.38
334.542	468.38
334.771	471.38
334.999	426.38
335.227	425.38
335.455	411.38
335.684	395.38
335.912	417.38
336.14	401.38
336.369	394.38
336.597	400.38
336.825	396.38
337.053	374.38
337.281	379.38
337.51	395.38
337.738	382.38
337.966	390.38
338.194	386.38
338.422	400.38
338.65	387.38
338.878	393.38
339.106	375.38
339.334	374.38
339.562	354.38
339.79	347.38
340.018	373.38
340.246	374.38
340.474	375.38
340.702	386.38
340.93	364.38
341.158	368.38
341.386	386.38
341.614	353.38
341.842	378.38
342.07	379.38
342.298	358.38
342.526	355.38
342.754	354.38
342.981	343.38
343.209	346.38
343.437	367.38
343.665	382.38
343.893	382.38
344.12	391.38
344.348	386.38
344.576	371.38
344.804	373.38
345.031	360.38
345.259	368.38
345.487	360.38
345.714	336.38
345.942	336.38
346.17	343.38
346.397	358.38
346.625	366.38
346.853	364.38
347.08	350.38
347.308	335.38
347.535	372.38
347.763	354.38
347.99	353.38
348.218	356.38
348.445	354.38
348.673	356.38
348.9	335.38
349.128	340.38
349.355	340.38
349.583	344.38
349.81	334.38
350.037	342.38
350.265	334.38
350.492	301.38
350.72	332.38
350.947	340.38
351.174	329.38
351.402	350.38
351.629	362.38
351.856	351.38
352.083	336.38
352.311	361.38
352.538	361.38
352.765	364.38
352.992	353.38
353.22	337.38
353.447	347.38
353.674	339.38
353.901	315.38
354.128	338.38
354.355	341.38
354.583	336.38
354.81	327.38
355.037	320.38
355.264	350.38
355.491	338.38
355.718	328.38
355.945	333.38
356.172	314.38
356.399	346.38
356.626	337.38
356.853	329.38
357.08	338.38
357.307	331.38
357.534	318.38
357.761	331.38
357.988	318.38
358.215	329.38
358.441	324.38
358.668	326.38
358.895	333.38
359.122	331.38
359.349	344.38
359.576	345.38
359.802	347.38
360.029	381.38
360.256	374.38
360.483	370.38
360.709	355.38
360.936	336.38
361.163	360.38
361.39	342.38
361.616	345.38
361.843	343.38
362.07	342.38
362.296	331.38
362.523	333.38
362.749	333.38
362.976	348.38
363.203	345.38
363.429	320.38
363.656	329.38
363.882	355.38
364.109	323.38
364.335	313.38
364.562	324.38
364.788	335.38
365.015	338.38
365.241	337.38
365.468	324.38
365.694	326.38
365.92	343.38
366.147	324.38
366.373	318.38
366.599	320.38
366.826	318.38
367.052	315.38
367.278	341.38
367.505	329.38
367.731	347.38
367.957	323.38
368.184	328.38
368.41	340.38
368.636	341.38
368.862	332.38
369.089	339.38
369.315	313.38
369.541	321.38
369.767	345.38
369.993	344.38
370.219	331.38
370.445	331.38
370.672	326.38
370.898	330.38
371.124	340.38
371.35	330.38
371.576	339.38
371.802	321.38
372.028	331.38
372.254	320.38
372.48	332.38
372.706	350.38
372.932	342.38
373.158	344.38
373.384	343.38
373.61	313.38
373.835	333.38
374.061	333.38
374.287	338.38
374.513	347.38
374.739	363.38
374.965	367.38
375.191	342.38
375.416	362.38
375.642	339.38
375.868	355.38
376.094	339.38
376.319	338.38
376.545	345.38
376.771	342.38
376.997	324.38
377.222	335.38
377.448	332.38
377.674	351.38
377.899	352.38
378.125	337.38
378.35	339.38
378.576	324.38
378.802	338.38
379.027	329.38
379.253	338.38
379.478	326.38
379.704	323.38
379.929	350.38
380.155	322.38
380.38	342.38
380.606	347.38
380.831	328.38
381.057	330.38
381.282	324.38
381.507	342.38
381.733	332.38
381.958	331.38
382.184	334.38
382.409	334.38
382.634	346.38
382.86	350.38
383.085	354.38
383.31	341.38
383.535	340.38
383.761	322.38
383.986	353.38
384.211	348.38
384.436	369.38
384.662	374.38
384.887	380.38
385.112	406.38
385.337	379.38
385.562	376.38
385.787	370.38
386.013	378.38
386.238	381.38
386.463	370.38
386.688	375.38
386.913	374.38
387.138	376.38
387.363	374.38
387.588	379.38
387.813	383.38
388.038	390.38
388.263	378.38
388.488	366.38
388.713	369.38
388.938	383.38
389.163	384.38
389.387	375.38
389.612	378.38
389.837	357.38
390.062	369.38
390.287	354.38
390.512	353.38
390.736	384.38
390.961	377.38
391.186	376.38
391.411	394.38
391.636	374.38
391.86	412.38
392.085	392.38
392.31	401.38
392.534	408.38
392.759	398.38
392.984	381.38
393.208	368.38
393.433	369.38
393.658	382.38
393.882	378.38
394.107	376.38
394.331	377.38
394.556	390.38
394.78	370.38
395.005	382.38
395.229	361.38
395.454	400.38
395.678	400.38
395.903	421.38
396.127	402.38
396.352	413.38
396.576	398.38
396.801	402.38
397.025	391.38
397.249	387.38
397.474	410.38
397.698	393.38
397.922	437.38
398.147	408.38
398.371	433.38
398.595	437.38
398.82	446.38
399.044	470.38
399.268	482.38
399.492	548.38
399.717	583.38
399.941	597.38
400.165	565.38
400.389	544.38
400.613	475.38
400.837	454.38
401.062	448.38
401.286	453.38
401.51	448.38
401.734	433.38
401.958	444.38
402.182	439.38
402.406	468.38
402.63	443.38
402.854	466.38
403.078	443.38
403.302	465.38
403.526	472.38
403.75	472.38
403.974	481.38
404.198	457.38
404.422	480.38
404.645	473.38
404.869	490.38
405.093	483.38
405.317	495.38
405.541	527.38
405.765	502.38
405.988	480.38
406.212	480.38
406.436	490.38
406.66	492.38
406.883	485.38
407.107	520.38
407.331	553.38
407.555	587.38
407.778	581.38
408.002	523.38
408.226	502.38
408.449	491.38
408.673	504.38
408.896	489.38
409.12	522.38
409.344	488.38
409.567	489.38
409.791	458.38
410.014	467.38
410.238	452.38
410.461	448.38
410.685	454.38
410.908	442.38
411.132	471.38
411.355	490.38
411.578	476.38
411.802	437.38
412.025	453.38
412.249	456.38
412.472	470.38
412.695	463.38
412.919	483.38
413.142	445.38
413.365	433.38
413.589	447.38
413.812	447.38
414.035	436.38
414.258	435.38
414.482	415.38
414.705	432.38
414.928	427.38
415.151	438.38
415.374	405.38
415.597	426.38
415.821	437.38
416.044	435.38
416.267	427.38
416.49	435.38
416.713	438.38
416.936	406.38
417.159	430.38
417.382	417.38
417.605	425.38
417.828	440.38
418.051	451.38
418.274	443.38
418.497	435.38
418.72	450.38
418.943	433.38
419.166	455.38
419.389	456.38
419.611	469.38
419.834	457.38
420.057	452.38
420.28	456.38
420.503	445.38
420.726	453.38
420.948	446.38
421.171	482.38
421.394	490.38
421.617	474.38
421.839	460.38
422.062	456.38
422.285	470.38
422.507	494.38
422.73	534.38
422.953	494.38
423.175	469.38
423.398	452.38
423.621	475.38
423.843	501.38
424.066	476.38
424.288	478.38
424.511	484.38
424.733	516.38
424.956	562.38
425.178	543.38
425.401	512.38
425.623	535.38
425.846	463.38
426.068	446.38
426.291	451.38
426.513	451.38
426.735	468.38
426.958	494.38
427.18	528.38
427.402	592.38
427.625	651.38
427.847	562.38
428.069	478.38
428.292	496.38
428.514	434.38
428.736	416.38
428.958	425.38
429.181	415.38
429.403	409.38
429.625	414.38
429.847	451.38
430.069	470.38
430.292	444.38
430.514	435.38
430.736	412.38
430.958	418.38
431.18	402.38
431.402	410.38
431.624	413.38
431.846	407.38
432.068	408.38
432.29	415.38
432.512	389.38
432.734	399.38
432.956	407.38
433.178	410.38
433.4	411.38
433.622	424.38
433.844	424.38
434.066	430.38
434.287	424.38
434.509	426.38
434.731	434.38
434.953	452.38
435.175	449.38
435.397	470.38
435.618	462.38
435.84	457.38
436.062	516.38
436.284	576.38
436.505	477.38
436.727	441.38
436.949	425.38
437.17	434.38
437.392	407.38
437.614	436.38
437.835	443.38
438.057	512.38
438.278	547.38
438.5	546.38
438.721	568.38
438.943	570.38
439.165	467.38
439.386	443.38
439.608	440.38
439.829	455.38
440.05	451.38
440.272	484.38
440.493	483.38
440.715	444.38
440.936	434.38
441.158	438.38
441.379	434.38
441.6	454.38
441.822	475.38
442.043	492.38
442.264	542.38
442.486	565.38
442.707	504.38
442.928	448.38
443.149	471.38
443.371	496.38
443.592	523.38
443.813	564.38
444.034	597.38
444.255	525.38
444.476	479.38
444.698	488.38
444.919	501.38
445.14	594.38
445.361	540.38
445.582	487.38
445.803	531.38
446.024	579.38
446.245	550.38
446.466	527.38
446.687	454.38
446.908	458.38
447.129	424.38
447.35	431.38
447.571	402.38
447.792	384.38
448.013	415.38
448.234	426.38
448.455	451.38
448.675	541.38
448.896	554.38
449.117	498.38
449.338	502.38
449.559	549.38
449.779	595.38
450	514.38
450.221	444.38
450.442	403.38
450.662	407.38
450.883	426.38
451.104	415.38
451.324	394.38
451.545	395.38
451.766	387.38
451.986	378.38
452.207	380.38
452.428	371.38
452.648	358.38
452.869	377.38
453.089	390.38
453.31	376.38
453.53	403.38
453.751	374.38
453.971	379.38
454.192	374.38
454.412	374.38
454.633	385.38
454.853	374.38
455.073	359.38
455.294	390.38
455.514	430.38
455.734	421.38
455.955	378.38
456.175	352.38
456.395	359.38
456.616	342.38
456.836	342.38
457.056	349.38
457.276	358.38
457.497	368.38
457.717	356.38
457.937	348.38
458.157	367.38
458.377	360.38
458.598	388.38
458.818	406.38
459.038	456.38
459.258	476.38
459.478	422.38
459.698	437.38
459.918	412.38
460.138	416.38
460.358	443.38
460.578	420.38
460.798	432.38
461.018	429.38
461.238	437.38
461.458	409.38
461.678	427.38
461.898	412.38
462.118	437.38
462.338	453.38
462.558	444.38
462.777	467.38
462.997	489.38
463.217	528.38
463.437	510.38
463.657	517.38
463.876	466.38
464.096	463.38
464.316	478.38
464.536	484.38
464.755	474.38
464.975	489.38
465.195	462.38
465.414	495.38
465.634	456.38
465.854	409.38
466.073	422.38
466.293	384.38
466.512	405.38
466.732	395.38
466.951	394.38
467.171	390.38
467.391	401.38
467.61	392.38
467.829	412.38
468.049	405.38
468.268	391.38
468.488	391.38
468.707	387.38
468.927	396.38
469.146	378.38
469.365	377.38
469.585	373.38
469.804	391.38
470.023	416.38
470.243	415.38
470.462	429.38
470.681	437.38
470.901	418.38
471.12	408.38
471.339	410.38
471.558	391.38
471.777	408.38
471.997	402.38
472.216	379.38
472.435	408.38
472.654	409.38
472.873	366.38
473.092	390.38
473.311	406.38
473.53	398.38
473.749	391.38
473.968	416.38
474.187	487.38
474.406	481.38
474.625	400.38
474.844	392.38
475.063	394.38
475.282	400.38
475.501	422.38
475.72	418.38
475.939	398.38
476.158	394.38
476.377	396.38
476.596	389.38
476.814	399.38
477.033	379.38
477.252	403.38
477.471	419.38
477.69	417.38
477.908	435.38
478.127	427.38
478.346	443.38
478.564	455.38
478.783	452.38
479.002	456.38
479.22	447.38
479.439	466.38
479.658	470.38
479.876	477.38
480.095	466.38
480.313	489.38
480.532	512.38
480.751	504.38
480.969	505.38
481.188	544.38
481.406	556.38
481.624	499.38
481.843	443.38
482.061	451.38
482.28	461.38
482.498	455.38
482.717	453.38
482.935	440.38
483.153	442.38
483.372	442.38
483.59	460.38
483.808	440.38
484.027	458.38
484.245	454.38
484.463	470.38
484.681	460.38
484.9	466.38
485.118	452.38
485.336	452.38
485.554	458.38
485.772	452.38
485.99	455.38
486.209	475.38
486.427	441.38
486.645	472.38
486.863	489.38
487.081	481.38
487.299	463.38
487.517	489.38
487.735	474.38
487.953	481.38
488.171	494.38
488.389	496.38
488.607	488.38
488.825	459.38
489.043	466.38
489.261	475.38
489.479	495.38
489.696	480.38
489.914	504.38
490.132	506.38
490.35	499.38
490.568	494.38
490.786	507.38
491.003	528.38
491.221	539.38
491.439	530.38
491.657	538.38
491.874	565.38
492.092	560.38
492.31	560.38
492.527	566.38
492.745	570.38
492.963	550.38
493.18	568.38
493.398	577.38
493.615	566.38
493.833	558.38
494.05	553.38
494.268	566.38
494.485	562.38
494.703	560.38
494.92	587.38
495.138	581.38
495.355	572.38
495.573	579.38
495.79	556.38
496.008	574.38
496.225	570.38
496.442	564.38
496.66	567.38
496.877	580.38
497.094	579.38
497.312	602.38
497.529	583.38
497.746	583.38
497.963	619.38
498.181	633.38
498.398	648.38
498.615	652.38
498.832	690.38
499.049	727.38
499.267	736.38
499.484	767.38
499.701	807.38
499.918	864.38
500.135	916.38
500.352	1006.38
500.569	1048.38
500.786	992.38
501.003	969.38
501.22	902.38
501.437	831.38
501.654	814.38
501.871	756.38
502.088	739.38
502.305	710.38
502.522	685.38
502.739	664.38
502.956	638.38
503.172	618.38
503.389	604.38
503.606	576.38
503.823	596.38
504.04	578.38
504.256	582.38
504.473	597.38
504.69	583.38
504.907	578.38
505.123	568.38
505.34	583.38
505.557	550.38
505.773	554.38
505.99	539.38
506.207	559.38
506.423	543.38
506.64	512.38
506.856	512.38
507.073	513.38
507.289	520.38
507.506	514.38
507.722	529.38
507.939	528.38
508.155	510.38
508.372	490.38
508.588	512.38
508.805	511.38
509.021	472.38
509.238	508.38
509.454	507.38
509.67	506.38
509.887	485.38
510.103	498.38
510.319	512.38
510.536	547.38
510.752	809.38
510.968	691.38
511.184	489.38
511.401	474.38
511.617	479.38
511.833	470.38
512.049	480.38
512.265	483.38
512.481	465.38
512.698	459.38
512.914	446.38
513.13	455.38
513.346	455.38
513.562	451.38
513.778	447.38
513.994	459.38
514.21	457.38
514.426	489.38
514.642	523.38
514.858	490.38
515.074	539.38
515.29	584.38
515.506	888.38
515.721	730.38
515.937	551.38
516.153	513.38
516.369	512.38
516.585	495.38
516.801	519.38
517.016	502.38
517.232	520.38
517.448	545.38
517.664	550.38
517.879	521.38
518.095	550.38
518.311	525.38
518.527	513.38
518.742	498.38
518.958	468.38
519.173	485.38
519.389	476.38
519.605	482.38
519.82	491.38
520.036	468.38
520.251	483.38
520.467	501.38
520.682	490.38
520.898	489.38
521.113	497.38
521.329	553.38
521.544	570.38
521.76	660.38
521.975	1101.38
522.19	1094.38
522.406	656.38
522.621	502.38
522.836	462.38
523.052	462.38
523.267	436.38
523.482	423.38
523.698	438.38
523.913	425.38
524.128	402.38
524.343	428.38
524.559	420.38
524.774	421.38
524.989	423.38
525.204	414.38
525.419	398.38
525.634	393.38
525.849	395.38
526.064	389.38
526.28	410.38
526.495	392.38
526.71	393.38
526.925	390.38
527.14	380.38
527.355	394.38
527.57	389.38
527.785	388.38
527.999	391.38
528.214	378.38
528.429	385.38
528.644	412.38
528.859	409.38
529.074	379.38
529.289	407.38
529.503	444.38
529.718	434.38
529.933	410.38
530.148	368.38
530.363	400.38
530.577	377.38
530.792	379.38
531.007	382.38
531.221	377.38
531.436	372.38
531.651	380.38
531.865	374.38
532.08	387.38
532.295	379.38
532.509	348.38
532.724	368.38
532.938	385.38
533.153	372.38
533.367	373.38
533.582	384.38
533.796	374.38
534.011	379.38
534.225	376.38
534.44	365.38
534.654	367.38
534.868	355.38
535.083	372.38
535.297	390.38
535.511	388.38
535.726	381.38
535.94	377.38
536.154	378.38
536.369	363.38
536.583	347.38
536.797	348.38
537.011	360.38
537.225	361.38
537.44	362.38
537.654	374.38
537.868	340.38
538.082	361.38
538.296	359.38
538.51	367.38
538.724	350.38
538.938	362.38
539.153	358.38
539.367	375.38
539.581	377.38
539.795	363.38
540.009	360.38
540.222	363.38
540.436	371.38
540.65	364.38
540.864	359.38
541.078	352.38
541.292	370.38
541.506	366.38
541.72	367.38
541.934	356.38
542.147	377.38
542.361	368.38
542.575	361.38
542.789	355.38
543.002	357.38
543.216	356.38
543.43	367.38
543.644	372.38
543.857	362.38
544.071	376.38
544.285	371.38
544.498	367.38
544.712	373.38
544.925	379.38
545.139	376.38
545.352	379.38
545.566	364.38
545.779	340.38
545.993	364.38
546.206	387.38
546.42	382.38
546.633	369.38
546.847	369.38
547.06	356.38
547.274	365.38
547.487	359.38
547.7	356.38
547.914	355.38
548.127	360.38
548.34	373.38
548.554	358.38
548.767	339.38
548.98	347.38
549.193	392.38
549.407	368.38
549.62	368.38
549.833	354.38
550.046	346.38
550.259	371.38
550.473	360.38
550.686	378.38
550.899	356.38
551.112	370.38
551.325	372.38
551.538	356.38
551.751	342.38
551.964	351.38
552.177	363.38
552.39	357.38
552.603	355.38
552.816	369.38
553.029	366.38
553.242	381.38
553.455	357.38
553.667	378.38
553.88	386.38
554.093	374.38
554.306	365.38
554.519	375.38
554.732	346.38
554.944	364.38
555.157	343.38
555.37	350.38
555.583	359.38
555.795	358.38
556.008	325.38
556.221	332.38
556.433	327.38
556.646	323.38
556.859	324.38
557.071	314.38
557.284	321.38
557.496	315.38
557.709	321.38
557.921	331.38
558.134	308.38
558.346	300.38
558.559	318.38
558.771	306.38
558.984	312.38
559.196	305.38
559.409	322.38
559.621	333.38
559.833	286.38
560.046	305.38
560.258	318.38
560.47	320.38
560.683	303.38
560.895	307.38
561.107	319.38
561.32	320.38
561.532	307.38
561.744	321.38
561.956	311.38
562.168	325.38
562.381	313.38
562.593	305.38
562.805	315.38
563.017	309.38
563.229	329.38
563.441	332.38
563.653	298.38
563.865	310.38
564.077	335.38
564.289	329.38
564.501	334.38
564.713	347.38
564.925	336.38
565.137	336.38
565.349	333.38
565.561	335.38
565.773	367.38
565.985	387.38
566.197	370.38
566.408	382.38
566.62	400.38
566.832	419.38
567.044	397.38
567.255	423.38
567.467	434.38
567.679	458.38
567.891	478.38
568.102	475.38
568.314	446.38
568.526	417.38
568.737	405.38
568.949	395.38
569.161	359.38
569.372	368.38
569.584	344.38
569.795	350.38
570.007	354.38
570.218	355.38
570.43	324.38
570.641	332.38
570.853	313.38
571.064	326.38
571.276	339.38
571.487	311.38
571.698	306.38
571.91	311.38
572.121	294.38
572.333	313.38
572.544	290.38
572.755	281.38
572.966	297.38
573.178	298.38
573.389	279.38
573.6	287.38
573.811	299.38
574.023	280.38
574.234	286.38
574.445	270.38
574.656	269.38
574.867	277.38
575.078	264.38
575.289	278.38
575.501	277.38
575.712	264.38
575.923	275.38
576.134	281.38
576.345	278.38
576.556	246.38
576.767	263.38
576.978	251.38
577.188	259.38
577.399	270.38
577.61	244.38
577.821	275.38
578.032	250.38
578.243	277.38
578.454	390.38
578.665	310.38
578.875	259.38
579.086	251.38
579.297	255.38
579.508	266.38
579.718	262.38
579.929	244.38
580.14	255.38
580.35	251.38
580.561	242.38
580.772	256.38
580.982	228.38
581.193	235.38
581.403	239.38
581.614	266.38
581.825	242.38
582.035	227.38
582.246	250.38
582.456	231.38
582.667	260.38
582.877	237.38
583.087	244.38
583.298	236.38
583.508	248.38
583.719	236.38
583.929	243.38
584.139	247.38
584.35	243.38
584.56	254.38
584.77	244.38
584.981	221.38
585.191	238.38
585.401	242.38
585.611	249.38
585.821	231.38
586.032	225.38
586.242	235.38
586.452	242.38
586.662	239.38
586.872	229.38
587.082	240.38
587.292	231.38
587.502	244.38
587.713	250.38
587.923	255.38
588.133	243.38
588.343	243.38
588.553	239.38
588.762	260.38
588.972	242.38
589.182	240.38
589.392	231.38
589.602	244.38
589.812	238.38
590.022	233.38
590.232	249.38
590.441	252.38
590.651	236.38
590.861	244.38
591.071	230.38
591.281	242.38
591.49	261.38
591.7	252.38
591.91	264.38
592.119	247.38
592.329	249.38
592.539	258.38
592.748	268.38
592.958	256.38
593.167	257.38
593.377	257.38
593.587	291.38
593.796	290.38
594.006	277.38
594.215	283.38
594.424	268.38
594.634	270.38
594.843	272.38
595.053	264.38
595.262	252.38
595.472	240.38
595.681	266.38
595.89	229.38
596.1	254.38
596.309	244.38
596.518	237.38
596.727	238.38
596.937	227.38
597.146	221.38
597.355	241.38
597.564	222.38
597.774	219.38
597.983	238.38
598.192	217.38
598.401	206.38
598.61	221.38
598.819	211.38
599.028	206.38
599.237	211.38
599.446	198.38
599.655	218.38
599.864	214.38
600.073	208.38
600.282	226.38
600.491	211.38
600.7	222.38
600.909	215.38
601.118	198.38
601.327	208.38
601.536	211.38
601.745	203.38
601.953	211.38
602.162	202.38
602.371	224.38
602.58	209.38
602.789	230.38
602.997	230.38
603.206	222.38
603.415	210.38
603.623	206.38
603.832	208.38
604.041	186.38
604.249	191.38
604.458	204.38
604.666	207.38
604.875	206.38
605.084	197.38
605.292	193.38
605.501	191.38
605.709	193.38
605.918	213.38
606.126	209.38
606.334	200.38
606.543	211.38
606.751	194.38
606.96	206.38
607.168	208.38
607.376	211.38
607.585	191.38
607.793	195.38
608.001	206.38
608.21	208.38
608.418	204.38
608.626	191.38
608.834	210.38
609.043	200.38
609.251	187.38
609.459	202.38
609.667	197.38
609.875	206.38
610.083	197.38
610.291	197.38
610.499	201.38
610.707	199.38
610.916	210.38
611.124	205.38
611.332	225.38
611.54	224.38
611.748	208.38
611.955	197.38
612.163	203.38
612.371	192.38
612.579	191.38
612.787	185.38
612.995	213.38
613.203	214.38
613.411	215.38
613.618	191.38
613.826	186.38
614.034	198.38
614.242	207.38
614.449	195.38
614.657	200.38
614.865	205.38
615.072	209.38
615.28	202.38
615.488	208.38
615.695	203.38
615.903	206.38
616.111	220.38
616.318	200.38
616.526	206.38
616.733	197.38
616.941	181.38
617.148	197.38
617.356	208.38
617.563	186.38
617.771	202.38
617.978	199.38
618.185	199.38
618.393	184.38
618.6	203.38
618.807	201.38
619.015	206.38
619.222	199.38
619.429	218.38
619.637	204.38
619.844	195.38
620.051	193.38
620.258	196.38
620.466	197.38
620.673	190.38
620.88	190.38
621.087	186.38
621.294	181.38
621.501	193.38
621.708	193.38
621.915	187.38
622.122	196.38
622.329	193.38
622.536	193.38
622.743	192.38
622.95	186.38
623.157	193.38
623.364	197.38
623.571	196.38
623.778	182.38
623.985	189.38
624.192	174.38
624.399	198.38
624.606	182.38
624.812	187.38
625.019	169.38
625.226	176.38
625.433	184.38
625.639	184.38
625.846	176.38
626.053	179.38
626.259	198.38
626.466	174.38
626.673	177.38
626.879	179.38
627.086	180.38
627.293	175.38
627.499	174.38
627.706	182.38
627.912	185.38
628.119	181.38
628.325	190.38
628.532	167.38
628.738	171.38
628.945	184.38
629.151	172.38
629.357	174.38
629.564	169.38
629.77	171.38
629.976	176.38
630.183	164.38
630.389	161.38
630.595	160.38
630.802	168.38
631.008	161.38
631.214	163.38
631.42	152.38
631.627	156.38
631.833	166.38
632.039	164.38
632.245	180.38
632.451	182.38
632.657	165.38
632.863	167.38
633.069	180.38
633.275	188.38
633.481	161.38
633.688	161.38
633.893	170.38
634.099	168.38
634.305	151.38
634.511	162.38
634.717	166.38
634.923	167.38
635.129	151.38
635.335	167.38
635.541	169.38
635.747	158.38
635.952	158.38
636.158	165.38
636.364	162.38
636.57	169.38
636.775	169.38
636.981	169.38
637.187	165.38
637.392	160.38
637.598	163.38
637.804	177.38
638.009	164.38
638.215	147.38
638.421	169.38
638.626	150.38
638.832	159.38
639.037	159.38
639.243	134.38
639.448	156.38
639.654	138.38
639.859	155.38
640.065	142.38
640.27	162.38
640.475	132.38
640.681	140.38
640.886	162.38
641.091	154.38
641.297	150.38
641.502	151.38
641.707	150.38
641.913	160.38
642.118	149.38
642.323	150.38
642.528	156.38
642.733	156.38
642.939	144.38
643.144	162.38
643.349	142.38
643.554	147.38
643.759	135.38
643.964	148.38
644.169	129.38
644.374	142.38
644.579	140.38
644.784	141.38
644.989	152.38
645.194	154.38
645.399	155.38
645.604	151.38
645.809	153.38
646.014	152.38
646.219	139.38
646.423	149.38
646.628	148.38
646.833	149.38
647.038	159.38
647.243	153.38
647.447	153.38
647.652	162.38
647.857	155.38
648.062	156.38
648.266	160.38
648.471	145.38
648.676	173.38
648.88	148.38
649.085	145.38
649.289	144.38
649.494	150.38
649.698	157.38
649.903	178.38
650.107	154.38
650.312	161.38
650.516	146.38
650.721	139.38
650.925	139.38
651.13	130.38
651.334	126.38
651.539	139.38
651.743	127.38
651.947	138.38
652.152	141.38
652.356	129.38
652.56	118.38
652.764	134.38
652.969	134.38
653.173	121.38
653.377	128.38
653.581	116.38
653.785	125.38
653.99	148.38
654.194	123.38
654.398	115.38
654.602	129.38
654.806	124.38
655.01	124.38
655.214	128.38
655.418	131.38
655.622	129.38
655.826	132.38
656.03	124.38
656.234	113.38
656.438	124.38
656.642	116.38
656.846	137.38
657.049	123.38
657.253	114.38
657.457	111.38
657.661	121.38
657.865	110.38
658.068	110.38
658.272	103.38
658.476	105.38
658.68	108.38
658.883	107.38
659.087	104.38
659.291	100.38
659.494	104.38
659.698	104.38
659.901	96.38
660.105	117.38
660.309	102.38
660.512	81.38
660.716	103.38
660.919	91.38
661.123	87.38
661.326	72.38
661.53	99.38
661.733	92.38
661.936	80.38
662.14	87.38
662.343	82.38
662.546	106.38
662.75	71.38
662.953	86.38
663.156	73.38
663.36	87.38
663.563	89.38
663.766	89.38
663.969	93.38
664.173	88.38
664.376	77.38
664.579	73.38
664.782	68.38
664.985	84.38
665.188	79.38
665.391	83.38
665.594	87.38
665.797	80.38
666	78.38
666.203	77.38
666.406	82.38
666.609	76.38
666.812	73.38
667.015	87.38
667.218	82.38
667.421	75.38
667.624	84.38
667.827	86.38
668.03	87.38
668.232	76.38
668.435	92.38
668.638	71.38
668.841	82.38
669.043	76.38
669.246	84.38
669.449	74.38
669.651	81.38
669.854	74.38
670.057	85.38
670.259	68.38
670.462	82.38
670.665	86.38
670.867	76.38
671.07	70.38
671.272	77.38
671.475	79.38
671.677	68.38
671.88	98.38
672.082	82.38
672.284	79.38
672.487	71.38
672.689	75.38
672.892	85.38
