Data from 1969.PennyLincolnUp.Lamp.En5.5.200Scan.071719.P1._HRD10591_14-56-04-976.txt Node
Date: Thu Jul 18 14:56:04 EDT 2019
User: cochatt
Spectrometer: HR+D1059
Trigger mode: 1
Integration Time (sec): 1.000000E-1
Scans to average: 1
Electric dark correction enabled: true
Nonlinearity correction enabled: false
Boxcar width: 0
XAxis mode: Wavelengths
Number of Pixels in Spectrum: 2048
>>>>>Begin Spectral Data<<<<<
223.165	-15.94
223.4	-15.94
223.635	-15.94
223.869	-28.94
224.104	-12.94
224.338	-15.94
224.573	-18.94
224.808	-14.94
225.042	-18.94
225.277	-5.94
225.511	-1.94
225.746	9.06
225.98	12.06
226.215	16.06
226.449	21.06
226.683	31.06
226.918	30.06
227.152	15.06
227.387	29.06
227.621	32.06
227.856	35.06
228.09	47.06
228.324	65.06
228.559	59.06
228.793	68.06
229.027	93.06
229.262	94.06
229.496	102.06
229.73	109.06
229.964	121.06
230.199	113.06
230.433	100.06
230.667	94.06
230.901	108.06
231.136	96.06
231.37	84.06
231.604	104.06
231.838	84.06
232.072	99.06
232.306	102.06
232.541	96.06
232.775	114.06
233.009	106.06
233.243	102.06
233.477	91.06
233.711	96.06
233.945	104.06
234.179	109.06
234.413	102.06
234.647	106.06
234.881	99.06
235.115	112.06
235.349	110.06
235.583	109.06
235.817	114.06
236.051	112.06
236.285	125.06
236.519	112.06
236.753	116.06
236.987	115.06
237.221	153.06
237.455	171.06
237.689	156.06
237.922	122.06
238.156	132.06
238.39	100.06
238.624	101.06
238.858	112.06
239.091	102.06
239.325	110.06
239.559	116.06
239.793	108.06
240.027	111.06
240.26	115.06
240.494	139.06
240.728	132.06
240.961	142.06
241.195	129.06
241.429	116.06
241.662	113.06
241.896	115.06
242.13	114.06
242.363	117.06
242.597	122.06
242.83	118.06
243.064	122.06
243.298	115.06
243.531	121.06
243.765	121.06
243.998	134.06
244.232	136.06
244.465	114.06
244.699	142.06
244.932	119.06
245.166	125.06
245.399	135.06
245.633	131.06
245.866	133.06
246.099	119.06
246.333	132.06
246.566	130.06
246.8	124.06
247.033	122.06
247.266	135.06
247.5	142.06
247.733	140.06
247.966	146.06
248.2	146.06
248.433	142.06
248.666	140.06
248.899	149.06
249.133	147.06
249.366	156.06
249.599	160.06
249.832	152.06
250.066	156.06
250.299	145.06
250.532	162.06
250.765	165.06
250.998	186.06
251.231	189.06
251.465	162.06
251.698	171.06
251.931	156.06
252.164	179.06
252.397	168.06
252.63	176.06
252.863	178.06
253.096	166.06
253.329	172.06
253.562	193.06
253.795	176.06
254.028	168.06
254.261	171.06
254.494	194.06
254.727	214.06
254.96	227.06
255.193	209.06
255.426	192.06
255.659	171.06
255.892	191.06
256.124	197.06
256.357	191.06
256.59	204.06
256.823	181.06
257.056	184.06
257.289	161.06
257.521	164.06
257.754	179.06
257.987	178.06
258.22	178.06
258.452	160.06
258.685	181.06
258.918	176.06
259.151	187.06
259.383	181.06
259.616	196.06
259.849	183.06
260.081	220.06
260.314	204.06
260.547	213.06
260.779	213.06
261.012	197.06
261.244	172.06
261.477	194.06
261.71	188.06
261.942	193.06
262.175	210.06
262.407	191.06
262.64	200.06
262.872	204.06
263.105	185.06
263.337	201.06
263.57	174.06
263.802	180.06
264.035	185.06
264.267	185.06
264.499	160.06
264.732	169.06
264.964	181.06
265.197	206.06
265.429	182.06
265.661	192.06
265.894	195.06
266.126	195.06
266.358	202.06
266.591	196.06
266.823	189.06
267.055	208.06
267.287	208.06
267.52	202.06
267.752	200.06
267.984	195.06
268.216	189.06
268.448	209.06
268.681	209.06
268.913	206.06
269.145	224.06
269.377	236.06
269.609	237.06
269.841	227.06
270.073	225.06
270.306	253.06
270.538	269.06
270.77	257.06
271.002	246.06
271.234	240.06
271.466	223.06
271.698	253.06
271.93	268.06
272.162	272.06
272.394	252.06
272.626	243.06
272.858	240.06
273.09	240.06
273.322	249.06
273.553	215.06
273.785	223.06
274.017	221.06
274.249	234.06
274.481	213.06
274.713	210.06
274.945	244.06
275.176	219.06
275.408	243.06
275.64	243.06
275.872	217.06
276.104	242.06
276.335	237.06
276.567	237.06
276.799	236.06
277.031	255.06
277.262	273.06
277.494	277.06
277.726	245.06
277.957	254.06
278.189	244.06
278.421	248.06
278.652	227.06
278.884	213.06
279.115	224.06
279.347	234.06
279.579	238.06
279.81	229.06
280.042	226.06
280.273	233.06
280.505	228.06
280.736	218.06
280.968	225.06
281.199	233.06
281.431	228.06
281.662	232.06
281.894	243.06
282.125	247.06
282.356	260.06
282.588	261.06
282.819	240.06
283.051	235.06
283.282	244.06
283.513	254.06
283.745	235.06
283.976	245.06
284.207	260.06
284.439	263.06
284.67	266.06
284.901	246.06
285.132	244.06
285.364	269.06
285.595	258.06
285.826	256.06
286.057	236.06
286.288	264.06
286.52	256.06
286.751	242.06
286.982	265.06
287.213	244.06
287.444	264.06
287.675	259.06
287.906	253.06
288.138	269.06
288.369	263.06
288.6	279.06
288.831	269.06
289.062	254.06
289.293	275.06
289.524	255.06
289.755	257.06
289.986	268.06
290.217	272.06
290.448	241.06
290.679	259.06
290.91	276.06
291.141	246.06
291.371	247.06
291.602	244.06
291.833	251.06
292.064	258.06
292.295	260.06
292.526	254.06
292.757	263.06
292.987	249.06
293.218	255.06
293.449	274.06
293.68	256.06
293.91	262.06
294.141	263.06
294.372	255.06
294.603	266.06
294.833	252.06
295.064	257.06
295.295	263.06
295.525	265.06
295.756	262.06
295.987	273.06
296.217	276.06
296.448	308.06
296.679	251.06
296.909	282.06
297.14	263.06
297.37	273.06
297.601	260.06
297.831	278.06
298.062	277.06
298.292	271.06
298.523	288.06
298.753	270.06
298.984	271.06
299.214	282.06
299.445	282.06
299.675	267.06
299.905	280.06
300.136	291.06
300.366	299.06
300.597	270.06
300.827	281.06
301.057	284.06
301.288	306.06
301.518	295.06
301.748	306.06
301.979	298.06
302.209	303.06
302.439	291.06
302.669	279.06
302.9	307.06
303.13	300.06
303.36	306.06
303.59	301.06
303.82	302.06
304.051	297.06
304.281	278.06
304.511	293.06
304.741	313.06
304.971	286.06
305.201	285.06
305.431	296.06
305.661	291.06
305.891	288.06
306.121	301.06
306.352	285.06
306.582	296.06
306.812	297.06
307.042	285.06
307.272	294.06
307.502	301.06
307.731	277.06
307.961	312.06
308.191	293.06
308.421	290.06
308.651	305.06
308.881	308.06
309.111	281.06
309.341	307.06
309.571	294.06
309.8	308.06
310.03	310.06
310.26	311.06
310.49	301.06
310.72	310.06
310.949	336.06
311.179	322.06
311.409	325.06
311.639	322.06
311.868	320.06
312.098	330.06
312.328	342.06
312.557	334.06
312.787	331.06
313.017	329.06
313.246	334.06
313.476	332.06
313.706	333.06
313.935	319.06
314.165	316.06
314.394	326.06
314.624	325.06
314.853	345.06
315.083	325.06
315.312	328.06
315.542	351.06
315.771	320.06
316.001	324.06
316.23	325.06
316.46	322.06
316.689	314.06
316.919	314.06
317.148	312.06
317.377	329.06
317.607	302.06
317.836	333.06
318.065	324.06
318.295	321.06
318.524	326.06
318.753	321.06
318.983	321.06
319.212	320.06
319.441	326.06
319.67	327.06
319.9	329.06
320.129	320.06
320.358	321.06
320.587	318.06
320.816	331.06
321.046	346.06
321.275	344.06
321.504	319.06
321.733	341.06
321.962	343.06
322.191	343.06
322.42	363.06
322.649	362.06
322.878	341.06
323.108	378.06
323.337	382.06
323.566	369.06
323.795	394.06
324.024	418.06
324.253	477.06
324.482	606.06
324.71	910.06
324.939	1174.06
325.168	995.06
325.397	567.06
325.626	440.06
325.855	391.06
326.084	381.06
326.313	385.06
326.542	377.06
326.77	395.06
326.999	458.06
327.228	569.06
327.457	836.06
327.686	880.06
327.914	636.06
328.143	477.06
328.372	444.06
328.6	432.06
328.829	417.06
329.058	445.06
329.287	444.06
329.515	408.06
329.744	410.06
329.972	388.06
330.201	409.06
330.43	429.06
330.658	458.06
330.887	470.06
331.115	453.06
331.344	397.06
331.572	410.06
331.801	400.06
332.03	407.06
332.258	414.06
332.486	380.06
332.715	400.06
332.943	380.06
333.172	400.06
333.4	410.06
333.629	433.06
333.857	429.06
334.085	432.06
334.314	452.06
334.542	475.06
334.771	469.06
334.999	446.06
335.227	406.06
335.455	388.06
335.684	396.06
335.912	404.06
336.14	377.06
336.369	388.06
336.597	390.06
336.825	402.06
337.053	391.06
337.281	381.06
337.51	387.06
337.738	395.06
337.966	360.06
338.194	380.06
338.422	364.06
338.65	376.06
338.878	391.06
339.106	355.06
339.334	369.06
339.562	372.06
339.79	353.06
340.018	343.06
340.246	344.06
340.474	353.06
340.702	366.06
340.93	353.06
341.158	341.06
341.386	356.06
341.614	375.06
341.842	370.06
342.07	377.06
342.298	359.06
342.526	364.06
342.754	356.06
342.981	352.06
343.209	338.06
343.437	359.06
343.665	377.06
343.893	370.06
344.12	392.06
344.348	385.06
344.576	364.06
344.804	361.06
345.031	355.06
345.259	375.06
345.487	359.06
345.714	368.06
345.942	344.06
346.17	340.06
346.397	354.06
346.625	338.06
346.853	358.06
347.08	344.06
347.308	357.06
347.535	348.06
347.763	361.06
347.99	358.06
348.218	348.06
348.445	352.06
348.673	332.06
348.9	322.06
349.128	337.06
349.355	332.06
349.583	335.06
349.81	335.06
350.037	332.06
350.265	332.06
350.492	342.06
350.72	322.06
350.947	323.06
351.174	344.06
351.402	349.06
351.629	336.06
351.856	346.06
352.083	347.06
352.311	368.06
352.538	354.06
352.765	328.06
352.992	351.06
353.22	348.06
353.447	339.06
353.674	345.06
353.901	326.06
354.128	334.06
354.355	330.06
354.583	302.06
354.81	333.06
355.037	339.06
355.264	347.06
355.491	332.06
355.718	305.06
355.945	336.06
356.172	331.06
356.399	328.06
356.626	341.06
356.853	334.06
357.08	334.06
357.307	330.06
357.534	339.06
357.761	316.06
357.988	306.06
358.215	332.06
358.441	340.06
358.668	314.06
358.895	339.06
359.122	342.06
359.349	321.06
359.576	330.06
359.802	338.06
360.029	358.06
360.256	372.06
360.483	363.06
360.709	343.06
360.936	353.06
361.163	346.06
361.39	323.06
361.616	325.06
361.843	340.06
362.07	336.06
362.296	345.06
362.523	343.06
362.749	329.06
362.976	326.06
363.203	335.06
363.429	327.06
363.656	331.06
363.882	318.06
364.109	333.06
364.335	335.06
364.562	333.06
364.788	340.06
365.015	329.06
365.241	326.06
365.468	333.06
365.694	328.06
365.92	333.06
366.147	333.06
366.373	316.06
366.599	328.06
366.826	310.06
367.052	322.06
367.278	333.06
367.505	320.06
367.731	345.06
367.957	321.06
368.184	319.06
368.41	337.06
368.636	352.06
368.862	353.06
369.089	345.06
369.315	328.06
369.541	308.06
369.767	348.06
369.993	336.06
370.219	334.06
370.445	335.06
370.672	345.06
370.898	313.06
371.124	339.06
371.35	352.06
371.576	341.06
371.802	341.06
372.028	340.06
372.254	348.06
372.48	350.06
372.706	334.06
372.932	335.06
373.158	339.06
373.384	328.06
373.61	331.06
373.835	338.06
374.061	341.06
374.287	344.06
374.513	339.06
374.739	345.06
374.965	351.06
375.191	340.06
375.416	374.06
375.642	338.06
375.868	362.06
376.094	340.06
376.319	324.06
376.545	317.06
376.771	345.06
376.997	347.06
377.222	337.06
377.448	321.06
377.674	358.06
377.899	325.06
378.125	317.06
378.35	332.06
378.576	348.06
378.802	332.06
379.027	327.06
379.253	329.06
379.478	328.06
379.704	339.06
379.929	328.06
380.155	345.06
380.38	334.06
380.606	334.06
380.831	344.06
381.057	327.06
381.282	338.06
381.507	336.06
381.733	345.06
381.958	360.06
382.184	344.06
382.409	343.06
382.634	352.06
382.86	342.06
383.085	347.06
383.31	347.06
383.535	343.06
383.761	353.06
383.986	354.06
384.211	380.06
384.436	370.06
384.662	366.06
384.887	376.06
385.112	381.06
385.337	379.06
385.562	365.06
385.787	370.06
386.013	383.06
386.238	399.06
386.463	393.06
386.688	377.06
386.913	347.06
387.138	355.06
387.363	361.06
387.588	388.06
387.813	364.06
388.038	375.06
388.263	381.06
388.488	357.06
388.713	357.06
388.938	390.06
389.163	385.06
389.387	377.06
389.612	357.06
389.837	376.06
390.062	378.06
390.287	358.06
390.512	379.06
390.736	372.06
390.961	372.06
391.186	372.06
391.411	389.06
391.636	385.06
391.86	419.06
392.085	400.06
392.31	410.06
392.534	385.06
392.759	400.06
392.984	387.06
393.208	396.06
393.433	386.06
393.658	364.06
393.882	370.06
394.107	386.06
394.331	362.06
394.556	396.06
394.78	388.06
395.005	390.06
395.229	387.06
395.454	404.06
395.678	406.06
395.903	393.06
396.127	430.06
396.352	403.06
396.576	384.06
396.801	371.06
397.025	389.06
397.249	393.06
397.474	414.06
397.698	402.06
397.922	424.06
398.147	412.06
398.371	426.06
398.595	433.06
398.82	421.06
399.044	478.06
399.268	492.06
399.492	548.06
399.717	585.06
399.941	550.06
400.165	539.06
400.389	513.06
400.613	478.06
400.837	450.06
401.062	460.06
401.286	453.06
401.51	438.06
401.734	443.06
401.958	439.06
402.182	443.06
402.406	446.06
402.63	469.06
402.854	452.06
403.078	462.06
403.302	464.06
403.526	468.06
403.75	470.06
403.974	457.06
404.198	473.06
404.422	476.06
404.645	493.06
404.869	482.06
405.093	500.06
405.317	487.06
405.541	518.06
405.765	482.06
405.988	452.06
406.212	475.06
406.436	494.06
406.66	503.06
406.883	496.06
407.107	505.06
407.331	549.06
407.555	584.06
407.778	575.06
408.002	542.06
408.226	518.06
408.449	520.06
408.673	470.06
408.896	500.06
409.12	538.06
409.344	525.06
409.567	443.06
409.791	460.06
410.014	467.06
410.238	450.06
410.461	458.06
410.685	446.06
410.908	473.06
411.132	470.06
411.355	500.06
411.578	482.06
411.802	458.06
412.025	475.06
412.249	468.06
412.472	460.06
412.695	485.06
412.919	475.06
413.142	460.06
413.365	442.06
413.589	425.06
413.812	445.06
414.035	443.06
414.258	438.06
414.482	449.06
414.705	424.06
414.928	449.06
415.151	444.06
415.374	426.06
415.597	440.06
415.821	418.06
416.044	422.06
416.267	440.06
416.49	435.06
416.713	422.06
416.936	418.06
417.159	406.06
417.382	440.06
417.605	426.06
417.828	446.06
418.051	461.06
418.274	446.06
418.497	445.06
418.72	442.06
418.943	417.06
419.166	466.06
419.389	469.06
419.611	457.06
419.834	484.06
420.057	474.06
420.28	456.06
420.503	451.06
420.726	448.06
420.948	456.06
421.171	474.06
421.394	502.06
421.617	442.06
421.839	445.06
422.062	451.06
422.285	458.06
422.507	496.06
422.73	519.06
422.953	507.06
423.175	469.06
423.398	485.06
423.621	476.06
423.843	514.06
424.066	476.06
424.288	481.06
424.511	487.06
424.733	517.06
424.956	538.06
425.178	556.06
425.401	527.06
425.623	550.06
425.846	501.06
426.068	452.06
426.291	442.06
426.513	438.06
426.735	455.06
426.958	460.06
427.18	527.06
427.402	598.06
427.625	633.06
427.847	577.06
428.069	479.06
428.292	458.06
428.514	454.06
428.736	430.06
428.958	427.06
429.181	405.06
429.403	422.06
429.625	404.06
429.847	429.06
430.069	473.06
430.292	450.06
430.514	430.06
430.736	422.06
430.958	431.06
431.18	404.06
431.402	393.06
431.624	409.06
431.846	418.06
432.068	395.06
432.29	402.06
432.512	403.06
432.734	406.06
432.956	409.06
433.178	414.06
433.4	421.06
433.622	413.06
433.844	399.06
434.066	414.06
434.287	403.06
434.509	433.06
434.731	434.06
434.953	435.06
435.175	452.06
435.397	466.06
435.618	465.06
435.84	465.06
436.062	517.06
436.284	541.06
436.505	481.06
436.727	449.06
436.949	410.06
437.17	409.06
437.392	391.06
437.614	428.06
437.835	427.06
438.057	481.06
438.278	566.06
438.5	528.06
438.721	589.06
438.943	553.06
439.165	468.06
439.386	429.06
439.608	436.06
439.829	450.06
440.05	464.06
440.272	462.06
440.493	444.06
440.715	440.06
440.936	436.06
441.158	437.06
441.379	451.06
441.6	444.06
441.822	469.06
442.043	489.06
442.264	530.06
442.486	554.06
442.707	496.06
442.928	473.06
443.149	483.06
443.371	470.06
443.592	480.06
443.813	582.06
444.034	608.06
444.255	521.06
444.476	515.06
444.698	492.06
444.919	497.06
445.14	625.06
445.361	536.06
445.582	489.06
445.803	534.06
446.024	571.06
446.245	575.06
446.466	512.06
446.687	442.06
446.908	434.06
447.129	409.06
447.35	449.06
447.571	423.06
447.792	398.06
448.013	417.06
448.234	426.06
448.455	456.06
448.675	506.06
448.896	570.06
449.117	487.06
449.338	479.06
449.559	537.06
449.779	599.06
450	482.06
450.221	422.06
450.442	424.06
450.662	398.06
450.883	407.06
451.104	416.06
451.324	417.06
451.545	408.06
451.766	390.06
451.986	378.06
452.207	363.06
452.428	394.06
452.648	375.06
452.869	379.06
453.089	407.06
453.31	386.06
453.53	388.06
453.751	358.06
453.971	383.06
454.192	392.06
454.412	380.06
454.633	362.06
454.853	361.06
455.073	375.06
455.294	380.06
455.514	411.06
455.734	418.06
455.955	374.06
456.175	348.06
456.395	356.06
456.616	343.06
456.836	354.06
457.056	347.06
457.276	371.06
457.497	350.06
457.717	360.06
457.937	345.06
458.157	372.06
458.377	374.06
458.598	386.06
458.818	426.06
459.038	445.06
459.258	483.06
459.478	429.06
459.698	413.06
459.918	409.06
460.138	433.06
460.358	442.06
460.578	434.06
460.798	420.06
461.018	448.06
461.238	446.06
461.458	425.06
461.678	439.06
461.898	432.06
462.118	440.06
462.338	467.06
462.558	446.06
462.777	484.06
462.997	471.06
463.217	525.06
463.437	535.06
463.657	500.06
463.876	483.06
464.096	474.06
464.316	470.06
464.536	480.06
464.755	498.06
464.975	475.06
465.195	499.06
465.414	512.06
465.634	471.06
465.854	419.06
466.073	382.06
466.293	410.06
466.512	398.06
466.732	394.06
466.951	392.06
467.171	390.06
467.391	392.06
467.61	386.06
467.829	392.06
468.049	408.06
468.268	413.06
468.488	403.06
468.707	388.06
468.927	382.06
469.146	377.06
469.365	391.06
469.585	390.06
469.804	405.06
470.023	402.06
470.243	406.06
470.462	395.06
470.681	434.06
470.901	391.06
471.12	400.06
471.339	404.06
471.558	382.06
471.777	411.06
471.997	385.06
472.216	422.06
472.435	426.06
472.654	412.06
472.873	388.06
473.092	388.06
473.311	385.06
473.53	380.06
473.749	392.06
473.968	413.06
474.187	461.06
474.406	479.06
474.625	412.06
474.844	400.06
475.063	393.06
475.282	382.06
475.501	385.06
475.72	394.06
475.939	392.06
476.158	409.06
476.377	380.06
476.596	408.06
476.814	425.06
477.033	408.06
477.252	420.06
477.471	417.06
477.69	432.06
477.908	432.06
478.127	454.06
478.346	457.06
478.564	454.06
478.783	448.06
479.002	458.06
479.22	462.06
479.439	454.06
479.658	472.06
479.876	489.06
480.095	474.06
480.313	512.06
480.532	508.06
480.751	500.06
480.969	502.06
481.188	521.06
481.406	520.06
481.624	486.06
481.843	472.06
482.061	446.06
482.28	461.06
482.498	454.06
482.717	449.06
482.935	447.06
483.153	439.06
483.372	449.06
483.59	426.06
483.808	442.06
484.027	456.06
484.245	461.06
484.463	449.06
484.681	486.06
484.9	451.06
485.118	451.06
485.336	463.06
485.554	455.06
485.772	436.06
485.99	493.06
486.209	469.06
486.427	462.06
486.645	464.06
486.863	458.06
487.081	481.06
487.299	489.06
487.517	487.06
487.735	468.06
487.953	480.06
488.171	484.06
488.389	484.06
488.607	497.06
488.825	482.06
489.043	470.06
489.261	505.06
489.479	497.06
489.696	493.06
489.914	492.06
490.132	494.06
490.35	489.06
490.568	504.06
490.786	525.06
491.003	545.06
491.221	524.06
491.439	536.06
491.657	558.06
491.874	564.06
492.092	547.06
492.31	554.06
492.527	563.06
492.745	551.06
492.963	557.06
493.18	554.06
493.398	573.06
493.615	598.06
493.833	556.06
494.05	582.06
494.268	590.06
494.485	584.06
494.703	547.06
494.92	571.06
495.138	563.06
495.355	550.06
495.573	576.06
495.79	550.06
496.008	568.06
496.225	568.06
496.442	561.06
496.66	578.06
496.877	572.06
497.094	571.06
497.312	595.06
497.529	596.06
497.746	602.06
497.963	604.06
498.181	626.06
498.398	635.06
498.615	660.06
498.832	670.06
499.049	683.06
499.267	713.06
499.484	763.06
499.701	836.06
499.918	865.06
500.135	916.06
500.352	996.06
500.569	1034.06
500.786	1000.06
501.003	974.06
501.22	925.06
501.437	877.06
501.654	834.06
501.871	784.06
502.088	749.06
502.305	700.06
502.522	683.06
502.739	654.06
502.956	636.06
503.172	620.06
503.389	594.06
503.606	586.06
503.823	588.06
504.04	590.06
504.256	593.06
504.473	600.06
504.69	587.06
504.907	578.06
505.123	566.06
505.34	534.06
505.557	531.06
505.773	521.06
505.99	536.06
506.207	546.06
506.423	538.06
506.64	532.06
506.856	503.06
507.073	509.06
507.289	501.06
507.506	513.06
507.722	514.06
507.939	529.06
508.155	498.06
508.372	506.06
508.588	496.06
508.805	499.06
509.021	498.06
509.238	491.06
509.454	488.06
509.67	481.06
509.887	477.06
510.103	491.06
510.319	482.06
510.536	554.06
510.752	790.06
510.968	648.06
511.184	480.06
511.401	485.06
511.617	456.06
511.833	439.06
512.049	455.06
512.265	452.06
512.481	464.06
512.698	451.06
512.914	426.06
513.13	468.06
513.346	453.06
513.562	460.06
513.778	462.06
513.994	474.06
514.21	461.06
514.426	476.06
514.642	505.06
514.858	522.06
515.074	533.06
515.29	625.06
515.506	832.06
515.721	681.06
515.937	533.06
516.153	500.06
516.369	490.06
516.585	483.06
516.801	510.06
517.016	513.06
517.232	544.06
517.448	519.06
517.664	553.06
517.879	532.06
518.095	517.06
518.311	508.06
518.527	505.06
518.742	498.06
518.958	484.06
519.173	482.06
519.389	481.06
519.605	470.06
519.82	459.06
520.036	466.06
520.251	491.06
520.467	473.06
520.682	500.06
520.898	481.06
521.113	488.06
521.329	488.06
521.544	547.06
521.76	664.06
521.975	1014.06
522.19	971.06
522.406	584.06
522.621	484.06
522.836	473.06
523.052	441.06
523.267	424.06
523.482	421.06
523.698	413.06
523.913	428.06
524.128	428.06
524.343	417.06
524.559	415.06
524.774	423.06
524.989	410.06
525.204	405.06
525.419	402.06
525.634	409.06
525.849	393.06
526.064	392.06
526.28	417.06
526.495	378.06
526.71	390.06
526.925	386.06
527.14	397.06
527.355	381.06
527.57	390.06
527.785	391.06
527.999	398.06
528.214	386.06
528.429	402.06
528.644	388.06
528.859	407.06
529.074	378.06
529.289	399.06
529.503	457.06
529.718	422.06
529.933	388.06
530.148	391.06
530.363	381.06
530.577	380.06
530.792	374.06
531.007	390.06
531.221	393.06
531.436	372.06
531.651	375.06
531.865	377.06
532.08	380.06
532.295	360.06
532.509	374.06
532.724	363.06
532.938	382.06
533.153	392.06
533.367	378.06
533.582	391.06
533.796	381.06
534.011	357.06
534.225	360.06
534.44	380.06
534.654	378.06
534.868	358.06
535.083	374.06
535.297	378.06
535.511	382.06
535.726	375.06
535.94	362.06
536.154	382.06
536.369	364.06
536.583	373.06
536.797	339.06
537.011	356.06
537.225	345.06
537.44	370.06
537.654	364.06
537.868	357.06
538.082	354.06
538.296	358.06
538.51	366.06
538.724	352.06
538.938	356.06
539.153	353.06
539.367	368.06
539.581	354.06
539.795	359.06
540.009	358.06
540.222	344.06
540.436	360.06
540.65	398.06
540.864	360.06
541.078	371.06
541.292	377.06
541.506	348.06
541.72	361.06
541.934	363.06
542.147	376.06
542.361	376.06
542.575	353.06
542.789	368.06
543.002	361.06
543.216	368.06
543.43	363.06
543.644	368.06
543.857	384.06
544.071	359.06
544.285	372.06
544.498	352.06
544.712	349.06
544.925	360.06
545.139	371.06
545.352	370.06
545.566	357.06
545.779	350.06
545.993	380.06
546.206	363.06
546.42	376.06
546.633	386.06
546.847	370.06
547.06	361.06
547.274	380.06
547.487	368.06
547.7	360.06
547.914	356.06
548.127	355.06
548.34	362.06
548.554	374.06
548.767	378.06
548.98	355.06
549.193	366.06
549.407	347.06
549.62	372.06
549.833	364.06
550.046	354.06
550.259	369.06
550.473	369.06
550.686	344.06
550.899	362.06
551.112	332.06
551.325	347.06
551.538	345.06
551.751	347.06
551.964	344.06
552.177	353.06
552.39	360.06
552.603	387.06
552.816	380.06
553.029	378.06
553.242	371.06
553.455	376.06
553.667	394.06
553.88	382.06
554.093	364.06
554.306	380.06
554.519	370.06
554.732	368.06
554.944	347.06
555.157	350.06
555.37	350.06
555.583	346.06
555.795	340.06
556.008	338.06
556.221	325.06
556.433	336.06
556.646	330.06
556.859	346.06
557.071	320.06
557.284	331.06
557.496	322.06
557.709	323.06
557.921	304.06
558.134	305.06
558.346	309.06
558.559	316.06
558.771	331.06
558.984	329.06
559.196	325.06
559.409	331.06
559.621	308.06
559.833	307.06
560.046	300.06
560.258	306.06
560.47	309.06
560.683	306.06
560.895	311.06
561.107	322.06
561.32	317.06
561.532	291.06
561.744	313.06
561.956	334.06
562.168	329.06
562.381	334.06
562.593	330.06
562.805	315.06
563.017	312.06
563.229	315.06
563.441	311.06
563.653	334.06
563.865	302.06
564.077	323.06
564.289	328.06
564.501	333.06
564.713	326.06
564.925	342.06
565.137	342.06
565.349	345.06
565.561	351.06
565.773	347.06
565.985	373.06
566.197	373.06
566.408	401.06
566.62	382.06
566.832	441.06
567.044	425.06
567.255	433.06
567.467	452.06
567.679	452.06
567.891	463.06
568.102	475.06
568.314	477.06
568.526	435.06
568.737	405.06
568.949	395.06
569.161	344.06
569.372	348.06
569.584	367.06
569.795	336.06
570.007	323.06
570.218	340.06
570.43	346.06
570.641	326.06
570.853	318.06
571.064	326.06
571.276	301.06
571.487	319.06
571.698	316.06
571.91	311.06
572.121	292.06
572.333	309.06
572.544	291.06
572.755	285.06
572.966	276.06
573.178	261.06
573.389	276.06
573.6	268.06
573.811	280.06
574.023	269.06
574.234	281.06
574.445	278.06
574.656	283.06
574.867	280.06
575.078	272.06
575.289	284.06
575.501	269.06
575.712	274.06
575.923	273.06
576.134	273.06
576.345	257.06
576.556	258.06
576.767	283.06
576.978	265.06
577.188	275.06
577.399	257.06
577.61	267.06
577.821	269.06
578.032	261.06
578.243	274.06
578.454	393.06
578.665	320.06
578.875	242.06
579.086	251.06
579.297	259.06
579.508	265.06
579.718	250.06
579.929	265.06
580.14	252.06
580.35	245.06
580.561	256.06
580.772	252.06
580.982	251.06
581.193	261.06
581.403	266.06
581.614	250.06
581.825	258.06
582.035	264.06
582.246	243.06
582.456	269.06
582.667	245.06
582.877	250.06
583.087	258.06
583.298	247.06
583.508	236.06
583.719	254.06
583.929	244.06
584.139	238.06
584.35	237.06
584.56	229.06
584.77	237.06
584.981	236.06
585.191	241.06
585.401	222.06
585.611	246.06
585.821	231.06
586.032	230.06
586.242	244.06
586.452	233.06
586.662	244.06
586.872	226.06
587.082	241.06
587.292	240.06
587.502	259.06
587.713	236.06
587.923	235.06
588.133	225.06
588.343	237.06
588.553	224.06
588.762	242.06
588.972	240.06
589.182	241.06
589.392	223.06
589.602	252.06
589.812	256.06
590.022	236.06
590.232	244.06
590.441	235.06
590.651	243.06
590.861	240.06
591.071	251.06
591.281	268.06
591.49	254.06
591.7	256.06
591.91	240.06
592.119	248.06
592.329	267.06
592.539	261.06
592.748	271.06
592.958	276.06
593.167	287.06
593.377	282.06
593.587	278.06
593.796	286.06
594.006	294.06
594.215	292.06
594.424	277.06
594.634	263.06
594.843	268.06
595.053	260.06
595.262	251.06
595.472	254.06
595.681	264.06
595.89	247.06
596.1	216.06
596.309	246.06
596.518	242.06
596.727	241.06
596.937	242.06
597.146	233.06
597.355	252.06
597.564	233.06
597.774	224.06
597.983	220.06
598.192	211.06
598.401	225.06
598.61	239.06
598.819	219.06
599.028	225.06
599.237	221.06
599.446	237.06
599.655	201.06
599.864	222.06
600.073	221.06
600.282	217.06
600.491	228.06
600.7	206.06
600.909	206.06
601.118	214.06
601.327	210.06
601.536	215.06
601.745	205.06
601.953	217.06
602.162	216.06
602.371	206.06
602.58	216.06
602.789	212.06
602.997	226.06
603.206	216.06
603.415	216.06
603.623	217.06
603.832	204.06
604.041	206.06
604.249	197.06
604.458	216.06
604.666	193.06
604.875	202.06
605.084	205.06
605.292	224.06
605.501	224.06
605.709	193.06
605.918	213.06
606.126	221.06
606.334	201.06
606.543	205.06
606.751	212.06
606.96	207.06
607.168	194.06
607.376	206.06
607.585	205.06
607.793	201.06
608.001	217.06
608.21	193.06
608.418	208.06
608.626	202.06
608.834	197.06
609.043	205.06
609.251	199.06
609.459	209.06
609.667	202.06
609.875	204.06
610.083	196.06
610.291	202.06
610.499	204.06
610.707	214.06
610.916	198.06
611.124	219.06
611.332	211.06
611.54	216.06
611.748	211.06
611.955	195.06
612.163	224.06
612.371	205.06
612.579	210.06
612.787	194.06
612.995	192.06
613.203	204.06
613.411	197.06
613.618	203.06
613.826	203.06
614.034	199.06
614.242	204.06
614.449	213.06
614.657	182.06
614.865	200.06
615.072	195.06
615.28	194.06
615.488	206.06
615.695	217.06
615.903	224.06
616.111	200.06
616.318	208.06
616.526	224.06
616.733	210.06
616.941	190.06
617.148	208.06
617.356	205.06
617.563	203.06
617.771	196.06
617.978	203.06
618.185	217.06
618.393	213.06
618.6	204.06
618.807	199.06
619.015	193.06
619.222	201.06
619.429	204.06
619.637	196.06
619.844	211.06
620.051	201.06
620.258	199.06
620.466	200.06
620.673	211.06
620.88	203.06
621.087	184.06
621.294	204.06
621.501	205.06
621.708	204.06
621.915	200.06
622.122	181.06
622.329	195.06
622.536	186.06
622.743	214.06
622.95	180.06
623.157	187.06
623.364	191.06
623.571	193.06
623.778	191.06
623.985	196.06
624.192	186.06
624.399	185.06
624.606	201.06
624.812	194.06
625.019	195.06
625.226	194.06
625.433	187.06
625.639	191.06
625.846	175.06
626.053	192.06
626.259	180.06
626.466	183.06
626.673	190.06
626.879	190.06
627.086	185.06
627.293	183.06
627.499	166.06
627.706	174.06
627.912	186.06
628.119	167.06
628.325	189.06
628.532	182.06
628.738	181.06
628.945	164.06
629.151	176.06
629.357	183.06
629.564	179.06
629.77	166.06
629.976	166.06
630.183	178.06
630.389	170.06
630.595	172.06
630.802	167.06
631.008	160.06
631.214	158.06
631.42	167.06
631.627	172.06
631.833	179.06
632.039	168.06
632.245	170.06
632.451	151.06
632.657	158.06
632.863	162.06
633.069	177.06
633.275	161.06
633.481	154.06
633.688	166.06
633.893	163.06
634.099	180.06
634.305	159.06
634.511	180.06
634.717	158.06
634.923	154.06
635.129	157.06
635.335	176.06
635.541	161.06
635.747	165.06
635.952	148.06
636.158	151.06
636.364	154.06
636.57	166.06
636.775	152.06
636.981	168.06
637.187	164.06
637.392	156.06
637.598	156.06
637.804	169.06
638.009	177.06
638.215	167.06
638.421	150.06
638.626	142.06
638.832	154.06
639.037	162.06
639.243	161.06
639.448	153.06
639.654	181.06
639.859	154.06
640.065	157.06
640.27	154.06
640.475	166.06
640.681	134.06
640.886	169.06
641.091	151.06
641.297	141.06
641.502	159.06
641.707	158.06
641.913	158.06
642.118	146.06
642.323	143.06
642.528	161.06
642.733	150.06
642.939	153.06
643.144	163.06
643.349	149.06
643.554	143.06
643.759	131.06
643.964	152.06
644.169	149.06
644.374	141.06
644.579	153.06
644.784	164.06
644.989	158.06
645.194	141.06
645.399	140.06
645.604	150.06
645.809	163.06
646.014	144.06
646.219	141.06
646.423	140.06
646.628	152.06
646.833	145.06
647.038	150.06
647.243	145.06
647.447	156.06
647.652	164.06
647.857	156.06
648.062	156.06
648.266	166.06
648.471	155.06
648.676	150.06
648.88	150.06
649.085	168.06
649.289	152.06
649.494	149.06
649.698	159.06
649.903	155.06
650.107	141.06
650.312	157.06
650.516	150.06
650.721	154.06
650.925	163.06
651.13	156.06
651.334	151.06
651.539	141.06
651.743	142.06
651.947	144.06
652.152	140.06
652.356	130.06
652.56	127.06
652.764	128.06
652.969	139.06
653.173	133.06
653.377	127.06
653.581	135.06
653.785	126.06
653.99	124.06
654.194	134.06
654.398	124.06
654.602	140.06
654.806	117.06
655.01	147.06
655.214	136.06
655.418	128.06
655.622	123.06
655.826	128.06
656.03	124.06
656.234	136.06
656.438	123.06
656.642	118.06
656.846	142.06
657.049	124.06
657.253	123.06
657.457	128.06
657.661	99.06
657.865	113.06
658.068	110.06
658.272	90.06
658.476	118.06
658.68	95.06
658.883	107.06
659.087	105.06
659.291	90.06
659.494	101.06
659.698	93.06
659.901	100.06
660.105	98.06
660.309	99.06
660.512	108.06
660.716	88.06
660.919	87.06
661.123	91.06
661.326	99.06
661.53	90.06
661.733	84.06
661.936	84.06
662.14	83.06
662.343	86.06
662.546	86.06
662.75	95.06
662.953	86.06
663.156	91.06
663.36	84.06
663.563	88.06
663.766	74.06
663.969	70.06
664.173	83.06
664.376	88.06
664.579	85.06
664.782	77.06
664.985	84.06
665.188	79.06
665.391	70.06
665.594	86.06
665.797	80.06
666	78.06
666.203	79.06
666.406	82.06
666.609	83.06
666.812	76.06
667.015	75.06
667.218	75.06
667.421	72.06
667.624	85.06
667.827	79.06
668.03	72.06
668.232	92.06
668.435	98.06
668.638	77.06
668.841	79.06
669.043	89.06
669.246	76.06
669.449	92.06
669.651	78.06
669.854	90.06
670.057	79.06
670.259	86.06
670.462	88.06
670.665	82.06
670.867	81.06
671.07	70.06
671.272	78.06
671.475	90.06
671.677	78.06
671.88	89.06
672.082	71.06
672.284	86.06
672.487	84.06
672.689	82.06
672.892	88.06
