Data from 1969.PennyLincolnUp.Lamp.En5.5.200Scan.071719.P1._HRD10591_14-54-12-971.txt Node
Date: Thu Jul 18 14:54:12 EDT 2019
User: cochatt
Spectrometer: HR+D1059
Trigger mode: 1
Integration Time (sec): 1.000000E-1
Scans to average: 1
Electric dark correction enabled: true
Nonlinearity correction enabled: false
Boxcar width: 0
XAxis mode: Wavelengths
Number of Pixels in Spectrum: 2048
>>>>>Begin Spectral Data<<<<<
223.165	-14.62
223.4	-14.62
223.635	-14.62
223.869	-18.62
224.104	-13.62
224.338	-20.62
224.573	-6.62
224.808	-0.62
225.042	-18.62
225.277	-2.62
225.511	3.38
225.746	1.38
225.98	6.38
226.215	1.38
226.449	7.38
226.683	16.38
226.918	32.38
227.152	27.38
227.387	25.38
227.621	36.38
227.856	32.38
228.09	43.38
228.324	48.38
228.559	48.38
228.793	58.38
229.027	67.38
229.262	94.38
229.496	99.38
229.73	92.38
229.964	113.38
230.199	71.38
230.433	82.38
230.667	97.38
230.901	90.38
231.136	99.38
231.37	100.38
231.604	94.38
231.838	99.38
232.072	95.38
232.306	91.38
232.541	111.38
232.775	115.38
233.009	104.38
233.243	101.38
233.477	93.38
233.711	111.38
233.945	104.38
234.179	89.38
234.413	106.38
234.647	101.38
234.881	97.38
235.115	108.38
235.349	106.38
235.583	106.38
235.817	100.38
236.051	115.38
236.285	107.38
236.519	123.38
236.753	107.38
236.987	115.38
237.221	125.38
237.455	164.38
237.689	152.38
237.922	107.38
238.156	126.38
238.39	97.38
238.624	102.38
238.858	103.38
239.091	106.38
239.325	107.38
239.559	111.38
239.793	112.38
240.027	129.38
240.26	127.38
240.494	121.38
240.728	112.38
240.961	117.38
241.195	117.38
241.429	119.38
241.662	121.38
241.896	116.38
242.13	113.38
242.363	99.38
242.597	129.38
242.83	120.38
243.064	120.38
243.298	120.38
243.531	133.38
243.765	120.38
243.998	104.38
244.232	123.38
244.465	117.38
244.699	138.38
244.932	118.38
245.166	128.38
245.399	137.38
245.633	127.38
245.866	136.38
246.099	152.38
246.333	127.38
246.566	123.38
246.8	132.38
247.033	143.38
247.266	127.38
247.5	137.38
247.733	151.38
247.966	129.38
248.2	146.38
248.433	148.38
248.666	131.38
248.899	144.38
249.133	154.38
249.366	155.38
249.599	156.38
249.832	156.38
250.066	159.38
250.299	160.38
250.532	135.38
250.765	167.38
250.998	155.38
251.231	159.38
251.465	169.38
251.698	150.38
251.931	157.38
252.164	150.38
252.397	170.38
252.63	165.38
252.863	166.38
253.096	149.38
253.329	177.38
253.562	170.38
253.795	173.38
254.028	187.38
254.261	183.38
254.494	154.38
254.727	166.38
254.96	204.38
255.193	209.38
255.426	181.38
255.659	179.38
255.892	180.38
256.124	175.38
256.357	188.38
256.59	160.38
256.823	161.38
257.056	150.38
257.289	153.38
257.521	172.38
257.754	177.38
257.987	177.38
258.22	178.38
258.452	164.38
258.685	165.38
258.918	162.38
259.151	173.38
259.383	183.38
259.616	167.38
259.849	177.38
260.081	186.38
260.314	191.38
260.547	205.38
260.779	203.38
261.012	187.38
261.244	178.38
261.477	182.38
261.71	181.38
261.942	164.38
262.175	183.38
262.407	171.38
262.64	168.38
262.872	199.38
263.105	167.38
263.337	173.38
263.57	164.38
263.802	163.38
264.035	177.38
264.267	173.38
264.499	166.38
264.732	182.38
264.964	181.38
265.197	205.38
265.429	182.38
265.661	180.38
265.894	187.38
266.126	176.38
266.358	176.38
266.591	167.38
266.823	183.38
267.055	195.38
267.287	178.38
267.52	197.38
267.752	185.38
267.984	191.38
268.216	185.38
268.448	196.38
268.681	194.38
268.913	196.38
269.145	190.38
269.377	225.38
269.609	213.38
269.841	226.38
270.073	209.38
270.306	213.38
270.538	245.38
270.77	217.38
271.002	235.38
271.234	216.38
271.466	215.38
271.698	216.38
271.93	241.38
272.162	231.38
272.394	231.38
272.626	232.38
272.858	218.38
273.09	222.38
273.322	198.38
273.553	218.38
273.785	219.38
274.017	208.38
274.249	207.38
274.481	220.38
274.713	213.38
274.945	218.38
275.176	203.38
275.408	215.38
275.64	209.38
275.872	201.38
276.104	206.38
276.335	213.38
276.567	218.38
276.799	228.38
277.031	241.38
277.262	235.38
277.494	244.38
277.726	241.38
277.957	242.38
278.189	222.38
278.421	225.38
278.652	223.38
278.884	217.38
279.115	224.38
279.347	224.38
279.579	224.38
279.81	205.38
280.042	209.38
280.273	226.38
280.505	223.38
280.736	231.38
280.968	230.38
281.199	234.38
281.431	228.38
281.662	224.38
281.894	218.38
282.125	228.38
282.356	229.38
282.588	230.38
282.819	233.38
283.051	228.38
283.282	220.38
283.513	232.38
283.745	229.38
283.976	220.38
284.207	241.38
284.439	242.38
284.67	225.38
284.901	254.38
285.132	224.38
285.364	225.38
285.595	235.38
285.826	235.38
286.057	227.38
286.288	232.38
286.52	255.38
286.751	249.38
286.982	267.38
287.213	252.38
287.444	234.38
287.675	252.38
287.906	245.38
288.138	245.38
288.369	258.38
288.6	243.38
288.831	257.38
289.062	251.38
289.293	255.38
289.524	245.38
289.755	238.38
289.986	254.38
290.217	232.38
290.448	232.38
290.679	248.38
290.91	242.38
291.141	257.38
291.371	260.38
291.602	250.38
291.833	268.38
292.064	270.38
292.295	247.38
292.526	245.38
292.757	240.38
292.987	245.38
293.218	230.38
293.449	251.38
293.68	227.38
293.91	252.38
294.141	251.38
294.372	245.38
294.603	261.38
294.833	231.38
295.064	245.38
295.295	255.38
295.525	255.38
295.756	265.38
295.987	259.38
296.217	272.38
296.448	267.38
296.679	252.38
296.909	257.38
297.14	268.38
297.37	252.38
297.601	272.38
297.831	249.38
298.062	268.38
298.292	257.38
298.523	268.38
298.753	267.38
298.984	258.38
299.214	262.38
299.445	276.38
299.675	260.38
299.905	262.38
300.136	256.38
300.366	275.38
300.597	265.38
300.827	260.38
301.057	273.38
301.288	285.38
301.518	288.38
301.748	269.38
301.979	271.38
302.209	280.38
302.439	260.38
302.669	260.38
302.9	290.38
303.13	287.38
303.36	281.38
303.59	279.38
303.82	297.38
304.051	277.38
304.281	275.38
304.511	280.38
304.741	293.38
304.971	313.38
305.201	290.38
305.431	300.38
305.661	281.38
305.891	272.38
306.121	282.38
306.352	264.38
306.582	292.38
306.812	279.38
307.042	283.38
307.272	273.38
307.502	270.38
307.731	276.38
307.961	280.38
308.191	297.38
308.421	281.38
308.651	305.38
308.881	283.38
309.111	284.38
309.341	284.38
309.571	290.38
309.8	287.38
310.03	287.38
310.26	287.38
310.49	306.38
310.72	289.38
310.949	329.38
311.179	307.38
311.409	312.38
311.639	295.38
311.868	280.38
312.098	294.38
312.328	327.38
312.557	309.38
312.787	308.38
313.017	294.38
313.246	303.38
313.476	300.38
313.706	307.38
313.935	309.38
314.165	300.38
314.394	327.38
314.624	320.38
314.853	313.38
315.083	300.38
315.312	325.38
315.542	304.38
315.771	303.38
316.001	295.38
316.23	312.38
316.46	309.38
316.689	324.38
316.919	294.38
317.148	300.38
317.377	310.38
317.607	325.38
317.836	319.38
318.065	299.38
318.295	307.38
318.524	295.38
318.753	304.38
318.983	292.38
319.212	308.38
319.441	312.38
319.67	304.38
319.9	299.38
320.129	297.38
320.358	299.38
320.587	301.38
320.816	305.38
321.046	304.38
321.275	308.38
321.504	299.38
321.733	311.38
321.962	316.38
322.191	334.38
322.42	321.38
322.649	324.38
322.878	324.38
323.108	333.38
323.337	338.38
323.566	344.38
323.795	371.38
324.024	372.38
324.253	417.38
324.482	563.38
324.71	761.38
324.939	987.38
325.168	843.38
325.397	503.38
325.626	383.38
325.855	365.38
326.084	344.38
326.313	356.38
326.542	342.38
326.77	377.38
326.999	423.38
327.228	516.38
327.457	695.38
327.686	751.38
327.914	552.38
328.143	423.38
328.372	407.38
328.6	374.38
328.829	379.38
329.058	392.38
329.287	407.38
329.515	355.38
329.744	367.38
329.972	378.38
330.201	382.38
330.43	411.38
330.658	416.38
330.887	428.38
331.115	392.38
331.344	387.38
331.572	365.38
331.801	385.38
332.03	372.38
332.258	385.38
332.486	363.38
332.715	348.38
332.943	378.38
333.172	392.38
333.4	378.38
333.629	387.38
333.857	399.38
334.085	404.38
334.314	408.38
334.542	431.38
334.771	428.38
334.999	398.38
335.227	393.38
335.455	387.38
335.684	384.38
335.912	377.38
336.14	378.38
336.369	388.38
336.597	376.38
336.825	384.38
337.053	368.38
337.281	369.38
337.51	357.38
337.738	343.38
337.966	364.38
338.194	353.38
338.422	331.38
338.65	339.38
338.878	367.38
339.106	352.38
339.334	344.38
339.562	341.38
339.79	344.38
340.018	339.38
340.246	337.38
340.474	339.38
340.702	370.38
340.93	350.38
341.158	337.38
341.386	358.38
341.614	339.38
341.842	332.38
342.07	349.38
342.298	328.38
342.526	314.38
342.754	336.38
342.981	347.38
343.209	343.38
343.437	336.38
343.665	358.38
343.893	371.38
344.12	372.38
344.348	362.38
344.576	361.38
344.804	343.38
345.031	341.38
345.259	361.38
345.487	333.38
345.714	344.38
345.942	337.38
346.17	325.38
346.397	321.38
346.625	312.38
346.853	318.38
347.08	333.38
347.308	330.38
347.535	328.38
347.763	332.38
347.99	324.38
348.218	317.38
348.445	325.38
348.673	332.38
348.9	314.38
349.128	325.38
349.355	324.38
349.583	317.38
349.81	325.38
350.037	317.38
350.265	326.38
350.492	293.38
350.72	303.38
350.947	315.38
351.174	299.38
351.402	311.38
351.629	321.38
351.856	316.38
352.083	330.38
352.311	333.38
352.538	338.38
352.765	318.38
352.992	318.38
353.22	319.38
353.447	325.38
353.674	303.38
353.901	314.38
354.128	318.38
354.355	307.38
354.583	316.38
354.81	308.38
355.037	315.38
355.264	303.38
355.491	306.38
355.718	321.38
355.945	297.38
356.172	321.38
356.399	315.38
356.626	307.38
356.853	298.38
357.08	316.38
357.307	289.38
357.534	296.38
357.761	310.38
357.988	311.38
358.215	327.38
358.441	307.38
358.668	305.38
358.895	301.38
359.122	318.38
359.349	311.38
359.576	329.38
359.802	343.38
360.029	343.38
360.256	344.38
360.483	336.38
360.709	328.38
360.936	319.38
361.163	308.38
361.39	302.38
361.616	315.38
361.843	320.38
362.07	301.38
362.296	313.38
362.523	322.38
362.749	325.38
362.976	305.38
363.203	328.38
363.429	312.38
363.656	323.38
363.882	309.38
364.109	326.38
364.335	324.38
364.562	306.38
364.788	308.38
365.015	308.38
365.241	314.38
365.468	332.38
365.694	307.38
365.92	297.38
366.147	305.38
366.373	305.38
366.599	303.38
366.826	305.38
367.052	299.38
367.278	313.38
367.505	330.38
367.731	318.38
367.957	314.38
368.184	308.38
368.41	317.38
368.636	310.38
368.862	324.38
369.089	303.38
369.315	317.38
369.541	319.38
369.767	304.38
369.993	318.38
370.219	311.38
370.445	310.38
370.672	327.38
370.898	307.38
371.124	309.38
371.35	296.38
371.576	328.38
371.802	324.38
372.028	320.38
372.254	300.38
372.48	309.38
372.706	337.38
372.932	331.38
373.158	333.38
373.384	333.38
373.61	315.38
373.835	333.38
374.061	310.38
374.287	328.38
374.513	311.38
374.739	337.38
374.965	341.38
375.191	328.38
375.416	333.38
375.642	315.38
375.868	324.38
376.094	329.38
376.319	325.38
376.545	342.38
376.771	311.38
376.997	314.38
377.222	317.38
377.448	330.38
377.674	307.38
377.899	312.38
378.125	306.38
378.35	322.38
378.576	309.38
378.802	322.38
379.027	317.38
379.253	309.38
379.478	322.38
379.704	329.38
379.929	332.38
380.155	309.38
380.38	333.38
380.606	323.38
380.831	315.38
381.057	325.38
381.282	328.38
381.507	336.38
381.733	332.38
381.958	325.38
382.184	325.38
382.409	333.38
382.634	331.38
382.86	313.38
383.085	335.38
383.31	331.38
383.535	323.38
383.761	333.38
383.986	335.38
384.211	336.38
384.436	353.38
384.662	327.38
384.887	334.38
385.112	347.38
385.337	357.38
385.562	348.38
385.787	356.38
386.013	367.38
386.238	372.38
386.463	359.38
386.688	361.38
386.913	343.38
387.138	361.38
387.363	376.38
387.588	359.38
387.813	361.38
388.038	365.38
388.263	339.38
388.488	347.38
388.713	357.38
388.938	363.38
389.163	345.38
389.387	356.38
389.612	355.38
389.837	346.38
390.062	333.38
390.287	326.38
390.512	336.38
390.736	345.38
390.961	348.38
391.186	340.38
391.411	345.38
391.636	353.38
391.86	376.38
392.085	376.38
392.31	380.38
392.534	361.38
392.759	357.38
392.984	354.38
393.208	365.38
393.433	375.38
393.658	360.38
393.882	353.38
394.107	380.38
394.331	364.38
394.556	352.38
394.78	352.38
395.005	366.38
395.229	354.38
395.454	379.38
395.678	385.38
395.903	372.38
396.127	380.38
396.352	379.38
396.576	377.38
396.801	376.38
397.025	381.38
397.249	378.38
397.474	376.38
397.698	377.38
397.922	395.38
398.147	399.38
398.371	407.38
398.595	398.38
398.82	413.38
399.044	442.38
399.268	438.38
399.492	484.38
399.717	536.38
399.941	504.38
400.165	503.38
400.389	513.38
400.613	473.38
400.837	422.38
401.062	432.38
401.286	401.38
401.51	411.38
401.734	421.38
401.958	414.38
402.182	407.38
402.406	432.38
402.63	449.38
402.854	429.38
403.078	452.38
403.302	447.38
403.526	451.38
403.75	464.38
403.974	447.38
404.198	437.38
404.422	463.38
404.645	433.38
404.869	440.38
405.093	479.38
405.317	478.38
405.541	491.38
405.765	475.38
405.988	450.38
406.212	443.38
406.436	456.38
406.66	475.38
406.883	467.38
407.107	484.38
407.331	518.38
407.555	562.38
407.778	525.38
408.002	480.38
408.226	468.38
408.449	471.38
408.673	470.38
408.896	472.38
409.12	471.38
409.344	476.38
409.567	439.38
409.791	440.38
410.014	453.38
410.238	426.38
410.461	428.38
410.685	451.38
410.908	435.38
411.132	449.38
411.355	468.38
411.578	437.38
411.802	425.38
412.025	395.38
412.249	435.38
412.472	446.38
412.695	455.38
412.919	437.38
413.142	419.38
413.365	428.38
413.589	420.38
413.812	402.38
414.035	409.38
414.258	409.38
414.482	390.38
414.705	417.38
414.928	415.38
415.151	421.38
415.374	417.38
415.597	423.38
415.821	399.38
416.044	395.38
416.267	415.38
416.49	408.38
416.713	430.38
416.936	380.38
417.159	397.38
417.382	405.38
417.605	396.38
417.828	433.38
418.051	421.38
418.274	421.38
418.497	421.38
418.72	411.38
418.943	409.38
419.166	435.38
419.389	429.38
419.611	460.38
419.834	437.38
420.057	454.38
420.28	443.38
420.503	421.38
420.726	420.38
420.948	445.38
421.171	466.38
421.394	460.38
421.617	413.38
421.839	411.38
422.062	401.38
422.285	433.38
422.507	467.38
422.73	487.38
422.953	472.38
423.175	441.38
423.398	419.38
423.621	431.38
423.843	439.38
424.066	424.38
424.288	447.38
424.511	431.38
424.733	457.38
424.956	506.38
425.178	514.38
425.401	483.38
425.623	486.38
425.846	449.38
426.068	427.38
426.291	417.38
426.513	426.38
426.735	416.38
426.958	468.38
427.18	458.38
427.402	536.38
427.625	567.38
427.847	508.38
428.069	436.38
428.292	413.38
428.514	389.38
428.736	395.38
428.958	407.38
429.181	387.38
429.403	379.38
429.625	380.38
429.847	402.38
430.069	439.38
430.292	431.38
430.514	387.38
430.736	389.38
430.958	396.38
431.18	376.38
431.402	378.38
431.624	356.38
431.846	364.38
432.068	372.38
432.29	383.38
432.512	390.38
432.734	409.38
432.956	379.38
433.178	407.38
433.4	372.38
433.622	388.38
433.844	396.38
434.066	375.38
434.287	374.38
434.509	389.38
434.731	403.38
434.953	410.38
435.175	423.38
435.397	436.38
435.618	431.38
435.84	451.38
436.062	462.38
436.284	501.38
436.505	423.38
436.727	415.38
436.949	401.38
437.17	401.38
437.392	389.38
437.614	398.38
437.835	433.38
438.057	451.38
438.278	486.38
438.5	515.38
438.721	521.38
438.943	549.38
439.165	429.38
439.386	431.38
439.608	411.38
439.829	401.38
440.05	439.38
440.272	459.38
440.493	428.38
440.715	411.38
440.936	411.38
441.158	419.38
441.379	402.38
441.6	418.38
441.822	432.38
442.043	473.38
442.264	477.38
442.486	513.38
442.707	452.38
442.928	446.38
443.149	417.38
443.371	444.38
443.592	471.38
443.813	518.38
444.034	538.38
444.255	453.38
444.476	455.38
444.698	465.38
444.919	472.38
445.14	584.38
445.361	484.38
445.582	473.38
445.803	504.38
446.024	531.38
446.245	513.38
446.466	475.38
446.687	442.38
446.908	396.38
447.129	410.38
447.35	401.38
447.571	393.38
447.792	369.38
448.013	371.38
448.234	391.38
448.455	388.38
448.675	427.38
448.896	538.38
449.117	453.38
449.338	445.38
449.559	508.38
449.779	556.38
450	453.38
450.221	398.38
450.442	382.38
450.662	379.38
450.883	377.38
451.104	401.38
451.324	390.38
451.545	373.38
451.766	361.38
451.986	347.38
452.207	357.38
452.428	338.38
452.648	365.38
452.869	353.38
453.089	362.38
453.31	360.38
453.53	351.38
453.751	339.38
453.971	351.38
454.192	351.38
454.412	370.38
454.633	374.38
454.853	339.38
455.073	353.38
455.294	378.38
455.514	389.38
455.734	380.38
455.955	351.38
456.175	335.38
456.395	325.38
456.616	336.38
456.836	343.38
457.056	346.38
457.276	336.38
457.497	320.38
457.717	348.38
457.937	346.38
458.157	350.38
458.377	354.38
458.598	363.38
458.818	377.38
459.038	459.38
459.258	434.38
459.478	413.38
459.698	387.38
459.918	411.38
460.138	397.38
460.358	435.38
460.578	423.38
460.798	398.38
461.018	406.38
461.238	409.38
461.458	411.38
461.678	412.38
461.898	411.38
462.118	423.38
462.338	444.38
462.558	413.38
462.777	455.38
462.997	489.38
463.217	478.38
463.437	487.38
463.657	459.38
463.876	447.38
464.096	457.38
464.316	469.38
464.536	459.38
464.755	457.38
464.975	449.38
465.195	452.38
465.414	448.38
465.634	418.38
465.854	399.38
466.073	400.38
466.293	397.38
466.512	373.38
466.732	376.38
466.951	369.38
467.171	375.38
467.391	352.38
467.61	393.38
467.829	384.38
468.049	370.38
468.268	351.38
468.488	356.38
468.707	359.38
468.927	362.38
469.146	378.38
469.365	345.38
469.585	355.38
469.804	364.38
470.023	373.38
470.243	377.38
470.462	383.38
470.681	399.38
470.901	385.38
471.12	386.38
471.339	372.38
471.558	371.38
471.777	375.38
471.997	386.38
472.216	372.38
472.435	396.38
472.654	360.38
472.873	359.38
473.092	365.38
473.311	368.38
473.53	372.38
473.749	359.38
473.968	390.38
474.187	432.38
474.406	441.38
474.625	392.38
474.844	375.38
475.063	375.38
475.282	371.38
475.501	360.38
475.72	353.38
475.939	364.38
476.158	389.38
476.377	378.38
476.596	371.38
476.814	362.38
477.033	373.38
477.252	402.38
477.471	388.38
477.69	389.38
477.908	407.38
478.127	424.38
478.346	403.38
478.564	425.38
478.783	419.38
479.002	424.38
479.22	417.38
479.439	433.38
479.658	453.38
479.876	444.38
480.095	442.38
480.313	470.38
480.532	488.38
480.751	469.38
480.969	455.38
481.188	487.38
481.406	500.38
481.624	443.38
481.843	429.38
482.061	429.38
482.28	416.38
482.498	425.38
482.717	395.38
482.935	435.38
483.153	424.38
483.372	429.38
483.59	406.38
483.808	420.38
484.027	429.38
484.245	417.38
484.463	431.38
484.681	449.38
484.9	439.38
485.118	446.38
485.336	431.38
485.554	436.38
485.772	435.38
485.99	453.38
486.209	437.38
486.427	446.38
486.645	456.38
486.863	443.38
487.081	456.38
487.299	442.38
487.517	432.38
487.735	456.38
487.953	447.38
488.171	460.38
488.389	436.38
488.607	441.38
488.825	436.38
489.043	450.38
489.261	467.38
489.479	443.38
489.696	456.38
489.914	451.38
490.132	465.38
490.35	472.38
490.568	467.38
490.786	475.38
491.003	495.38
491.221	487.38
491.439	503.38
491.657	503.38
491.874	489.38
492.092	516.38
492.31	527.38
492.527	499.38
492.745	517.38
492.963	520.38
493.18	513.38
493.398	501.38
493.615	531.38
493.833	513.38
494.05	523.38
494.268	516.38
494.485	515.38
494.703	529.38
494.92	515.38
495.138	532.38
495.355	521.38
495.573	506.38
495.79	520.38
496.008	524.38
496.225	516.38
496.442	520.38
496.66	524.38
496.877	529.38
497.094	552.38
497.312	547.38
497.529	560.38
497.746	552.38
497.963	567.38
498.181	571.38
498.398	596.38
498.615	623.38
498.832	657.38
499.049	656.38
499.267	696.38
499.484	710.38
499.701	766.38
499.918	818.38
500.135	903.38
500.352	944.38
500.569	945.38
500.786	966.38
501.003	920.38
501.22	871.38
501.437	827.38
501.654	776.38
501.871	730.38
502.088	689.38
502.305	696.38
502.522	618.38
502.739	629.38
502.956	583.38
503.172	559.38
503.389	564.38
503.606	563.38
503.823	571.38
504.04	532.38
504.256	557.38
504.473	537.38
504.69	559.38
504.907	561.38
505.123	531.38
505.34	519.38
505.557	503.38
505.773	511.38
505.99	485.38
506.207	492.38
506.423	480.38
506.64	466.38
506.856	496.38
507.073	468.38
507.289	468.38
507.506	471.38
507.722	475.38
507.939	473.38
508.155	462.38
508.372	455.38
508.588	463.38
508.805	452.38
509.021	452.38
509.238	467.38
509.454	485.38
509.67	447.38
509.887	450.38
510.103	443.38
510.319	436.38
510.536	487.38
510.752	687.38
510.968	585.38
511.184	435.38
511.401	447.38
511.617	431.38
511.833	438.38
512.049	427.38
512.265	412.38
512.481	423.38
512.698	407.38
512.914	411.38
513.13	421.38
513.346	443.38
513.562	419.38
513.778	417.38
513.994	412.38
514.21	419.38
514.426	445.38
514.642	480.38
514.858	443.38
515.074	465.38
515.29	503.38
515.506	722.38
515.721	612.38
515.937	476.38
516.153	476.38
516.369	479.38
516.585	455.38
516.801	474.38
517.016	464.38
517.232	478.38
517.448	485.38
517.664	504.38
517.879	490.38
518.095	480.38
518.311	496.38
518.527	487.38
518.742	463.38
518.958	458.38
519.173	445.38
519.389	438.38
519.605	450.38
519.82	457.38
520.036	432.38
520.251	461.38
520.467	458.38
520.682	451.38
520.898	441.38
521.113	458.38
521.329	442.38
521.544	487.38
521.76	578.38
521.975	835.38
522.19	867.38
522.406	527.38
522.621	442.38
522.836	411.38
523.052	415.38
523.267	388.38
523.482	411.38
523.698	397.38
523.913	383.38
524.128	383.38
524.343	376.38
524.559	376.38
524.774	355.38
524.989	371.38
525.204	363.38
525.419	385.38
525.634	362.38
525.849	388.38
526.064	357.38
526.28	364.38
526.495	369.38
526.71	356.38
526.925	355.38
527.14	373.38
527.355	343.38
527.57	373.38
527.785	369.38
527.999	358.38
528.214	358.38
528.429	359.38
528.644	375.38
528.859	369.38
529.074	372.38
529.289	365.38
529.503	407.38
529.718	395.38
529.933	375.38
530.148	376.38
530.363	365.38
530.577	351.38
530.792	351.38
531.007	356.38
531.221	367.38
531.436	358.38
531.651	364.38
531.865	349.38
532.08	346.38
532.295	361.38
532.509	343.38
532.724	340.38
532.938	348.38
533.153	364.38
533.367	367.38
533.582	353.38
533.796	354.38
534.011	371.38
534.225	364.38
534.44	355.38
534.654	355.38
534.868	353.38
535.083	359.38
535.297	346.38
535.511	363.38
535.726	360.38
535.94	355.38
536.154	363.38
536.369	360.38
536.583	340.38
536.797	337.38
537.011	345.38
537.225	328.38
537.44	334.38
537.654	342.38
537.868	354.38
538.082	337.38
538.296	326.38
538.51	355.38
538.724	348.38
538.938	358.38
539.153	346.38
539.367	339.38
539.581	341.38
539.795	352.38
540.009	346.38
540.222	360.38
540.436	344.38
540.65	348.38
540.864	331.38
541.078	342.38
541.292	352.38
541.506	354.38
541.72	339.38
541.934	339.38
542.147	360.38
542.361	359.38
542.575	344.38
542.789	337.38
543.002	338.38
543.216	312.38
543.43	331.38
543.644	345.38
543.857	339.38
544.071	363.38
544.285	353.38
544.498	345.38
544.712	368.38
544.925	348.38
545.139	355.38
545.352	348.38
545.566	361.38
545.779	344.38
545.993	354.38
546.206	347.38
546.42	339.38
546.633	346.38
546.847	347.38
547.06	350.38
547.274	335.38
547.487	354.38
547.7	361.38
547.914	331.38
548.127	362.38
548.34	358.38
548.554	355.38
548.767	359.38
548.98	359.38
549.193	328.38
549.407	331.38
549.62	352.38
549.833	367.38
550.046	356.38
550.259	356.38
550.473	341.38
550.686	363.38
550.899	347.38
551.112	343.38
551.325	339.38
551.538	323.38
551.751	350.38
551.964	341.38
552.177	324.38
552.39	347.38
552.603	355.38
552.816	353.38
553.029	378.38
553.242	360.38
553.455	377.38
553.667	379.38
553.88	362.38
554.093	358.38
554.306	366.38
554.519	356.38
554.732	357.38
554.944	337.38
555.157	330.38
555.37	331.38
555.583	324.38
555.795	333.38
556.008	323.38
556.221	322.38
556.433	307.38
556.646	313.38
556.859	319.38
557.071	309.38
557.284	325.38
557.496	325.38
557.709	307.38
557.921	306.38
558.134	317.38
558.346	309.38
558.559	299.38
558.771	301.38
558.984	324.38
559.196	305.38
559.409	286.38
559.621	296.38
559.833	280.38
560.046	309.38
560.258	289.38
560.47	302.38
560.683	287.38
560.895	306.38
561.107	297.38
561.32	298.38
561.532	309.38
561.744	309.38
561.956	300.38
562.168	306.38
562.381	309.38
562.593	292.38
562.805	310.38
563.017	293.38
563.229	301.38
563.441	299.38
563.653	311.38
563.865	323.38
564.077	305.38
564.289	317.38
564.501	321.38
564.713	313.38
564.925	329.38
565.137	322.38
565.349	331.38
565.561	330.38
565.773	340.38
565.985	349.38
566.197	367.38
566.408	383.38
566.62	375.38
566.832	420.38
567.044	405.38
567.255	413.38
567.467	419.38
567.679	439.38
567.891	455.38
568.102	465.38
568.314	450.38
568.526	418.38
568.737	400.38
568.949	375.38
569.161	343.38
569.372	340.38
569.584	321.38
569.795	336.38
570.007	295.38
570.218	331.38
570.43	341.38
570.641	292.38
570.853	301.38
571.064	300.38
571.276	327.38
571.487	321.38
571.698	304.38
571.91	308.38
572.121	294.38
572.333	278.38
572.544	295.38
572.755	280.38
572.966	267.38
573.178	257.38
573.389	273.38
573.6	269.38
573.811	263.38
574.023	268.38
574.234	258.38
574.445	258.38
574.656	263.38
574.867	271.38
575.078	247.38
575.289	249.38
575.501	276.38
575.712	275.38
575.923	259.38
576.134	269.38
576.345	254.38
576.556	261.38
576.767	277.38
576.978	255.38
577.188	245.38
577.399	244.38
577.61	266.38
577.821	260.38
578.032	259.38
578.243	281.38
578.454	355.38
578.665	306.38
578.875	244.38
579.086	266.38
579.297	236.38
579.508	242.38
579.718	227.38
579.929	249.38
580.14	253.38
580.35	253.38
580.561	257.38
580.772	246.38
580.982	240.38
581.193	223.38
581.403	241.38
581.614	228.38
581.825	237.38
582.035	243.38
582.246	251.38
582.456	232.38
582.667	226.38
582.877	245.38
583.087	232.38
583.298	239.38
583.508	225.38
583.719	244.38
583.929	248.38
584.139	231.38
584.35	249.38
584.56	236.38
584.77	229.38
584.981	234.38
585.191	223.38
585.401	224.38
585.611	230.38
585.821	233.38
586.032	231.38
586.242	232.38
586.452	236.38
586.662	250.38
586.872	256.38
587.082	231.38
587.292	240.38
587.502	205.38
587.713	227.38
587.923	240.38
588.133	225.38
588.343	250.38
588.553	219.38
588.762	243.38
588.972	242.38
589.182	230.38
589.392	248.38
589.602	238.38
589.812	238.38
590.022	242.38
590.232	256.38
590.441	242.38
590.651	228.38
590.861	237.38
591.071	238.38
591.281	239.38
591.49	243.38
591.7	235.38
591.91	242.38
592.119	233.38
592.329	268.38
592.539	261.38
592.748	268.38
592.958	266.38
593.167	256.38
593.377	263.38
593.587	267.38
593.796	264.38
594.006	288.38
594.215	279.38
594.424	281.38
594.634	261.38
594.843	264.38
595.053	277.38
595.262	247.38
595.472	253.38
595.681	231.38
595.89	240.38
596.1	248.38
596.309	232.38
596.518	232.38
596.727	240.38
596.937	215.38
597.146	220.38
597.355	227.38
597.564	239.38
597.774	229.38
597.983	216.38
598.192	222.38
598.401	217.38
598.61	219.38
598.819	201.38
599.028	216.38
599.237	213.38
599.446	219.38
599.655	218.38
599.864	223.38
600.073	213.38
600.282	199.38
600.491	232.38
600.7	214.38
600.909	210.38
601.118	208.38
601.327	220.38
601.536	213.38
601.745	203.38
601.953	211.38
602.162	222.38
602.371	201.38
602.58	203.38
602.789	214.38
602.997	197.38
603.206	208.38
603.415	205.38
603.623	223.38
603.832	206.38
604.041	211.38
604.249	198.38
604.458	196.38
604.666	213.38
604.875	195.38
605.084	183.38
605.292	198.38
605.501	191.38
605.709	207.38
605.918	205.38
606.126	202.38
606.334	204.38
606.543	201.38
606.751	210.38
606.96	185.38
607.168	205.38
607.376	203.38
607.585	199.38
607.793	212.38
608.001	207.38
608.21	204.38
608.418	195.38
608.626	201.38
608.834	197.38
609.043	213.38
609.251	197.38
609.459	192.38
609.667	206.38
609.875	198.38
610.083	184.38
610.291	204.38
610.499	195.38
610.707	198.38
610.916	190.38
611.124	213.38
611.332	199.38
611.54	196.38
611.748	206.38
611.955	193.38
612.163	201.38
612.371	191.38
612.579	207.38
612.787	195.38
612.995	204.38
613.203	212.38
613.411	204.38
613.618	194.38
613.826	200.38
614.034	199.38
614.242	182.38
614.449	204.38
614.657	191.38
614.865	190.38
615.072	212.38
615.28	196.38
615.488	209.38
615.695	216.38
615.903	188.38
616.111	200.38
616.318	201.38
616.526	201.38
616.733	201.38
616.941	214.38
617.148	206.38
617.356	205.38
617.563	207.38
617.771	200.38
617.978	197.38
618.185	195.38
618.393	194.38
618.6	194.38
618.807	187.38
619.015	199.38
619.222	211.38
619.429	204.38
619.637	208.38
619.844	194.38
620.051	183.38
620.258	196.38
620.466	182.38
620.673	184.38
620.88	179.38
621.087	185.38
621.294	180.38
621.501	184.38
621.708	185.38
621.915	193.38
622.122	183.38
622.329	169.38
622.536	197.38
622.743	191.38
622.95	170.38
623.157	190.38
623.364	186.38
623.571	188.38
623.778	192.38
623.985	201.38
624.192	168.38
624.399	187.38
624.606	190.38
624.812	171.38
625.019	185.38
625.226	181.38
625.433	176.38
625.639	173.38
625.846	177.38
626.053	189.38
626.259	196.38
626.466	175.38
626.673	177.38
626.879	188.38
627.086	164.38
627.293	162.38
627.499	184.38
627.706	176.38
627.912	163.38
628.119	169.38
628.325	175.38
628.532	179.38
628.738	176.38
628.945	163.38
629.151	173.38
629.357	167.38
629.564	170.38
629.77	171.38
629.976	164.38
630.183	169.38
630.389	188.38
630.595	177.38
630.802	161.38
631.008	164.38
631.214	163.38
631.42	181.38
631.627	177.38
631.833	174.38
632.039	172.38
632.245	161.38
632.451	156.38
632.657	159.38
632.863	158.38
633.069	169.38
633.275	168.38
633.481	150.38
633.688	167.38
633.893	166.38
634.099	151.38
634.305	168.38
634.511	152.38
634.717	162.38
634.923	165.38
635.129	165.38
635.335	146.38
635.541	161.38
635.747	166.38
635.952	157.38
636.158	152.38
636.364	157.38
636.57	154.38
636.775	162.38
636.981	147.38
637.187	152.38
637.392	156.38
637.598	161.38
637.804	175.38
638.009	155.38
638.215	160.38
638.421	152.38
638.626	178.38
638.832	172.38
639.037	154.38
639.243	152.38
639.448	141.38
639.654	169.38
639.859	170.38
640.065	157.38
640.27	153.38
640.475	151.38
640.681	141.38
640.886	142.38
641.091	157.38
641.297	152.38
641.502	149.38
641.707	153.38
641.913	158.38
642.118	127.38
642.323	150.38
642.528	149.38
642.733	165.38
642.939	157.38
643.144	143.38
643.349	136.38
643.554	139.38
643.759	145.38
643.964	157.38
644.169	142.38
644.374	153.38
644.579	153.38
644.784	155.38
644.989	137.38
645.194	145.38
645.399	156.38
645.604	150.38
645.809	144.38
646.014	160.38
646.219	147.38
646.423	159.38
646.628	167.38
646.833	153.38
647.038	159.38
647.243	143.38
647.447	167.38
647.652	146.38
647.857	153.38
648.062	149.38
648.266	145.38
648.471	156.38
648.676	156.38
648.88	155.38
649.085	153.38
649.289	161.38
649.494	156.38
649.698	129.38
649.903	152.38
650.107	161.38
650.312	170.38
650.516	151.38
650.721	145.38
650.925	148.38
651.13	141.38
651.334	130.38
651.539	132.38
651.743	150.38
651.947	135.38
652.152	123.38
652.356	142.38
652.56	150.38
652.764	120.38
652.969	140.38
653.173	120.38
653.377	121.38
653.581	125.38
653.785	128.38
653.99	139.38
654.194	133.38
654.398	132.38
654.602	128.38
654.806	139.38
655.01	128.38
655.214	120.38
655.418	124.38
655.622	118.38
655.826	119.38
656.03	129.38
656.234	131.38
656.438	137.38
656.642	141.38
656.846	132.38
657.049	130.38
657.253	112.38
657.457	114.38
657.661	110.38
657.865	123.38
658.068	114.38
658.272	104.38
658.476	103.38
658.68	112.38
658.883	96.38
659.087	79.38
659.291	106.38
659.494	116.38
659.698	104.38
659.901	100.38
660.105	86.38
660.309	89.38
660.512	97.38
660.716	100.38
660.919	99.38
661.123	99.38
661.326	75.38
661.53	92.38
661.733	103.38
661.936	85.38
662.14	96.38
662.343	90.38
662.546	87.38
662.75	93.38
662.953	85.38
663.156	72.38
663.36	88.38
663.563	96.38
663.766	82.38
663.969	75.38
664.173	76.38
664.376	81.38
664.579	70.38
664.782	73.38
664.985	97.38
665.188	70.38
665.391	81.38
665.594	83.38
665.797	87.38
666	79.38
666.203	88.38
666.406	75.38
666.609	87.38
666.812	67.38
667.015	83.38
667.218	90.38
667.421	92.38
667.624	78.38
667.827	87.38
668.03	90.38
668.232	84.38
668.435	85.38
668.638	82.38
668.841	71.38
669.043	76.38
669.246	65.38
669.449	70.38
669.651	70.38
669.854	82.38
670.057	91.38
670.259	73.38
670.462	70.38
670.665	83.38
670.867	92.38
671.07	77.38
671.272	77.38
671.475	92.38
671.677	84.38
671.88	77.38
672.082	83.38
672.284	83.38
672.487	89.38
672.689	85.38
672.892	82.38
