Data from 1969.PennyLincolnUp.Lamp.En5.5.200Scan.071719.P1._HRD10591_14-56-59-973.txt Node
Date: Thu Jul 18 14:56:59 EDT 2019
User: cochatt
Spectrometer: HR+D1059
Trigger mode: 1
Integration Time (sec): 1.000000E-1
Scans to average: 1
Electric dark correction enabled: true
Nonlinearity correction enabled: false
Boxcar width: 0
XAxis mode: Wavelengths
Number of Pixels in Spectrum: 2048
>>>>>Begin Spectral Data<<<<<
223.165	-7.31
223.4	-7.31
223.635	-7.31
223.869	-19.31
224.104	-25.31
224.338	-6.31
224.573	-10.31
224.808	-7.31
225.042	-18.31
225.277	0.69
225.511	-5.31
225.746	0.69
225.98	-5.31
226.215	3.69
226.449	8.69
226.683	23.69
226.918	22.69
227.152	44.69
227.387	30.69
227.621	39.69
227.856	44.69
228.09	39.69
228.324	43.69
228.559	47.69
228.793	70.69
229.027	85.69
229.262	89.69
229.496	98.69
229.73	126.69
229.964	107.69
230.199	96.69
230.433	108.69
230.667	101.69
230.901	106.69
231.136	105.69
231.37	112.69
231.604	101.69
231.838	104.69
232.072	112.69
232.306	109.69
232.541	98.69
232.775	98.69
233.009	100.69
233.243	114.69
233.477	101.69
233.711	109.69
233.945	110.69
234.179	120.69
234.413	118.69
234.647	107.69
234.881	112.69
235.115	104.69
235.349	111.69
235.583	108.69
235.817	102.69
236.051	114.69
236.285	106.69
236.519	100.69
236.753	113.69
236.987	146.69
237.221	145.69
237.455	175.69
237.689	154.69
237.922	119.69
238.156	122.69
238.39	114.69
238.624	120.69
238.858	119.69
239.091	117.69
239.325	122.69
239.559	107.69
239.793	105.69
240.027	124.69
240.26	133.69
240.494	136.69
240.728	129.69
240.961	115.69
241.195	139.69
241.429	110.69
241.662	127.69
241.896	108.69
242.13	136.69
242.363	117.69
242.597	110.69
242.83	123.69
243.064	129.69
243.298	121.69
243.531	146.69
243.765	131.69
243.998	132.69
244.232	143.69
244.465	134.69
244.699	125.69
244.932	130.69
245.166	121.69
245.399	132.69
245.633	143.69
245.866	129.69
246.099	130.69
246.333	134.69
246.566	129.69
246.8	131.69
247.033	126.69
247.266	126.69
247.5	134.69
247.733	130.69
247.966	156.69
248.2	155.69
248.433	152.69
248.666	157.69
248.899	144.69
249.133	165.69
249.366	176.69
249.599	176.69
249.832	145.69
250.066	163.69
250.299	146.69
250.532	184.69
250.765	192.69
250.998	183.69
251.231	189.69
251.465	179.69
251.698	178.69
251.931	179.69
252.164	156.69
252.397	182.69
252.63	166.69
252.863	164.69
253.096	193.69
253.329	195.69
253.562	193.69
253.795	202.69
254.028	178.69
254.261	190.69
254.494	188.69
254.727	213.69
254.96	228.69
255.193	206.69
255.426	209.69
255.659	196.69
255.892	188.69
256.124	210.69
256.357	204.69
256.59	186.69
256.823	187.69
257.056	196.69
257.289	178.69
257.521	176.69
257.754	191.69
257.987	156.69
258.22	190.69
258.452	182.69
258.685	196.69
258.918	171.69
259.151	205.69
259.383	192.69
259.616	203.69
259.849	200.69
260.081	217.69
260.314	221.69
260.547	211.69
260.779	190.69
261.012	205.69
261.244	210.69
261.477	186.69
261.71	203.69
261.942	194.69
262.175	189.69
262.407	196.69
262.64	186.69
262.872	198.69
263.105	195.69
263.337	186.69
263.57	174.69
263.802	198.69
264.035	200.69
264.267	201.69
264.499	186.69
264.732	207.69
264.964	199.69
265.197	191.69
265.429	179.69
265.661	198.69
265.894	189.69
266.126	196.69
266.358	200.69
266.591	199.69
266.823	197.69
267.055	211.69
267.287	211.69
267.52	198.69
267.752	212.69
267.984	189.69
268.216	202.69
268.448	203.69
268.681	202.69
268.913	226.69
269.145	219.69
269.377	236.69
269.609	240.69
269.841	226.69
270.073	244.69
270.306	248.69
270.538	282.69
270.77	262.69
271.002	242.69
271.234	237.69
271.466	249.69
271.698	257.69
271.93	261.69
272.162	278.69
272.394	277.69
272.626	259.69
272.858	262.69
273.09	274.69
273.322	225.69
273.553	237.69
273.785	225.69
274.017	229.69
274.249	218.69
274.481	235.69
274.713	214.69
274.945	233.69
275.176	219.69
275.408	226.69
275.64	231.69
275.872	249.69
276.104	235.69
276.335	224.69
276.567	232.69
276.799	264.69
277.031	269.69
277.262	260.69
277.494	278.69
277.726	258.69
277.957	256.69
278.189	242.69
278.421	243.69
278.652	238.69
278.884	231.69
279.115	234.69
279.347	236.69
279.579	220.69
279.81	249.69
280.042	251.69
280.273	249.69
280.505	235.69
280.736	235.69
280.968	237.69
281.199	247.69
281.431	249.69
281.662	252.69
281.894	247.69
282.125	232.69
282.356	243.69
282.588	269.69
282.819	277.69
283.051	253.69
283.282	256.69
283.513	261.69
283.745	246.69
283.976	251.69
284.207	240.69
284.439	268.69
284.67	252.69
284.901	243.69
285.132	259.69
285.364	245.69
285.595	277.69
285.826	249.69
286.057	259.69
286.288	265.69
286.52	265.69
286.751	257.69
286.982	254.69
287.213	260.69
287.444	264.69
287.675	269.69
287.906	283.69
288.138	262.69
288.369	271.69
288.6	283.69
288.831	257.69
289.062	266.69
289.293	264.69
289.524	276.69
289.755	278.69
289.986	256.69
290.217	256.69
290.448	247.69
290.679	266.69
290.91	289.69
291.141	259.69
291.371	272.69
291.602	256.69
291.833	260.69
292.064	256.69
292.295	273.69
292.526	261.69
292.757	271.69
292.987	269.69
293.218	260.69
293.449	287.69
293.68	276.69
293.91	265.69
294.141	288.69
294.372	284.69
294.603	270.69
294.833	267.69
295.064	275.69
295.295	277.69
295.525	264.69
295.756	282.69
295.987	268.69
296.217	276.69
296.448	295.69
296.679	280.69
296.909	283.69
297.14	277.69
297.37	292.69
297.601	294.69
297.831	271.69
298.062	271.69
298.292	282.69
298.523	280.69
298.753	284.69
298.984	294.69
299.214	297.69
299.445	281.69
299.675	268.69
299.905	285.69
300.136	276.69
300.366	306.69
300.597	308.69
300.827	287.69
301.057	282.69
301.288	293.69
301.518	302.69
301.748	300.69
301.979	319.69
302.209	309.69
302.439	312.69
302.669	311.69
302.9	279.69
303.13	280.69
303.36	293.69
303.59	292.69
303.82	307.69
304.051	321.69
304.281	318.69
304.511	306.69
304.741	317.69
304.971	309.69
305.201	307.69
305.431	298.69
305.661	276.69
305.891	276.69
306.121	302.69
306.352	300.69
306.582	306.69
306.812	291.69
307.042	303.69
307.272	318.69
307.502	308.69
307.731	311.69
307.961	304.69
308.191	299.69
308.421	280.69
308.651	301.69
308.881	305.69
309.111	298.69
309.341	304.69
309.571	316.69
309.8	309.69
310.03	322.69
310.26	315.69
310.49	311.69
310.72	336.69
310.949	343.69
311.179	341.69
311.409	324.69
311.639	331.69
311.868	346.69
312.098	340.69
312.328	336.69
312.557	352.69
312.787	360.69
313.017	351.69
313.246	341.69
313.476	340.69
313.706	322.69
313.935	333.69
314.165	343.69
314.394	348.69
314.624	349.69
314.853	325.69
315.083	334.69
315.312	321.69
315.542	332.69
315.771	323.69
316.001	330.69
316.23	308.69
316.46	304.69
316.689	323.69
316.919	344.69
317.148	334.69
317.377	320.69
317.607	332.69
317.836	332.69
318.065	329.69
318.295	314.69
318.524	333.69
318.753	335.69
318.983	326.69
319.212	338.69
319.441	343.69
319.67	338.69
319.9	348.69
320.129	319.69
320.358	318.69
320.587	325.69
320.816	351.69
321.046	348.69
321.275	330.69
321.504	326.69
321.733	337.69
321.962	332.69
322.191	360.69
322.42	354.69
322.649	362.69
322.878	375.69
323.108	371.69
323.337	393.69
323.566	371.69
323.795	422.69
324.024	436.69
324.253	509.69
324.482	672.69
324.71	990.69
324.939	1276.69
325.168	1072.69
325.397	597.69
325.626	463.69
325.855	425.69
326.084	409.69
326.313	392.69
326.542	400.69
326.77	413.69
326.999	484.69
327.228	633.69
327.457	888.69
327.686	1021.69
327.914	685.69
328.143	491.69
328.372	464.69
328.6	455.69
328.829	427.69
329.058	428.69
329.287	449.69
329.515	419.69
329.744	399.69
329.972	434.69
330.201	444.69
330.43	456.69
330.658	454.69
330.887	474.69
331.115	470.69
331.344	435.69
331.572	399.69
331.801	417.69
332.03	407.69
332.258	412.69
332.486	410.69
332.715	388.69
332.943	416.69
333.172	419.69
333.4	428.69
333.629	405.69
333.857	432.69
334.085	434.69
334.314	450.69
334.542	477.69
334.771	471.69
334.999	421.69
335.227	421.69
335.455	421.69
335.684	430.69
335.912	396.69
336.14	404.69
336.369	381.69
336.597	399.69
336.825	402.69
337.053	392.69
337.281	410.69
337.51	379.69
337.738	385.69
337.966	389.69
338.194	384.69
338.422	381.69
338.65	371.69
338.878	386.69
339.106	373.69
339.334	377.69
339.562	381.69
339.79	357.69
340.018	390.69
340.246	379.69
340.474	390.69
340.702	372.69
340.93	368.69
341.158	359.69
341.386	371.69
341.614	358.69
341.842	354.69
342.07	360.69
342.298	360.69
342.526	355.69
342.754	355.69
342.981	353.69
343.209	364.69
343.437	393.69
343.665	382.69
343.893	388.69
344.12	418.69
344.348	401.69
344.576	384.69
344.804	391.69
345.031	385.69
345.259	363.69
345.487	386.69
345.714	393.69
345.942	377.69
346.17	358.69
346.397	359.69
346.625	369.69
346.853	357.69
347.08	352.69
347.308	345.69
347.535	359.69
347.763	370.69
347.99	365.69
348.218	378.69
348.445	372.69
348.673	362.69
348.9	349.69
349.128	356.69
349.355	340.69
349.583	342.69
349.81	354.69
350.037	348.69
350.265	339.69
350.492	341.69
350.72	345.69
350.947	354.69
351.174	352.69
351.402	343.69
351.629	348.69
351.856	342.69
352.083	351.69
352.311	358.69
352.538	351.69
352.765	358.69
352.992	392.69
353.22	345.69
353.447	345.69
353.674	358.69
353.901	331.69
354.128	341.69
354.355	344.69
354.583	334.69
354.81	342.69
355.037	357.69
355.264	329.69
355.491	341.69
355.718	351.69
355.945	330.69
356.172	330.69
356.399	349.69
356.626	333.69
356.853	329.69
357.08	337.69
357.307	334.69
357.534	324.69
357.761	321.69
357.988	338.69
358.215	325.69
358.441	337.69
358.668	339.69
358.895	333.69
359.122	353.69
359.349	356.69
359.576	353.69
359.802	349.69
360.029	376.69
360.256	386.69
360.483	357.69
360.709	344.69
360.936	333.69
361.163	343.69
361.39	341.69
361.616	346.69
361.843	352.69
362.07	362.69
362.296	357.69
362.523	357.69
362.749	352.69
362.976	344.69
363.203	329.69
363.429	340.69
363.656	328.69
363.882	340.69
364.109	350.69
364.335	328.69
364.562	329.69
364.788	340.69
365.015	337.69
365.241	347.69
365.468	351.69
365.694	344.69
365.92	330.69
366.147	333.69
366.373	337.69
366.599	343.69
366.826	349.69
367.052	342.69
367.278	338.69
367.505	339.69
367.731	350.69
367.957	358.69
368.184	349.69
368.41	361.69
368.636	343.69
368.862	361.69
369.089	349.69
369.315	343.69
369.541	312.69
369.767	322.69
369.993	343.69
370.219	346.69
370.445	340.69
370.672	325.69
370.898	330.69
371.124	348.69
371.35	333.69
371.576	326.69
371.802	338.69
372.028	348.69
372.254	340.69
372.48	325.69
372.706	361.69
372.932	353.69
373.158	348.69
373.384	360.69
373.61	354.69
373.835	336.69
374.061	359.69
374.287	353.69
374.513	346.69
374.739	373.69
374.965	357.69
375.191	354.69
375.416	353.69
375.642	351.69
375.868	364.69
376.094	334.69
376.319	332.69
376.545	339.69
376.771	352.69
376.997	335.69
377.222	368.69
377.448	355.69
377.674	344.69
377.899	340.69
378.125	338.69
378.35	341.69
378.576	337.69
378.802	353.69
379.027	336.69
379.253	355.69
379.478	350.69
379.704	327.69
379.929	328.69
380.155	356.69
380.38	339.69
380.606	355.69
380.831	353.69
381.057	362.69
381.282	346.69
381.507	329.69
381.733	353.69
381.958	347.69
382.184	343.69
382.409	371.69
382.634	334.69
382.86	368.69
383.085	362.69
383.31	376.69
383.535	365.69
383.761	352.69
383.986	350.69
384.211	360.69
384.436	392.69
384.662	382.69
384.887	380.69
385.112	373.69
385.337	381.69
385.562	379.69
385.787	377.69
386.013	399.69
386.238	393.69
386.463	386.69
386.688	390.69
386.913	392.69
387.138	379.69
387.363	382.69
387.588	380.69
387.813	393.69
388.038	386.69
388.263	372.69
388.488	374.69
388.713	398.69
388.938	392.69
389.163	381.69
389.387	360.69
389.612	384.69
389.837	382.69
390.062	378.69
390.287	365.69
390.512	379.69
390.736	381.69
390.961	379.69
391.186	376.69
391.411	395.69
391.636	406.69
391.86	398.69
392.085	413.69
392.31	400.69
392.534	400.69
392.759	395.69
392.984	394.69
393.208	379.69
393.433	374.69
393.658	395.69
393.882	391.69
394.107	375.69
394.331	390.69
394.556	391.69
394.78	392.69
395.005	387.69
395.229	418.69
395.454	397.69
395.678	412.69
395.903	427.69
396.127	423.69
396.352	413.69
396.576	399.69
396.801	404.69
397.025	394.69
397.249	412.69
397.474	406.69
397.698	436.69
397.922	421.69
398.147	428.69
398.371	439.69
398.595	458.69
398.82	420.69
399.044	478.69
399.268	488.69
399.492	525.69
399.717	560.69
399.941	564.69
400.165	551.69
400.389	535.69
400.613	481.69
400.837	458.69
401.062	469.69
401.286	462.69
401.51	445.69
401.734	440.69
401.958	435.69
402.182	427.69
402.406	473.69
402.63	488.69
402.854	479.69
403.078	482.69
403.302	460.69
403.526	485.69
403.75	500.69
403.974	491.69
404.198	479.69
404.422	498.69
404.645	470.69
404.869	496.69
405.093	520.69
405.317	520.69
405.541	538.69
405.765	502.69
405.988	478.69
406.212	470.69
406.436	505.69
406.66	534.69
406.883	497.69
407.107	545.69
407.331	550.69
407.555	628.69
407.778	599.69
408.002	568.69
408.226	548.69
408.449	506.69
408.673	485.69
408.896	528.69
409.12	530.69
409.344	518.69
409.567	473.69
409.791	475.69
410.014	484.69
410.238	483.69
410.461	470.69
410.685	471.69
410.908	500.69
411.132	456.69
411.355	524.69
411.578	489.69
411.802	459.69
412.025	465.69
412.249	477.69
412.472	487.69
412.695	497.69
412.919	480.69
413.142	455.69
413.365	447.69
413.589	424.69
413.812	429.69
414.035	437.69
414.258	439.69
414.482	440.69
414.705	442.69
414.928	443.69
415.151	437.69
415.374	458.69
415.597	449.69
415.821	434.69
416.044	427.69
416.267	448.69
416.49	445.69
416.713	442.69
416.936	427.69
417.159	429.69
417.382	433.69
417.605	436.69
417.828	436.69
418.051	449.69
418.274	460.69
418.497	439.69
418.72	468.69
418.943	460.69
419.166	452.69
419.389	477.69
419.611	467.69
419.834	458.69
420.057	444.69
420.28	462.69
420.503	433.69
420.726	450.69
420.948	461.69
421.171	465.69
421.394	499.69
421.617	454.69
421.839	447.69
422.062	477.69
422.285	466.69
422.507	502.69
422.73	525.69
422.953	516.69
423.175	476.69
423.398	480.69
423.621	498.69
423.843	487.69
424.066	469.69
424.288	489.69
424.511	496.69
424.733	534.69
424.956	569.69
425.178	557.69
425.401	546.69
425.623	536.69
425.846	480.69
426.068	481.69
426.291	445.69
426.513	453.69
426.735	451.69
426.958	483.69
427.18	539.69
427.402	596.69
427.625	648.69
427.847	568.69
428.069	515.69
428.292	474.69
428.514	455.69
428.736	439.69
428.958	437.69
429.181	440.69
429.403	423.69
429.625	440.69
429.847	458.69
430.069	473.69
430.292	473.69
430.514	418.69
430.736	438.69
430.958	422.69
431.18	439.69
431.402	432.69
431.624	397.69
431.846	416.69
432.068	420.69
432.29	412.69
432.512	411.69
432.734	412.69
432.956	417.69
433.178	434.69
433.4	434.69
433.622	434.69
433.844	439.69
434.066	416.69
434.287	422.69
434.509	410.69
434.731	435.69
434.953	428.69
435.175	441.69
435.397	478.69
435.618	457.69
435.84	468.69
436.062	546.69
436.284	582.69
436.505	487.69
436.727	461.69
436.949	448.69
437.17	428.69
437.392	413.69
437.614	439.69
437.835	449.69
438.057	493.69
438.278	543.69
438.5	540.69
438.721	602.69
438.943	601.69
439.165	480.69
439.386	459.69
439.608	468.69
439.829	449.69
440.05	484.69
440.272	477.69
440.493	481.69
440.715	470.69
440.936	436.69
441.158	424.69
441.379	451.69
441.6	480.69
441.822	494.69
442.043	505.69
442.264	534.69
442.486	570.69
442.707	508.69
442.928	477.69
443.149	498.69
443.371	515.69
443.592	520.69
443.813	571.69
444.034	599.69
444.255	525.69
444.476	502.69
444.698	515.69
444.919	516.69
445.14	600.69
445.361	509.69
445.582	482.69
445.803	549.69
446.024	590.69
446.245	596.69
446.466	545.69
446.687	473.69
446.908	445.69
447.129	432.69
447.35	411.69
447.571	423.69
447.792	415.69
448.013	418.69
448.234	442.69
448.455	454.69
448.675	545.69
448.896	589.69
449.117	496.69
449.338	490.69
449.559	564.69
449.779	619.69
450	500.69
450.221	441.69
450.442	436.69
450.662	396.69
450.883	414.69
451.104	420.69
451.324	418.69
451.545	392.69
451.766	404.69
451.986	387.69
452.207	376.69
452.428	380.69
452.648	412.69
452.869	384.69
453.089	388.69
453.31	395.69
453.53	388.69
453.751	373.69
453.971	391.69
454.192	381.69
454.412	379.69
454.633	368.69
454.853	402.69
455.073	397.69
455.294	404.69
455.514	444.69
455.734	432.69
455.955	383.69
456.175	376.69
456.395	342.69
456.616	364.69
456.836	364.69
457.056	389.69
457.276	358.69
457.497	378.69
457.717	371.69
457.937	386.69
458.157	376.69
458.377	377.69
458.598	376.69
458.818	426.69
459.038	477.69
459.258	476.69
459.478	440.69
459.698	412.69
459.918	394.69
460.138	419.69
460.358	435.69
460.578	416.69
460.798	440.69
461.018	462.69
461.238	433.69
461.458	434.69
461.678	440.69
461.898	444.69
462.118	429.69
462.338	445.69
462.558	472.69
462.777	479.69
462.997	503.69
463.217	518.69
463.437	523.69
463.657	505.69
463.876	477.69
464.096	488.69
464.316	484.69
464.536	482.69
464.755	493.69
464.975	462.69
465.195	515.69
465.414	523.69
465.634	483.69
465.854	427.69
466.073	426.69
466.293	408.69
466.512	413.69
466.732	405.69
466.951	413.69
467.171	404.69
467.391	409.69
467.61	392.69
467.829	418.69
468.049	405.69
468.268	407.69
468.488	404.69
468.707	368.69
468.927	399.69
469.146	385.69
469.365	402.69
469.585	418.69
469.804	409.69
470.023	414.69
470.243	412.69
470.462	415.69
470.681	438.69
470.901	421.69
471.12	418.69
471.339	414.69
471.558	398.69
471.777	413.69
471.997	393.69
472.216	408.69
472.435	424.69
472.654	402.69
472.873	397.69
473.092	380.69
473.311	375.69
473.53	396.69
473.749	416.69
473.968	418.69
474.187	485.69
474.406	485.69
474.625	421.69
474.844	424.69
475.063	408.69
475.282	403.69
475.501	408.69
475.72	399.69
475.939	393.69
476.158	392.69
476.377	409.69
476.596	434.69
476.814	445.69
477.033	418.69
477.252	417.69
477.471	421.69
477.69	424.69
477.908	435.69
478.127	454.69
478.346	443.69
478.564	452.69
478.783	457.69
479.002	452.69
479.22	452.69
479.439	484.69
479.658	471.69
479.876	480.69
480.095	489.69
480.313	526.69
480.532	496.69
480.751	486.69
480.969	505.69
481.188	517.69
481.406	580.69
481.624	496.69
481.843	466.69
482.061	459.69
482.28	468.69
482.498	452.69
482.717	461.69
482.935	432.69
483.153	478.69
483.372	450.69
483.59	471.69
483.808	458.69
484.027	438.69
484.245	459.69
484.463	468.69
484.681	462.69
484.9	466.69
485.118	482.69
485.336	487.69
485.554	475.69
485.772	452.69
485.99	491.69
486.209	474.69
486.427	464.69
486.645	475.69
486.863	494.69
487.081	484.69
487.299	506.69
487.517	504.69
487.735	481.69
487.953	492.69
488.171	489.69
488.389	477.69
488.607	529.69
488.825	500.69
489.043	483.69
489.261	481.69
489.479	497.69
489.696	488.69
489.914	481.69
490.132	509.69
490.35	516.69
490.568	506.69
490.786	522.69
491.003	500.69
491.221	568.69
491.439	535.69
491.657	577.69
491.874	564.69
492.092	569.69
492.31	565.69
492.527	569.69
492.745	570.69
492.963	575.69
493.18	573.69
493.398	586.69
493.615	598.69
493.833	575.69
494.05	576.69
494.268	595.69
494.485	574.69
494.703	590.69
494.92	581.69
495.138	571.69
495.355	577.69
495.573	566.69
495.79	561.69
496.008	599.69
496.225	571.69
496.442	574.69
496.66	576.69
496.877	564.69
497.094	608.69
497.312	592.69
497.529	601.69
497.746	617.69
497.963	626.69
498.181	630.69
498.398	638.69
498.615	666.69
498.832	695.69
499.049	727.69
499.267	741.69
499.484	798.69
499.701	833.69
499.918	889.69
500.135	941.69
500.352	1033.69
500.569	1003.69
500.786	997.69
501.003	979.69
501.22	940.69
501.437	877.69
501.654	822.69
501.871	807.69
502.088	735.69
502.305	739.69
502.522	690.69
502.739	668.69
502.956	648.69
503.172	630.69
503.389	624.69
503.606	609.69
503.823	634.69
504.04	601.69
504.256	586.69
504.473	578.69
504.69	621.69
504.907	604.69
505.123	581.69
505.34	568.69
505.557	579.69
505.773	564.69
505.99	547.69
506.207	543.69
506.423	543.69
506.64	536.69
506.856	528.69
507.073	518.69
507.289	539.69
507.506	512.69
507.722	513.69
507.939	526.69
508.155	504.69
508.372	500.69
508.588	498.69
508.805	489.69
509.021	510.69
509.238	518.69
509.454	508.69
509.67	500.69
509.887	474.69
510.103	522.69
510.319	477.69
510.536	534.69
510.752	798.69
510.968	676.69
511.184	498.69
511.401	459.69
511.617	496.69
511.833	475.69
512.049	490.69
512.265	477.69
512.481	479.69
512.698	445.69
512.914	443.69
513.13	467.69
513.346	467.69
513.562	464.69
513.778	484.69
513.994	505.69
514.21	477.69
514.426	480.69
514.642	510.69
514.858	505.69
515.074	550.69
515.29	640.69
515.506	878.69
515.721	752.69
515.937	555.69
516.153	515.69
516.369	486.69
516.585	506.69
516.801	509.69
517.016	504.69
517.232	522.69
517.448	523.69
517.664	543.69
517.879	553.69
518.095	530.69
518.311	540.69
518.527	516.69
518.742	519.69
518.958	504.69
519.173	502.69
519.389	488.69
519.605	484.69
519.82	474.69
520.036	502.69
520.251	504.69
520.467	518.69
520.682	494.69
520.898	496.69
521.113	504.69
521.329	523.69
521.544	582.69
521.76	700.69
521.975	1104.69
522.19	1070.69
522.406	640.69
522.621	507.69
522.836	461.69
523.052	440.69
523.267	440.69
523.482	432.69
523.698	436.69
523.913	406.69
524.128	427.69
524.343	434.69
524.559	433.69
524.774	416.69
524.989	429.69
525.204	442.69
525.419	407.69
525.634	411.69
525.849	421.69
526.064	405.69
526.28	407.69
526.495	393.69
526.71	394.69
526.925	388.69
527.14	403.69
527.355	384.69
527.57	398.69
527.785	403.69
527.999	376.69
528.214	399.69
528.429	390.69
528.644	391.69
528.859	396.69
529.074	398.69
529.289	420.69
529.503	467.69
529.718	449.69
529.933	405.69
530.148	397.69
530.363	415.69
530.577	381.69
530.792	389.69
531.007	399.69
531.221	386.69
531.436	389.69
531.651	373.69
531.865	371.69
532.08	388.69
532.295	394.69
532.509	391.69
532.724	395.69
532.938	379.69
533.153	383.69
533.367	378.69
533.582	396.69
533.796	382.69
534.011	387.69
534.225	377.69
534.44	384.69
534.654	397.69
534.868	389.69
535.083	368.69
535.297	393.69
535.511	380.69
535.726	386.69
535.94	380.69
536.154	361.69
536.369	364.69
536.583	360.69
536.797	381.69
537.011	372.69
537.225	358.69
537.44	368.69
537.654	347.69
537.868	360.69
538.082	383.69
538.296	375.69
538.51	374.69
538.724	399.69
538.938	349.69
539.153	368.69
539.367	368.69
539.581	379.69
539.795	376.69
540.009	382.69
540.222	372.69
540.436	363.69
540.65	365.69
540.864	364.69
541.078	364.69
541.292	392.69
541.506	365.69
541.72	382.69
541.934	384.69
542.147	384.69
542.361	369.69
542.575	369.69
542.789	377.69
543.002	375.69
543.216	356.69
543.43	374.69
543.644	386.69
543.857	374.69
544.071	368.69
544.285	364.69
544.498	366.69
544.712	377.69
544.925	363.69
545.139	379.69
545.352	382.69
545.566	372.69
545.779	375.69
545.993	372.69
546.206	374.69
546.42	372.69
546.633	360.69
546.847	365.69
547.06	375.69
547.274	350.69
547.487	357.69
547.7	380.69
547.914	386.69
548.127	370.69
548.34	361.69
548.554	363.69
548.767	365.69
548.98	348.69
549.193	376.69
549.407	360.69
549.62	367.69
549.833	380.69
550.046	373.69
550.259	370.69
550.473	370.69
550.686	362.69
550.899	375.69
551.112	373.69
551.325	355.69
551.538	376.69
551.751	369.69
551.964	347.69
552.177	360.69
552.39	368.69
552.603	375.69
552.816	386.69
553.029	381.69
553.242	362.69
553.455	382.69
553.667	394.69
553.88	387.69
554.093	391.69
554.306	393.69
554.519	358.69
554.732	384.69
554.944	348.69
555.157	345.69
555.37	372.69
555.583	345.69
555.795	342.69
556.008	340.69
556.221	330.69
556.433	322.69
556.646	337.69
556.859	318.69
557.071	344.69
557.284	337.69
557.496	335.69
557.709	334.69
557.921	324.69
558.134	334.69
558.346	337.69
558.559	340.69
558.771	327.69
558.984	337.69
559.196	326.69
559.409	307.69
559.621	331.69
559.833	309.69
560.046	317.69
560.258	302.69
560.47	309.69
560.683	321.69
560.895	313.69
561.107	322.69
561.32	322.69
561.532	328.69
561.744	314.69
561.956	313.69
562.168	323.69
562.381	309.69
562.593	332.69
562.805	323.69
563.017	307.69
563.229	330.69
563.441	310.69
563.653	316.69
563.865	337.69
564.077	327.69
564.289	339.69
564.501	344.69
564.713	345.69
564.925	325.69
565.137	359.69
565.349	335.69
565.561	360.69
565.773	363.69
565.985	357.69
566.197	386.69
566.408	385.69
566.62	428.69
566.832	442.69
567.044	441.69
567.255	441.69
567.467	454.69
567.679	461.69
567.891	471.69
568.102	453.69
568.314	456.69
568.526	456.69
568.737	419.69
568.949	380.69
569.161	384.69
569.372	364.69
569.584	338.69
569.795	342.69
570.007	362.69
570.218	360.69
570.43	346.69
570.641	317.69
570.853	330.69
571.064	334.69
571.276	321.69
571.487	306.69
571.698	308.69
571.91	304.69
572.121	304.69
572.333	325.69
572.544	293.69
572.755	311.69
572.966	309.69
573.178	290.69
573.389	270.69
573.6	290.69
573.811	289.69
574.023	288.69
574.234	285.69
574.445	272.69
574.656	284.69
574.867	288.69
575.078	293.69
575.289	288.69
575.501	285.69
575.712	261.69
575.923	276.69
576.134	278.69
576.345	277.69
576.556	284.69
576.767	288.69
576.978	282.69
577.188	274.69
577.399	266.69
577.61	263.69
577.821	274.69
578.032	256.69
578.243	268.69
578.454	395.69
578.665	304.69
578.875	258.69
579.086	257.69
579.297	261.69
579.508	273.69
579.718	263.69
579.929	256.69
580.14	253.69
580.35	260.69
580.561	256.69
580.772	276.69
580.982	245.69
581.193	248.69
581.403	237.69
581.614	244.69
581.825	252.69
582.035	242.69
582.246	249.69
582.456	247.69
582.667	240.69
582.877	233.69
583.087	248.69
583.298	260.69
583.508	256.69
583.719	235.69
583.929	267.69
584.139	252.69
584.35	246.69
584.56	259.69
584.77	237.69
584.981	269.69
585.191	254.69
585.401	255.69
585.611	250.69
585.821	256.69
586.032	247.69
586.242	256.69
586.452	225.69
586.662	236.69
586.872	232.69
587.082	237.69
587.292	250.69
587.502	243.69
587.713	237.69
587.923	256.69
588.133	244.69
588.343	240.69
588.553	240.69
588.762	235.69
588.972	254.69
589.182	229.69
589.392	242.69
589.602	244.69
589.812	258.69
590.022	244.69
590.232	252.69
590.441	240.69
590.651	248.69
590.861	236.69
591.071	243.69
591.281	262.69
591.49	244.69
591.7	249.69
591.91	246.69
592.119	253.69
592.329	277.69
592.539	261.69
592.748	283.69
592.958	285.69
593.167	276.69
593.377	280.69
593.587	295.69
593.796	296.69
594.006	294.69
594.215	296.69
594.424	296.69
594.634	279.69
594.843	274.69
595.053	251.69
595.262	272.69
595.472	247.69
595.681	264.69
595.89	276.69
596.1	255.69
596.309	255.69
596.518	240.69
596.727	235.69
596.937	247.69
597.146	238.69
597.355	228.69
597.564	226.69
597.774	256.69
597.983	235.69
598.192	225.69
598.401	222.69
598.61	226.69
598.819	231.69
599.028	233.69
599.237	219.69
599.446	225.69
599.655	230.69
599.864	220.69
600.073	218.69
600.282	232.69
600.491	218.69
600.7	192.69
600.909	204.69
601.118	214.69
601.327	213.69
601.536	222.69
601.745	218.69
601.953	240.69
602.162	226.69
602.371	209.69
602.58	212.69
602.789	205.69
602.997	217.69
603.206	216.69
603.415	231.69
603.623	204.69
603.832	215.69
604.041	226.69
604.249	211.69
604.458	197.69
604.666	194.69
604.875	204.69
605.084	211.69
605.292	204.69
605.501	225.69
605.709	223.69
605.918	209.69
606.126	219.69
606.334	213.69
606.543	190.69
606.751	200.69
606.96	207.69
607.168	208.69
607.376	202.69
607.585	204.69
607.793	214.69
608.001	210.69
608.21	207.69
608.418	209.69
608.626	211.69
608.834	211.69
609.043	199.69
609.251	204.69
609.459	187.69
609.667	214.69
609.875	204.69
610.083	212.69
610.291	212.69
610.499	208.69
610.707	204.69
610.916	209.69
611.124	214.69
611.332	205.69
611.54	222.69
611.748	226.69
611.955	207.69
612.163	214.69
612.371	222.69
612.579	212.69
612.787	204.69
612.995	194.69
613.203	231.69
613.411	213.69
613.618	216.69
613.826	201.69
614.034	209.69
614.242	217.69
614.449	201.69
614.657	208.69
614.865	193.69
615.072	201.69
615.28	195.69
615.488	206.69
615.695	211.69
615.903	216.69
616.111	193.69
616.318	205.69
616.526	206.69
616.733	203.69
616.941	206.69
617.148	202.69
617.356	210.69
617.563	210.69
617.771	214.69
617.978	211.69
618.185	205.69
618.393	208.69
618.6	208.69
618.807	189.69
619.015	201.69
619.222	203.69
619.429	201.69
619.637	201.69
619.844	210.69
620.051	193.69
620.258	195.69
620.466	212.69
620.673	210.69
620.88	189.69
621.087	196.69
621.294	177.69
621.501	208.69
621.708	202.69
621.915	192.69
622.122	202.69
622.329	201.69
622.536	194.69
622.743	194.69
622.95	192.69
623.157	185.69
623.364	189.69
623.571	190.69
623.778	190.69
623.985	186.69
624.192	194.69
624.399	180.69
624.606	184.69
624.812	197.69
625.019	193.69
625.226	180.69
625.433	174.69
625.639	179.69
625.846	189.69
626.053	176.69
626.259	180.69
626.466	172.69
626.673	180.69
626.879	176.69
627.086	179.69
627.293	178.69
627.499	178.69
627.706	172.69
627.912	186.69
628.119	180.69
628.325	195.69
628.532	183.69
628.738	180.69
628.945	169.69
629.151	182.69
629.357	188.69
629.564	174.69
629.77	164.69
629.976	174.69
630.183	182.69
630.389	166.69
630.595	189.69
630.802	180.69
631.008	177.69
631.214	169.69
631.42	170.69
631.627	184.69
631.833	164.69
632.039	167.69
632.245	163.69
632.451	146.69
632.657	156.69
632.863	174.69
633.069	157.69
633.275	162.69
633.481	154.69
633.688	162.69
633.893	184.69
634.099	160.69
634.305	169.69
634.511	173.69
634.717	170.69
634.923	146.69
635.129	161.69
635.335	165.69
635.541	168.69
635.747	167.69
635.952	166.69
636.158	157.69
636.364	155.69
636.57	162.69
636.775	171.69
636.981	159.69
637.187	159.69
637.392	167.69
637.598	156.69
637.804	164.69
638.009	170.69
638.215	154.69
638.421	170.69
638.626	161.69
638.832	166.69
639.037	155.69
639.243	158.69
639.448	164.69
639.654	160.69
639.859	161.69
640.065	164.69
640.27	145.69
640.475	159.69
640.681	146.69
640.886	156.69
641.091	155.69
641.297	145.69
641.502	156.69
641.707	142.69
641.913	155.69
642.118	159.69
642.323	138.69
642.528	169.69
642.733	156.69
642.939	157.69
643.144	152.69
643.349	152.69
643.554	154.69
643.759	142.69
643.964	155.69
644.169	160.69
644.374	150.69
644.579	140.69
644.784	140.69
644.989	153.69
645.194	136.69
645.399	152.69
645.604	157.69
645.809	164.69
646.014	148.69
646.219	148.69
646.423	141.69
646.628	148.69
646.833	147.69
647.038	149.69
647.243	142.69
647.447	157.69
647.652	138.69
647.857	146.69
648.062	156.69
648.266	153.69
648.471	154.69
648.676	157.69
648.88	156.69
649.085	157.69
649.289	144.69
649.494	156.69
649.698	163.69
649.903	164.69
650.107	148.69
650.312	157.69
650.516	153.69
650.721	155.69
650.925	136.69
651.13	157.69
651.334	144.69
651.539	140.69
651.743	136.69
651.947	137.69
652.152	150.69
652.356	117.69
652.56	137.69
652.764	133.69
652.969	125.69
653.173	126.69
653.377	132.69
653.581	139.69
653.785	127.69
653.99	132.69
654.194	126.69
654.398	118.69
654.602	138.69
654.806	129.69
655.01	143.69
655.214	126.69
655.418	134.69
655.622	125.69
655.826	133.69
656.03	131.69
656.234	141.69
656.438	141.69
656.642	129.69
656.846	126.69
657.049	108.69
657.253	118.69
657.457	106.69
657.661	112.69
657.865	114.69
658.068	112.69
658.272	105.69
658.476	115.69
658.68	103.69
658.883	94.69
659.087	115.69
659.291	100.69
659.494	103.69
659.698	117.69
659.901	104.69
660.105	118.69
660.309	99.69
660.512	86.69
660.716	88.69
660.919	90.69
661.123	90.69
661.326	92.69
661.53	81.69
661.733	92.69
661.936	92.69
662.14	76.69
662.343	85.69
662.546	78.69
662.75	90.69
662.953	84.69
663.156	80.69
663.36	83.69
663.563	88.69
663.766	79.69
663.969	94.69
664.173	74.69
664.376	79.69
664.579	77.69
664.782	78.69
664.985	90.69
665.188	84.69
665.391	80.69
665.594	77.69
665.797	83.69
666	93.69
666.203	85.69
666.406	89.69
666.609	78.69
666.812	95.69
667.015	85.69
667.218	88.69
667.421	71.69
667.624	80.69
667.827	83.69
668.03	71.69
668.232	85.69
668.435	81.69
668.638	83.69
668.841	78.69
669.043	76.69
669.246	80.69
669.449	92.69
669.651	86.69
669.854	81.69
670.057	79.69
670.259	93.69
670.462	82.69
670.665	93.69
670.867	85.69
671.07	87.69
671.272	88.69
671.475	83.69
671.677	70.69
671.88	88.69
672.082	83.69
672.284	79.69
672.487	76.69
672.689	73.69
672.892	71.69
