Data from 1969.PennyLincolnUp.Lamp.En5.5.200Scan.071719.P1._HRD10591_14-55-14-972.txt Node
Date: Thu Jul 18 14:55:14 EDT 2019
User: cochatt
Spectrometer: HR+D1059
Trigger mode: 1
Integration Time (sec): 1.000000E-1
Scans to average: 1
Electric dark correction enabled: true
Nonlinearity correction enabled: false
Boxcar width: 0
XAxis mode: Wavelengths
Number of Pixels in Spectrum: 2048
>>>>>Begin Spectral Data<<<<<
223.165	-13.94
223.4	-13.94
223.635	-13.94
223.869	-12.94
224.104	-10.94
224.338	-27.94
224.573	-9.94
224.808	-9.94
225.042	-19.94
225.277	-4.94
225.511	-0.94
225.746	15.06
225.98	16.06
226.215	15.06
226.449	15.06
226.683	10.06
226.918	14.06
227.152	26.06
227.387	27.06
227.621	56.06
227.856	35.06
228.09	41.06
228.324	56.06
228.559	61.06
228.793	69.06
229.027	92.06
229.262	94.06
229.496	107.06
229.73	93.06
229.964	119.06
230.199	109.06
230.433	96.06
230.667	103.06
230.901	104.06
231.136	86.06
231.37	94.06
231.604	109.06
231.838	110.06
232.072	107.06
232.306	112.06
232.541	111.06
232.775	100.06
233.009	113.06
233.243	120.06
233.477	118.06
233.711	101.06
233.945	109.06
234.179	92.06
234.413	108.06
234.647	110.06
234.881	98.06
235.115	104.06
235.349	115.06
235.583	103.06
235.817	112.06
236.051	115.06
236.285	107.06
236.519	103.06
236.753	110.06
236.987	124.06
237.221	143.06
237.455	155.06
237.689	127.06
237.922	113.06
238.156	120.06
238.39	111.06
238.624	123.06
238.858	111.06
239.091	122.06
239.325	113.06
239.559	107.06
239.793	119.06
240.027	131.06
240.26	131.06
240.494	138.06
240.728	123.06
240.961	120.06
241.195	111.06
241.429	113.06
241.662	120.06
241.896	125.06
242.13	126.06
242.363	120.06
242.597	130.06
242.83	123.06
243.064	136.06
243.298	119.06
243.531	122.06
243.765	129.06
243.998	141.06
244.232	129.06
244.465	134.06
244.699	135.06
244.932	123.06
245.166	126.06
245.399	141.06
245.633	132.06
245.866	134.06
246.099	120.06
246.333	133.06
246.566	135.06
246.8	133.06
247.033	127.06
247.266	155.06
247.5	144.06
247.733	143.06
247.966	146.06
248.2	144.06
248.433	143.06
248.666	139.06
248.899	160.06
249.133	152.06
249.366	155.06
249.599	155.06
249.832	152.06
250.066	155.06
250.299	165.06
250.532	161.06
250.765	159.06
250.998	167.06
251.231	165.06
251.465	166.06
251.698	163.06
251.931	168.06
252.164	159.06
252.397	163.06
252.63	164.06
252.863	163.06
253.096	175.06
253.329	192.06
253.562	183.06
253.795	184.06
254.028	174.06
254.261	179.06
254.494	174.06
254.727	190.06
254.96	212.06
255.193	198.06
255.426	182.06
255.659	183.06
255.892	188.06
256.124	179.06
256.357	181.06
256.59	196.06
256.823	190.06
257.056	172.06
257.289	181.06
257.521	173.06
257.754	164.06
257.987	169.06
258.22	171.06
258.452	184.06
258.685	170.06
258.918	164.06
259.151	179.06
259.383	175.06
259.616	192.06
259.849	192.06
260.081	206.06
260.314	202.06
260.547	209.06
260.779	183.06
261.012	189.06
261.244	183.06
261.477	188.06
261.71	169.06
261.942	175.06
262.175	192.06
262.407	172.06
262.64	191.06
262.872	179.06
263.105	174.06
263.337	182.06
263.57	176.06
263.802	179.06
264.035	180.06
264.267	165.06
264.499	178.06
264.732	187.06
264.964	179.06
265.197	180.06
265.429	176.06
265.661	174.06
265.894	185.06
266.126	171.06
266.358	192.06
266.591	181.06
266.823	179.06
267.055	168.06
267.287	200.06
267.52	201.06
267.752	190.06
267.984	195.06
268.216	189.06
268.448	193.06
268.681	200.06
268.913	202.06
269.145	195.06
269.377	214.06
269.609	206.06
269.841	207.06
270.073	227.06
270.306	239.06
270.538	250.06
270.77	245.06
271.002	238.06
271.234	219.06
271.466	231.06
271.698	258.06
271.93	239.06
272.162	223.06
272.394	246.06
272.626	221.06
272.858	228.06
273.09	221.06
273.322	216.06
273.553	208.06
273.785	208.06
274.017	206.06
274.249	207.06
274.481	209.06
274.713	218.06
274.945	230.06
275.176	216.06
275.408	231.06
275.64	228.06
275.872	225.06
276.104	223.06
276.335	227.06
276.567	233.06
276.799	233.06
277.031	259.06
277.262	259.06
277.494	259.06
277.726	250.06
277.957	211.06
278.189	235.06
278.421	217.06
278.652	232.06
278.884	230.06
279.115	220.06
279.347	216.06
279.579	219.06
279.81	228.06
280.042	226.06
280.273	234.06
280.505	212.06
280.736	232.06
280.968	227.06
281.199	232.06
281.431	238.06
281.662	223.06
281.894	214.06
282.125	235.06
282.356	217.06
282.588	239.06
282.819	245.06
283.051	246.06
283.282	228.06
283.513	245.06
283.745	227.06
283.976	270.06
284.207	219.06
284.439	241.06
284.67	227.06
284.901	250.06
285.132	252.06
285.364	235.06
285.595	233.06
285.826	243.06
286.057	235.06
286.288	228.06
286.52	240.06
286.751	228.06
286.982	240.06
287.213	245.06
287.444	228.06
287.675	250.06
287.906	239.06
288.138	247.06
288.369	257.06
288.6	248.06
288.831	244.06
289.062	233.06
289.293	241.06
289.524	237.06
289.755	257.06
289.986	267.06
290.217	253.06
290.448	265.06
290.679	253.06
290.91	236.06
291.141	250.06
291.371	264.06
291.602	250.06
291.833	263.06
292.064	256.06
292.295	243.06
292.526	244.06
292.757	261.06
292.987	246.06
293.218	227.06
293.449	243.06
293.68	253.06
293.91	238.06
294.141	249.06
294.372	244.06
294.603	257.06
294.833	254.06
295.064	231.06
295.295	255.06
295.525	249.06
295.756	261.06
295.987	259.06
296.217	272.06
296.448	263.06
296.679	277.06
296.909	267.06
297.14	263.06
297.37	267.06
297.601	263.06
297.831	272.06
298.062	265.06
298.292	249.06
298.523	260.06
298.753	269.06
298.984	273.06
299.214	280.06
299.445	281.06
299.675	283.06
299.905	273.06
300.136	259.06
300.366	263.06
300.597	248.06
300.827	287.06
301.057	269.06
301.288	275.06
301.518	282.06
301.748	266.06
301.979	304.06
302.209	283.06
302.439	281.06
302.669	271.06
302.9	274.06
303.13	287.06
303.36	285.06
303.59	295.06
303.82	301.06
304.051	301.06
304.281	307.06
304.511	292.06
304.741	271.06
304.971	272.06
305.201	286.06
305.431	279.06
305.661	280.06
305.891	266.06
306.121	272.06
306.352	279.06
306.582	263.06
306.812	264.06
307.042	275.06
307.272	280.06
307.502	277.06
307.731	286.06
307.961	280.06
308.191	291.06
308.421	289.06
308.651	298.06
308.881	288.06
309.111	283.06
309.341	295.06
309.571	291.06
309.8	288.06
310.03	302.06
310.26	276.06
310.49	311.06
310.72	309.06
310.949	326.06
311.179	328.06
311.409	304.06
311.639	296.06
311.868	297.06
312.098	280.06
312.328	311.06
312.557	337.06
312.787	331.06
313.017	317.06
313.246	311.06
313.476	311.06
313.706	301.06
313.935	321.06
314.165	299.06
314.394	327.06
314.624	310.06
314.853	299.06
315.083	319.06
315.312	311.06
315.542	305.06
315.771	300.06
316.001	308.06
316.23	311.06
316.46	294.06
316.689	308.06
316.919	311.06
317.148	316.06
317.377	311.06
317.607	322.06
317.836	313.06
318.065	305.06
318.295	317.06
318.524	309.06
318.753	301.06
318.983	295.06
319.212	304.06
319.441	319.06
319.67	309.06
319.9	303.06
320.129	317.06
320.358	315.06
320.587	318.06
320.816	310.06
321.046	328.06
321.275	302.06
321.504	316.06
321.733	325.06
321.962	327.06
322.191	317.06
322.42	324.06
322.649	329.06
322.878	332.06
323.108	320.06
323.337	359.06
323.566	351.06
323.795	375.06
324.024	377.06
324.253	438.06
324.482	572.06
324.71	779.06
324.939	1046.06
325.168	833.06
325.397	533.06
325.626	389.06
325.855	374.06
326.084	361.06
326.313	356.06
326.542	368.06
326.77	368.06
326.999	408.06
327.228	516.06
327.457	694.06
327.686	812.06
327.914	577.06
328.143	449.06
328.372	412.06
328.6	398.06
328.829	391.06
329.058	376.06
329.287	398.06
329.515	383.06
329.744	359.06
329.972	369.06
330.201	381.06
330.43	397.06
330.658	403.06
330.887	402.06
331.115	394.06
331.344	360.06
331.572	395.06
331.801	363.06
332.03	382.06
332.258	391.06
332.486	364.06
332.715	378.06
332.943	394.06
333.172	375.06
333.4	398.06
333.629	409.06
333.857	391.06
334.085	406.06
334.314	432.06
334.542	445.06
334.771	436.06
334.999	398.06
335.227	381.06
335.455	381.06
335.684	379.06
335.912	400.06
336.14	376.06
336.369	379.06
336.597	355.06
336.825	352.06
337.053	363.06
337.281	375.06
337.51	354.06
337.738	347.06
337.966	354.06
338.194	363.06
338.422	347.06
338.65	356.06
338.878	346.06
339.106	344.06
339.334	357.06
339.562	351.06
339.79	341.06
340.018	342.06
340.246	342.06
340.474	372.06
340.702	349.06
340.93	343.06
341.158	353.06
341.386	327.06
341.614	351.06
341.842	347.06
342.07	338.06
342.298	349.06
342.526	350.06
342.754	339.06
342.981	352.06
343.209	327.06
343.437	325.06
343.665	355.06
343.893	387.06
344.12	392.06
344.348	371.06
344.576	375.06
344.804	349.06
345.031	360.06
345.259	345.06
345.487	347.06
345.714	347.06
345.942	329.06
346.17	325.06
346.397	320.06
346.625	320.06
346.853	318.06
347.08	326.06
347.308	323.06
347.535	336.06
347.763	334.06
347.99	331.06
348.218	308.06
348.445	334.06
348.673	333.06
348.9	324.06
349.128	301.06
349.355	330.06
349.583	318.06
349.81	335.06
350.037	327.06
350.265	316.06
350.492	312.06
350.72	319.06
350.947	327.06
351.174	329.06
351.402	325.06
351.629	330.06
351.856	323.06
352.083	320.06
352.311	348.06
352.538	332.06
352.765	327.06
352.992	332.06
353.22	334.06
353.447	329.06
353.674	310.06
353.901	314.06
354.128	313.06
354.355	315.06
354.583	330.06
354.81	306.06
355.037	324.06
355.264	300.06
355.491	311.06
355.718	312.06
355.945	320.06
356.172	324.06
356.399	312.06
356.626	300.06
356.853	318.06
357.08	299.06
357.307	307.06
357.534	309.06
357.761	311.06
357.988	321.06
358.215	336.06
358.441	311.06
358.668	338.06
358.895	325.06
359.122	311.06
359.349	297.06
359.576	332.06
359.802	335.06
360.029	339.06
360.256	341.06
360.483	355.06
360.709	303.06
360.936	314.06
361.163	316.06
361.39	322.06
361.616	302.06
361.843	317.06
362.07	318.06
362.296	318.06
362.523	310.06
362.749	311.06
362.976	317.06
363.203	321.06
363.429	325.06
363.656	316.06
363.882	303.06
364.109	315.06
364.335	301.06
364.562	304.06
364.788	315.06
365.015	322.06
365.241	325.06
365.468	318.06
365.694	315.06
365.92	320.06
366.147	308.06
366.373	303.06
366.599	313.06
366.826	305.06
367.052	317.06
367.278	327.06
367.505	313.06
367.731	342.06
367.957	315.06
368.184	299.06
368.41	334.06
368.636	339.06
368.862	316.06
369.089	309.06
369.315	322.06
369.541	317.06
369.767	311.06
369.993	318.06
370.219	316.06
370.445	335.06
370.672	318.06
370.898	320.06
371.124	327.06
371.35	313.06
371.576	327.06
371.802	346.06
372.028	334.06
372.254	319.06
372.48	312.06
372.706	332.06
372.932	347.06
373.158	323.06
373.384	333.06
373.61	324.06
373.835	319.06
374.061	323.06
374.287	332.06
374.513	331.06
374.739	337.06
374.965	332.06
375.191	361.06
375.416	333.06
375.642	348.06
375.868	319.06
376.094	343.06
376.319	338.06
376.545	325.06
376.771	313.06
376.997	329.06
377.222	321.06
377.448	315.06
377.674	310.06
377.899	323.06
378.125	316.06
378.35	312.06
378.576	311.06
378.802	315.06
379.027	314.06
379.253	317.06
379.478	311.06
379.704	311.06
379.929	317.06
380.155	307.06
380.38	325.06
380.606	303.06
380.831	319.06
381.057	325.06
381.282	335.06
381.507	313.06
381.733	333.06
381.958	316.06
382.184	315.06
382.409	336.06
382.634	344.06
382.86	338.06
383.085	329.06
383.31	351.06
383.535	335.06
383.761	334.06
383.986	357.06
384.211	343.06
384.436	327.06
384.662	354.06
384.887	355.06
385.112	349.06
385.337	377.06
385.562	364.06
385.787	371.06
386.013	379.06
386.238	355.06
386.463	355.06
386.688	356.06
386.913	333.06
387.138	372.06
387.363	375.06
387.588	351.06
387.813	362.06
388.038	352.06
388.263	356.06
388.488	368.06
388.713	351.06
388.938	347.06
389.163	357.06
389.387	344.06
389.612	349.06
389.837	344.06
390.062	364.06
390.287	363.06
390.512	351.06
390.736	353.06
390.961	363.06
391.186	372.06
391.411	359.06
391.636	374.06
391.86	380.06
392.085	388.06
392.31	396.06
392.534	381.06
392.759	377.06
392.984	379.06
393.208	377.06
393.433	365.06
393.658	377.06
393.882	366.06
394.107	364.06
394.331	368.06
394.556	384.06
394.78	402.06
395.005	361.06
395.229	360.06
395.454	391.06
395.678	389.06
395.903	391.06
396.127	412.06
396.352	415.06
396.576	392.06
396.801	371.06
397.025	371.06
397.249	373.06
397.474	397.06
397.698	393.06
397.922	398.06
398.147	405.06
398.371	405.06
398.595	393.06
398.82	415.06
399.044	432.06
399.268	446.06
399.492	499.06
399.717	519.06
399.941	540.06
400.165	535.06
400.389	502.06
400.613	465.06
400.837	437.06
401.062	435.06
401.286	402.06
401.51	424.06
401.734	433.06
401.958	412.06
402.182	435.06
402.406	439.06
402.63	425.06
402.854	434.06
403.078	416.06
403.302	470.06
403.526	456.06
403.75	428.06
403.974	459.06
404.198	457.06
404.422	433.06
404.645	455.06
404.869	451.06
405.093	472.06
405.317	474.06
405.541	496.06
405.765	453.06
405.988	458.06
406.212	451.06
406.436	446.06
406.66	487.06
406.883	474.06
407.107	475.06
407.331	524.06
407.555	555.06
407.778	540.06
408.002	515.06
408.226	484.06
408.449	478.06
408.673	479.06
408.896	492.06
409.12	496.06
409.344	464.06
409.567	433.06
409.791	474.06
410.014	437.06
410.238	435.06
410.461	462.06
410.685	437.06
410.908	459.06
411.132	471.06
411.355	447.06
411.578	436.06
411.802	439.06
412.025	407.06
412.249	429.06
412.472	449.06
412.695	437.06
412.919	429.06
413.142	419.06
413.365	425.06
413.589	408.06
413.812	406.06
414.035	406.06
414.258	432.06
414.482	428.06
414.705	425.06
414.928	412.06
415.151	407.06
415.374	425.06
415.597	408.06
415.821	424.06
416.044	399.06
416.267	425.06
416.49	409.06
416.713	412.06
416.936	403.06
417.159	397.06
417.382	414.06
417.605	391.06
417.828	421.06
418.051	431.06
418.274	427.06
418.497	411.06
418.72	409.06
418.943	414.06
419.166	440.06
419.389	456.06
419.611	452.06
419.834	442.06
420.057	432.06
420.28	430.06
420.503	412.06
420.726	424.06
420.948	437.06
421.171	443.06
421.394	428.06
421.617	431.06
421.839	420.06
422.062	421.06
422.285	435.06
422.507	470.06
422.73	502.06
422.953	494.06
423.175	431.06
423.398	448.06
423.621	423.06
423.843	461.06
424.066	431.06
424.288	462.06
424.511	460.06
424.733	479.06
424.956	493.06
425.178	499.06
425.401	494.06
425.623	504.06
425.846	443.06
426.068	425.06
426.291	427.06
426.513	407.06
426.735	426.06
426.958	449.06
427.18	480.06
427.402	557.06
427.625	574.06
427.847	508.06
428.069	455.06
428.292	439.06
428.514	424.06
428.736	407.06
428.958	420.06
429.181	391.06
429.403	401.06
429.625	413.06
429.847	408.06
430.069	424.06
430.292	446.06
430.514	411.06
430.736	411.06
430.958	382.06
431.18	390.06
431.402	378.06
431.624	394.06
431.846	384.06
432.068	387.06
432.29	390.06
432.512	373.06
432.734	385.06
432.956	379.06
433.178	395.06
433.4	394.06
433.622	408.06
433.844	382.06
434.066	386.06
434.287	394.06
434.509	392.06
434.731	412.06
434.953	405.06
435.175	427.06
435.397	444.06
435.618	430.06
435.84	453.06
436.062	499.06
436.284	501.06
436.505	445.06
436.727	420.06
436.949	388.06
437.17	390.06
437.392	391.06
437.614	365.06
437.835	408.06
438.057	466.06
438.278	498.06
438.5	533.06
438.721	535.06
438.943	516.06
439.165	439.06
439.386	434.06
439.608	429.06
439.829	409.06
440.05	431.06
440.272	434.06
440.493	441.06
440.715	412.06
440.936	420.06
441.158	406.06
441.379	419.06
441.6	424.06
441.822	424.06
442.043	446.06
442.264	496.06
442.486	486.06
442.707	456.06
442.928	450.06
443.149	436.06
443.371	451.06
443.592	481.06
443.813	527.06
444.034	538.06
444.255	463.06
444.476	469.06
444.698	445.06
444.919	476.06
445.14	560.06
445.361	508.06
445.582	489.06
445.803	480.06
446.024	536.06
446.245	529.06
446.466	466.06
446.687	427.06
446.908	422.06
447.129	407.06
447.35	413.06
447.571	398.06
447.792	382.06
448.013	388.06
448.234	406.06
448.455	433.06
448.675	500.06
448.896	551.06
449.117	456.06
449.338	463.06
449.559	515.06
449.779	519.06
450	465.06
450.221	411.06
450.442	387.06
450.662	377.06
450.883	387.06
451.104	381.06
451.324	393.06
451.545	341.06
451.766	360.06
451.986	355.06
452.207	352.06
452.428	351.06
452.648	356.06
452.869	347.06
453.089	379.06
453.31	357.06
453.53	370.06
453.751	361.06
453.971	369.06
454.192	371.06
454.412	377.06
454.633	358.06
454.853	355.06
455.073	360.06
455.294	370.06
455.514	395.06
455.734	391.06
455.955	359.06
456.175	349.06
456.395	335.06
456.616	347.06
456.836	334.06
457.056	329.06
457.276	340.06
457.497	344.06
457.717	344.06
457.937	349.06
458.157	360.06
458.377	358.06
458.598	366.06
458.818	401.06
459.038	447.06
459.258	445.06
459.478	420.06
459.698	380.06
459.918	383.06
460.138	398.06
460.358	439.06
460.578	415.06
460.798	421.06
461.018	435.06
461.238	411.06
461.458	410.06
461.678	409.06
461.898	428.06
462.118	412.06
462.338	440.06
462.558	430.06
462.777	464.06
462.997	487.06
463.217	494.06
463.437	483.06
463.657	469.06
463.876	463.06
464.096	451.06
464.316	473.06
464.536	460.06
464.755	433.06
464.975	449.06
465.195	460.06
465.414	478.06
465.634	435.06
465.854	392.06
466.073	377.06
466.293	381.06
466.512	389.06
466.732	385.06
466.951	378.06
467.171	387.06
467.391	373.06
467.61	385.06
467.829	372.06
468.049	353.06
468.268	376.06
468.488	365.06
468.707	359.06
468.927	377.06
469.146	357.06
469.365	372.06
469.585	364.06
469.804	387.06
470.023	381.06
470.243	387.06
470.462	392.06
470.681	393.06
470.901	384.06
471.12	382.06
471.339	391.06
471.558	391.06
471.777	387.06
471.997	392.06
472.216	378.06
472.435	379.06
472.654	384.06
472.873	365.06
473.092	369.06
473.311	357.06
473.53	371.06
473.749	376.06
473.968	386.06
474.187	435.06
474.406	423.06
474.625	410.06
474.844	391.06
475.063	378.06
475.282	381.06
475.501	367.06
475.72	381.06
475.939	381.06
476.158	372.06
476.377	396.06
476.596	383.06
476.814	401.06
477.033	384.06
477.252	391.06
477.471	394.06
477.69	407.06
477.908	411.06
478.127	446.06
478.346	408.06
478.564	416.06
478.783	435.06
479.002	443.06
479.22	431.06
479.439	445.06
479.658	471.06
479.876	441.06
480.095	470.06
480.313	493.06
480.532	469.06
480.751	471.06
480.969	472.06
481.188	481.06
481.406	524.06
481.624	461.06
481.843	440.06
482.061	425.06
482.28	427.06
482.498	427.06
482.717	413.06
482.935	421.06
483.153	419.06
483.372	432.06
483.59	436.06
483.808	427.06
484.027	438.06
484.245	431.06
484.463	426.06
484.681	423.06
484.9	437.06
485.118	436.06
485.336	441.06
485.554	430.06
485.772	451.06
485.99	439.06
486.209	447.06
486.427	454.06
486.645	458.06
486.863	446.06
487.081	433.06
487.299	449.06
487.517	473.06
487.735	445.06
487.953	456.06
488.171	468.06
488.389	467.06
488.607	462.06
488.825	456.06
489.043	453.06
489.261	461.06
489.479	455.06
489.696	454.06
489.914	452.06
490.132	478.06
490.35	474.06
490.568	459.06
490.786	475.06
491.003	479.06
491.221	496.06
491.439	512.06
491.657	503.06
491.874	521.06
492.092	518.06
492.31	528.06
492.527	525.06
492.745	508.06
492.963	534.06
493.18	508.06
493.398	523.06
493.615	542.06
493.833	523.06
494.05	526.06
494.268	528.06
494.485	515.06
494.703	525.06
494.92	517.06
495.138	532.06
495.355	530.06
495.573	512.06
495.79	533.06
496.008	533.06
496.225	522.06
496.442	511.06
496.66	535.06
496.877	533.06
497.094	543.06
497.312	571.06
497.529	556.06
497.746	554.06
497.963	590.06
498.181	580.06
498.398	603.06
498.615	594.06
498.832	624.06
499.049	686.06
499.267	699.06
499.484	717.06
499.701	804.06
499.918	813.06
500.135	892.06
500.352	942.06
500.569	936.06
500.786	934.06
501.003	910.06
501.22	870.06
501.437	833.06
501.654	783.06
501.871	728.06
502.088	704.06
502.305	647.06
502.522	633.06
502.739	624.06
502.956	607.06
503.172	564.06
503.389	557.06
503.606	576.06
503.823	547.06
504.04	547.06
504.256	539.06
504.473	547.06
504.69	552.06
504.907	551.06
505.123	537.06
505.34	526.06
505.557	502.06
505.773	496.06
505.99	503.06
506.207	489.06
506.423	486.06
506.64	478.06
506.856	468.06
507.073	481.06
507.289	477.06
507.506	478.06
507.722	475.06
507.939	475.06
508.155	462.06
508.372	455.06
508.588	443.06
508.805	470.06
509.021	465.06
509.238	455.06
509.454	465.06
509.67	480.06
509.887	450.06
510.103	463.06
510.319	459.06
510.536	486.06
510.752	738.06
510.968	581.06
511.184	439.06
511.401	437.06
511.617	432.06
511.833	431.06
512.049	425.06
512.265	438.06
512.481	439.06
512.698	417.06
512.914	437.06
513.13	437.06
513.346	424.06
513.562	419.06
513.778	412.06
513.994	431.06
514.21	421.06
514.426	455.06
514.642	484.06
514.858	472.06
515.074	481.06
515.29	526.06
515.506	749.06
515.721	635.06
515.937	475.06
516.153	459.06
516.369	449.06
516.585	469.06
516.801	469.06
517.016	471.06
517.232	491.06
517.448	502.06
517.664	490.06
517.879	487.06
518.095	510.06
518.311	476.06
518.527	489.06
518.742	497.06
518.958	457.06
519.173	459.06
519.389	458.06
519.605	446.06
519.82	443.06
520.036	457.06
520.251	448.06
520.467	431.06
520.682	449.06
520.898	452.06
521.113	456.06
521.329	484.06
521.544	507.06
521.76	582.06
521.975	880.06
522.19	880.06
522.406	541.06
522.621	434.06
522.836	423.06
523.052	419.06
523.267	390.06
523.482	422.06
523.698	404.06
523.913	385.06
524.128	389.06
524.343	378.06
524.559	383.06
524.774	385.06
524.989	373.06
525.204	377.06
525.419	375.06
525.634	384.06
525.849	399.06
526.064	394.06
526.28	367.06
526.495	365.06
526.71	363.06
526.925	355.06
527.14	361.06
527.355	385.06
527.57	376.06
527.785	373.06
527.999	369.06
528.214	381.06
528.429	373.06
528.644	365.06
528.859	373.06
529.074	364.06
529.289	363.06
529.503	398.06
529.718	401.06
529.933	366.06
530.148	350.06
530.363	345.06
530.577	350.06
530.792	352.06
531.007	376.06
531.221	377.06
531.436	361.06
531.651	356.06
531.865	366.06
532.08	380.06
532.295	365.06
532.509	366.06
532.724	349.06
532.938	356.06
533.153	366.06
533.367	353.06
533.582	353.06
533.796	355.06
534.011	357.06
534.225	374.06
534.44	347.06
534.654	375.06
534.868	376.06
535.083	355.06
535.297	364.06
535.511	363.06
535.726	358.06
535.94	375.06
536.154	365.06
536.369	361.06
536.583	349.06
536.797	345.06
537.011	336.06
537.225	351.06
537.44	344.06
537.654	336.06
537.868	342.06
538.082	341.06
538.296	347.06
538.51	343.06
538.724	329.06
538.938	348.06
539.153	360.06
539.367	371.06
539.581	341.06
539.795	352.06
540.009	337.06
540.222	321.06
540.436	332.06
540.65	340.06
540.864	347.06
541.078	366.06
541.292	336.06
541.506	339.06
541.72	351.06
541.934	342.06
542.147	368.06
542.361	351.06
542.575	352.06
542.789	355.06
543.002	333.06
543.216	341.06
543.43	350.06
543.644	364.06
543.857	347.06
544.071	372.06
544.285	355.06
544.498	358.06
544.712	363.06
544.925	339.06
545.139	343.06
545.352	361.06
545.566	345.06
545.779	338.06
545.993	342.06
546.206	353.06
546.42	346.06
546.633	349.06
546.847	351.06
547.06	353.06
547.274	333.06
547.487	326.06
547.7	343.06
547.914	348.06
548.127	352.06
548.34	352.06
548.554	347.06
548.767	345.06
548.98	356.06
549.193	358.06
549.407	338.06
549.62	359.06
549.833	350.06
550.046	349.06
550.259	340.06
550.473	349.06
550.686	346.06
550.899	348.06
551.112	339.06
551.325	331.06
551.538	332.06
551.751	321.06
551.964	346.06
552.177	352.06
552.39	346.06
552.603	353.06
552.816	339.06
553.029	343.06
553.242	366.06
553.455	391.06
553.667	372.06
553.88	375.06
554.093	376.06
554.306	358.06
554.519	355.06
554.732	351.06
554.944	341.06
555.157	335.06
555.37	333.06
555.583	333.06
555.795	338.06
556.008	327.06
556.221	314.06
556.433	312.06
556.646	316.06
556.859	327.06
557.071	320.06
557.284	331.06
557.496	299.06
557.709	325.06
557.921	297.06
558.134	302.06
558.346	309.06
558.559	305.06
558.771	318.06
558.984	309.06
559.196	304.06
559.409	309.06
559.621	303.06
559.833	291.06
560.046	282.06
560.258	324.06
560.47	297.06
560.683	296.06
560.895	298.06
561.107	304.06
561.32	293.06
561.532	308.06
561.744	301.06
561.956	317.06
562.168	277.06
562.381	295.06
562.593	315.06
562.805	289.06
563.017	311.06
563.229	300.06
563.441	301.06
563.653	333.06
563.865	321.06
564.077	314.06
564.289	305.06
564.501	333.06
564.713	328.06
564.925	335.06
565.137	330.06
565.349	328.06
565.561	341.06
565.773	351.06
565.985	374.06
566.197	365.06
566.408	377.06
566.62	378.06
566.832	424.06
567.044	420.06
567.255	413.06
567.467	443.06
567.679	452.06
567.891	469.06
568.102	439.06
568.314	452.06
568.526	418.06
568.737	414.06
568.949	356.06
569.161	341.06
569.372	344.06
569.584	327.06
569.795	334.06
570.007	316.06
570.218	334.06
570.43	336.06
570.641	313.06
570.853	289.06
571.064	318.06
571.276	302.06
571.487	301.06
571.698	298.06
571.91	298.06
572.121	293.06
572.333	281.06
572.544	286.06
572.755	261.06
572.966	267.06
573.178	267.06
573.389	268.06
573.6	275.06
573.811	255.06
574.023	252.06
574.234	276.06
574.445	277.06
574.656	264.06
574.867	263.06
575.078	264.06
575.289	265.06
575.501	260.06
575.712	241.06
575.923	271.06
576.134	255.06
576.345	259.06
576.556	261.06
576.767	258.06
576.978	268.06
577.188	258.06
577.399	267.06
577.61	272.06
577.821	262.06
578.032	248.06
578.243	275.06
578.454	356.06
578.665	291.06
578.875	249.06
579.086	244.06
579.297	243.06
579.508	243.06
579.718	233.06
579.929	236.06
580.14	233.06
580.35	240.06
580.561	256.06
580.772	240.06
580.982	267.06
581.193	248.06
581.403	233.06
581.614	244.06
581.825	237.06
582.035	247.06
582.246	255.06
582.456	237.06
582.667	241.06
582.877	256.06
583.087	243.06
583.298	245.06
583.508	237.06
583.719	224.06
583.929	232.06
584.139	237.06
584.35	228.06
584.56	240.06
584.77	216.06
584.981	234.06
585.191	227.06
585.401	234.06
585.611	227.06
585.821	218.06
586.032	233.06
586.242	235.06
586.452	215.06
586.662	224.06
586.872	221.06
587.082	237.06
587.292	227.06
587.502	241.06
587.713	236.06
587.923	220.06
588.133	232.06
588.343	213.06
588.553	243.06
588.762	245.06
588.972	239.06
589.182	240.06
589.392	241.06
589.602	228.06
589.812	240.06
590.022	241.06
590.232	234.06
590.441	240.06
590.651	237.06
590.861	224.06
591.071	224.06
591.281	245.06
591.49	247.06
591.7	238.06
591.91	237.06
592.119	257.06
592.329	261.06
592.539	251.06
592.748	249.06
592.958	255.06
593.167	273.06
593.377	279.06
593.587	304.06
593.796	272.06
594.006	272.06
594.215	288.06
594.424	301.06
594.634	270.06
594.843	265.06
595.053	263.06
595.262	239.06
595.472	254.06
595.681	249.06
595.89	231.06
596.1	215.06
596.309	231.06
596.518	252.06
596.727	235.06
596.937	247.06
597.146	217.06
597.355	231.06
597.564	239.06
597.774	219.06
597.983	215.06
598.192	227.06
598.401	213.06
598.61	230.06
598.819	208.06
599.028	230.06
599.237	217.06
599.446	217.06
599.655	203.06
599.864	212.06
600.073	202.06
600.282	226.06
600.491	218.06
600.7	216.06
600.909	200.06
601.118	203.06
601.327	196.06
601.536	211.06
601.745	206.06
601.953	219.06
602.162	210.06
602.371	215.06
602.58	215.06
602.789	226.06
602.997	210.06
603.206	199.06
603.415	216.06
603.623	211.06
603.832	208.06
604.041	222.06
604.249	200.06
604.458	203.06
604.666	215.06
604.875	196.06
605.084	193.06
605.292	201.06
605.501	208.06
605.709	199.06
605.918	213.06
606.126	220.06
606.334	207.06
606.543	191.06
606.751	205.06
606.96	195.06
607.168	208.06
607.376	217.06
607.585	209.06
607.793	202.06
608.001	190.06
608.21	193.06
608.418	205.06
608.626	200.06
608.834	213.06
609.043	191.06
609.251	190.06
609.459	199.06
609.667	213.06
609.875	192.06
610.083	185.06
610.291	182.06
610.499	203.06
610.707	201.06
610.916	205.06
611.124	206.06
611.332	224.06
611.54	197.06
611.748	210.06
611.955	213.06
612.163	198.06
612.371	217.06
612.579	195.06
612.787	201.06
612.995	200.06
613.203	187.06
613.411	202.06
613.618	198.06
613.826	203.06
614.034	203.06
614.242	205.06
614.449	185.06
614.657	185.06
614.865	199.06
615.072	192.06
615.28	180.06
615.488	191.06
615.695	202.06
615.903	187.06
616.111	202.06
616.318	185.06
616.526	215.06
616.733	197.06
616.941	204.06
617.148	203.06
617.356	203.06
617.563	207.06
617.771	196.06
617.978	187.06
618.185	186.06
618.393	199.06
618.6	190.06
618.807	209.06
619.015	199.06
619.222	203.06
619.429	194.06
619.637	199.06
619.844	186.06
620.051	187.06
620.258	189.06
620.466	189.06
620.673	167.06
620.88	186.06
621.087	175.06
621.294	173.06
621.501	177.06
621.708	188.06
621.915	195.06
622.122	193.06
622.329	191.06
622.536	171.06
622.743	175.06
622.95	199.06
623.157	183.06
623.364	188.06
623.571	191.06
623.778	180.06
623.985	189.06
624.192	194.06
624.399	190.06
624.606	182.06
624.812	190.06
625.019	183.06
625.226	164.06
625.433	193.06
625.639	179.06
625.846	178.06
626.053	181.06
626.259	185.06
626.466	175.06
626.673	204.06
626.879	184.06
627.086	171.06
627.293	189.06
627.499	185.06
627.706	179.06
627.912	174.06
628.119	188.06
628.325	184.06
628.532	178.06
628.738	181.06
628.945	184.06
629.151	186.06
629.357	160.06
629.564	160.06
629.77	175.06
629.976	167.06
630.183	159.06
630.389	175.06
630.595	158.06
630.802	163.06
631.008	157.06
631.214	164.06
631.42	168.06
631.627	166.06
631.833	174.06
632.039	169.06
632.245	172.06
632.451	154.06
632.657	157.06
632.863	157.06
633.069	159.06
633.275	163.06
633.481	150.06
633.688	158.06
633.893	165.06
634.099	177.06
634.305	169.06
634.511	184.06
634.717	183.06
634.923	160.06
635.129	168.06
635.335	163.06
635.541	146.06
635.747	161.06
635.952	165.06
636.158	168.06
636.364	164.06
636.57	151.06
636.775	155.06
636.981	173.06
637.187	169.06
637.392	160.06
637.598	177.06
637.804	161.06
638.009	153.06
638.215	166.06
638.421	172.06
638.626	161.06
638.832	137.06
639.037	148.06
639.243	157.06
639.448	160.06
639.654	165.06
639.859	164.06
640.065	160.06
640.27	154.06
640.475	153.06
640.681	158.06
640.886	182.06
641.091	161.06
641.297	163.06
641.502	157.06
641.707	152.06
641.913	145.06
642.118	154.06
642.323	151.06
642.528	163.06
642.733	156.06
642.939	155.06
643.144	150.06
643.349	145.06
643.554	164.06
643.759	153.06
643.964	140.06
644.169	145.06
644.374	150.06
644.579	155.06
644.784	150.06
644.989	150.06
645.194	155.06
645.399	141.06
645.604	148.06
645.809	154.06
646.014	151.06
646.219	150.06
646.423	150.06
646.628	137.06
646.833	142.06
647.038	151.06
647.243	163.06
647.447	164.06
647.652	139.06
647.857	155.06
648.062	151.06
648.266	154.06
648.471	173.06
648.676	160.06
648.88	159.06
649.085	144.06
649.289	153.06
649.494	161.06
649.698	163.06
649.903	151.06
650.107	153.06
650.312	131.06
650.516	139.06
650.721	152.06
650.925	139.06
651.13	131.06
651.334	145.06
651.539	149.06
651.743	127.06
651.947	137.06
652.152	134.06
652.356	145.06
652.56	138.06
652.764	115.06
652.969	128.06
653.173	125.06
653.377	153.06
653.581	144.06
653.785	145.06
653.99	129.06
654.194	130.06
654.398	144.06
654.602	129.06
654.806	111.06
655.01	133.06
655.214	133.06
655.418	128.06
655.622	129.06
655.826	125.06
656.03	126.06
656.234	132.06
656.438	133.06
656.642	128.06
656.846	135.06
657.049	115.06
657.253	116.06
657.457	127.06
657.661	123.06
657.865	119.06
658.068	107.06
658.272	109.06
658.476	113.06
658.68	98.06
658.883	111.06
659.087	99.06
659.291	102.06
659.494	98.06
659.698	108.06
659.901	103.06
660.105	104.06
660.309	113.06
660.512	108.06
660.716	95.06
660.919	82.06
661.123	83.06
661.326	90.06
661.53	87.06
661.733	76.06
661.936	99.06
662.14	89.06
662.343	81.06
662.546	83.06
662.75	86.06
662.953	89.06
663.156	74.06
663.36	89.06
663.563	68.06
663.766	87.06
663.969	95.06
664.173	89.06
664.376	89.06
664.579	79.06
664.782	76.06
664.985	87.06
665.188	73.06
665.391	86.06
665.594	83.06
665.797	92.06
666	86.06
666.203	79.06
666.406	80.06
666.609	87.06
666.812	86.06
667.015	82.06
667.218	100.06
667.421	86.06
667.624	82.06
667.827	80.06
668.03	86.06
668.232	78.06
668.435	85.06
668.638	91.06
668.841	84.06
669.043	78.06
669.246	89.06
669.449	97.06
669.651	88.06
669.854	77.06
670.057	79.06
670.259	98.06
670.462	88.06
670.665	84.06
670.867	92.06
671.07	82.06
671.272	91.06
671.475	96.06
671.677	81.06
671.88	93.06
672.082	95.06
672.284	86.06
672.487	94.06
672.689	86.06
672.892	80.06
