Data from 1969.PennyLincolnUp.Lamp.En5.5.200Scan.071719.P1._HRD10591_14-54-00-971.txt Node
Date: Thu Jul 18 14:54:00 EDT 2019
User: cochatt
Spectrometer: HR+D1059
Trigger mode: 1
Integration Time (sec): 1.000000E-1
Scans to average: 1
Electric dark correction enabled: true
Nonlinearity correction enabled: false
Boxcar width: 0
XAxis mode: Wavelengths
Number of Pixels in Spectrum: 2048
>>>>>Begin Spectral Data<<<<<
223.165	-20.62
223.4	-20.62
223.635	-20.62
223.869	-14.62
224.104	-26.62
224.338	-17.62
224.573	-13.62
224.808	-14.62
225.042	-3.62
225.277	-11.62
225.511	-9.62
225.746	9.38
225.98	11.38
226.215	15.38
226.449	15.38
226.683	18.38
226.918	35.38
227.152	27.38
227.387	37.38
227.621	23.38
227.856	29.38
228.09	36.38
228.324	48.38
228.559	34.38
228.793	66.38
229.027	83.38
229.262	91.38
229.496	99.38
229.73	84.38
229.964	93.38
230.199	107.38
230.433	89.38
230.667	85.38
230.901	101.38
231.136	97.38
231.37	93.38
231.604	89.38
231.838	95.38
232.072	120.38
232.306	102.38
232.541	85.38
232.775	99.38
233.009	111.38
233.243	100.38
233.477	99.38
233.711	112.38
233.945	88.38
234.179	101.38
234.413	107.38
234.647	101.38
234.881	116.38
235.115	110.38
235.349	109.38
235.583	105.38
235.817	106.38
236.051	117.38
236.285	103.38
236.519	97.38
236.753	102.38
236.987	125.38
237.221	124.38
237.455	148.38
237.689	125.38
237.922	97.38
238.156	107.38
238.39	102.38
238.624	119.38
238.858	101.38
239.091	97.38
239.325	99.38
239.559	109.38
239.793	106.38
240.027	109.38
240.26	125.38
240.494	124.38
240.728	106.38
240.961	125.38
241.195	125.38
241.429	105.38
241.662	117.38
241.896	114.38
242.13	106.38
242.363	116.38
242.597	109.38
242.83	116.38
243.064	109.38
243.298	120.38
243.531	115.38
243.765	109.38
243.998	124.38
244.232	129.38
244.465	123.38
244.699	125.38
244.932	123.38
245.166	123.38
245.399	137.38
245.633	135.38
245.866	129.38
246.099	104.38
246.333	113.38
246.566	108.38
246.8	131.38
247.033	143.38
247.266	129.38
247.5	140.38
247.733	142.38
247.966	135.38
248.2	140.38
248.433	123.38
248.666	135.38
248.899	142.38
249.133	149.38
249.366	169.38
249.599	170.38
249.832	142.38
250.066	135.38
250.299	150.38
250.532	151.38
250.765	160.38
250.998	165.38
251.231	174.38
251.465	169.38
251.698	152.38
251.931	163.38
252.164	161.38
252.397	150.38
252.63	166.38
252.863	163.38
253.096	166.38
253.329	164.38
253.562	171.38
253.795	161.38
254.028	153.38
254.261	169.38
254.494	173.38
254.727	183.38
254.96	191.38
255.193	180.38
255.426	155.38
255.659	173.38
255.892	197.38
256.124	179.38
256.357	184.38
256.59	169.38
256.823	165.38
257.056	170.38
257.289	167.38
257.521	163.38
257.754	170.38
257.987	153.38
258.22	163.38
258.452	167.38
258.685	157.38
258.918	169.38
259.151	177.38
259.383	158.38
259.616	177.38
259.849	163.38
260.081	182.38
260.314	194.38
260.547	197.38
260.779	164.38
261.012	177.38
261.244	169.38
261.477	168.38
261.71	194.38
261.942	179.38
262.175	172.38
262.407	169.38
262.64	161.38
262.872	164.38
263.105	181.38
263.337	177.38
263.57	179.38
263.802	170.38
264.035	158.38
264.267	170.38
264.499	172.38
264.732	175.38
264.964	164.38
265.197	185.38
265.429	160.38
265.661	193.38
265.894	173.38
266.126	157.38
266.358	181.38
266.591	175.38
266.823	179.38
267.055	177.38
267.287	188.38
267.52	182.38
267.752	180.38
267.984	171.38
268.216	187.38
268.448	182.38
268.681	183.38
268.913	193.38
269.145	198.38
269.377	224.38
269.609	203.38
269.841	212.38
270.073	211.38
270.306	217.38
270.538	217.38
270.77	219.38
271.002	232.38
271.234	222.38
271.466	215.38
271.698	207.38
271.93	218.38
272.162	226.38
272.394	218.38
272.626	226.38
272.858	220.38
273.09	233.38
273.322	203.38
273.553	202.38
273.785	206.38
274.017	199.38
274.249	214.38
274.481	205.38
274.713	203.38
274.945	201.38
275.176	213.38
275.408	205.38
275.64	208.38
275.872	201.38
276.104	198.38
276.335	209.38
276.567	206.38
276.799	215.38
277.031	238.38
277.262	230.38
277.494	249.38
277.726	234.38
277.957	230.38
278.189	221.38
278.421	223.38
278.652	214.38
278.884	211.38
279.115	221.38
279.347	203.38
279.579	202.38
279.81	196.38
280.042	219.38
280.273	214.38
280.505	212.38
280.736	223.38
280.968	228.38
281.199	209.38
281.431	219.38
281.662	241.38
281.894	221.38
282.125	228.38
282.356	221.38
282.588	232.38
282.819	224.38
283.051	227.38
283.282	211.38
283.513	218.38
283.745	229.38
283.976	207.38
284.207	227.38
284.439	221.38
284.67	246.38
284.901	224.38
285.132	229.38
285.364	235.38
285.595	235.38
285.826	221.38
286.057	221.38
286.288	225.38
286.52	228.38
286.751	257.38
286.982	241.38
287.213	214.38
287.444	228.38
287.675	243.38
287.906	232.38
288.138	249.38
288.369	235.38
288.6	243.38
288.831	255.38
289.062	254.38
289.293	231.38
289.524	249.38
289.755	236.38
289.986	230.38
290.217	240.38
290.448	230.38
290.679	239.38
290.91	251.38
291.141	249.38
291.371	246.38
291.602	258.38
291.833	231.38
292.064	245.38
292.295	260.38
292.526	243.38
292.757	241.38
292.987	234.38
293.218	243.38
293.449	245.38
293.68	234.38
293.91	259.38
294.141	236.38
294.372	232.38
294.603	234.38
294.833	227.38
295.064	253.38
295.295	244.38
295.525	255.38
295.756	251.38
295.987	250.38
296.217	261.38
296.448	260.38
296.679	263.38
296.909	247.38
297.14	242.38
297.37	236.38
297.601	238.38
297.831	253.38
298.062	238.38
298.292	247.38
298.523	245.38
298.753	265.38
298.984	257.38
299.214	240.38
299.445	248.38
299.675	257.38
299.905	263.38
300.136	278.38
300.366	265.38
300.597	262.38
300.827	262.38
301.057	256.38
301.288	272.38
301.518	274.38
301.748	267.38
301.979	283.38
302.209	281.38
302.439	269.38
302.669	277.38
302.9	265.38
303.13	265.38
303.36	261.38
303.59	272.38
303.82	265.38
304.051	277.38
304.281	275.38
304.511	256.38
304.741	268.38
304.971	267.38
305.201	265.38
305.431	266.38
305.661	275.38
305.891	263.38
306.121	249.38
306.352	265.38
306.582	272.38
306.812	265.38
307.042	255.38
307.272	274.38
307.502	270.38
307.731	278.38
307.961	277.38
308.191	270.38
308.421	257.38
308.651	278.38
308.881	253.38
309.111	281.38
309.341	278.38
309.571	270.38
309.8	273.38
310.03	281.38
310.26	279.38
310.49	254.38
310.72	276.38
310.949	293.38
311.179	296.38
311.409	280.38
311.639	281.38
311.868	271.38
312.098	297.38
312.328	299.38
312.557	302.38
312.787	314.38
313.017	277.38
313.246	286.38
313.476	285.38
313.706	283.38
313.935	306.38
314.165	295.38
314.394	305.38
314.624	303.38
314.853	299.38
315.083	298.38
315.312	293.38
315.542	301.38
315.771	305.38
316.001	285.38
316.23	304.38
316.46	264.38
316.689	291.38
316.919	301.38
317.148	292.38
317.377	296.38
317.607	303.38
317.836	300.38
318.065	282.38
318.295	290.38
318.524	275.38
318.753	288.38
318.983	311.38
319.212	287.38
319.441	282.38
319.67	299.38
319.9	299.38
320.129	296.38
320.358	296.38
320.587	310.38
320.816	291.38
321.046	316.38
321.275	301.38
321.504	291.38
321.733	295.38
321.962	305.38
322.191	316.38
322.42	321.38
322.649	315.38
322.878	310.38
323.108	322.38
323.337	320.38
323.566	331.38
323.795	332.38
324.024	349.38
324.253	389.38
324.482	513.38
324.71	696.38
324.939	926.38
325.168	769.38
325.397	483.38
325.626	366.38
325.855	358.38
326.084	322.38
326.313	334.38
326.542	334.38
326.77	372.38
326.999	400.38
327.228	476.38
327.457	640.38
327.686	708.38
327.914	503.38
328.143	403.38
328.372	362.38
328.6	371.38
328.829	355.38
329.058	381.38
329.287	381.38
329.515	355.38
329.744	336.38
329.972	360.38
330.201	361.38
330.43	364.38
330.658	367.38
330.887	386.38
331.115	378.38
331.344	359.38
331.572	349.38
331.801	351.38
332.03	345.38
332.258	348.38
332.486	367.38
332.715	356.38
332.943	348.38
333.172	376.38
333.4	359.38
333.629	385.38
333.857	376.38
334.085	379.38
334.314	393.38
334.542	415.38
334.771	401.38
334.999	397.38
335.227	373.38
335.455	359.38
335.684	347.38
335.912	353.38
336.14	364.38
336.369	347.38
336.597	366.38
336.825	345.38
337.053	351.38
337.281	330.38
337.51	332.38
337.738	347.38
337.966	363.38
338.194	338.38
338.422	343.38
338.65	334.38
338.878	334.38
339.106	334.38
339.334	335.38
339.562	326.38
339.79	319.38
340.018	328.38
340.246	318.38
340.474	345.38
340.702	322.38
340.93	325.38
341.158	324.38
341.386	331.38
341.614	323.38
341.842	327.38
342.07	328.38
342.298	332.38
342.526	348.38
342.754	325.38
342.981	329.38
343.209	317.38
343.437	319.38
343.665	350.38
343.893	354.38
344.12	353.38
344.348	348.38
344.576	341.38
344.804	351.38
345.031	357.38
345.259	312.38
345.487	319.38
345.714	311.38
345.942	327.38
346.17	313.38
346.397	292.38
346.625	308.38
346.853	318.38
347.08	314.38
347.308	321.38
347.535	320.38
347.763	294.38
347.99	317.38
348.218	309.38
348.445	314.38
348.673	308.38
348.9	309.38
349.128	294.38
349.355	295.38
349.583	294.38
349.81	309.38
350.037	311.38
350.265	318.38
350.492	292.38
350.72	309.38
350.947	301.38
351.174	319.38
351.402	294.38
351.629	319.38
351.856	317.38
352.083	303.38
352.311	299.38
352.538	297.38
352.765	327.38
352.992	301.38
353.22	314.38
353.447	313.38
353.674	303.38
353.901	313.38
354.128	310.38
354.355	283.38
354.583	285.38
354.81	301.38
355.037	302.38
355.264	309.38
355.491	300.38
355.718	267.38
355.945	298.38
356.172	307.38
356.399	299.38
356.626	296.38
356.853	318.38
357.08	311.38
357.307	306.38
357.534	292.38
357.761	302.38
357.988	313.38
358.215	292.38
358.441	301.38
358.668	288.38
358.895	296.38
359.122	300.38
359.349	326.38
359.576	322.38
359.802	325.38
360.029	332.38
360.256	324.38
360.483	328.38
360.709	297.38
360.936	299.38
361.163	306.38
361.39	307.38
361.616	315.38
361.843	311.38
362.07	305.38
362.296	293.38
362.523	305.38
362.749	298.38
362.976	301.38
363.203	307.38
363.429	295.38
363.656	305.38
363.882	289.38
364.109	310.38
364.335	305.38
364.562	299.38
364.788	299.38
365.015	302.38
365.241	307.38
365.468	297.38
365.694	291.38
365.92	300.38
366.147	299.38
366.373	313.38
366.599	313.38
366.826	285.38
367.052	296.38
367.278	298.38
367.505	301.38
367.731	302.38
367.957	302.38
368.184	294.38
368.41	299.38
368.636	323.38
368.862	303.38
369.089	307.38
369.315	312.38
369.541	300.38
369.767	298.38
369.993	295.38
370.219	277.38
370.445	302.38
370.672	313.38
370.898	301.38
371.124	295.38
371.35	290.38
371.576	311.38
371.802	305.38
372.028	316.38
372.254	306.38
372.48	315.38
372.706	314.38
372.932	315.38
373.158	307.38
373.384	326.38
373.61	316.38
373.835	320.38
374.061	313.38
374.287	316.38
374.513	318.38
374.739	323.38
374.965	320.38
375.191	349.38
375.416	337.38
375.642	303.38
375.868	303.38
376.094	310.38
376.319	309.38
376.545	319.38
376.771	300.38
376.997	318.38
377.222	313.38
377.448	323.38
377.674	309.38
377.899	317.38
378.125	291.38
378.35	313.38
378.576	317.38
378.802	299.38
379.027	307.38
379.253	313.38
379.478	313.38
379.704	318.38
379.929	290.38
380.155	316.38
380.38	311.38
380.606	297.38
380.831	321.38
381.057	318.38
381.282	293.38
381.507	317.38
381.733	306.38
381.958	319.38
382.184	314.38
382.409	292.38
382.634	326.38
382.86	327.38
383.085	309.38
383.31	322.38
383.535	324.38
383.761	330.38
383.986	330.38
384.211	341.38
384.436	347.38
384.662	333.38
384.887	346.38
385.112	336.38
385.337	351.38
385.562	348.38
385.787	344.38
386.013	348.38
386.238	354.38
386.463	335.38
386.688	341.38
386.913	331.38
387.138	346.38
387.363	355.38
387.588	351.38
387.813	350.38
388.038	352.38
388.263	336.38
388.488	341.38
388.713	330.38
388.938	362.38
389.163	362.38
389.387	353.38
389.612	330.38
389.837	315.38
390.062	324.38
390.287	337.38
390.512	330.38
390.736	335.38
390.961	366.38
391.186	355.38
391.411	347.38
391.636	357.38
391.86	364.38
392.085	376.38
392.31	362.38
392.534	361.38
392.759	372.38
392.984	364.38
393.208	336.38
393.433	341.38
393.658	362.38
393.882	345.38
394.107	361.38
394.331	351.38
394.556	355.38
394.78	348.38
395.005	365.38
395.229	345.38
395.454	349.38
395.678	393.38
395.903	354.38
396.127	369.38
396.352	377.38
396.576	349.38
396.801	350.38
397.025	352.38
397.249	351.38
397.474	370.38
397.698	380.38
397.922	371.38
398.147	380.38
398.371	390.38
398.595	416.38
398.82	408.38
399.044	405.38
399.268	438.38
399.492	476.38
399.717	493.38
399.941	518.38
400.165	501.38
400.389	478.38
400.613	446.38
400.837	435.38
401.062	422.38
401.286	391.38
401.51	394.38
401.734	400.38
401.958	391.38
402.182	381.38
402.406	400.38
402.63	404.38
402.854	413.38
403.078	426.38
403.302	433.38
403.526	417.38
403.75	424.38
403.974	444.38
404.198	435.38
404.422	429.38
404.645	425.38
404.869	444.38
405.093	455.38
405.317	469.38
405.541	477.38
405.765	443.38
405.988	445.38
406.212	449.38
406.436	448.38
406.66	462.38
406.883	449.38
407.107	477.38
407.331	493.38
407.555	519.38
407.778	510.38
408.002	493.38
408.226	453.38
408.449	454.38
408.673	456.38
408.896	450.38
409.12	467.38
409.344	467.38
409.567	413.38
409.791	422.38
410.014	424.38
410.238	412.38
410.461	408.38
410.685	457.38
410.908	427.38
411.132	453.38
411.355	432.38
411.578	432.38
411.802	424.38
412.025	422.38
412.249	420.38
412.472	442.38
412.695	431.38
412.919	429.38
413.142	415.38
413.365	405.38
413.589	381.38
413.812	383.38
414.035	415.38
414.258	398.38
414.482	395.38
414.705	407.38
414.928	405.38
415.151	394.38
415.374	401.38
415.597	382.38
415.821	387.38
416.044	383.38
416.267	395.38
416.49	376.38
416.713	393.38
416.936	381.38
417.159	386.38
417.382	374.38
417.605	391.38
417.828	410.38
418.051	420.38
418.274	418.38
418.497	398.38
418.72	383.38
418.943	398.38
419.166	405.38
419.389	434.38
419.611	436.38
419.834	427.38
420.057	410.38
420.28	436.38
420.503	417.38
420.726	398.38
420.948	419.38
421.171	434.38
421.394	448.38
421.617	411.38
421.839	398.38
422.062	392.38
422.285	398.38
422.507	449.38
422.73	466.38
422.953	466.38
423.175	423.38
423.398	427.38
423.621	424.38
423.843	431.38
424.066	439.38
424.288	428.38
424.511	451.38
424.733	459.38
424.956	461.38
425.178	460.38
425.401	485.38
425.623	479.38
425.846	422.38
426.068	421.38
426.291	423.38
426.513	426.38
426.735	393.38
426.958	429.38
427.18	481.38
427.402	532.38
427.625	529.38
427.847	468.38
428.069	429.38
428.292	424.38
428.514	392.38
428.736	378.38
428.958	398.38
429.181	375.38
429.403	367.38
429.625	373.38
429.847	381.38
430.069	393.38
430.292	420.38
430.514	404.38
430.736	384.38
430.958	380.38
431.18	372.38
431.402	348.38
431.624	362.38
431.846	349.38
432.068	364.38
432.29	385.38
432.512	379.38
432.734	371.38
432.956	371.38
433.178	388.38
433.4	385.38
433.622	363.38
433.844	366.38
434.066	377.38
434.287	357.38
434.509	370.38
434.731	411.38
434.953	415.38
435.175	409.38
435.397	398.38
435.618	413.38
435.84	422.38
436.062	446.38
436.284	473.38
436.505	425.38
436.727	382.38
436.949	385.38
437.17	364.38
437.392	369.38
437.614	385.38
437.835	391.38
438.057	427.38
438.278	476.38
438.5	463.38
438.721	515.38
438.943	475.38
439.165	410.38
439.386	405.38
439.608	403.38
439.829	389.38
440.05	414.38
440.272	422.38
440.493	412.38
440.715	390.38
440.936	380.38
441.158	381.38
441.379	388.38
441.6	424.38
441.822	405.38
442.043	458.38
442.264	476.38
442.486	467.38
442.707	453.38
442.928	428.38
443.149	412.38
443.371	434.38
443.592	470.38
443.813	488.38
444.034	513.38
444.255	475.38
444.476	449.38
444.698	468.38
444.919	458.38
445.14	558.38
445.361	478.38
445.582	438.38
445.803	477.38
446.024	497.38
446.245	485.38
446.466	464.38
446.687	413.38
446.908	394.38
447.129	379.38
447.35	374.38
447.571	378.38
447.792	373.38
448.013	391.38
448.234	358.38
448.455	411.38
448.675	423.38
448.896	481.38
449.117	439.38
449.338	425.38
449.559	472.38
449.779	526.38
450	414.38
450.221	380.38
450.442	373.38
450.662	340.38
450.883	375.38
451.104	378.38
451.324	372.38
451.545	343.38
451.766	371.38
451.986	337.38
452.207	341.38
452.428	356.38
452.648	353.38
452.869	354.38
453.089	334.38
453.31	353.38
453.53	331.38
453.751	345.38
453.971	340.38
454.192	351.38
454.412	339.38
454.633	330.38
454.853	359.38
455.073	316.38
455.294	345.38
455.514	382.38
455.734	361.38
455.955	332.38
456.175	325.38
456.395	333.38
456.616	315.38
456.836	322.38
457.056	325.38
457.276	299.38
457.497	307.38
457.717	328.38
457.937	335.38
458.157	325.38
458.377	323.38
458.598	348.38
458.818	376.38
459.038	399.38
459.258	417.38
459.478	396.38
459.698	365.38
459.918	382.38
460.138	387.38
460.358	387.38
460.578	414.38
460.798	404.38
461.018	412.38
461.238	400.38
461.458	394.38
461.678	405.38
461.898	400.38
462.118	392.38
462.338	398.38
462.558	408.38
462.777	426.38
462.997	456.38
463.217	452.38
463.437	462.38
463.657	452.38
463.876	438.38
464.096	435.38
464.316	410.38
464.536	433.38
464.755	422.38
464.975	425.38
465.195	421.38
465.414	447.38
465.634	415.38
465.854	391.38
466.073	387.38
466.293	367.38
466.512	366.38
466.732	361.38
466.951	361.38
467.171	359.38
467.391	375.38
467.61	371.38
467.829	372.38
468.049	350.38
468.268	355.38
468.488	352.38
468.707	350.38
468.927	339.38
469.146	353.38
469.365	343.38
469.585	341.38
469.804	367.38
470.023	359.38
470.243	353.38
470.462	362.38
470.681	384.38
470.901	381.38
471.12	364.38
471.339	357.38
471.558	349.38
471.777	363.38
471.997	362.38
472.216	377.38
472.435	373.38
472.654	355.38
472.873	341.38
473.092	362.38
473.311	359.38
473.53	341.38
473.749	360.38
473.968	380.38
474.187	411.38
474.406	408.38
474.625	364.38
474.844	348.38
475.063	369.38
475.282	353.38
475.501	363.38
475.72	359.38
475.939	358.38
476.158	350.38
476.377	349.38
476.596	373.38
476.814	366.38
477.033	371.38
477.252	373.38
477.471	365.38
477.69	384.38
477.908	391.38
478.127	388.38
478.346	395.38
478.564	403.38
478.783	410.38
479.002	422.38
479.22	422.38
479.439	411.38
479.658	420.38
479.876	435.38
480.095	433.38
480.313	464.38
480.532	448.38
480.751	433.38
480.969	445.38
481.188	458.38
481.406	457.38
481.624	431.38
481.843	415.38
482.061	399.38
482.28	411.38
482.498	406.38
482.717	412.38
482.935	391.38
483.153	412.38
483.372	409.38
483.59	390.38
483.808	390.38
484.027	397.38
484.245	395.38
484.463	405.38
484.681	429.38
484.9	405.38
485.118	403.38
485.336	419.38
485.554	414.38
485.772	430.38
485.99	423.38
486.209	399.38
486.427	420.38
486.645	427.38
486.863	445.38
487.081	446.38
487.299	420.38
487.517	439.38
487.735	428.38
487.953	428.38
488.171	437.38
488.389	426.38
488.607	428.38
488.825	416.38
489.043	443.38
489.261	422.38
489.479	433.38
489.696	439.38
489.914	459.38
490.132	415.38
490.35	458.38
490.568	462.38
490.786	467.38
491.003	451.38
491.221	470.38
491.439	474.38
491.657	476.38
491.874	474.38
492.092	487.38
492.31	488.38
492.527	491.38
492.745	494.38
492.963	518.38
493.18	485.38
493.398	465.38
493.615	482.38
493.833	509.38
494.05	497.38
494.268	493.38
494.485	502.38
494.703	497.38
494.92	508.38
495.138	513.38
495.355	521.38
495.573	510.38
495.79	486.38
496.008	487.38
496.225	509.38
496.442	488.38
496.66	503.38
496.877	499.38
497.094	515.38
497.312	510.38
497.529	524.38
497.746	551.38
497.963	549.38
498.181	559.38
498.398	573.38
498.615	581.38
498.832	593.38
499.049	615.38
499.267	684.38
499.484	697.38
499.701	723.38
499.918	781.38
500.135	841.38
500.352	901.38
500.569	899.38
500.786	924.38
501.003	870.38
501.22	801.38
501.437	775.38
501.654	731.38
501.871	703.38
502.088	649.38
502.305	633.38
502.522	621.38
502.739	590.38
502.956	557.38
503.172	559.38
503.389	531.38
503.606	534.38
503.823	541.38
504.04	535.38
504.256	526.38
504.473	526.38
504.69	510.38
504.907	536.38
505.123	508.38
505.34	490.38
505.557	465.38
505.773	476.38
505.99	478.38
506.207	488.38
506.423	461.38
506.64	463.38
506.856	444.38
507.073	466.38
507.289	462.38
507.506	445.38
507.722	456.38
507.939	450.38
508.155	449.38
508.372	427.38
508.588	427.38
508.805	433.38
509.021	419.38
509.238	445.38
509.454	447.38
509.67	446.38
509.887	426.38
510.103	401.38
510.319	415.38
510.536	453.38
510.752	656.38
510.968	536.38
511.184	422.38
511.401	421.38
511.617	431.38
511.833	413.38
512.049	417.38
512.265	419.38
512.481	430.38
512.698	426.38
512.914	405.38
513.13	433.38
513.346	379.38
513.562	399.38
513.778	425.38
513.994	409.38
514.21	420.38
514.426	408.38
514.642	434.38
514.858	455.38
515.074	448.38
515.29	511.38
515.506	676.38
515.721	581.38
515.937	468.38
516.153	443.38
516.369	455.38
516.585	430.38
516.801	438.38
517.016	450.38
517.232	480.38
517.448	483.38
517.664	480.38
517.879	479.38
518.095	483.38
518.311	475.38
518.527	474.38
518.742	457.38
518.958	443.38
519.173	439.38
519.389	429.38
519.605	416.38
519.82	411.38
520.036	418.38
520.251	429.38
520.467	421.38
520.682	418.38
520.898	414.38
521.113	433.38
521.329	428.38
521.544	448.38
521.76	535.38
521.975	781.38
522.19	768.38
522.406	500.38
522.621	405.38
522.836	406.38
523.052	394.38
523.267	383.38
523.482	377.38
523.698	354.38
523.913	377.38
524.128	377.38
524.343	365.38
524.559	379.38
524.774	371.38
524.989	365.38
525.204	377.38
525.419	366.38
525.634	353.38
525.849	355.38
526.064	360.38
526.28	349.38
526.495	337.38
526.71	355.38
526.925	356.38
527.14	366.38
527.355	349.38
527.57	347.38
527.785	358.38
527.999	371.38
528.214	342.38
528.429	362.38
528.644	350.38
528.859	360.38
529.074	361.38
529.289	389.38
529.503	411.38
529.718	366.38
529.933	356.38
530.148	361.38
530.363	351.38
530.577	356.38
530.792	338.38
531.007	348.38
531.221	331.38
531.436	357.38
531.651	348.38
531.865	356.38
532.08	355.38
532.295	353.38
532.509	335.38
532.724	319.38
532.938	346.38
533.153	342.38
533.367	362.38
533.582	356.38
533.796	340.38
534.011	354.38
534.225	363.38
534.44	339.38
534.654	346.38
534.868	341.38
535.083	336.38
535.297	337.38
535.511	330.38
535.726	345.38
535.94	339.38
536.154	331.38
536.369	339.38
536.583	339.38
536.797	340.38
537.011	327.38
537.225	317.38
537.44	335.38
537.654	335.38
537.868	312.38
538.082	327.38
538.296	332.38
538.51	327.38
538.724	338.38
538.938	347.38
539.153	327.38
539.367	333.38
539.581	326.38
539.795	338.38
540.009	317.38
540.222	333.38
540.436	335.38
540.65	328.38
540.864	334.38
541.078	336.38
541.292	335.38
541.506	329.38
541.72	333.38
541.934	319.38
542.147	328.38
542.361	336.38
542.575	334.38
542.789	341.38
543.002	317.38
543.216	344.38
543.43	327.38
543.644	326.38
543.857	339.38
544.071	354.38
544.285	361.38
544.498	322.38
544.712	341.38
544.925	339.38
545.139	335.38
545.352	353.38
545.566	335.38
545.779	344.38
545.993	340.38
546.206	349.38
546.42	354.38
546.633	350.38
546.847	318.38
547.06	339.38
547.274	341.38
547.487	335.38
547.7	339.38
547.914	349.38
548.127	321.38
548.34	329.38
548.554	354.38
548.767	337.38
548.98	328.38
549.193	323.38
549.407	323.38
549.62	334.38
549.833	341.38
550.046	353.38
550.259	335.38
550.473	348.38
550.686	343.38
550.899	337.38
551.112	339.38
551.325	323.38
551.538	327.38
551.751	313.38
551.964	325.38
552.177	311.38
552.39	335.38
552.603	320.38
552.816	337.38
553.029	337.38
553.242	346.38
553.455	359.38
553.667	357.38
553.88	348.38
554.093	335.38
554.306	348.38
554.519	337.38
554.732	325.38
554.944	338.38
555.157	327.38
555.37	317.38
555.583	324.38
555.795	317.38
556.008	277.38
556.221	299.38
556.433	311.38
556.646	300.38
556.859	300.38
557.071	297.38
557.284	301.38
557.496	312.38
557.709	298.38
557.921	288.38
558.134	318.38
558.346	322.38
558.559	302.38
558.771	305.38
558.984	279.38
559.196	284.38
559.409	295.38
559.621	281.38
559.833	298.38
560.046	279.38
560.258	283.38
560.47	296.38
560.683	291.38
560.895	298.38
561.107	290.38
561.32	313.38
561.532	283.38
561.744	301.38
561.956	286.38
562.168	295.38
562.381	297.38
562.593	293.38
562.805	280.38
563.017	305.38
563.229	300.38
563.441	310.38
563.653	316.38
563.865	292.38
564.077	306.38
564.289	298.38
564.501	299.38
564.713	313.38
564.925	317.38
565.137	324.38
565.349	329.38
565.561	334.38
565.773	338.38
565.985	350.38
566.197	367.38
566.408	365.38
566.62	394.38
566.832	397.38
567.044	409.38
567.255	391.38
567.467	407.38
567.679	447.38
567.891	457.38
568.102	450.38
568.314	436.38
568.526	396.38
568.737	379.38
568.949	346.38
569.161	341.38
569.372	334.38
569.584	351.38
569.795	338.38
570.007	315.38
570.218	325.38
570.43	321.38
570.641	308.38
570.853	297.38
571.064	298.38
571.276	306.38
571.487	303.38
571.698	318.38
571.91	281.38
572.121	281.38
572.333	277.38
572.544	277.38
572.755	261.38
572.966	285.38
573.178	262.38
573.389	265.38
573.6	266.38
573.811	261.38
574.023	266.38
574.234	269.38
574.445	269.38
574.656	249.38
574.867	258.38
575.078	243.38
575.289	253.38
575.501	273.38
575.712	250.38
575.923	241.38
576.134	265.38
576.345	248.38
576.556	267.38
576.767	255.38
576.978	261.38
577.188	255.38
577.399	253.38
577.61	254.38
577.821	253.38
578.032	244.38
578.243	249.38
578.454	348.38
578.665	283.38
578.875	260.38
579.086	243.38
579.297	234.38
579.508	245.38
579.718	249.38
579.929	237.38
580.14	223.38
580.35	231.38
580.561	241.38
580.772	226.38
580.982	244.38
581.193	238.38
581.403	242.38
581.614	231.38
581.825	246.38
582.035	233.38
582.246	234.38
582.456	227.38
582.667	233.38
582.877	233.38
583.087	219.38
583.298	230.38
583.508	226.38
583.719	257.38
583.929	234.38
584.139	238.38
584.35	227.38
584.56	225.38
584.77	234.38
584.981	228.38
585.191	236.38
585.401	246.38
585.611	233.38
585.821	247.38
586.032	241.38
586.242	243.38
586.452	224.38
586.662	214.38
586.872	225.38
587.082	231.38
587.292	218.38
587.502	231.38
587.713	218.38
587.923	216.38
588.133	225.38
588.343	210.38
588.553	218.38
588.762	236.38
588.972	235.38
589.182	213.38
589.392	241.38
589.602	233.38
589.812	238.38
590.022	229.38
590.232	221.38
590.441	234.38
590.651	237.38
590.861	238.38
591.071	254.38
591.281	235.38
591.49	236.38
591.7	244.38
591.91	243.38
592.119	245.38
592.329	257.38
592.539	250.38
592.748	257.38
592.958	266.38
593.167	263.38
593.377	262.38
593.587	278.38
593.796	270.38
594.006	261.38
594.215	265.38
594.424	250.38
594.634	269.38
594.843	253.38
595.053	264.38
595.262	247.38
595.472	252.38
595.681	243.38
595.89	231.38
596.1	223.38
596.309	228.38
596.518	218.38
596.727	211.38
596.937	237.38
597.146	221.38
597.355	220.38
597.564	207.38
597.774	202.38
597.983	218.38
598.192	229.38
598.401	220.38
598.61	226.38
598.819	209.38
599.028	219.38
599.237	200.38
599.446	225.38
599.655	206.38
599.864	219.38
600.073	180.38
600.282	200.38
600.491	225.38
600.7	206.38
600.909	205.38
601.118	200.38
601.327	206.38
601.536	212.38
601.745	197.38
601.953	227.38
602.162	198.38
602.371	218.38
602.58	204.38
602.789	210.38
602.997	202.38
603.206	201.38
603.415	215.38
603.623	199.38
603.832	209.38
604.041	209.38
604.249	204.38
604.458	195.38
604.666	218.38
604.875	190.38
605.084	194.38
605.292	219.38
605.501	206.38
605.709	198.38
605.918	207.38
606.126	207.38
606.334	201.38
606.543	190.38
606.751	205.38
606.96	219.38
607.168	195.38
607.376	194.38
607.585	214.38
607.793	200.38
608.001	214.38
608.21	199.38
608.418	196.38
608.626	195.38
608.834	201.38
609.043	196.38
609.251	207.38
609.459	200.38
609.667	211.38
609.875	201.38
610.083	214.38
610.291	199.38
610.499	191.38
610.707	193.38
610.916	217.38
611.124	205.38
611.332	213.38
611.54	204.38
611.748	212.38
611.955	199.38
612.163	211.38
612.371	200.38
612.579	201.38
612.787	205.38
612.995	206.38
613.203	231.38
613.411	195.38
613.618	203.38
613.826	202.38
614.034	197.38
614.242	189.38
614.449	189.38
614.657	205.38
614.865	188.38
615.072	197.38
615.28	204.38
615.488	194.38
615.695	210.38
615.903	211.38
616.111	213.38
616.318	204.38
616.526	201.38
616.733	203.38
616.941	204.38
617.148	187.38
617.356	204.38
617.563	209.38
617.771	192.38
617.978	175.38
618.185	193.38
618.393	199.38
618.6	189.38
618.807	199.38
619.015	200.38
619.222	195.38
619.429	187.38
619.637	196.38
619.844	194.38
620.051	197.38
620.258	179.38
620.466	189.38
620.673	173.38
620.88	178.38
621.087	187.38
621.294	197.38
621.501	181.38
621.708	188.38
621.915	182.38
622.122	175.38
622.329	176.38
622.536	179.38
622.743	183.38
622.95	177.38
623.157	178.38
623.364	176.38
623.571	188.38
623.778	180.38
623.985	184.38
624.192	187.38
624.399	181.38
624.606	175.38
624.812	189.38
625.019	191.38
625.226	170.38
625.433	166.38
625.639	171.38
625.846	176.38
626.053	175.38
626.259	157.38
626.466	173.38
626.673	168.38
626.879	168.38
627.086	180.38
627.293	177.38
627.499	183.38
627.706	157.38
627.912	172.38
628.119	180.38
628.325	171.38
628.532	170.38
628.738	178.38
628.945	171.38
629.151	173.38
629.357	179.38
629.564	173.38
629.77	168.38
629.976	154.38
630.183	175.38
630.389	162.38
630.595	157.38
630.802	171.38
631.008	142.38
631.214	154.38
631.42	181.38
631.627	163.38
631.833	160.38
632.039	169.38
632.245	167.38
632.451	159.38
632.657	169.38
632.863	169.38
633.069	167.38
633.275	164.38
633.481	166.38
633.688	161.38
633.893	156.38
634.099	168.38
634.305	173.38
634.511	161.38
634.717	162.38
634.923	166.38
635.129	166.38
635.335	149.38
635.541	145.38
635.747	156.38
635.952	168.38
636.158	163.38
636.364	188.38
636.57	160.38
636.775	155.38
636.981	142.38
637.187	158.38
637.392	156.38
637.598	163.38
637.804	163.38
638.009	159.38
638.215	162.38
638.421	159.38
638.626	147.38
638.832	148.38
639.037	151.38
639.243	149.38
639.448	177.38
639.654	164.38
639.859	162.38
640.065	165.38
640.27	173.38
640.475	156.38
640.681	153.38
640.886	171.38
641.091	157.38
641.297	153.38
641.502	150.38
641.707	146.38
641.913	150.38
642.118	162.38
642.323	142.38
642.528	167.38
642.733	139.38
642.939	153.38
643.144	159.38
643.349	146.38
643.554	151.38
643.759	148.38
643.964	146.38
644.169	158.38
644.374	149.38
644.579	141.38
644.784	139.38
644.989	151.38
645.194	147.38
645.399	137.38
645.604	145.38
645.809	151.38
646.014	139.38
646.219	125.38
646.423	132.38
646.628	143.38
646.833	140.38
647.038	145.38
647.243	150.38
647.447	147.38
647.652	140.38
647.857	156.38
648.062	147.38
648.266	153.38
648.471	162.38
648.676	151.38
648.88	151.38
649.085	162.38
649.289	147.38
649.494	156.38
649.698	155.38
649.903	144.38
650.107	141.38
650.312	144.38
650.516	141.38
650.721	152.38
650.925	143.38
651.13	139.38
651.334	131.38
651.539	150.38
651.743	137.38
651.947	140.38
652.152	125.38
652.356	145.38
652.56	143.38
652.764	139.38
652.969	151.38
653.173	145.38
653.377	134.38
653.581	143.38
653.785	128.38
653.99	133.38
654.194	143.38
654.398	134.38
654.602	122.38
654.806	138.38
655.01	140.38
655.214	147.38
655.418	121.38
655.622	122.38
655.826	131.38
656.03	131.38
656.234	127.38
656.438	130.38
656.642	141.38
656.846	125.38
657.049	133.38
657.253	140.38
657.457	99.38
657.661	126.38
657.865	113.38
658.068	115.38
658.272	117.38
658.476	101.38
658.68	123.38
658.883	102.38
659.087	109.38
659.291	109.38
659.494	94.38
659.698	90.38
659.901	99.38
660.105	101.38
660.309	106.38
660.512	98.38
660.716	79.38
660.919	94.38
661.123	86.38
661.326	84.38
661.53	96.38
661.733	89.38
661.936	91.38
662.14	82.38
662.343	100.38
662.546	91.38
662.75	90.38
662.953	72.38
663.156	78.38
663.36	85.38
663.563	91.38
663.766	87.38
663.969	80.38
664.173	96.38
664.376	77.38
664.579	75.38
664.782	100.38
664.985	78.38
665.188	85.38
665.391	97.38
665.594	97.38
665.797	76.38
666	83.38
666.203	80.38
666.406	82.38
666.609	84.38
666.812	106.38
667.015	90.38
667.218	77.38
667.421	70.38
667.624	85.38
667.827	92.38
668.03	86.38
668.232	85.38
668.435	89.38
668.638	87.38
668.841	98.38
669.043	87.38
669.246	74.38
669.449	71.38
669.651	88.38
669.854	83.38
670.057	81.38
670.259	81.38
670.462	88.38
670.665	97.38
670.867	91.38
671.07	81.38
671.272	91.38
671.475	91.38
671.677	88.38
671.88	85.38
672.082	84.38
672.284	84.38
672.487	85.38
672.689	91.38
672.892	83.38
