Data from 1969.PennyLincolnUp.Lamp.En5.5.200Scan.071719.P1._HRD10591_14-55-40-972.txt Node
Date: Thu Jul 18 14:55:40 EDT 2019
User: cochatt
Spectrometer: HR+D1059
Trigger mode: 1
Integration Time (sec): 1.000000E-1
Scans to average: 1
Electric dark correction enabled: true
Nonlinearity correction enabled: false
Boxcar width: 0
XAxis mode: Wavelengths
Number of Pixels in Spectrum: 2048
>>>>>Begin Spectral Data<<<<<
223.165	-10.62
223.4	-10.62
223.635	-10.62
223.869	-14.62
224.104	-28.62
224.338	-18.62
224.573	-7.62
224.808	-25.62
225.042	-5.62
225.277	-14.62
225.511	3.38
225.746	4.38
225.98	11.38
226.215	9.38
226.449	25.38
226.683	25.38
226.918	22.38
227.152	24.38
227.387	21.38
227.621	40.38
227.856	43.38
228.09	44.38
228.324	47.38
228.559	67.38
228.793	76.38
229.027	75.38
229.262	88.38
229.496	99.38
229.73	104.38
229.964	122.38
230.199	98.38
230.433	98.38
230.667	113.38
230.901	97.38
231.136	107.38
231.37	96.38
231.604	96.38
231.838	107.38
232.072	96.38
232.306	92.38
232.541	104.38
232.775	101.38
233.009	108.38
233.243	106.38
233.477	108.38
233.711	103.38
233.945	110.38
234.179	102.38
234.413	103.38
234.647	117.38
234.881	117.38
235.115	103.38
235.349	113.38
235.583	88.38
235.817	111.38
236.051	120.38
236.285	116.38
236.519	102.38
236.753	123.38
236.987	106.38
237.221	147.38
237.455	171.38
237.689	131.38
237.922	119.38
238.156	108.38
238.39	105.38
238.624	108.38
238.858	96.38
239.091	113.38
239.325	115.38
239.559	105.38
239.793	111.38
240.027	108.38
240.26	118.38
240.494	135.38
240.728	131.38
240.961	120.38
241.195	125.38
241.429	115.38
241.662	108.38
241.896	116.38
242.13	131.38
242.363	120.38
242.597	116.38
242.83	123.38
243.064	116.38
243.298	104.38
243.531	121.38
243.765	121.38
243.998	130.38
244.232	126.38
244.465	122.38
244.699	146.38
244.932	144.38
245.166	121.38
245.399	139.38
245.633	120.38
245.866	117.38
246.099	131.38
246.333	138.38
246.566	135.38
246.8	141.38
247.033	140.38
247.266	139.38
247.5	140.38
247.733	159.38
247.966	145.38
248.2	147.38
248.433	139.38
248.666	140.38
248.899	169.38
249.133	167.38
249.366	176.38
249.599	159.38
249.832	142.38
250.066	159.38
250.299	160.38
250.532	165.38
250.765	163.38
250.998	204.38
251.231	185.38
251.465	159.38
251.698	151.38
251.931	197.38
252.164	171.38
252.397	189.38
252.63	168.38
252.863	168.38
253.096	190.38
253.329	192.38
253.562	188.38
253.795	174.38
254.028	192.38
254.261	183.38
254.494	193.38
254.727	223.38
254.96	220.38
255.193	224.38
255.426	204.38
255.659	186.38
255.892	215.38
256.124	209.38
256.357	185.38
256.59	207.38
256.823	184.38
257.056	172.38
257.289	177.38
257.521	169.38
257.754	185.38
257.987	172.38
258.22	170.38
258.452	185.38
258.685	163.38
258.918	177.38
259.151	183.38
259.383	211.38
259.616	188.38
259.849	191.38
260.081	212.38
260.314	201.38
260.547	218.38
260.779	201.38
261.012	196.38
261.244	192.38
261.477	185.38
261.71	190.38
261.942	183.38
262.175	206.38
262.407	183.38
262.64	184.38
262.872	178.38
263.105	201.38
263.337	181.38
263.57	184.38
263.802	195.38
264.035	201.38
264.267	191.38
264.499	183.38
264.732	184.38
264.964	198.38
265.197	181.38
265.429	179.38
265.661	176.38
265.894	188.38
266.126	188.38
266.358	189.38
266.591	183.38
266.823	194.38
267.055	196.38
267.287	187.38
267.52	199.38
267.752	195.38
267.984	213.38
268.216	205.38
268.448	220.38
268.681	199.38
268.913	221.38
269.145	235.38
269.377	234.38
269.609	240.38
269.841	236.38
270.073	217.38
270.306	237.38
270.538	277.38
270.77	263.38
271.002	243.38
271.234	269.38
271.466	240.38
271.698	265.38
271.93	270.38
272.162	258.38
272.394	251.38
272.626	253.38
272.858	223.38
273.09	230.38
273.322	232.38
273.553	235.38
273.785	237.38
274.017	233.38
274.249	211.38
274.481	229.38
274.713	250.38
274.945	210.38
275.176	226.38
275.408	255.38
275.64	232.38
275.872	225.38
276.104	234.38
276.335	243.38
276.567	247.38
276.799	230.38
277.031	253.38
277.262	275.38
277.494	274.38
277.726	251.38
277.957	252.38
278.189	231.38
278.421	230.38
278.652	235.38
278.884	244.38
279.115	225.38
279.347	245.38
279.579	232.38
279.81	241.38
280.042	229.38
280.273	244.38
280.505	233.38
280.736	228.38
280.968	240.38
281.199	249.38
281.431	222.38
281.662	233.38
281.894	243.38
282.125	236.38
282.356	247.38
282.588	268.38
282.819	266.38
283.051	245.38
283.282	262.38
283.513	242.38
283.745	235.38
283.976	246.38
284.207	280.38
284.439	259.38
284.67	260.38
284.901	252.38
285.132	252.38
285.364	260.38
285.595	260.38
285.826	236.38
286.057	264.38
286.288	271.38
286.52	249.38
286.751	249.38
286.982	252.38
287.213	251.38
287.444	249.38
287.675	239.38
287.906	256.38
288.138	284.38
288.369	264.38
288.6	283.38
288.831	264.38
289.062	255.38
289.293	266.38
289.524	273.38
289.755	252.38
289.986	261.38
290.217	257.38
290.448	257.38
290.679	282.38
290.91	275.38
291.141	271.38
291.371	260.38
291.602	267.38
291.833	256.38
292.064	255.38
292.295	276.38
292.526	281.38
292.757	270.38
292.987	241.38
293.218	254.38
293.449	267.38
293.68	289.38
293.91	267.38
294.141	262.38
294.372	262.38
294.603	285.38
294.833	283.38
295.064	279.38
295.295	264.38
295.525	263.38
295.756	277.38
295.987	276.38
296.217	291.38
296.448	296.38
296.679	270.38
296.909	266.38
297.14	277.38
297.37	275.38
297.601	269.38
297.831	264.38
298.062	266.38
298.292	288.38
298.523	273.38
298.753	281.38
298.984	274.38
299.214	279.38
299.445	277.38
299.675	270.38
299.905	304.38
300.136	287.38
300.366	291.38
300.597	287.38
300.827	294.38
301.057	278.38
301.288	299.38
301.518	297.38
301.748	290.38
301.979	303.38
302.209	292.38
302.439	291.38
302.669	306.38
302.9	305.38
303.13	301.38
303.36	287.38
303.59	300.38
303.82	295.38
304.051	305.38
304.281	310.38
304.511	303.38
304.741	291.38
304.971	287.38
305.201	291.38
305.431	276.38
305.661	305.38
305.891	287.38
306.121	288.38
306.352	277.38
306.582	300.38
306.812	292.38
307.042	307.38
307.272	293.38
307.502	291.38
307.731	284.38
307.961	304.38
308.191	279.38
308.421	307.38
308.651	316.38
308.881	289.38
309.111	313.38
309.341	293.38
309.571	306.38
309.8	312.38
310.03	313.38
310.26	321.38
310.49	334.38
310.72	328.38
310.949	339.38
311.179	349.38
311.409	328.38
311.639	305.38
311.868	327.38
312.098	309.38
312.328	315.38
312.557	326.38
312.787	340.38
313.017	340.38
313.246	341.38
313.476	317.38
313.706	329.38
313.935	328.38
314.165	337.38
314.394	356.38
314.624	352.38
314.853	349.38
315.083	346.38
315.312	332.38
315.542	330.38
315.771	327.38
316.001	312.38
316.23	331.38
316.46	323.38
316.689	345.38
316.919	344.38
317.148	332.38
317.377	341.38
317.607	336.38
317.836	330.38
318.065	340.38
318.295	339.38
318.524	328.38
318.753	322.38
318.983	346.38
319.212	316.38
319.441	331.38
319.67	321.38
319.9	330.38
320.129	328.38
320.358	328.38
320.587	325.38
320.816	318.38
321.046	338.38
321.275	334.38
321.504	330.38
321.733	338.38
321.962	336.38
322.191	339.38
322.42	356.38
322.649	341.38
322.878	358.38
323.108	372.38
323.337	393.38
323.566	384.38
323.795	398.38
324.024	425.38
324.253	497.38
324.482	640.38
324.71	931.38
324.939	1259.38
325.168	1021.38
325.397	577.38
325.626	445.38
325.855	402.38
326.084	389.38
326.313	384.38
326.542	396.38
326.77	425.38
326.999	467.38
327.228	601.38
327.457	831.38
327.686	971.38
327.914	683.38
328.143	489.38
328.372	463.38
328.6	444.38
328.829	425.38
329.058	439.38
329.287	443.38
329.515	428.38
329.744	379.38
329.972	381.38
330.201	421.38
330.43	460.38
330.658	465.38
330.887	461.38
331.115	475.38
331.344	418.38
331.572	388.38
331.801	417.38
332.03	407.38
332.258	400.38
332.486	385.38
332.715	393.38
332.943	413.38
333.172	401.38
333.4	438.38
333.629	396.38
333.857	434.38
334.085	459.38
334.314	452.38
334.542	466.38
334.771	470.38
334.999	438.38
335.227	422.38
335.455	396.38
335.684	390.38
335.912	413.38
336.14	392.38
336.369	376.38
336.597	410.38
336.825	391.38
337.053	380.38
337.281	405.38
337.51	403.38
337.738	392.38
337.966	394.38
338.194	385.38
338.422	390.38
338.65	382.38
338.878	378.38
339.106	383.38
339.334	375.38
339.562	360.38
339.79	367.38
340.018	383.38
340.246	373.38
340.474	358.38
340.702	362.38
340.93	373.38
341.158	362.38
341.386	364.38
341.614	379.38
341.842	375.38
342.07	352.38
342.298	353.38
342.526	363.38
342.754	368.38
342.981	333.38
343.209	355.38
343.437	365.38
343.665	360.38
343.893	403.38
344.12	395.38
344.348	396.38
344.576	387.38
344.804	408.38
345.031	366.38
345.259	380.38
345.487	365.38
345.714	358.38
345.942	359.38
346.17	357.38
346.397	357.38
346.625	349.38
346.853	356.38
347.08	351.38
347.308	353.38
347.535	333.38
347.763	368.38
347.99	365.38
348.218	343.38
348.445	353.38
348.673	332.38
348.9	345.38
349.128	342.38
349.355	327.38
349.583	328.38
349.81	322.38
350.037	349.38
350.265	338.38
350.492	313.38
350.72	339.38
350.947	333.38
351.174	330.38
351.402	360.38
351.629	351.38
351.856	339.38
352.083	349.38
352.311	352.38
352.538	356.38
352.765	363.38
352.992	344.38
353.22	323.38
353.447	341.38
353.674	321.38
353.901	350.38
354.128	325.38
354.355	316.38
354.583	329.38
354.81	330.38
355.037	343.38
355.264	339.38
355.491	331.38
355.718	328.38
355.945	339.38
356.172	322.38
356.399	322.38
356.626	323.38
356.853	321.38
357.08	341.38
357.307	313.38
357.534	331.38
357.761	339.38
357.988	337.38
358.215	322.38
358.441	336.38
358.668	322.38
358.895	343.38
359.122	326.38
359.349	335.38
359.576	347.38
359.802	348.38
360.029	357.38
360.256	380.38
360.483	373.38
360.709	355.38
360.936	344.38
361.163	362.38
361.39	330.38
361.616	343.38
361.843	356.38
362.07	356.38
362.296	344.38
362.523	343.38
362.749	342.38
362.976	360.38
363.203	362.38
363.429	322.38
363.656	329.38
363.882	341.38
364.109	348.38
364.335	339.38
364.562	333.38
364.788	337.38
365.015	333.38
365.241	355.38
365.468	350.38
365.694	320.38
365.92	329.38
366.147	328.38
366.373	330.38
366.599	348.38
366.826	330.38
367.052	347.38
367.278	327.38
367.505	331.38
367.731	318.38
367.957	323.38
368.184	348.38
368.41	333.38
368.636	359.38
368.862	355.38
369.089	333.38
369.315	339.38
369.541	329.38
369.767	329.38
369.993	328.38
370.219	319.38
370.445	336.38
370.672	328.38
370.898	342.38
371.124	327.38
371.35	333.38
371.576	328.38
371.802	355.38
372.028	338.38
372.254	345.38
372.48	355.38
372.706	348.38
372.932	332.38
373.158	346.38
373.384	341.38
373.61	340.38
373.835	356.38
374.061	345.38
374.287	363.38
374.513	346.38
374.739	365.38
374.965	361.38
375.191	333.38
375.416	347.38
375.642	362.38
375.868	354.38
376.094	345.38
376.319	334.38
376.545	336.38
376.771	349.38
376.997	328.38
377.222	347.38
377.448	358.38
377.674	331.38
377.899	341.38
378.125	338.38
378.35	325.38
378.576	344.38
378.802	347.38
379.027	334.38
379.253	317.38
379.478	325.38
379.704	319.38
379.929	321.38
380.155	364.38
380.38	350.38
380.606	334.38
380.831	337.38
381.057	345.38
381.282	346.38
381.507	341.38
381.733	329.38
381.958	330.38
382.184	347.38
382.409	356.38
382.634	341.38
382.86	340.38
383.085	348.38
383.31	358.38
383.535	355.38
383.761	349.38
383.986	364.38
384.211	363.38
384.436	356.38
384.662	372.38
384.887	353.38
385.112	383.38
385.337	387.38
385.562	384.38
385.787	375.38
386.013	394.38
386.238	393.38
386.463	401.38
386.688	376.38
386.913	377.38
387.138	377.38
387.363	399.38
387.588	383.38
387.813	387.38
388.038	384.38
388.263	368.38
388.488	388.38
388.713	379.38
388.938	379.38
389.163	379.38
389.387	371.38
389.612	382.38
389.837	375.38
390.062	360.38
390.287	375.38
390.512	357.38
390.736	354.38
390.961	377.38
391.186	359.38
391.411	373.38
391.636	407.38
391.86	399.38
392.085	404.38
392.31	401.38
392.534	411.38
392.759	393.38
392.984	421.38
393.208	384.38
393.433	385.38
393.658	383.38
393.882	380.38
394.107	381.38
394.331	392.38
394.556	387.38
394.78	389.38
395.005	368.38
395.229	381.38
395.454	393.38
395.678	402.38
395.903	415.38
396.127	432.38
396.352	410.38
396.576	401.38
396.801	385.38
397.025	389.38
397.249	388.38
397.474	404.38
397.698	423.38
397.922	405.38
398.147	432.38
398.371	431.38
398.595	431.38
398.82	448.38
399.044	471.38
399.268	472.38
399.492	515.38
399.717	571.38
399.941	565.38
400.165	581.38
400.389	545.38
400.613	490.38
400.837	467.38
401.062	450.38
401.286	451.38
401.51	434.38
401.734	435.38
401.958	457.38
402.182	433.38
402.406	470.38
402.63	451.38
402.854	464.38
403.078	476.38
403.302	479.38
403.526	473.38
403.75	473.38
403.974	479.38
404.198	475.38
404.422	481.38
404.645	475.38
404.869	457.38
405.093	477.38
405.317	528.38
405.541	554.38
405.765	485.38
405.988	467.38
406.212	484.38
406.436	493.38
406.66	515.38
406.883	497.38
407.107	545.38
407.331	546.38
407.555	608.38
407.778	581.38
408.002	549.38
408.226	518.38
408.449	521.38
408.673	486.38
408.896	508.38
409.12	531.38
409.344	485.38
409.567	456.38
409.791	459.38
410.014	445.38
410.238	459.38
410.461	461.38
410.685	450.38
410.908	483.38
411.132	478.38
411.355	500.38
411.578	484.38
411.802	468.38
412.025	453.38
412.249	492.38
412.472	473.38
412.695	487.38
412.919	482.38
413.142	445.38
413.365	460.38
413.589	428.38
413.812	439.38
414.035	437.38
414.258	442.38
414.482	440.38
414.705	438.38
414.928	447.38
415.151	435.38
415.374	433.38
415.597	427.38
415.821	455.38
416.044	436.38
416.267	434.38
416.49	421.38
416.713	421.38
416.936	439.38
417.159	431.38
417.382	413.38
417.605	462.38
417.828	456.38
418.051	456.38
418.274	422.38
418.497	435.38
418.72	442.38
418.943	420.38
419.166	456.38
419.389	474.38
419.611	478.38
419.834	474.38
420.057	459.38
420.28	477.38
420.503	443.38
420.726	441.38
420.948	458.38
421.171	485.38
421.394	497.38
421.617	459.38
421.839	448.38
422.062	450.38
422.285	453.38
422.507	516.38
422.73	531.38
422.953	512.38
423.175	474.38
423.398	485.38
423.621	453.38
423.843	481.38
424.066	476.38
424.288	483.38
424.511	496.38
424.733	517.38
424.956	564.38
425.178	528.38
425.401	539.38
425.623	536.38
425.846	469.38
426.068	453.38
426.291	456.38
426.513	458.38
426.735	463.38
426.958	465.38
427.18	568.38
427.402	611.38
427.625	627.38
427.847	563.38
428.069	529.38
428.292	467.38
428.514	457.38
428.736	437.38
428.958	433.38
429.181	420.38
429.403	419.38
429.625	434.38
429.847	456.38
430.069	466.38
430.292	469.38
430.514	420.38
430.736	417.38
430.958	425.38
431.18	401.38
431.402	396.38
431.624	417.38
431.846	397.38
432.068	424.38
432.29	413.38
432.512	396.38
432.734	428.38
432.956	429.38
433.178	425.38
433.4	424.38
433.622	425.38
433.844	416.38
434.066	421.38
434.287	435.38
434.509	433.38
434.731	415.38
434.953	445.38
435.175	457.38
435.397	471.38
435.618	443.38
435.84	491.38
436.062	529.38
436.284	561.38
436.505	489.38
436.727	455.38
436.949	426.38
437.17	421.38
437.392	427.38
437.614	449.38
437.835	442.38
438.057	496.38
438.278	534.38
438.5	579.38
438.721	606.38
438.943	568.38
439.165	471.38
439.386	471.38
439.608	453.38
439.829	461.38
440.05	462.38
440.272	484.38
440.493	453.38
440.715	444.38
440.936	425.38
441.158	435.38
441.379	442.38
441.6	474.38
441.822	468.38
442.043	484.38
442.264	534.38
442.486	538.38
442.707	498.38
442.928	490.38
443.149	474.38
443.371	482.38
443.592	507.38
443.813	565.38
444.034	597.38
444.255	525.38
444.476	501.38
444.698	513.38
444.919	488.38
445.14	625.38
445.361	563.38
445.582	507.38
445.803	534.38
446.024	586.38
446.245	585.38
446.466	543.38
446.687	465.38
446.908	452.38
447.129	433.38
447.35	404.38
447.571	395.38
447.792	403.38
448.013	405.38
448.234	441.38
448.455	472.38
448.675	523.38
448.896	583.38
449.117	504.38
449.338	475.38
449.559	534.38
449.779	591.38
450	495.38
450.221	444.38
450.442	413.38
450.662	412.38
450.883	403.38
451.104	415.38
451.324	439.38
451.545	401.38
451.766	404.38
451.986	390.38
452.207	382.38
452.428	376.38
452.648	379.38
452.869	376.38
453.089	389.38
453.31	371.38
453.53	376.38
453.751	381.38
453.971	399.38
454.192	391.38
454.412	375.38
454.633	369.38
454.853	358.38
455.073	365.38
455.294	394.38
455.514	439.38
455.734	431.38
455.955	377.38
456.175	376.38
456.395	364.38
456.616	347.38
456.836	346.38
457.056	346.38
457.276	364.38
457.497	370.38
457.717	371.38
457.937	356.38
458.157	377.38
458.377	375.38
458.598	411.38
458.818	421.38
459.038	476.38
459.258	503.38
459.478	427.38
459.698	426.38
459.918	434.38
460.138	443.38
460.358	439.38
460.578	460.38
460.798	454.38
461.018	441.38
461.238	441.38
461.458	454.38
461.678	452.38
461.898	423.38
462.118	445.38
462.338	464.38
462.558	478.38
462.777	471.38
462.997	482.38
463.217	519.38
463.437	521.38
463.657	488.38
463.876	489.38
464.096	480.38
464.316	508.38
464.536	475.38
464.755	461.38
464.975	498.38
465.195	499.38
465.414	508.38
465.634	459.38
465.854	433.38
466.073	420.38
466.293	410.38
466.512	406.38
466.732	405.38
466.951	400.38
467.171	378.38
467.391	388.38
467.61	415.38
467.829	403.38
468.049	384.38
468.268	387.38
468.488	396.38
468.707	387.38
468.927	407.38
469.146	403.38
469.365	400.38
469.585	385.38
469.804	406.38
470.023	412.38
470.243	405.38
470.462	400.38
470.681	424.38
470.901	430.38
471.12	408.38
471.339	401.38
471.558	385.38
471.777	406.38
471.997	397.38
472.216	407.38
472.435	436.38
472.654	395.38
472.873	377.38
473.092	383.38
473.311	389.38
473.53	391.38
473.749	400.38
473.968	423.38
474.187	465.38
474.406	486.38
474.625	426.38
474.844	417.38
475.063	391.38
475.282	405.38
475.501	399.38
475.72	398.38
475.939	386.38
476.158	379.38
476.377	402.38
476.596	397.38
476.814	406.38
477.033	414.38
477.252	435.38
477.471	420.38
477.69	443.38
477.908	437.38
478.127	441.38
478.346	455.38
478.564	443.38
478.783	467.38
479.002	451.38
479.22	457.38
479.439	463.38
479.658	455.38
479.876	477.38
480.095	488.38
480.313	498.38
480.532	511.38
480.751	507.38
480.969	514.38
481.188	518.38
481.406	567.38
481.624	481.38
481.843	468.38
482.061	458.38
482.28	454.38
482.498	473.38
482.717	449.38
482.935	471.38
483.153	439.38
483.372	459.38
483.59	444.38
483.808	456.38
484.027	440.38
484.245	464.38
484.463	467.38
484.681	465.38
484.9	458.38
485.118	480.38
485.336	443.38
485.554	465.38
485.772	469.38
485.99	449.38
486.209	465.38
486.427	466.38
486.645	478.38
486.863	484.38
487.081	456.38
487.299	467.38
487.517	499.38
487.735	507.38
487.953	491.38
488.171	515.38
488.389	468.38
488.607	469.38
488.825	473.38
489.043	479.38
489.261	470.38
489.479	476.38
489.696	480.38
489.914	466.38
490.132	509.38
490.35	511.38
490.568	517.38
490.786	529.38
491.003	527.38
491.221	515.38
491.439	542.38
491.657	538.38
491.874	546.38
492.092	555.38
492.31	590.38
492.527	562.38
492.745	587.38
492.963	556.38
493.18	561.38
493.398	575.38
493.615	573.38
493.833	584.38
494.05	565.38
494.268	585.38
494.485	578.38
494.703	556.38
494.92	567.38
495.138	574.38
495.355	561.38
495.573	570.38
495.79	551.38
496.008	571.38
496.225	570.38
496.442	554.38
496.66	572.38
496.877	575.38
497.094	559.38
497.312	580.38
497.529	626.38
497.746	609.38
497.963	605.38
498.181	629.38
498.398	651.38
498.615	665.38
498.832	680.38
499.049	706.38
499.267	739.38
499.484	803.38
499.701	820.38
499.918	873.38
500.135	930.38
500.352	984.38
500.569	1043.38
500.786	1011.38
501.003	961.38
501.22	921.38
501.437	869.38
501.654	817.38
501.871	801.38
502.088	735.38
502.305	698.38
502.522	675.38
502.739	639.38
502.956	639.38
503.172	608.38
503.389	589.38
503.606	602.38
503.823	609.38
504.04	582.38
504.256	581.38
504.473	606.38
504.69	593.38
504.907	581.38
505.123	563.38
505.34	578.38
505.557	557.38
505.773	542.38
505.99	538.38
506.207	533.38
506.423	519.38
506.64	529.38
506.856	523.38
507.073	527.38
507.289	520.38
507.506	515.38
507.722	517.38
507.939	531.38
508.155	537.38
508.372	515.38
508.588	502.38
508.805	507.38
509.021	477.38
509.238	517.38
509.454	514.38
509.67	487.38
509.887	507.38
510.103	478.38
510.319	476.38
510.536	546.38
510.752	801.38
510.968	679.38
511.184	500.38
511.401	478.38
511.617	478.38
511.833	467.38
512.049	451.38
512.265	463.38
512.481	457.38
512.698	481.38
512.914	460.38
513.13	465.38
513.346	466.38
513.562	469.38
513.778	460.38
513.994	488.38
514.21	456.38
514.426	492.38
514.642	503.38
514.858	527.38
515.074	525.38
515.29	623.38
515.506	847.38
515.721	721.38
515.937	528.38
516.153	498.38
516.369	519.38
516.585	505.38
516.801	515.38
517.016	523.38
517.232	525.38
517.448	516.38
517.664	523.38
517.879	562.38
518.095	533.38
518.311	535.38
518.527	513.38
518.742	516.38
518.958	507.38
519.173	487.38
519.389	509.38
519.605	457.38
519.82	479.38
520.036	477.38
520.251	471.38
520.467	513.38
520.682	491.38
520.898	471.38
521.113	488.38
521.329	508.38
521.544	568.38
521.76	679.38
521.975	1062.38
522.19	1055.38
522.406	616.38
522.621	515.38
522.836	460.38
523.052	451.38
523.267	439.38
523.482	429.38
523.698	423.38
523.913	421.38
524.128	436.38
524.343	421.38
524.559	402.38
524.774	401.38
524.989	389.38
525.204	408.38
525.419	414.38
525.634	397.38
525.849	407.38
526.064	384.38
526.28	389.38
526.495	377.38
526.71	412.38
526.925	378.38
527.14	379.38
527.355	384.38
527.57	393.38
527.785	375.38
527.999	396.38
528.214	405.38
528.429	406.38
528.644	399.38
528.859	385.38
529.074	383.38
529.289	419.38
529.503	464.38
529.718	440.38
529.933	399.38
530.148	376.38
530.363	371.38
530.577	385.38
530.792	379.38
531.007	379.38
531.221	391.38
531.436	385.38
531.651	380.38
531.865	366.38
532.08	369.38
532.295	360.38
532.509	391.38
532.724	390.38
532.938	393.38
533.153	380.38
533.367	367.38
533.582	399.38
533.796	371.38
534.011	382.38
534.225	375.38
534.44	351.38
534.654	371.38
534.868	381.38
535.083	372.38
535.297	361.38
535.511	363.38
535.726	391.38
535.94	382.38
536.154	388.38
536.369	385.38
536.583	378.38
536.797	365.38
537.011	361.38
537.225	339.38
537.44	372.38
537.654	364.38
537.868	361.38
538.082	367.38
538.296	361.38
538.51	355.38
538.724	352.38
538.938	355.38
539.153	347.38
539.367	365.38
539.581	360.38
539.795	372.38
540.009	361.38
540.222	356.38
540.436	369.38
540.65	369.38
540.864	355.38
541.078	378.38
541.292	365.38
541.506	381.38
541.72	354.38
541.934	359.38
542.147	353.38
542.361	372.38
542.575	353.38
542.789	354.38
543.002	358.38
543.216	361.38
543.43	365.38
543.644	362.38
543.857	368.38
544.071	364.38
544.285	367.38
544.498	377.38
544.712	374.38
544.925	387.38
545.139	369.38
545.352	348.38
545.566	379.38
545.779	373.38
545.993	361.38
546.206	371.38
546.42	361.38
546.633	363.38
546.847	368.38
547.06	353.38
547.274	367.38
547.487	369.38
547.7	384.38
547.914	375.38
548.127	360.38
548.34	358.38
548.554	362.38
548.767	346.38
548.98	373.38
549.193	356.38
549.407	360.38
549.62	360.38
549.833	385.38
550.046	372.38
550.259	364.38
550.473	365.38
550.686	374.38
550.899	350.38
551.112	347.38
551.325	371.38
551.538	346.38
551.751	349.38
551.964	367.38
552.177	359.38
552.39	339.38
552.603	381.38
552.816	374.38
553.029	373.38
553.242	375.38
553.455	389.38
553.667	393.38
553.88	383.38
554.093	376.38
554.306	405.38
554.519	383.38
554.732	371.38
554.944	371.38
555.157	339.38
555.37	344.38
555.583	347.38
555.795	351.38
556.008	337.38
556.221	323.38
556.433	335.38
556.646	329.38
556.859	340.38
557.071	327.38
557.284	323.38
557.496	328.38
557.709	307.38
557.921	331.38
558.134	326.38
558.346	315.38
558.559	325.38
558.771	324.38
558.984	307.38
559.196	320.38
559.409	320.38
559.621	323.38
559.833	325.38
560.046	315.38
560.258	298.38
560.47	311.38
560.683	321.38
560.895	307.38
561.107	321.38
561.32	319.38
561.532	324.38
561.744	313.38
561.956	324.38
562.168	320.38
562.381	307.38
562.593	307.38
562.805	307.38
563.017	311.38
563.229	326.38
563.441	327.38
563.653	334.38
563.865	311.38
564.077	331.38
564.289	331.38
564.501	329.38
564.713	327.38
564.925	344.38
565.137	331.38
565.349	344.38
565.561	349.38
565.773	360.38
565.985	369.38
566.197	383.38
566.408	380.38
566.62	393.38
566.832	457.38
567.044	420.38
567.255	426.38
567.467	441.38
567.679	449.38
567.891	489.38
568.102	474.38
568.314	461.38
568.526	440.38
568.737	411.38
568.949	393.38
569.161	371.38
569.372	364.38
569.584	333.38
569.795	323.38
570.007	335.38
570.218	342.38
570.43	349.38
570.641	333.38
570.853	325.38
571.064	322.38
571.276	339.38
571.487	320.38
571.698	292.38
571.91	307.38
572.121	308.38
572.333	305.38
572.544	292.38
572.755	274.38
572.966	298.38
573.178	291.38
573.389	292.38
573.6	288.38
573.811	287.38
574.023	281.38
574.234	278.38
574.445	267.38
574.656	272.38
574.867	268.38
575.078	273.38
575.289	270.38
575.501	275.38
575.712	282.38
575.923	265.38
576.134	284.38
576.345	275.38
576.556	261.38
576.767	271.38
576.978	277.38
577.188	266.38
577.399	271.38
577.61	264.38
577.821	258.38
578.032	259.38
578.243	265.38
578.454	412.38
578.665	309.38
578.875	262.38
579.086	256.38
579.297	274.38
579.508	263.38
579.718	242.38
579.929	259.38
580.14	259.38
580.35	251.38
580.561	252.38
580.772	243.38
580.982	258.38
581.193	239.38
581.403	251.38
581.614	252.38
581.825	242.38
582.035	252.38
582.246	247.38
582.456	263.38
582.667	260.38
582.877	261.38
583.087	248.38
583.298	245.38
583.508	239.38
583.719	232.38
583.929	247.38
584.139	228.38
584.35	253.38
584.56	259.38
584.77	245.38
584.981	240.38
585.191	246.38
585.401	243.38
585.611	226.38
585.821	246.38
586.032	271.38
586.242	232.38
586.452	229.38
586.662	242.38
586.872	247.38
587.082	246.38
587.292	248.38
587.502	242.38
587.713	257.38
587.923	246.38
588.133	237.38
588.343	246.38
588.553	242.38
588.762	242.38
588.972	254.38
589.182	232.38
589.392	226.38
589.602	244.38
589.812	242.38
590.022	232.38
590.232	229.38
590.441	233.38
590.651	247.38
590.861	239.38
591.071	258.38
591.281	259.38
591.49	260.38
591.7	243.38
591.91	259.38
592.119	234.38
592.329	274.38
592.539	279.38
592.748	265.38
592.958	271.38
593.167	288.38
593.377	283.38
593.587	276.38
593.796	288.38
594.006	275.38
594.215	284.38
594.424	294.38
594.634	279.38
594.843	274.38
595.053	272.38
595.262	243.38
595.472	245.38
595.681	248.38
595.89	252.38
596.1	253.38
596.309	244.38
596.518	245.38
596.727	242.38
596.937	237.38
597.146	243.38
597.355	215.38
597.564	228.38
597.774	241.38
597.983	212.38
598.192	227.38
598.401	232.38
598.61	227.38
598.819	229.38
599.028	201.38
599.237	199.38
599.446	211.38
599.655	224.38
599.864	221.38
600.073	216.38
600.282	223.38
600.491	221.38
600.7	217.38
600.909	219.38
601.118	217.38
601.327	220.38
601.536	219.38
601.745	212.38
601.953	208.38
602.162	215.38
602.371	205.38
602.58	210.38
602.789	224.38
602.997	212.38
603.206	214.38
603.415	224.38
603.623	220.38
603.832	197.38
604.041	218.38
604.249	213.38
604.458	198.38
604.666	206.38
604.875	204.38
605.084	200.38
605.292	216.38
605.501	200.38
605.709	207.38
605.918	209.38
606.126	200.38
606.334	205.38
606.543	208.38
606.751	200.38
606.96	221.38
607.168	210.38
607.376	194.38
607.585	212.38
607.793	212.38
608.001	204.38
608.21	210.38
608.418	220.38
608.626	190.38
608.834	213.38
609.043	199.38
609.251	200.38
609.459	206.38
609.667	207.38
609.875	202.38
610.083	207.38
610.291	202.38
610.499	199.38
610.707	209.38
610.916	241.38
611.124	235.38
611.332	236.38
611.54	226.38
611.748	213.38
611.955	193.38
612.163	208.38
612.371	202.38
612.579	198.38
612.787	193.38
612.995	211.38
613.203	201.38
613.411	210.38
613.618	202.38
613.826	200.38
614.034	210.38
614.242	187.38
614.449	198.38
614.657	202.38
614.865	209.38
615.072	207.38
615.28	195.38
615.488	205.38
615.695	179.38
615.903	207.38
616.111	205.38
616.318	218.38
616.526	223.38
616.733	201.38
616.941	218.38
617.148	203.38
617.356	212.38
617.563	203.38
617.771	193.38
617.978	183.38
618.185	205.38
618.393	195.38
618.6	200.38
618.807	202.38
619.015	217.38
619.222	204.38
619.429	202.38
619.637	201.38
619.844	189.38
620.051	206.38
620.258	187.38
620.466	196.38
620.673	190.38
620.88	191.38
621.087	194.38
621.294	184.38
621.501	184.38
621.708	185.38
621.915	205.38
622.122	186.38
622.329	192.38
622.536	200.38
622.743	181.38
622.95	198.38
623.157	198.38
623.364	197.38
623.571	207.38
623.778	204.38
623.985	194.38
624.192	196.38
624.399	179.38
624.606	189.38
624.812	187.38
625.019	180.38
625.226	184.38
625.433	179.38
625.639	186.38
625.846	188.38
626.053	171.38
626.259	175.38
626.466	191.38
626.673	176.38
626.879	185.38
627.086	185.38
627.293	199.38
627.499	172.38
627.706	190.38
627.912	184.38
628.119	180.38
628.325	177.38
628.532	183.38
628.738	185.38
628.945	181.38
629.151	193.38
629.357	189.38
629.564	160.38
629.77	159.38
629.976	171.38
630.183	191.38
630.389	173.38
630.595	164.38
630.802	164.38
631.008	172.38
631.214	174.38
631.42	167.38
631.627	185.38
631.833	168.38
632.039	174.38
632.245	161.38
632.451	168.38
632.657	164.38
632.863	167.38
633.069	176.38
633.275	153.38
633.481	163.38
633.688	148.38
633.893	152.38
634.099	160.38
634.305	150.38
634.511	149.38
634.717	168.38
634.923	163.38
635.129	156.38
635.335	173.38
635.541	167.38
635.747	155.38
635.952	170.38
636.158	148.38
636.364	185.38
636.57	156.38
636.775	167.38
636.981	171.38
637.187	156.38
637.392	146.38
637.598	169.38
637.804	169.38
638.009	148.38
638.215	172.38
638.421	151.38
638.626	151.38
638.832	158.38
639.037	157.38
639.243	159.38
639.448	149.38
639.654	156.38
639.859	163.38
640.065	170.38
640.27	156.38
640.475	141.38
640.681	155.38
640.886	156.38
641.091	162.38
641.297	157.38
641.502	151.38
641.707	153.38
641.913	154.38
642.118	154.38
642.323	144.38
642.528	145.38
642.733	150.38
642.939	146.38
643.144	139.38
643.349	151.38
643.554	153.38
643.759	141.38
643.964	135.38
644.169	151.38
644.374	147.38
644.579	158.38
644.784	157.38
644.989	141.38
645.194	149.38
645.399	162.38
645.604	169.38
645.809	146.38
646.014	139.38
646.219	152.38
646.423	166.38
646.628	142.38
646.833	151.38
647.038	146.38
647.243	147.38
647.447	157.38
647.652	146.38
647.857	154.38
648.062	155.38
648.266	155.38
648.471	157.38
648.676	176.38
648.88	152.38
649.085	157.38
649.289	154.38
649.494	155.38
649.698	157.38
649.903	171.38
650.107	151.38
650.312	159.38
650.516	137.38
650.721	139.38
650.925	138.38
651.13	161.38
651.334	141.38
651.539	134.38
651.743	131.38
651.947	135.38
652.152	134.38
652.356	139.38
652.56	148.38
652.764	137.38
652.969	133.38
653.173	140.38
653.377	118.38
653.581	132.38
653.785	117.38
653.99	123.38
654.194	141.38
654.398	126.38
654.602	116.38
654.806	115.38
655.01	121.38
655.214	152.38
655.418	142.38
655.622	139.38
655.826	114.38
656.03	122.38
656.234	130.38
656.438	136.38
656.642	128.38
656.846	137.38
657.049	124.38
657.253	127.38
657.457	118.38
657.661	116.38
657.865	120.38
658.068	111.38
658.272	109.38
658.476	106.38
658.68	99.38
658.883	111.38
659.087	105.38
659.291	106.38
659.494	96.38
659.698	103.38
659.901	100.38
660.105	103.38
660.309	100.38
660.512	101.38
660.716	95.38
660.919	104.38
661.123	105.38
661.326	89.38
661.53	96.38
661.733	85.38
661.936	97.38
662.14	92.38
662.343	93.38
662.546	97.38
662.75	84.38
662.953	87.38
663.156	81.38
663.36	80.38
663.563	63.38
663.766	73.38
663.969	91.38
664.173	86.38
664.376	96.38
664.579	74.38
664.782	82.38
664.985	77.38
665.188	87.38
665.391	90.38
665.594	89.38
665.797	80.38
666	90.38
666.203	88.38
666.406	90.38
666.609	80.38
666.812	86.38
667.015	76.38
667.218	92.38
667.421	81.38
667.624	90.38
667.827	87.38
668.03	84.38
668.232	81.38
668.435	71.38
668.638	72.38
668.841	82.38
669.043	71.38
669.246	91.38
669.449	84.38
669.651	76.38
669.854	91.38
670.057	80.38
670.259	70.38
670.462	97.38
670.665	78.38
670.867	72.38
671.07	86.38
671.272	83.38
671.475	75.38
671.677	82.38
671.88	72.38
672.082	90.38
672.284	86.38
672.487	72.38
672.689	92.38
672.892	74.38
