Data from 1969.PennyLincolnUp.Lamp.En5.5.200Scan.071719.P1._HRD10591_14-54-50-971.txt Node
Date: Thu Jul 18 14:54:50 EDT 2019
User: cochatt
Spectrometer: HR+D1059
Trigger mode: 1
Integration Time (sec): 1.000000E-1
Scans to average: 1
Electric dark correction enabled: true
Nonlinearity correction enabled: false
Boxcar width: 0
XAxis mode: Wavelengths
Number of Pixels in Spectrum: 2048
>>>>>Begin Spectral Data<<<<<
223.165	-22.12
223.4	-22.12
223.635	-22.12
223.869	-11.12
224.104	-19.12
224.338	-15.12
224.573	-18.12
224.808	-3.12
225.042	0.88
225.277	-16.12
225.511	-2.12
225.746	1.88
225.98	20.88
226.215	21.88
226.449	6.88
226.683	18.88
226.918	10.88
227.152	24.88
227.387	47.88
227.621	38.88
227.856	43.88
228.09	38.88
228.324	45.88
228.559	52.88
228.793	66.88
229.027	74.88
229.262	78.88
229.496	88.88
229.73	107.88
229.964	128.88
230.199	111.88
230.433	105.88
230.667	102.88
230.901	93.88
231.136	102.88
231.37	92.88
231.604	90.88
231.838	103.88
232.072	118.88
232.306	114.88
232.541	94.88
232.775	109.88
233.009	94.88
233.243	101.88
233.477	102.88
233.711	114.88
233.945	92.88
234.179	97.88
234.413	114.88
234.647	104.88
234.881	112.88
235.115	111.88
235.349	120.88
235.583	107.88
235.817	113.88
236.051	106.88
236.285	109.88
236.519	108.88
236.753	113.88
236.987	123.88
237.221	140.88
237.455	176.88
237.689	135.88
237.922	110.88
238.156	114.88
238.39	104.88
238.624	125.88
238.858	106.88
239.091	114.88
239.325	116.88
239.559	122.88
239.793	115.88
240.027	118.88
240.26	131.88
240.494	139.88
240.728	147.88
240.961	138.88
241.195	131.88
241.429	124.88
241.662	114.88
241.896	130.88
242.13	107.88
242.363	111.88
242.597	130.88
242.83	125.88
243.064	122.88
243.298	120.88
243.531	128.88
243.765	127.88
243.998	121.88
244.232	120.88
244.465	119.88
244.699	119.88
244.932	137.88
245.166	128.88
245.399	108.88
245.633	118.88
245.866	116.88
246.099	128.88
246.333	141.88
246.566	132.88
246.8	135.88
247.033	124.88
247.266	134.88
247.5	138.88
247.733	136.88
247.966	154.88
248.2	145.88
248.433	140.88
248.666	157.88
248.899	152.88
249.133	157.88
249.366	173.88
249.599	151.88
249.832	147.88
250.066	157.88
250.299	139.88
250.532	155.88
250.765	159.88
250.998	159.88
251.231	179.88
251.465	173.88
251.698	163.88
251.931	162.88
252.164	170.88
252.397	155.88
252.63	171.88
252.863	158.88
253.096	180.88
253.329	182.88
253.562	181.88
253.795	177.88
254.028	191.88
254.261	189.88
254.494	186.88
254.727	214.88
254.96	206.88
255.193	200.88
255.426	189.88
255.659	174.88
255.892	188.88
256.124	198.88
256.357	165.88
256.59	180.88
256.823	171.88
257.056	184.88
257.289	162.88
257.521	181.88
257.754	182.88
257.987	184.88
258.22	162.88
258.452	176.88
258.685	191.88
258.918	166.88
259.151	163.88
259.383	171.88
259.616	172.88
259.849	195.88
260.081	201.88
260.314	194.88
260.547	185.88
260.779	187.88
261.012	198.88
261.244	190.88
261.477	179.88
261.71	183.88
261.942	178.88
262.175	176.88
262.407	193.88
262.64	194.88
262.872	182.88
263.105	187.88
263.337	167.88
263.57	178.88
263.802	198.88
264.035	167.88
264.267	165.88
264.499	170.88
264.732	197.88
264.964	199.88
265.197	210.88
265.429	196.88
265.661	186.88
265.894	185.88
266.126	178.88
266.358	188.88
266.591	187.88
266.823	186.88
267.055	196.88
267.287	182.88
267.52	191.88
267.752	192.88
267.984	195.88
268.216	198.88
268.448	213.88
268.681	193.88
268.913	216.88
269.145	224.88
269.377	221.88
269.609	208.88
269.841	215.88
270.073	231.88
270.306	226.88
270.538	233.88
270.77	249.88
271.002	235.88
271.234	219.88
271.466	228.88
271.698	253.88
271.93	243.88
272.162	260.88
272.394	261.88
272.626	230.88
272.858	247.88
273.09	229.88
273.322	229.88
273.553	207.88
273.785	247.88
274.017	228.88
274.249	202.88
274.481	229.88
274.713	225.88
274.945	233.88
275.176	210.88
275.408	209.88
275.64	208.88
275.872	224.88
276.104	228.88
276.335	235.88
276.567	215.88
276.799	238.88
277.031	247.88
277.262	268.88
277.494	260.88
277.726	248.88
277.957	236.88
278.189	237.88
278.421	247.88
278.652	214.88
278.884	229.88
279.115	220.88
279.347	231.88
279.579	221.88
279.81	228.88
280.042	230.88
280.273	236.88
280.505	220.88
280.736	222.88
280.968	220.88
281.199	220.88
281.431	235.88
281.662	220.88
281.894	242.88
282.125	227.88
282.356	238.88
282.588	253.88
282.819	242.88
283.051	220.88
283.282	230.88
283.513	249.88
283.745	256.88
283.976	251.88
284.207	247.88
284.439	227.88
284.67	231.88
284.901	238.88
285.132	236.88
285.364	260.88
285.595	245.88
285.826	237.88
286.057	240.88
286.288	246.88
286.52	242.88
286.751	255.88
286.982	242.88
287.213	242.88
287.444	261.88
287.675	271.88
287.906	266.88
288.138	262.88
288.369	243.88
288.6	284.88
288.831	251.88
289.062	248.88
289.293	254.88
289.524	230.88
289.755	263.88
289.986	246.88
290.217	249.88
290.448	250.88
290.679	249.88
290.91	240.88
291.141	244.88
291.371	234.88
291.602	250.88
291.833	244.88
292.064	238.88
292.295	251.88
292.526	264.88
292.757	265.88
292.987	252.88
293.218	251.88
293.449	260.88
293.68	250.88
293.91	230.88
294.141	260.88
294.372	270.88
294.603	272.88
294.833	254.88
295.064	262.88
295.295	266.88
295.525	249.88
295.756	263.88
295.987	271.88
296.217	263.88
296.448	269.88
296.679	264.88
296.909	281.88
297.14	288.88
297.37	288.88
297.601	269.88
297.831	265.88
298.062	269.88
298.292	272.88
298.523	273.88
298.753	268.88
298.984	279.88
299.214	296.88
299.445	272.88
299.675	262.88
299.905	265.88
300.136	271.88
300.366	266.88
300.597	279.88
300.827	283.88
301.057	276.88
301.288	296.88
301.518	283.88
301.748	280.88
301.979	283.88
302.209	285.88
302.439	284.88
302.669	296.88
302.9	264.88
303.13	287.88
303.36	292.88
303.59	282.88
303.82	288.88
304.051	290.88
304.281	280.88
304.511	287.88
304.741	262.88
304.971	302.88
305.201	296.88
305.431	276.88
305.661	294.88
305.891	287.88
306.121	278.88
306.352	295.88
306.582	280.88
306.812	282.88
307.042	289.88
307.272	276.88
307.502	292.88
307.731	307.88
307.961	303.88
308.191	274.88
308.421	296.88
308.651	291.88
308.881	299.88
309.111	292.88
309.341	285.88
309.571	280.88
309.8	281.88
310.03	308.88
310.26	314.88
310.49	303.88
310.72	292.88
310.949	307.88
311.179	314.88
311.409	313.88
311.639	295.88
311.868	307.88
312.098	302.88
312.328	302.88
312.557	311.88
312.787	312.88
313.017	312.88
313.246	320.88
313.476	315.88
313.706	309.88
313.935	304.88
314.165	318.88
314.394	312.88
314.624	320.88
314.853	326.88
315.083	314.88
315.312	326.88
315.542	312.88
315.771	325.88
316.001	308.88
316.23	314.88
316.46	318.88
316.689	304.88
316.919	322.88
317.148	317.88
317.377	314.88
317.607	317.88
317.836	310.88
318.065	320.88
318.295	292.88
318.524	316.88
318.753	308.88
318.983	319.88
319.212	304.88
319.441	320.88
319.67	319.88
319.9	326.88
320.129	325.88
320.358	325.88
320.587	330.88
320.816	315.88
321.046	322.88
321.275	332.88
321.504	314.88
321.733	336.88
321.962	331.88
322.191	332.88
322.42	333.88
322.649	341.88
322.878	334.88
323.108	358.88
323.337	356.88
323.566	367.88
323.795	375.88
324.024	385.88
324.253	455.88
324.482	566.88
324.71	829.88
324.939	1053.88
325.168	890.88
325.397	504.88
325.626	415.88
325.855	365.88
326.084	374.88
326.313	357.88
326.542	376.88
326.77	395.88
326.999	443.88
327.228	536.88
327.457	726.88
327.686	811.88
327.914	584.88
328.143	458.88
328.372	390.88
328.6	415.88
328.829	387.88
329.058	408.88
329.287	393.88
329.515	392.88
329.744	385.88
329.972	376.88
330.201	406.88
330.43	415.88
330.658	412.88
330.887	433.88
331.115	419.88
331.344	389.88
331.572	382.88
331.801	393.88
332.03	398.88
332.258	378.88
332.486	373.88
332.715	375.88
332.943	406.88
333.172	386.88
333.4	392.88
333.629	426.88
333.857	412.88
334.085	427.88
334.314	425.88
334.542	429.88
334.771	446.88
334.999	411.88
335.227	390.88
335.455	381.88
335.684	397.88
335.912	382.88
336.14	378.88
336.369	369.88
336.597	378.88
336.825	369.88
337.053	375.88
337.281	370.88
337.51	378.88
337.738	358.88
337.966	370.88
338.194	350.88
338.422	365.88
338.65	363.88
338.878	360.88
339.106	340.88
339.334	359.88
339.562	340.88
339.79	343.88
340.018	352.88
340.246	352.88
340.474	359.88
340.702	347.88
340.93	328.88
341.158	332.88
341.386	344.88
341.614	332.88
341.842	356.88
342.07	342.88
342.298	342.88
342.526	345.88
342.754	328.88
342.981	358.88
343.209	331.88
343.437	357.88
343.665	361.88
343.893	377.88
344.12	390.88
344.348	404.88
344.576	373.88
344.804	363.88
345.031	374.88
345.259	350.88
345.487	354.88
345.714	360.88
345.942	342.88
346.17	342.88
346.397	336.88
346.625	336.88
346.853	322.88
347.08	327.88
347.308	355.88
347.535	331.88
347.763	323.88
347.99	345.88
348.218	335.88
348.445	334.88
348.673	334.88
348.9	347.88
349.128	347.88
349.355	323.88
349.583	322.88
349.81	326.88
350.037	315.88
350.265	316.88
350.492	321.88
350.72	323.88
350.947	325.88
351.174	325.88
351.402	351.88
351.629	330.88
351.856	342.88
352.083	324.88
352.311	335.88
352.538	329.88
352.765	335.88
352.992	326.88
353.22	331.88
353.447	328.88
353.674	318.88
353.901	324.88
354.128	325.88
354.355	329.88
354.583	309.88
354.81	311.88
355.037	325.88
355.264	317.88
355.491	316.88
355.718	321.88
355.945	301.88
356.172	328.88
356.399	312.88
356.626	326.88
356.853	317.88
357.08	308.88
357.307	322.88
357.534	324.88
357.761	327.88
357.988	325.88
358.215	326.88
358.441	318.88
358.668	312.88
358.895	307.88
359.122	329.88
359.349	319.88
359.576	326.88
359.802	317.88
360.029	337.88
360.256	358.88
360.483	357.88
360.709	339.88
360.936	324.88
361.163	331.88
361.39	332.88
361.616	335.88
361.843	308.88
362.07	322.88
362.296	336.88
362.523	320.88
362.749	325.88
362.976	321.88
363.203	312.88
363.429	316.88
363.656	309.88
363.882	307.88
364.109	310.88
364.335	319.88
364.562	321.88
364.788	312.88
365.015	327.88
365.241	312.88
365.468	329.88
365.694	310.88
365.92	322.88
366.147	325.88
366.373	311.88
366.599	324.88
366.826	315.88
367.052	324.88
367.278	320.88
367.505	326.88
367.731	317.88
367.957	324.88
368.184	319.88
368.41	318.88
368.636	322.88
368.862	324.88
369.089	311.88
369.315	333.88
369.541	321.88
369.767	319.88
369.993	310.88
370.219	341.88
370.445	319.88
370.672	331.88
370.898	326.88
371.124	319.88
371.35	335.88
371.576	331.88
371.802	329.88
372.028	323.88
372.254	330.88
372.48	321.88
372.706	342.88
372.932	352.88
373.158	337.88
373.384	341.88
373.61	325.88
373.835	319.88
374.061	320.88
374.287	336.88
374.513	347.88
374.739	331.88
374.965	350.88
375.191	350.88
375.416	370.88
375.642	358.88
375.868	326.88
376.094	343.88
376.319	340.88
376.545	331.88
376.771	345.88
376.997	334.88
377.222	334.88
377.448	299.88
377.674	328.88
377.899	336.88
378.125	316.88
378.35	322.88
378.576	321.88
378.802	330.88
379.027	329.88
379.253	316.88
379.478	316.88
379.704	312.88
379.929	334.88
380.155	317.88
380.38	314.88
380.606	333.88
380.831	331.88
381.057	322.88
381.282	333.88
381.507	339.88
381.733	343.88
381.958	326.88
382.184	328.88
382.409	332.88
382.634	312.88
382.86	346.88
383.085	345.88
383.31	320.88
383.535	352.88
383.761	325.88
383.986	354.88
384.211	346.88
384.436	337.88
384.662	365.88
384.887	378.88
385.112	356.88
385.337	359.88
385.562	353.88
385.787	363.88
386.013	368.88
386.238	365.88
386.463	383.88
386.688	374.88
386.913	377.88
387.138	378.88
387.363	365.88
387.588	365.88
387.813	362.88
388.038	357.88
388.263	371.88
388.488	365.88
388.713	374.88
388.938	384.88
389.163	374.88
389.387	364.88
389.612	361.88
389.837	375.88
390.062	366.88
390.287	370.88
390.512	372.88
390.736	345.88
390.961	380.88
391.186	396.88
391.411	370.88
391.636	381.88
391.86	391.88
392.085	381.88
392.31	391.88
392.534	392.88
392.759	382.88
392.984	365.88
393.208	380.88
393.433	375.88
393.658	386.88
393.882	377.88
394.107	352.88
394.331	372.88
394.556	368.88
394.78	383.88
395.005	362.88
395.229	378.88
395.454	395.88
395.678	378.88
395.903	394.88
396.127	371.88
396.352	388.88
396.576	372.88
396.801	374.88
397.025	388.88
397.249	381.88
397.474	388.88
397.698	386.88
397.922	396.88
398.147	397.88
398.371	446.88
398.595	421.88
398.82	421.88
399.044	435.88
399.268	474.88
399.492	487.88
399.717	564.88
399.941	530.88
400.165	536.88
400.389	506.88
400.613	446.88
400.837	445.88
401.062	453.88
401.286	439.88
401.51	423.88
401.734	431.88
401.958	414.88
402.182	414.88
402.406	445.88
402.63	432.88
402.854	443.88
403.078	463.88
403.302	427.88
403.526	462.88
403.75	456.88
403.974	451.88
404.198	454.88
404.422	484.88
404.645	464.88
404.869	451.88
405.093	478.88
405.317	492.88
405.541	512.88
405.765	498.88
405.988	468.88
406.212	460.88
406.436	469.88
406.66	500.88
406.883	491.88
407.107	501.88
407.331	538.88
407.555	556.88
407.778	549.88
408.002	515.88
408.226	485.88
408.449	466.88
408.673	486.88
408.896	485.88
409.12	499.88
409.344	482.88
409.567	460.88
409.791	438.88
410.014	447.88
410.238	450.88
410.461	458.88
410.685	443.88
410.908	438.88
411.132	464.88
411.355	472.88
411.578	442.88
411.802	438.88
412.025	433.88
412.249	438.88
412.472	440.88
412.695	479.88
412.919	459.88
413.142	426.88
413.365	421.88
413.589	439.88
413.812	405.88
414.035	418.88
414.258	425.88
414.482	431.88
414.705	422.88
414.928	415.88
415.151	399.88
415.374	423.88
415.597	414.88
415.821	418.88
416.044	415.88
416.267	424.88
416.49	401.88
416.713	414.88
416.936	439.88
417.159	412.88
417.382	415.88
417.605	411.88
417.828	430.88
418.051	422.88
418.274	446.88
418.497	420.88
418.72	413.88
418.943	424.88
419.166	438.88
419.389	464.88
419.611	458.88
419.834	437.88
420.057	445.88
420.28	435.88
420.503	445.88
420.726	442.88
420.948	420.88
421.171	447.88
421.394	460.88
421.617	436.88
421.839	447.88
422.062	427.88
422.285	454.88
422.507	484.88
422.73	494.88
422.953	475.88
423.175	444.88
423.398	435.88
423.621	467.88
423.843	475.88
424.066	451.88
424.288	456.88
424.511	471.88
424.733	471.88
424.956	514.88
425.178	503.88
425.401	480.88
425.623	513.88
425.846	450.88
426.068	460.88
426.291	443.88
426.513	426.88
426.735	429.88
426.958	465.88
427.18	479.88
427.402	571.88
427.625	581.88
427.847	546.88
428.069	486.88
428.292	446.88
428.514	422.88
428.736	410.88
428.958	405.88
429.181	392.88
429.403	410.88
429.625	420.88
429.847	422.88
430.069	441.88
430.292	435.88
430.514	408.88
430.736	399.88
430.958	399.88
431.18	388.88
431.402	386.88
431.624	401.88
431.846	390.88
432.068	394.88
432.29	407.88
432.512	379.88
432.734	402.88
432.956	384.88
433.178	394.88
433.4	398.88
433.622	383.88
433.844	374.88
434.066	406.88
434.287	393.88
434.509	419.88
434.731	417.88
434.953	397.88
435.175	450.88
435.397	444.88
435.618	438.88
435.84	450.88
436.062	512.88
436.284	507.88
436.505	445.88
436.727	422.88
436.949	398.88
437.17	391.88
437.392	400.88
437.614	414.88
437.835	398.88
438.057	445.88
438.278	488.88
438.5	495.88
438.721	552.88
438.943	541.88
439.165	438.88
439.386	427.88
439.608	428.88
439.829	414.88
440.05	428.88
440.272	458.88
440.493	431.88
440.715	438.88
440.936	410.88
441.158	413.88
441.379	424.88
441.6	435.88
441.822	450.88
442.043	467.88
442.264	493.88
442.486	528.88
442.707	468.88
442.928	436.88
443.149	453.88
443.371	479.88
443.592	483.88
443.813	543.88
444.034	547.88
444.255	484.88
444.476	478.88
444.698	476.88
444.919	494.88
445.14	554.88
445.361	501.88
445.582	470.88
445.803	516.88
446.024	562.88
446.245	519.88
446.466	494.88
446.687	438.88
446.908	418.88
447.129	412.88
447.35	422.88
447.571	398.88
447.792	386.88
448.013	396.88
448.234	412.88
448.455	422.88
448.675	504.88
448.896	553.88
449.117	467.88
449.338	463.88
449.559	512.88
449.779	550.88
450	485.88
450.221	399.88
450.442	364.88
450.662	396.88
450.883	390.88
451.104	408.88
451.324	377.88
451.545	382.88
451.766	375.88
451.986	362.88
452.207	359.88
452.428	358.88
452.648	374.88
452.869	354.88
453.089	398.88
453.31	355.88
453.53	342.88
453.751	372.88
453.971	355.88
454.192	356.88
454.412	377.88
454.633	354.88
454.853	346.88
455.073	355.88
455.294	362.88
455.514	390.88
455.734	406.88
455.955	367.88
456.175	341.88
456.395	328.88
456.616	350.88
456.836	335.88
457.056	342.88
457.276	340.88
457.497	351.88
457.717	349.88
457.937	334.88
458.157	351.88
458.377	365.88
458.598	388.88
458.818	380.88
459.038	449.88
459.258	444.88
459.478	425.88
459.698	382.88
459.918	388.88
460.138	392.88
460.358	406.88
460.578	424.88
460.798	423.88
461.018	428.88
461.238	411.88
461.458	424.88
461.678	430.88
461.898	432.88
462.118	426.88
462.338	452.88
462.558	457.88
462.777	470.88
462.997	472.88
463.217	490.88
463.437	490.88
463.657	481.88
463.876	460.88
464.096	469.88
464.316	466.88
464.536	460.88
464.755	452.88
464.975	458.88
465.195	462.88
465.414	469.88
465.634	440.88
465.854	416.88
466.073	394.88
466.293	394.88
466.512	382.88
466.732	389.88
466.951	378.88
467.171	368.88
467.391	374.88
467.61	372.88
467.829	378.88
468.049	384.88
468.268	390.88
468.488	372.88
468.707	363.88
468.927	352.88
469.146	377.88
469.365	379.88
469.585	370.88
469.804	370.88
470.023	376.88
470.243	412.88
470.462	377.88
470.681	410.88
470.901	397.88
471.12	383.88
471.339	400.88
471.558	375.88
471.777	377.88
471.997	372.88
472.216	380.88
472.435	389.88
472.654	399.88
472.873	403.88
473.092	358.88
473.311	368.88
473.53	379.88
473.749	382.88
473.968	380.88
474.187	444.88
474.406	438.88
474.625	408.88
474.844	366.88
475.063	367.88
475.282	375.88
475.501	381.88
475.72	364.88
475.939	375.88
476.158	393.88
476.377	381.88
476.596	373.88
476.814	396.88
477.033	390.88
477.252	394.88
477.471	399.88
477.69	410.88
477.908	433.88
478.127	418.88
478.346	428.88
478.564	438.88
478.783	436.88
479.002	435.88
479.22	446.88
479.439	454.88
479.658	444.88
479.876	465.88
480.095	464.88
480.313	475.88
480.532	476.88
480.751	476.88
480.969	471.88
481.188	487.88
481.406	478.88
481.624	438.88
481.843	447.88
482.061	427.88
482.28	463.88
482.498	447.88
482.717	429.88
482.935	419.88
483.153	438.88
483.372	415.88
483.59	441.88
483.808	421.88
484.027	429.88
484.245	412.88
484.463	426.88
484.681	450.88
484.9	429.88
485.118	432.88
485.336	438.88
485.554	447.88
485.772	473.88
485.99	455.88
486.209	461.88
486.427	478.88
486.645	471.88
486.863	460.88
487.081	459.88
487.299	439.88
487.517	438.88
487.735	463.88
487.953	462.88
488.171	467.88
488.389	458.88
488.607	481.88
488.825	435.88
489.043	450.88
489.261	456.88
489.479	454.88
489.696	454.88
489.914	464.88
490.132	469.88
490.35	494.88
490.568	508.88
490.786	476.88
491.003	484.88
491.221	508.88
491.439	519.88
491.657	512.88
491.874	499.88
492.092	500.88
492.31	537.88
492.527	528.88
492.745	517.88
492.963	531.88
493.18	526.88
493.398	551.88
493.615	529.88
493.833	540.88
494.05	540.88
494.268	508.88
494.485	518.88
494.703	540.88
494.92	542.88
495.138	543.88
495.355	538.88
495.573	558.88
495.79	524.88
496.008	548.88
496.225	536.88
496.442	531.88
496.66	528.88
496.877	529.88
497.094	527.88
497.312	557.88
497.529	578.88
497.746	558.88
497.963	572.88
498.181	592.88
498.398	596.88
498.615	622.88
498.832	644.88
499.049	660.88
499.267	701.88
499.484	755.88
499.701	767.88
499.918	823.88
500.135	863.88
500.352	954.88
500.569	988.88
500.786	966.88
501.003	939.88
501.22	876.88
501.437	825.88
501.654	764.88
501.871	738.88
502.088	704.88
502.305	657.88
502.522	647.88
502.739	639.88
502.956	603.88
503.172	575.88
503.389	591.88
503.606	586.88
503.823	571.88
504.04	539.88
504.256	545.88
504.473	558.88
504.69	568.88
504.907	562.88
505.123	524.88
505.34	524.88
505.557	497.88
505.773	498.88
505.99	492.88
506.207	481.88
506.423	514.88
506.64	486.88
506.856	468.88
507.073	482.88
507.289	487.88
507.506	492.88
507.722	495.88
507.939	474.88
508.155	467.88
508.372	463.88
508.588	447.88
508.805	457.88
509.021	471.88
509.238	482.88
509.454	468.88
509.67	459.88
509.887	476.88
510.103	470.88
510.319	452.88
510.536	491.88
510.752	684.88
510.968	608.88
511.184	448.88
511.401	420.88
511.617	447.88
511.833	429.88
512.049	446.88
512.265	448.88
512.481	438.88
512.698	431.88
512.914	429.88
513.13	437.88
513.346	434.88
513.562	448.88
513.778	427.88
513.994	450.88
514.21	451.88
514.426	458.88
514.642	470.88
514.858	464.88
515.074	482.88
515.29	548.88
515.506	752.88
515.721	655.88
515.937	508.88
516.153	482.88
516.369	482.88
516.585	477.88
516.801	496.88
517.016	498.88
517.232	476.88
517.448	516.88
517.664	520.88
517.879	522.88
518.095	504.88
518.311	499.88
518.527	489.88
518.742	469.88
518.958	470.88
519.173	474.88
519.389	461.88
519.605	455.88
519.82	451.88
520.036	453.88
520.251	464.88
520.467	461.88
520.682	454.88
520.898	479.88
521.113	464.88
521.329	461.88
521.544	509.88
521.76	578.88
521.975	894.88
522.19	900.88
522.406	559.88
522.621	447.88
522.836	429.88
523.052	422.88
523.267	423.88
523.482	396.88
523.698	394.88
523.913	418.88
524.128	403.88
524.343	418.88
524.559	403.88
524.774	390.88
524.989	385.88
525.204	391.88
525.419	370.88
525.634	400.88
525.849	398.88
526.064	352.88
526.28	367.88
526.495	385.88
526.71	374.88
526.925	353.88
527.14	382.88
527.355	387.88
527.57	377.88
527.785	345.88
527.999	364.88
528.214	375.88
528.429	388.88
528.644	383.88
528.859	386.88
529.074	384.88
529.289	386.88
529.503	420.88
529.718	400.88
529.933	372.88
530.148	381.88
530.363	377.88
530.577	379.88
530.792	370.88
531.007	363.88
531.221	364.88
531.436	368.88
531.651	355.88
531.865	375.88
532.08	366.88
532.295	371.88
532.509	356.88
532.724	368.88
532.938	361.88
533.153	361.88
533.367	364.88
533.582	375.88
533.796	369.88
534.011	355.88
534.225	372.88
534.44	367.88
534.654	361.88
534.868	337.88
535.083	343.88
535.297	350.88
535.511	374.88
535.726	381.88
535.94	380.88
536.154	366.88
536.369	356.88
536.583	356.88
536.797	356.88
537.011	362.88
537.225	346.88
537.44	358.88
537.654	352.88
537.868	358.88
538.082	360.88
538.296	339.88
538.51	362.88
538.724	344.88
538.938	363.88
539.153	360.88
539.367	353.88
539.581	326.88
539.795	354.88
540.009	354.88
540.222	337.88
540.436	372.88
540.65	335.88
540.864	328.88
541.078	348.88
541.292	345.88
541.506	352.88
541.72	354.88
541.934	357.88
542.147	386.88
542.361	378.88
542.575	361.88
542.789	356.88
543.002	360.88
543.216	347.88
543.43	361.88
543.644	368.88
543.857	350.88
544.071	363.88
544.285	376.88
544.498	360.88
544.712	372.88
544.925	370.88
545.139	364.88
545.352	342.88
545.566	363.88
545.779	358.88
545.993	353.88
546.206	357.88
546.42	373.88
546.633	352.88
546.847	336.88
547.06	362.88
547.274	354.88
547.487	331.88
547.7	343.88
547.914	368.88
548.127	338.88
548.34	357.88
548.554	352.88
548.767	354.88
548.98	360.88
549.193	347.88
549.407	359.88
549.62	345.88
549.833	363.88
550.046	360.88
550.259	358.88
550.473	333.88
550.686	363.88
550.899	374.88
551.112	343.88
551.325	344.88
551.538	331.88
551.751	337.88
551.964	344.88
552.177	372.88
552.39	365.88
552.603	364.88
552.816	374.88
553.029	351.88
553.242	384.88
553.455	372.88
553.667	385.88
553.88	370.88
554.093	378.88
554.306	363.88
554.519	374.88
554.732	346.88
554.944	336.88
555.157	358.88
555.37	338.88
555.583	336.88
555.795	346.88
556.008	349.88
556.221	328.88
556.433	317.88
556.646	320.88
556.859	323.88
557.071	301.88
557.284	299.88
557.496	315.88
557.709	319.88
557.921	312.88
558.134	313.88
558.346	293.88
558.559	313.88
558.771	306.88
558.984	293.88
559.196	330.88
559.409	317.88
559.621	301.88
559.833	317.88
560.046	298.88
560.258	293.88
560.47	310.88
560.683	329.88
560.895	292.88
561.107	322.88
561.32	314.88
561.532	318.88
561.744	312.88
561.956	310.88
562.168	314.88
562.381	318.88
562.593	312.88
562.805	315.88
563.017	322.88
563.229	312.88
563.441	316.88
563.653	331.88
563.865	329.88
564.077	319.88
564.289	330.88
564.501	310.88
564.713	317.88
564.925	326.88
565.137	346.88
565.349	365.88
565.561	343.88
565.773	356.88
565.985	365.88
566.197	366.88
566.408	396.88
566.62	383.88
566.832	406.88
567.044	416.88
567.255	431.88
567.467	431.88
567.679	451.88
567.891	491.88
568.102	485.88
568.314	450.88
568.526	418.88
568.737	402.88
568.949	370.88
569.161	361.88
569.372	333.88
569.584	327.88
569.795	332.88
570.007	321.88
570.218	346.88
570.43	322.88
570.641	312.88
570.853	322.88
571.064	315.88
571.276	314.88
571.487	295.88
571.698	301.88
571.91	300.88
572.121	290.88
572.333	287.88
572.544	284.88
572.755	287.88
572.966	280.88
573.178	272.88
573.389	265.88
573.6	285.88
573.811	261.88
574.023	248.88
574.234	262.88
574.445	254.88
574.656	263.88
574.867	279.88
575.078	278.88
575.289	247.88
575.501	264.88
575.712	247.88
575.923	282.88
576.134	270.88
576.345	268.88
576.556	271.88
576.767	251.88
576.978	266.88
577.188	245.88
577.399	263.88
577.61	260.88
577.821	251.88
578.032	255.88
578.243	286.88
578.454	372.88
578.665	297.88
578.875	247.88
579.086	252.88
579.297	267.88
579.508	262.88
579.718	248.88
579.929	237.88
580.14	250.88
580.35	258.88
580.561	248.88
580.772	251.88
580.982	244.88
581.193	239.88
581.403	247.88
581.614	250.88
581.825	245.88
582.035	231.88
582.246	224.88
582.456	252.88
582.667	254.88
582.877	239.88
583.087	230.88
583.298	244.88
583.508	253.88
583.719	237.88
583.929	263.88
584.139	239.88
584.35	245.88
584.56	262.88
584.77	242.88
584.981	239.88
585.191	243.88
585.401	250.88
585.611	225.88
585.821	236.88
586.032	228.88
586.242	251.88
586.452	235.88
586.662	250.88
586.872	230.88
587.082	230.88
587.292	233.88
587.502	247.88
587.713	235.88
587.923	233.88
588.133	234.88
588.343	210.88
588.553	235.88
588.762	238.88
588.972	230.88
589.182	233.88
589.392	227.88
589.602	231.88
589.812	229.88
590.022	238.88
590.232	243.88
590.441	247.88
590.651	248.88
590.861	233.88
591.071	238.88
591.281	245.88
591.49	252.88
591.7	233.88
591.91	254.88
592.119	227.88
592.329	249.88
592.539	263.88
592.748	274.88
592.958	270.88
593.167	258.88
593.377	267.88
593.587	275.88
593.796	274.88
594.006	273.88
594.215	274.88
594.424	295.88
594.634	270.88
594.843	266.88
595.053	242.88
595.262	249.88
595.472	242.88
595.681	250.88
595.89	227.88
596.1	234.88
596.309	240.88
596.518	255.88
596.727	246.88
596.937	221.88
597.146	222.88
597.355	227.88
597.564	225.88
597.774	222.88
597.983	215.88
598.192	220.88
598.401	223.88
598.61	226.88
598.819	232.88
599.028	222.88
599.237	204.88
599.446	215.88
599.655	200.88
599.864	218.88
600.073	224.88
600.282	216.88
600.491	221.88
600.7	194.88
600.909	206.88
601.118	198.88
601.327	234.88
601.536	211.88
601.745	227.88
601.953	204.88
602.162	205.88
602.371	213.88
602.58	204.88
602.789	222.88
602.997	205.88
603.206	203.88
603.415	215.88
603.623	219.88
603.832	222.88
604.041	212.88
604.249	199.88
604.458	192.88
604.666	205.88
604.875	199.88
605.084	196.88
605.292	212.88
605.501	204.88
605.709	220.88
605.918	207.88
606.126	202.88
606.334	202.88
606.543	204.88
606.751	195.88
606.96	194.88
607.168	208.88
607.376	208.88
607.585	221.88
607.793	193.88
608.001	195.88
608.21	193.88
608.418	200.88
608.626	192.88
608.834	212.88
609.043	208.88
609.251	218.88
609.459	197.88
609.667	199.88
609.875	191.88
610.083	208.88
610.291	209.88
610.499	196.88
610.707	194.88
610.916	206.88
611.124	204.88
611.332	223.88
611.54	210.88
611.748	198.88
611.955	208.88
612.163	213.88
612.371	198.88
612.579	199.88
612.787	203.88
612.995	210.88
613.203	204.88
613.411	185.88
613.618	188.88
613.826	199.88
614.034	204.88
614.242	216.88
614.449	205.88
614.657	202.88
614.865	205.88
615.072	191.88
615.28	191.88
615.488	217.88
615.695	198.88
615.903	210.88
616.111	208.88
616.318	200.88
616.526	212.88
616.733	196.88
616.941	205.88
617.148	200.88
617.356	197.88
617.563	190.88
617.771	200.88
617.978	210.88
618.185	189.88
618.393	200.88
618.6	205.88
618.807	194.88
619.015	196.88
619.222	216.88
619.429	192.88
619.637	217.88
619.844	190.88
620.051	201.88
620.258	195.88
620.466	194.88
620.673	196.88
620.88	186.88
621.087	196.88
621.294	188.88
621.501	201.88
621.708	198.88
621.915	199.88
622.122	190.88
622.329	209.88
622.536	204.88
622.743	179.88
622.95	187.88
623.157	185.88
623.364	201.88
623.571	170.88
623.778	192.88
623.985	198.88
624.192	210.88
624.399	169.88
624.606	165.88
624.812	189.88
625.019	187.88
625.226	174.88
625.433	177.88
625.639	180.88
625.846	173.88
626.053	204.88
626.259	182.88
626.466	173.88
626.673	187.88
626.879	172.88
627.086	178.88
627.293	188.88
627.499	188.88
627.706	174.88
627.912	180.88
628.119	173.88
628.325	172.88
628.532	174.88
628.738	176.88
628.945	174.88
629.151	169.88
629.357	194.88
629.564	178.88
629.77	172.88
629.976	189.88
630.183	169.88
630.389	171.88
630.595	175.88
630.802	175.88
631.008	166.88
631.214	183.88
631.42	195.88
631.627	184.88
631.833	179.88
632.039	162.88
632.245	172.88
632.451	167.88
632.657	163.88
632.863	168.88
633.069	171.88
633.275	180.88
633.481	161.88
633.688	159.88
633.893	182.88
634.099	159.88
634.305	152.88
634.511	169.88
634.717	163.88
634.923	157.88
635.129	172.88
635.335	153.88
635.541	162.88
635.747	168.88
635.952	159.88
636.158	156.88
636.364	165.88
636.57	158.88
636.775	151.88
636.981	153.88
637.187	164.88
637.392	162.88
637.598	147.88
637.804	152.88
638.009	140.88
638.215	151.88
638.421	152.88
638.626	162.88
638.832	156.88
639.037	162.88
639.243	146.88
639.448	137.88
639.654	152.88
639.859	151.88
640.065	164.88
640.27	154.88
640.475	158.88
640.681	159.88
640.886	151.88
641.091	149.88
641.297	159.88
641.502	142.88
641.707	156.88
641.913	150.88
642.118	166.88
642.323	156.88
642.528	163.88
642.733	146.88
642.939	160.88
643.144	155.88
643.349	157.88
643.554	151.88
643.759	155.88
643.964	144.88
644.169	154.88
644.374	155.88
644.579	148.88
644.784	159.88
644.989	156.88
645.194	143.88
645.399	152.88
645.604	141.88
645.809	155.88
646.014	143.88
646.219	165.88
646.423	155.88
646.628	147.88
646.833	165.88
647.038	132.88
647.243	152.88
647.447	142.88
647.652	150.88
647.857	146.88
648.062	141.88
648.266	163.88
648.471	162.88
648.676	160.88
648.88	161.88
649.085	150.88
649.289	138.88
649.494	146.88
649.698	138.88
649.903	150.88
650.107	149.88
650.312	151.88
650.516	152.88
650.721	141.88
650.925	140.88
651.13	141.88
651.334	145.88
651.539	144.88
651.743	128.88
651.947	138.88
652.152	146.88
652.356	133.88
652.56	132.88
652.764	110.88
652.969	130.88
653.173	127.88
653.377	128.88
653.581	128.88
653.785	134.88
653.99	119.88
654.194	122.88
654.398	125.88
654.602	126.88
654.806	134.88
655.01	126.88
655.214	122.88
655.418	127.88
655.622	139.88
655.826	128.88
656.03	127.88
656.234	140.88
656.438	126.88
656.642	127.88
656.846	136.88
657.049	124.88
657.253	114.88
657.457	120.88
657.661	114.88
657.865	105.88
658.068	119.88
658.272	110.88
658.476	105.88
658.68	104.88
658.883	96.88
659.087	97.88
659.291	101.88
659.494	97.88
659.698	116.88
659.901	105.88
660.105	87.88
660.309	96.88
660.512	94.88
660.716	101.88
660.919	94.88
661.123	102.88
661.326	101.88
661.53	87.88
661.733	94.88
661.936	85.88
662.14	90.88
662.343	86.88
662.546	91.88
662.75	99.88
662.953	95.88
663.156	84.88
663.36	93.88
663.563	90.88
663.766	73.88
663.969	85.88
664.173	81.88
664.376	79.88
664.579	74.88
664.782	79.88
664.985	88.88
665.188	79.88
665.391	97.88
665.594	79.88
665.797	91.88
666	89.88
666.203	81.88
666.406	87.88
666.609	96.88
666.812	87.88
667.015	83.88
667.218	90.88
667.421	76.88
667.624	70.88
667.827	77.88
668.03	79.88
668.232	74.88
668.435	95.88
668.638	77.88
668.841	87.88
669.043	89.88
669.246	82.88
669.449	75.88
669.651	87.88
669.854	79.88
670.057	77.88
670.259	82.88
670.462	75.88
670.665	86.88
670.867	76.88
671.07	83.88
671.272	84.88
671.475	95.88
671.677	84.88
671.88	88.88
672.082	84.88
672.284	91.88
672.487	79.88
672.689	89.88
672.892	77.88
