Data from 1969.PennyLincolnUp.Lamp.En5.5.200Scan.071719.P1._HRD10591_14-53-57-971.txt Node
Date: Thu Jul 18 14:53:57 EDT 2019
User: cochatt
Spectrometer: HR+D1059
Trigger mode: 1
Integration Time (sec): 1.000000E-1
Scans to average: 1
Electric dark correction enabled: true
Nonlinearity correction enabled: false
Boxcar width: 0
XAxis mode: Wavelengths
Number of Pixels in Spectrum: 2048
>>>>>Begin Spectral Data<<<<<
223.165	-6.12
223.4	-6.12
223.635	-6.12
223.869	-14.12
224.104	-18.12
224.338	-17.12
224.573	-21.12
224.808	-18.12
225.042	-6.12
225.277	9.88
225.511	-18.12
225.746	8.88
225.98	2.88
226.215	9.88
226.449	27.88
226.683	23.88
226.918	13.88
227.152	21.88
227.387	27.88
227.621	30.88
227.856	36.88
228.09	28.88
228.324	35.88
228.559	45.88
228.793	71.88
229.027	71.88
229.262	70.88
229.496	73.88
229.73	92.88
229.964	104.88
230.199	98.88
230.433	88.88
230.667	101.88
230.901	96.88
231.136	99.88
231.37	96.88
231.604	96.88
231.838	101.88
232.072	93.88
232.306	106.88
232.541	89.88
232.775	83.88
233.009	92.88
233.243	73.88
233.477	105.88
233.711	94.88
233.945	109.88
234.179	95.88
234.413	90.88
234.647	88.88
234.881	97.88
235.115	100.88
235.349	88.88
235.583	107.88
235.817	111.88
236.051	105.88
236.285	107.88
236.519	97.88
236.753	110.88
236.987	111.88
237.221	125.88
237.455	149.88
237.689	126.88
237.922	103.88
238.156	101.88
238.39	105.88
238.624	107.88
238.858	106.88
239.091	107.88
239.325	102.88
239.559	110.88
239.793	104.88
240.027	105.88
240.26	117.88
240.494	119.88
240.728	114.88
240.961	113.88
241.195	109.88
241.429	106.88
241.662	116.88
241.896	113.88
242.13	113.88
242.363	120.88
242.597	98.88
242.83	116.88
243.064	121.88
243.298	104.88
243.531	113.88
243.765	103.88
243.998	121.88
244.232	115.88
244.465	128.88
244.699	111.88
244.932	115.88
245.166	132.88
245.399	114.88
245.633	120.88
245.866	126.88
246.099	123.88
246.333	131.88
246.566	124.88
246.8	121.88
247.033	127.88
247.266	129.88
247.5	115.88
247.733	140.88
247.966	143.88
248.2	127.88
248.433	120.88
248.666	136.88
248.899	138.88
249.133	145.88
249.366	140.88
249.599	167.88
249.832	141.88
250.066	155.88
250.299	142.88
250.532	164.88
250.765	153.88
250.998	144.88
251.231	165.88
251.465	159.88
251.698	148.88
251.931	157.88
252.164	135.88
252.397	146.88
252.63	149.88
252.863	164.88
253.096	175.88
253.329	175.88
253.562	152.88
253.795	160.88
254.028	157.88
254.261	184.88
254.494	168.88
254.727	173.88
254.96	177.88
255.193	181.88
255.426	178.88
255.659	160.88
255.892	173.88
256.124	184.88
256.357	178.88
256.59	173.88
256.823	166.88
257.056	165.88
257.289	165.88
257.521	162.88
257.754	164.88
257.987	165.88
258.22	165.88
258.452	171.88
258.685	171.88
258.918	163.88
259.151	170.88
259.383	170.88
259.616	155.88
259.849	170.88
260.081	176.88
260.314	176.88
260.547	185.88
260.779	167.88
261.012	175.88
261.244	171.88
261.477	169.88
261.71	163.88
261.942	180.88
262.175	175.88
262.407	157.88
262.64	173.88
262.872	155.88
263.105	169.88
263.337	180.88
263.57	167.88
263.802	185.88
264.035	163.88
264.267	164.88
264.499	163.88
264.732	164.88
264.964	174.88
265.197	162.88
265.429	168.88
265.661	172.88
265.894	163.88
266.126	183.88
266.358	175.88
266.591	173.88
266.823	176.88
267.055	163.88
267.287	171.88
267.52	177.88
267.752	175.88
267.984	181.88
268.216	185.88
268.448	169.88
268.681	183.88
268.913	183.88
269.145	194.88
269.377	221.88
269.609	201.88
269.841	203.88
270.073	203.88
270.306	200.88
270.538	215.88
270.77	208.88
271.002	221.88
271.234	209.88
271.466	198.88
271.698	224.88
271.93	226.88
272.162	225.88
272.394	227.88
272.626	224.88
272.858	218.88
273.09	206.88
273.322	205.88
273.553	197.88
273.785	205.88
274.017	192.88
274.249	196.88
274.481	212.88
274.713	226.88
274.945	202.88
275.176	208.88
275.408	211.88
275.64	187.88
275.872	201.88
276.104	218.88
276.335	209.88
276.567	206.88
276.799	217.88
277.031	227.88
277.262	234.88
277.494	218.88
277.726	236.88
277.957	228.88
278.189	236.88
278.421	193.88
278.652	211.88
278.884	213.88
279.115	214.88
279.347	213.88
279.579	211.88
279.81	226.88
280.042	223.88
280.273	213.88
280.505	199.88
280.736	202.88
280.968	226.88
281.199	217.88
281.431	223.88
281.662	201.88
281.894	220.88
282.125	207.88
282.356	222.88
282.588	242.88
282.819	225.88
283.051	229.88
283.282	229.88
283.513	214.88
283.745	212.88
283.976	216.88
284.207	211.88
284.439	220.88
284.67	234.88
284.901	243.88
285.132	219.88
285.364	237.88
285.595	217.88
285.826	218.88
286.057	229.88
286.288	215.88
286.52	224.88
286.751	210.88
286.982	225.88
287.213	196.88
287.444	233.88
287.675	219.88
287.906	234.88
288.138	243.88
288.369	224.88
288.6	241.88
288.831	240.88
289.062	250.88
289.293	240.88
289.524	218.88
289.755	221.88
289.986	240.88
290.217	224.88
290.448	237.88
290.679	227.88
290.91	232.88
291.141	224.88
291.371	246.88
291.602	232.88
291.833	237.88
292.064	237.88
292.295	241.88
292.526	229.88
292.757	233.88
292.987	239.88
293.218	225.88
293.449	231.88
293.68	244.88
293.91	240.88
294.141	237.88
294.372	245.88
294.603	254.88
294.833	251.88
295.064	251.88
295.295	230.88
295.525	245.88
295.756	251.88
295.987	256.88
296.217	256.88
296.448	270.88
296.679	242.88
296.909	247.88
297.14	237.88
297.37	252.88
297.601	255.88
297.831	245.88
298.062	257.88
298.292	246.88
298.523	251.88
298.753	242.88
298.984	259.88
299.214	273.88
299.445	257.88
299.675	256.88
299.905	251.88
300.136	235.88
300.366	254.88
300.597	255.88
300.827	267.88
301.057	267.88
301.288	250.88
301.518	247.88
301.748	254.88
301.979	272.88
302.209	265.88
302.439	281.88
302.669	269.88
302.9	270.88
303.13	267.88
303.36	265.88
303.59	281.88
303.82	271.88
304.051	285.88
304.281	275.88
304.511	265.88
304.741	267.88
304.971	264.88
305.201	275.88
305.431	259.88
305.661	261.88
305.891	253.88
306.121	267.88
306.352	270.88
306.582	276.88
306.812	275.88
307.042	277.88
307.272	276.88
307.502	260.88
307.731	278.88
307.961	255.88
308.191	265.88
308.421	264.88
308.651	276.88
308.881	262.88
309.111	269.88
309.341	271.88
309.571	263.88
309.8	275.88
310.03	272.88
310.26	268.88
310.49	267.88
310.72	273.88
310.949	291.88
311.179	282.88
311.409	303.88
311.639	286.88
311.868	279.88
312.098	283.88
312.328	288.88
312.557	295.88
312.787	298.88
313.017	312.88
313.246	307.88
313.476	292.88
313.706	285.88
313.935	289.88
314.165	309.88
314.394	315.88
314.624	282.88
314.853	302.88
315.083	287.88
315.312	285.88
315.542	262.88
315.771	278.88
316.001	285.88
316.23	280.88
316.46	284.88
316.689	302.88
316.919	302.88
317.148	316.88
317.377	309.88
317.607	301.88
317.836	287.88
318.065	292.88
318.295	298.88
318.524	295.88
318.753	292.88
318.983	297.88
319.212	287.88
319.441	295.88
319.67	292.88
319.9	300.88
320.129	280.88
320.358	291.88
320.587	271.88
320.816	306.88
321.046	295.88
321.275	307.88
321.504	324.88
321.733	308.88
321.962	289.88
322.191	304.88
322.42	329.88
322.649	319.88
322.878	341.88
323.108	314.88
323.337	335.88
323.566	346.88
323.795	339.88
324.024	341.88
324.253	386.88
324.482	497.88
324.71	690.88
324.939	943.88
325.168	779.88
325.397	461.88
325.626	379.88
325.855	335.88
326.084	329.88
326.313	327.88
326.542	327.88
326.77	344.88
326.999	403.88
327.228	482.88
327.457	619.88
327.686	710.88
327.914	513.88
328.143	391.88
328.372	373.88
328.6	351.88
328.829	351.88
329.058	347.88
329.287	387.88
329.515	369.88
329.744	348.88
329.972	347.88
330.201	341.88
330.43	364.88
330.658	369.88
330.887	387.88
331.115	375.88
331.344	347.88
331.572	343.88
331.801	332.88
332.03	354.88
332.258	363.88
332.486	358.88
332.715	366.88
332.943	355.88
333.172	340.88
333.4	377.88
333.629	388.88
333.857	378.88
334.085	387.88
334.314	393.88
334.542	407.88
334.771	394.88
334.999	362.88
335.227	389.88
335.455	367.88
335.684	358.88
335.912	362.88
336.14	342.88
336.369	368.88
336.597	371.88
336.825	344.88
337.053	353.88
337.281	353.88
337.51	351.88
337.738	353.88
337.966	342.88
338.194	353.88
338.422	350.88
338.65	329.88
338.878	326.88
339.106	352.88
339.334	333.88
339.562	318.88
339.79	319.88
340.018	315.88
340.246	321.88
340.474	326.88
340.702	321.88
340.93	327.88
341.158	306.88
341.386	309.88
341.614	322.88
341.842	321.88
342.07	305.88
342.298	321.88
342.526	317.88
342.754	313.88
342.981	337.88
343.209	329.88
343.437	333.88
343.665	323.88
343.893	358.88
344.12	354.88
344.348	345.88
344.576	350.88
344.804	352.88
345.031	329.88
345.259	344.88
345.487	318.88
345.714	325.88
345.942	328.88
346.17	295.88
346.397	323.88
346.625	320.88
346.853	314.88
347.08	318.88
347.308	326.88
347.535	319.88
347.763	318.88
347.99	325.88
348.218	308.88
348.445	292.88
348.673	293.88
348.9	311.88
349.128	303.88
349.355	286.88
349.583	305.88
349.81	299.88
350.037	291.88
350.265	310.88
350.492	307.88
350.72	289.88
350.947	307.88
351.174	317.88
351.402	335.88
351.629	309.88
351.856	319.88
352.083	320.88
352.311	301.88
352.538	305.88
352.765	302.88
352.992	317.88
353.22	292.88
353.447	317.88
353.674	310.88
353.901	293.88
354.128	284.88
354.355	331.88
354.583	308.88
354.81	301.88
355.037	282.88
355.264	285.88
355.491	297.88
355.718	287.88
355.945	291.88
356.172	306.88
356.399	301.88
356.626	289.88
356.853	300.88
357.08	294.88
357.307	302.88
357.534	303.88
357.761	279.88
357.988	287.88
358.215	314.88
358.441	307.88
358.668	308.88
358.895	311.88
359.122	332.88
359.349	312.88
359.576	303.88
359.802	297.88
360.029	323.88
360.256	339.88
360.483	330.88
360.709	308.88
360.936	332.88
361.163	328.88
361.39	305.88
361.616	307.88
361.843	294.88
362.07	314.88
362.296	297.88
362.523	318.88
362.749	298.88
362.976	299.88
363.203	287.88
363.429	307.88
363.656	303.88
363.882	312.88
364.109	294.88
364.335	291.88
364.562	282.88
364.788	293.88
365.015	284.88
365.241	293.88
365.468	304.88
365.694	297.88
365.92	294.88
366.147	296.88
366.373	302.88
366.599	301.88
366.826	291.88
367.052	317.88
367.278	290.88
367.505	322.88
367.731	293.88
367.957	295.88
368.184	309.88
368.41	307.88
368.636	302.88
368.862	307.88
369.089	306.88
369.315	318.88
369.541	303.88
369.767	299.88
369.993	306.88
370.219	288.88
370.445	303.88
370.672	313.88
370.898	301.88
371.124	306.88
371.35	314.88
371.576	318.88
371.802	298.88
372.028	324.88
372.254	306.88
372.48	333.88
372.706	319.88
372.932	301.88
373.158	295.88
373.384	317.88
373.61	308.88
373.835	309.88
374.061	307.88
374.287	318.88
374.513	322.88
374.739	333.88
374.965	346.88
375.191	319.88
375.416	328.88
375.642	326.88
375.868	315.88
376.094	307.88
376.319	332.88
376.545	309.88
376.771	320.88
376.997	313.88
377.222	301.88
377.448	304.88
377.674	307.88
377.899	320.88
378.125	319.88
378.35	318.88
378.576	313.88
378.802	322.88
379.027	306.88
379.253	309.88
379.478	301.88
379.704	296.88
379.929	305.88
380.155	307.88
380.38	311.88
380.606	315.88
380.831	319.88
381.057	324.88
381.282	300.88
381.507	297.88
381.733	310.88
381.958	326.88
382.184	301.88
382.409	326.88
382.634	313.88
382.86	318.88
383.085	316.88
383.31	328.88
383.535	339.88
383.761	335.88
383.986	336.88
384.211	319.88
384.436	335.88
384.662	347.88
384.887	342.88
385.112	339.88
385.337	351.88
385.562	339.88
385.787	362.88
386.013	353.88
386.238	326.88
386.463	336.88
386.688	344.88
386.913	348.88
387.138	347.88
387.363	360.88
387.588	339.88
387.813	357.88
388.038	368.88
388.263	340.88
388.488	342.88
388.713	348.88
388.938	339.88
389.163	333.88
389.387	329.88
389.612	329.88
389.837	329.88
390.062	327.88
390.287	335.88
390.512	346.88
390.736	342.88
390.961	340.88
391.186	342.88
391.411	362.88
391.636	366.88
391.86	365.88
392.085	401.88
392.31	375.88
392.534	370.88
392.759	362.88
392.984	358.88
393.208	377.88
393.433	361.88
393.658	339.88
393.882	358.88
394.107	344.88
394.331	371.88
394.556	371.88
394.78	360.88
395.005	346.88
395.229	342.88
395.454	356.88
395.678	355.88
395.903	387.88
396.127	376.88
396.352	363.88
396.576	363.88
396.801	349.88
397.025	355.88
397.249	373.88
397.474	383.88
397.698	368.88
397.922	402.88
398.147	380.88
398.371	389.88
398.595	417.88
398.82	395.88
399.044	411.88
399.268	457.88
399.492	488.88
399.717	507.88
399.941	527.88
400.165	521.88
400.389	500.88
400.613	446.88
400.837	412.88
401.062	395.88
401.286	410.88
401.51	419.88
401.734	377.88
401.958	396.88
402.182	415.88
402.406	437.88
402.63	433.88
402.854	418.88
403.078	434.88
403.302	426.88
403.526	424.88
403.75	435.88
403.974	439.88
404.198	420.88
404.422	435.88
404.645	421.88
404.869	418.88
405.093	452.88
405.317	463.88
405.541	474.88
405.765	449.88
405.988	447.88
406.212	451.88
406.436	436.88
406.66	461.88
406.883	451.88
407.107	453.88
407.331	509.88
407.555	542.88
407.778	515.88
408.002	474.88
408.226	457.88
408.449	472.88
408.673	444.88
408.896	452.88
409.12	475.88
409.344	452.88
409.567	429.88
409.791	429.88
410.014	430.88
410.238	432.88
410.461	429.88
410.685	431.88
410.908	423.88
411.132	432.88
411.355	453.88
411.578	442.88
411.802	419.88
412.025	409.88
412.249	414.88
412.472	413.88
412.695	467.88
412.919	445.88
413.142	416.88
413.365	392.88
413.589	404.88
413.812	414.88
414.035	416.88
414.258	387.88
414.482	404.88
414.705	416.88
414.928	389.88
415.151	418.88
415.374	415.88
415.597	402.88
415.821	399.88
416.044	391.88
416.267	388.88
416.49	416.88
416.713	390.88
416.936	404.88
417.159	408.88
417.382	400.88
417.605	405.88
417.828	399.88
418.051	390.88
418.274	395.88
418.497	376.88
418.72	396.88
418.943	398.88
419.166	424.88
419.389	423.88
419.611	416.88
419.834	419.88
420.057	414.88
420.28	401.88
420.503	392.88
420.726	397.88
420.948	415.88
421.171	433.88
421.394	435.88
421.617	420.88
421.839	425.88
422.062	415.88
422.285	385.88
422.507	457.88
422.73	467.88
422.953	449.88
423.175	421.88
423.398	430.88
423.621	418.88
423.843	438.88
424.066	431.88
424.288	427.88
424.511	430.88
424.733	458.88
424.956	497.88
425.178	469.88
425.401	450.88
425.623	467.88
425.846	430.88
426.068	431.88
426.291	406.88
426.513	417.88
426.735	437.88
426.958	423.88
427.18	459.88
427.402	513.88
427.625	540.88
427.847	494.88
428.069	441.88
428.292	399.88
428.514	407.88
428.736	386.88
428.958	379.88
429.181	360.88
429.403	379.88
429.625	375.88
429.847	390.88
430.069	413.88
430.292	413.88
430.514	399.88
430.736	388.88
430.958	370.88
431.18	376.88
431.402	373.88
431.624	360.88
431.846	357.88
432.068	381.88
432.29	370.88
432.512	377.88
432.734	384.88
432.956	355.88
433.178	379.88
433.4	395.88
433.622	395.88
433.844	390.88
434.066	395.88
434.287	373.88
434.509	355.88
434.731	397.88
434.953	389.88
435.175	396.88
435.397	429.88
435.618	409.88
435.84	422.88
436.062	461.88
436.284	464.88
436.505	421.88
436.727	410.88
436.949	395.88
437.17	377.88
437.392	392.88
437.614	382.88
437.835	384.88
438.057	409.88
438.278	480.88
438.5	490.88
438.721	520.88
438.943	473.88
439.165	411.88
439.386	392.88
439.608	392.88
439.829	413.88
440.05	397.88
440.272	432.88
440.493	403.88
440.715	417.88
440.936	429.88
441.158	395.88
441.379	390.88
441.6	426.88
441.822	401.88
442.043	423.88
442.264	486.88
442.486	509.88
442.707	446.88
442.928	394.88
443.149	423.88
443.371	417.88
443.592	458.88
443.813	503.88
444.034	498.88
444.255	463.88
444.476	454.88
444.698	445.88
444.919	453.88
445.14	541.88
445.361	476.88
445.582	435.88
445.803	441.88
446.024	504.88
446.245	492.88
446.466	449.88
446.687	409.88
446.908	403.88
447.129	357.88
447.35	377.88
447.571	385.88
447.792	361.88
448.013	389.88
448.234	361.88
448.455	393.88
448.675	455.88
448.896	490.88
449.117	423.88
449.338	431.88
449.559	491.88
449.779	515.88
450	451.88
450.221	384.88
450.442	378.88
450.662	373.88
450.883	366.88
451.104	390.88
451.324	360.88
451.545	357.88
451.766	372.88
451.986	364.88
452.207	338.88
452.428	335.88
452.648	346.88
452.869	316.88
453.089	338.88
453.31	327.88
453.53	345.88
453.751	350.88
453.971	337.88
454.192	333.88
454.412	352.88
454.633	347.88
454.853	353.88
455.073	328.88
455.294	349.88
455.514	369.88
455.734	357.88
455.955	331.88
456.175	325.88
456.395	326.88
456.616	315.88
456.836	297.88
457.056	306.88
457.276	325.88
457.497	319.88
457.717	331.88
457.937	331.88
458.157	329.88
458.377	346.88
458.598	355.88
458.818	365.88
459.038	417.88
459.258	416.88
459.478	372.88
459.698	365.88
459.918	385.88
460.138	387.88
460.358	402.88
460.578	396.88
460.798	399.88
461.018	401.88
461.238	389.88
461.458	390.88
461.678	382.88
461.898	424.88
462.118	394.88
462.338	419.88
462.558	422.88
462.777	449.88
462.997	443.88
463.217	486.88
463.437	480.88
463.657	445.88
463.876	427.88
464.096	431.88
464.316	445.88
464.536	439.88
464.755	449.88
464.975	423.88
465.195	426.88
465.414	437.88
465.634	405.88
465.854	371.88
466.073	363.88
466.293	370.88
466.512	369.88
466.732	332.88
466.951	379.88
467.171	367.88
467.391	378.88
467.61	351.88
467.829	371.88
468.049	352.88
468.268	343.88
468.488	360.88
468.707	350.88
468.927	361.88
469.146	342.88
469.365	358.88
469.585	348.88
469.804	357.88
470.023	369.88
470.243	373.88
470.462	368.88
470.681	375.88
470.901	372.88
471.12	359.88
471.339	365.88
471.558	369.88
471.777	372.88
471.997	367.88
472.216	379.88
472.435	398.88
472.654	381.88
472.873	358.88
473.092	350.88
473.311	349.88
473.53	362.88
473.749	354.88
473.968	369.88
474.187	428.88
474.406	414.88
474.625	396.88
474.844	353.88
475.063	357.88
475.282	351.88
475.501	355.88
475.72	371.88
475.939	378.88
476.158	358.88
476.377	378.88
476.596	373.88
476.814	369.88
477.033	377.88
477.252	379.88
477.471	379.88
477.69	383.88
477.908	415.88
478.127	393.88
478.346	416.88
478.564	419.88
478.783	419.88
479.002	417.88
479.22	436.88
479.439	435.88
479.658	433.88
479.876	407.88
480.095	434.88
480.313	448.88
480.532	447.88
480.751	454.88
480.969	432.88
481.188	455.88
481.406	464.88
481.624	433.88
481.843	440.88
482.061	417.88
482.28	407.88
482.498	412.88
482.717	411.88
482.935	395.88
483.153	410.88
483.372	414.88
483.59	421.88
483.808	397.88
484.027	401.88
484.245	426.88
484.463	411.88
484.681	420.88
484.9	417.88
485.118	417.88
485.336	395.88
485.554	410.88
485.772	427.88
485.99	416.88
486.209	415.88
486.427	425.88
486.645	428.88
486.863	418.88
487.081	437.88
487.299	413.88
487.517	443.88
487.735	425.88
487.953	429.88
488.171	444.88
488.389	449.88
488.607	421.88
488.825	442.88
489.043	423.88
489.261	454.88
489.479	423.88
489.696	426.88
489.914	435.88
490.132	442.88
490.35	462.88
490.568	469.88
490.786	445.88
491.003	455.88
491.221	457.88
491.439	482.88
491.657	467.88
491.874	489.88
492.092	477.88
492.31	497.88
492.527	486.88
492.745	500.88
492.963	464.88
493.18	496.88
493.398	482.88
493.615	511.88
493.833	503.88
494.05	513.88
494.268	520.88
494.485	497.88
494.703	490.88
494.92	513.88
495.138	485.88
495.355	522.88
495.573	486.88
495.79	495.88
496.008	496.88
496.225	492.88
496.442	515.88
496.66	522.88
496.877	490.88
497.094	505.88
497.312	528.88
497.529	534.88
497.746	568.88
497.963	555.88
498.181	574.88
498.398	581.88
498.615	587.88
498.832	617.88
499.049	643.88
499.267	678.88
499.484	698.88
499.701	755.88
499.918	800.88
500.135	842.88
500.352	880.88
500.569	897.88
500.786	923.88
501.003	868.88
501.22	851.88
501.437	809.88
501.654	722.88
501.871	679.88
502.088	665.88
502.305	644.88
502.522	613.88
502.739	573.88
502.956	575.88
503.172	554.88
503.389	560.88
503.606	539.88
503.823	523.88
504.04	535.88
504.256	520.88
504.473	526.88
504.69	549.88
504.907	538.88
505.123	504.88
505.34	504.88
505.557	495.88
505.773	468.88
505.99	469.88
506.207	484.88
506.423	483.88
506.64	472.88
506.856	453.88
507.073	428.88
507.289	447.88
507.506	475.88
507.722	460.88
507.939	451.88
508.155	455.88
508.372	457.88
508.588	436.88
508.805	445.88
509.021	437.88
509.238	465.88
509.454	435.88
509.67	420.88
509.887	423.88
510.103	417.88
510.319	441.88
510.536	441.88
510.752	627.88
510.968	551.88
511.184	415.88
511.401	417.88
511.617	394.88
511.833	394.88
512.049	414.88
512.265	409.88
512.481	405.88
512.698	412.88
512.914	424.88
513.13	401.88
513.346	407.88
513.562	403.88
513.778	402.88
513.994	397.88
514.21	419.88
514.426	411.88
514.642	437.88
514.858	440.88
515.074	441.88
515.29	510.88
515.506	651.88
515.721	571.88
515.937	463.88
516.153	461.88
516.369	447.88
516.585	461.88
516.801	435.88
517.016	460.88
517.232	455.88
517.448	470.88
517.664	493.88
517.879	465.88
518.095	480.88
518.311	478.88
518.527	472.88
518.742	463.88
518.958	433.88
519.173	439.88
519.389	429.88
519.605	405.88
519.82	417.88
520.036	429.88
520.251	448.88
520.467	452.88
520.682	422.88
520.898	413.88
521.113	421.88
521.329	438.88
521.544	453.88
521.76	515.88
521.975	777.88
522.19	786.88
522.406	497.88
522.621	406.88
522.836	381.88
523.052	377.88
523.267	373.88
523.482	393.88
523.698	374.88
523.913	362.88
524.128	352.88
524.343	374.88
524.559	362.88
524.774	363.88
524.989	369.88
525.204	379.88
525.419	351.88
525.634	339.88
525.849	373.88
526.064	353.88
526.28	354.88
526.495	369.88
526.71	353.88
526.925	346.88
527.14	367.88
527.355	338.88
527.57	357.88
527.785	340.88
527.999	350.88
528.214	354.88
528.429	355.88
528.644	352.88
528.859	352.88
529.074	367.88
529.289	375.88
529.503	390.88
529.718	395.88
529.933	371.88
530.148	365.88
530.363	363.88
530.577	341.88
530.792	326.88
531.007	344.88
531.221	350.88
531.436	348.88
531.651	368.88
531.865	360.88
532.08	348.88
532.295	351.88
532.509	341.88
532.724	344.88
532.938	330.88
533.153	334.88
533.367	346.88
533.582	354.88
533.796	355.88
534.011	357.88
534.225	327.88
534.44	339.88
534.654	339.88
534.868	328.88
535.083	333.88
535.297	353.88
535.511	349.88
535.726	351.88
535.94	349.88
536.154	351.88
536.369	356.88
536.583	323.88
536.797	339.88
537.011	324.88
537.225	315.88
537.44	346.88
537.654	342.88
537.868	317.88
538.082	322.88
538.296	317.88
538.51	320.88
538.724	323.88
538.938	324.88
539.153	342.88
539.367	338.88
539.581	330.88
539.795	328.88
540.009	317.88
540.222	320.88
540.436	334.88
540.65	339.88
540.864	344.88
541.078	347.88
541.292	327.88
541.506	324.88
541.72	333.88
541.934	325.88
542.147	347.88
542.361	340.88
542.575	337.88
542.789	328.88
543.002	339.88
543.216	331.88
543.43	350.88
543.644	357.88
543.857	325.88
544.071	322.88
544.285	351.88
544.498	339.88
544.712	345.88
544.925	351.88
545.139	325.88
545.352	337.88
545.566	347.88
545.779	335.88
545.993	343.88
546.206	345.88
546.42	346.88
546.633	327.88
546.847	331.88
547.06	313.88
547.274	338.88
547.487	326.88
547.7	349.88
547.914	339.88
548.127	335.88
548.34	345.88
548.554	342.88
548.767	326.88
548.98	353.88
549.193	344.88
549.407	334.88
549.62	342.88
549.833	340.88
550.046	352.88
550.259	318.88
550.473	319.88
550.686	341.88
550.899	334.88
551.112	313.88
551.325	307.88
551.538	318.88
551.751	320.88
551.964	337.88
552.177	317.88
552.39	329.88
552.603	346.88
552.816	340.88
553.029	355.88
553.242	357.88
553.455	342.88
553.667	355.88
553.88	352.88
554.093	341.88
554.306	337.88
554.519	338.88
554.732	331.88
554.944	328.88
555.157	327.88
555.37	317.88
555.583	314.88
555.795	330.88
556.008	301.88
556.221	303.88
556.433	319.88
556.646	303.88
556.859	322.88
557.071	298.88
557.284	308.88
557.496	305.88
557.709	294.88
557.921	304.88
558.134	328.88
558.346	290.88
558.559	297.88
558.771	284.88
558.984	283.88
559.196	293.88
559.409	294.88
559.621	303.88
559.833	291.88
560.046	279.88
560.258	295.88
560.47	283.88
560.683	284.88
560.895	299.88
561.107	292.88
561.32	302.88
561.532	306.88
561.744	276.88
561.956	285.88
562.168	285.88
562.381	308.88
562.593	291.88
562.805	311.88
563.017	296.88
563.229	297.88
563.441	291.88
563.653	315.88
563.865	307.88
564.077	298.88
564.289	303.88
564.501	316.88
564.713	317.88
564.925	308.88
565.137	319.88
565.349	321.88
565.561	317.88
565.773	326.88
565.985	340.88
566.197	360.88
566.408	355.88
566.62	402.88
566.832	404.88
567.044	409.88
567.255	421.88
567.467	409.88
567.679	425.88
567.891	461.88
568.102	450.88
568.314	448.88
568.526	408.88
568.737	395.88
568.949	385.88
569.161	342.88
569.372	313.88
569.584	301.88
569.795	309.88
570.007	304.88
570.218	320.88
570.43	314.88
570.641	275.88
570.853	304.88
571.064	319.88
571.276	306.88
571.487	311.88
571.698	281.88
571.91	283.88
572.121	270.88
572.333	277.88
572.544	287.88
572.755	262.88
572.966	257.88
573.178	265.88
573.389	270.88
573.6	263.88
573.811	272.88
574.023	257.88
574.234	247.88
574.445	259.88
574.656	271.88
574.867	248.88
575.078	264.88
575.289	259.88
575.501	247.88
575.712	268.88
575.923	262.88
576.134	266.88
576.345	246.88
576.556	250.88
576.767	247.88
576.978	256.88
577.188	262.88
577.399	256.88
577.61	239.88
577.821	253.88
578.032	232.88
578.243	251.88
578.454	344.88
578.665	300.88
578.875	254.88
579.086	233.88
579.297	243.88
579.508	241.88
579.718	246.88
579.929	225.88
580.14	230.88
580.35	237.88
580.561	240.88
580.772	230.88
580.982	251.88
581.193	237.88
581.403	237.88
581.614	238.88
581.825	244.88
582.035	242.88
582.246	240.88
582.456	240.88
582.667	219.88
582.877	214.88
583.087	237.88
583.298	225.88
583.508	227.88
583.719	225.88
583.929	245.88
584.139	229.88
584.35	233.88
584.56	244.88
584.77	232.88
584.981	239.88
585.191	219.88
585.401	233.88
585.611	227.88
585.821	238.88
586.032	232.88
586.242	232.88
586.452	217.88
586.662	223.88
586.872	213.88
587.082	237.88
587.292	218.88
587.502	241.88
587.713	212.88
587.923	232.88
588.133	234.88
588.343	238.88
588.553	208.88
588.762	245.88
588.972	239.88
589.182	231.88
589.392	216.88
589.602	220.88
589.812	219.88
590.022	236.88
590.232	243.88
590.441	232.88
590.651	243.88
590.861	219.88
591.071	224.88
591.281	234.88
591.49	233.88
591.7	255.88
591.91	235.88
592.119	240.88
592.329	241.88
592.539	237.88
592.748	265.88
592.958	256.88
593.167	275.88
593.377	247.88
593.587	263.88
593.796	273.88
594.006	277.88
594.215	269.88
594.424	283.88
594.634	273.88
594.843	265.88
595.053	247.88
595.262	243.88
595.472	238.88
595.681	255.88
595.89	245.88
596.1	220.88
596.309	243.88
596.518	235.88
596.727	239.88
596.937	219.88
597.146	243.88
597.355	216.88
597.564	222.88
597.774	207.88
597.983	214.88
598.192	213.88
598.401	216.88
598.61	212.88
598.819	217.88
599.028	201.88
599.237	198.88
599.446	203.88
599.655	208.88
599.864	208.88
600.073	207.88
600.282	211.88
600.491	218.88
600.7	207.88
600.909	192.88
601.118	204.88
601.327	210.88
601.536	193.88
601.745	207.88
601.953	184.88
602.162	195.88
602.371	195.88
602.58	189.88
602.789	207.88
602.997	208.88
603.206	197.88
603.415	207.88
603.623	211.88
603.832	195.88
604.041	205.88
604.249	198.88
604.458	203.88
604.666	209.88
604.875	203.88
605.084	182.88
605.292	196.88
605.501	203.88
605.709	201.88
605.918	212.88
606.126	219.88
606.334	199.88
606.543	214.88
606.751	193.88
606.96	187.88
607.168	202.88
607.376	218.88
607.585	187.88
607.793	201.88
608.001	195.88
608.21	190.88
608.418	182.88
608.626	191.88
608.834	212.88
609.043	200.88
609.251	197.88
609.459	206.88
609.667	201.88
609.875	217.88
610.083	203.88
610.291	189.88
610.499	199.88
610.707	218.88
610.916	199.88
611.124	210.88
611.332	203.88
611.54	204.88
611.748	211.88
611.955	197.88
612.163	186.88
612.371	185.88
612.579	217.88
612.787	209.88
612.995	208.88
613.203	222.88
613.411	191.88
613.618	188.88
613.826	198.88
614.034	194.88
614.242	196.88
614.449	196.88
614.657	205.88
614.865	198.88
615.072	203.88
615.28	203.88
615.488	191.88
615.695	205.88
615.903	187.88
616.111	201.88
616.318	198.88
616.526	191.88
616.733	192.88
616.941	219.88
617.148	218.88
617.356	200.88
617.563	212.88
617.771	196.88
617.978	192.88
618.185	185.88
618.393	192.88
618.6	187.88
618.807	192.88
619.015	194.88
619.222	196.88
619.429	195.88
619.637	192.88
619.844	196.88
620.051	189.88
620.258	188.88
620.466	175.88
620.673	201.88
620.88	183.88
621.087	179.88
621.294	186.88
621.501	179.88
621.708	191.88
621.915	183.88
622.122	187.88
622.329	189.88
622.536	184.88
622.743	183.88
622.95	177.88
623.157	184.88
623.364	199.88
623.571	183.88
623.778	170.88
623.985	195.88
624.192	180.88
624.399	173.88
624.606	180.88
624.812	173.88
625.019	179.88
625.226	173.88
625.433	180.88
625.639	181.88
625.846	178.88
626.053	177.88
626.259	177.88
626.466	167.88
626.673	175.88
626.879	177.88
627.086	169.88
627.293	183.88
627.499	175.88
627.706	181.88
627.912	184.88
628.119	159.88
628.325	162.88
628.532	177.88
628.738	177.88
628.945	166.88
629.151	160.88
629.357	166.88
629.564	165.88
629.77	159.88
629.976	165.88
630.183	177.88
630.389	166.88
630.595	165.88
630.802	153.88
631.008	169.88
631.214	185.88
631.42	175.88
631.627	177.88
631.833	157.88
632.039	164.88
632.245	159.88
632.451	170.88
632.657	150.88
632.863	157.88
633.069	167.88
633.275	171.88
633.481	163.88
633.688	163.88
633.893	149.88
634.099	153.88
634.305	146.88
634.511	177.88
634.717	155.88
634.923	159.88
635.129	172.88
635.335	149.88
635.541	162.88
635.747	164.88
635.952	150.88
636.158	143.88
636.364	157.88
636.57	173.88
636.775	153.88
636.981	151.88
637.187	145.88
637.392	142.88
637.598	157.88
637.804	143.88
638.009	151.88
638.215	155.88
638.421	151.88
638.626	144.88
638.832	143.88
639.037	153.88
639.243	137.88
639.448	149.88
639.654	154.88
639.859	156.88
640.065	157.88
640.27	161.88
640.475	133.88
640.681	151.88
640.886	150.88
641.091	151.88
641.297	162.88
641.502	138.88
641.707	140.88
641.913	154.88
642.118	160.88
642.323	162.88
642.528	146.88
642.733	154.88
642.939	152.88
643.144	151.88
643.349	147.88
643.554	154.88
643.759	152.88
643.964	145.88
644.169	155.88
644.374	151.88
644.579	152.88
644.784	145.88
644.989	147.88
645.194	130.88
645.399	145.88
645.604	148.88
645.809	147.88
646.014	138.88
646.219	142.88
646.423	140.88
646.628	157.88
646.833	156.88
647.038	158.88
647.243	140.88
647.447	134.88
647.652	151.88
647.857	139.88
648.062	161.88
648.266	148.88
648.471	145.88
648.676	157.88
648.88	148.88
649.085	159.88
649.289	149.88
649.494	150.88
649.698	167.88
649.903	154.88
650.107	149.88
650.312	161.88
650.516	153.88
650.721	132.88
650.925	148.88
651.13	131.88
651.334	131.88
651.539	144.88
651.743	149.88
651.947	137.88
652.152	137.88
652.356	123.88
652.56	128.88
652.764	133.88
652.969	120.88
653.173	130.88
653.377	140.88
653.581	148.88
653.785	134.88
653.99	146.88
654.194	130.88
654.398	120.88
654.602	140.88
654.806	134.88
655.01	137.88
655.214	135.88
655.418	118.88
655.622	121.88
655.826	121.88
656.03	148.88
656.234	125.88
656.438	113.88
656.642	121.88
656.846	133.88
657.049	120.88
657.253	125.88
657.457	120.88
657.661	120.88
657.865	110.88
658.068	112.88
658.272	117.88
658.476	113.88
658.68	105.88
658.883	109.88
659.087	93.88
659.291	88.88
659.494	88.88
659.698	106.88
659.901	99.88
660.105	106.88
660.309	98.88
660.512	93.88
660.716	109.88
660.919	83.88
661.123	90.88
661.326	95.88
661.53	97.88
661.733	92.88
661.936	91.88
662.14	84.88
662.343	95.88
662.546	73.88
662.75	90.88
662.953	83.88
663.156	79.88
663.36	90.88
663.563	86.88
663.766	86.88
663.969	86.88
664.173	81.88
664.376	68.88
664.579	67.88
664.782	82.88
664.985	64.88
665.188	79.88
665.391	79.88
665.594	82.88
665.797	67.88
666	69.88
666.203	84.88
666.406	89.88
666.609	85.88
666.812	89.88
667.015	93.88
667.218	82.88
667.421	82.88
667.624	62.88
667.827	79.88
668.03	80.88
668.232	71.88
668.435	61.88
668.638	73.88
668.841	96.88
669.043	67.88
669.246	89.88
669.449	84.88
669.651	86.88
669.854	81.88
670.057	77.88
670.259	71.88
670.462	79.88
670.665	74.88
670.867	80.88
671.07	72.88
671.272	81.88
671.475	81.88
671.677	90.88
671.88	85.88
672.082	76.88
672.284	85.88
672.487	88.88
672.689	78.88
672.892	86.88
