Data from 1969.PennyLincolnUp.Lamp.En5.5.200Scan.071719.P1._HRD10591_14-55-41-973.txt Node
Date: Thu Jul 18 14:55:41 EDT 2019
User: cochatt
Spectrometer: HR+D1059
Trigger mode: 1
Integration Time (sec): 1.000000E-1
Scans to average: 1
Electric dark correction enabled: true
Nonlinearity correction enabled: false
Boxcar width: 0
XAxis mode: Wavelengths
Number of Pixels in Spectrum: 2048
>>>>>Begin Spectral Data<<<<<
223.165	-4.12
223.4	-4.12
223.635	-4.12
223.869	-38.12
224.104	-13.12
224.338	-17.12
224.573	-10.12
224.808	-11.12
225.042	1.88
225.277	-10.12
225.511	2.88
225.746	4.88
225.98	3.88
226.215	15.88
226.449	1.88
226.683	18.88
226.918	16.88
227.152	36.88
227.387	34.88
227.621	34.88
227.856	41.88
228.09	55.88
228.324	54.88
228.559	47.88
228.793	72.88
229.027	97.88
229.262	90.88
229.496	104.88
229.73	111.88
229.964	112.88
230.199	110.88
230.433	87.88
230.667	97.88
230.901	94.88
231.136	104.88
231.37	98.88
231.604	95.88
231.838	116.88
232.072	110.88
232.306	118.88
232.541	105.88
232.775	105.88
233.009	110.88
233.243	99.88
233.477	103.88
233.711	102.88
233.945	114.88
234.179	115.88
234.413	114.88
234.647	105.88
234.881	118.88
235.115	107.88
235.349	104.88
235.583	112.88
235.817	123.88
236.051	113.88
236.285	113.88
236.519	122.88
236.753	120.88
236.987	144.88
237.221	144.88
237.455	174.88
237.689	151.88
237.922	109.88
238.156	130.88
238.39	123.88
238.624	104.88
238.858	124.88
239.091	124.88
239.325	104.88
239.559	120.88
239.793	112.88
240.027	120.88
240.26	122.88
240.494	160.88
240.728	137.88
240.961	144.88
241.195	123.88
241.429	143.88
241.662	115.88
241.896	122.88
242.13	121.88
242.363	128.88
242.597	121.88
242.83	138.88
243.064	124.88
243.298	128.88
243.531	119.88
243.765	124.88
243.998	136.88
244.232	111.88
244.465	138.88
244.699	118.88
244.932	134.88
245.166	147.88
245.399	133.88
245.633	133.88
245.866	137.88
246.099	124.88
246.333	150.88
246.566	133.88
246.8	132.88
247.033	140.88
247.266	145.88
247.5	150.88
247.733	148.88
247.966	148.88
248.2	149.88
248.433	156.88
248.666	143.88
248.899	156.88
249.133	153.88
249.366	171.88
249.599	162.88
249.832	168.88
250.066	151.88
250.299	146.88
250.532	169.88
250.765	171.88
250.998	179.88
251.231	190.88
251.465	175.88
251.698	157.88
251.931	166.88
252.164	169.88
252.397	182.88
252.63	179.88
252.863	162.88
253.096	175.88
253.329	201.88
253.562	174.88
253.795	167.88
254.028	163.88
254.261	174.88
254.494	180.88
254.727	211.88
254.96	220.88
255.193	222.88
255.426	199.88
255.659	189.88
255.892	189.88
256.124	197.88
256.357	190.88
256.59	199.88
256.823	182.88
257.056	190.88
257.289	182.88
257.521	172.88
257.754	180.88
257.987	174.88
258.22	165.88
258.452	171.88
258.685	166.88
258.918	183.88
259.151	190.88
259.383	176.88
259.616	179.88
259.849	181.88
260.081	216.88
260.314	231.88
260.547	204.88
260.779	197.88
261.012	202.88
261.244	194.88
261.477	204.88
261.71	199.88
261.942	181.88
262.175	189.88
262.407	195.88
262.64	210.88
262.872	184.88
263.105	174.88
263.337	190.88
263.57	183.88
263.802	197.88
264.035	200.88
264.267	179.88
264.499	194.88
264.732	197.88
264.964	186.88
265.197	191.88
265.429	195.88
265.661	200.88
265.894	186.88
266.126	191.88
266.358	190.88
266.591	194.88
266.823	202.88
267.055	199.88
267.287	207.88
267.52	202.88
267.752	189.88
267.984	193.88
268.216	214.88
268.448	200.88
268.681	199.88
268.913	200.88
269.145	231.88
269.377	232.88
269.609	222.88
269.841	224.88
270.073	234.88
270.306	273.88
270.538	266.88
270.77	262.88
271.002	234.88
271.234	245.88
271.466	263.88
271.698	242.88
271.93	246.88
272.162	269.88
272.394	255.88
272.626	248.88
272.858	225.88
273.09	236.88
273.322	227.88
273.553	220.88
273.785	234.88
274.017	229.88
274.249	234.88
274.481	243.88
274.713	233.88
274.945	225.88
275.176	222.88
275.408	237.88
275.64	212.88
275.872	226.88
276.104	240.88
276.335	244.88
276.567	239.88
276.799	236.88
277.031	268.88
277.262	258.88
277.494	270.88
277.726	267.88
277.957	253.88
278.189	247.88
278.421	245.88
278.652	226.88
278.884	234.88
279.115	243.88
279.347	202.88
279.579	227.88
279.81	220.88
280.042	246.88
280.273	250.88
280.505	246.88
280.736	228.88
280.968	234.88
281.199	256.88
281.431	243.88
281.662	235.88
281.894	247.88
282.125	238.88
282.356	236.88
282.588	245.88
282.819	255.88
283.051	234.88
283.282	258.88
283.513	239.88
283.745	237.88
283.976	241.88
284.207	249.88
284.439	250.88
284.67	251.88
284.901	247.88
285.132	258.88
285.364	253.88
285.595	248.88
285.826	263.88
286.057	239.88
286.288	239.88
286.52	255.88
286.751	259.88
286.982	262.88
287.213	268.88
287.444	253.88
287.675	260.88
287.906	265.88
288.138	267.88
288.369	278.88
288.6	276.88
288.831	260.88
289.062	251.88
289.293	275.88
289.524	264.88
289.755	259.88
289.986	247.88
290.217	265.88
290.448	268.88
290.679	261.88
290.91	267.88
291.141	267.88
291.371	252.88
291.602	269.88
291.833	266.88
292.064	271.88
292.295	275.88
292.526	267.88
292.757	262.88
292.987	250.88
293.218	256.88
293.449	264.88
293.68	264.88
293.91	267.88
294.141	260.88
294.372	258.88
294.603	262.88
294.833	279.88
295.064	274.88
295.295	269.88
295.525	274.88
295.756	256.88
295.987	277.88
296.217	279.88
296.448	293.88
296.679	293.88
296.909	265.88
297.14	280.88
297.37	279.88
297.601	270.88
297.831	276.88
298.062	288.88
298.292	296.88
298.523	281.88
298.753	267.88
298.984	284.88
299.214	280.88
299.445	278.88
299.675	289.88
299.905	295.88
300.136	273.88
300.366	291.88
300.597	276.88
300.827	301.88
301.057	299.88
301.288	299.88
301.518	315.88
301.748	278.88
301.979	285.88
302.209	298.88
302.439	300.88
302.669	301.88
302.9	290.88
303.13	298.88
303.36	293.88
303.59	297.88
303.82	302.88
304.051	308.88
304.281	306.88
304.511	280.88
304.741	288.88
304.971	301.88
305.201	277.88
305.431	282.88
305.661	285.88
305.891	291.88
306.121	300.88
306.352	328.88
306.582	288.88
306.812	290.88
307.042	291.88
307.272	306.88
307.502	298.88
307.731	290.88
307.961	327.88
308.191	306.88
308.421	302.88
308.651	292.88
308.881	313.88
309.111	299.88
309.341	296.88
309.571	302.88
309.8	302.88
310.03	322.88
310.26	319.88
310.49	330.88
310.72	324.88
310.949	323.88
311.179	318.88
311.409	326.88
311.639	322.88
311.868	328.88
312.098	325.88
312.328	331.88
312.557	313.88
312.787	335.88
313.017	345.88
313.246	330.88
313.476	329.88
313.706	330.88
313.935	319.88
314.165	336.88
314.394	339.88
314.624	320.88
314.853	316.88
315.083	315.88
315.312	336.88
315.542	323.88
315.771	318.88
316.001	332.88
316.23	327.88
316.46	323.88
316.689	334.88
316.919	333.88
317.148	327.88
317.377	336.88
317.607	331.88
317.836	323.88
318.065	326.88
318.295	325.88
318.524	336.88
318.753	327.88
318.983	340.88
319.212	317.88
319.441	308.88
319.67	330.88
319.9	337.88
320.129	335.88
320.358	309.88
320.587	320.88
320.816	349.88
321.046	337.88
321.275	331.88
321.504	321.88
321.733	318.88
321.962	342.88
322.191	338.88
322.42	347.88
322.649	349.88
322.878	365.88
323.108	346.88
323.337	367.88
323.566	396.88
323.795	420.88
324.024	428.88
324.253	486.88
324.482	614.88
324.71	851.88
324.939	1159.88
325.168	964.88
325.397	558.88
325.626	461.88
325.855	385.88
326.084	392.88
326.313	367.88
326.542	388.88
326.77	396.88
326.999	458.88
327.228	577.88
327.457	777.88
327.686	883.88
327.914	636.88
328.143	475.88
328.372	415.88
328.6	438.88
328.829	423.88
329.058	424.88
329.287	416.88
329.515	415.88
329.744	406.88
329.972	418.88
330.201	402.88
330.43	427.88
330.658	447.88
330.887	461.88
331.115	449.88
331.344	403.88
331.572	398.88
331.801	409.88
332.03	398.88
332.258	394.88
332.486	384.88
332.715	387.88
332.943	399.88
333.172	398.88
333.4	436.88
333.629	412.88
333.857	435.88
334.085	447.88
334.314	446.88
334.542	460.88
334.771	447.88
334.999	443.88
335.227	407.88
335.455	411.88
335.684	412.88
335.912	411.88
336.14	389.88
336.369	379.88
336.597	394.88
336.825	404.88
337.053	400.88
337.281	392.88
337.51	381.88
337.738	383.88
337.966	367.88
338.194	389.88
338.422	380.88
338.65	358.88
338.878	376.88
339.106	384.88
339.334	375.88
339.562	383.88
339.79	355.88
340.018	341.88
340.246	364.88
340.474	383.88
340.702	367.88
340.93	378.88
341.158	372.88
341.386	359.88
341.614	363.88
341.842	352.88
342.07	355.88
342.298	358.88
342.526	356.88
342.754	360.88
342.981	372.88
343.209	350.88
343.437	370.88
343.665	386.88
343.893	409.88
344.12	394.88
344.348	390.88
344.576	381.88
344.804	386.88
345.031	378.88
345.259	369.88
345.487	366.88
345.714	351.88
345.942	340.88
346.17	347.88
346.397	366.88
346.625	343.88
346.853	351.88
347.08	355.88
347.308	348.88
347.535	335.88
347.763	355.88
347.99	360.88
348.218	360.88
348.445	367.88
348.673	353.88
348.9	338.88
349.128	349.88
349.355	342.88
349.583	334.88
349.81	345.88
350.037	355.88
350.265	332.88
350.492	335.88
350.72	358.88
350.947	342.88
351.174	367.88
351.402	344.88
351.629	344.88
351.856	349.88
352.083	342.88
352.311	342.88
352.538	366.88
352.765	354.88
352.992	335.88
353.22	343.88
353.447	325.88
353.674	338.88
353.901	326.88
354.128	318.88
354.355	326.88
354.583	334.88
354.81	337.88
355.037	342.88
355.264	328.88
355.491	342.88
355.718	323.88
355.945	329.88
356.172	339.88
356.399	319.88
356.626	326.88
356.853	315.88
357.08	336.88
357.307	338.88
357.534	338.88
357.761	324.88
357.988	319.88
358.215	339.88
358.441	332.88
358.668	329.88
358.895	335.88
359.122	332.88
359.349	357.88
359.576	370.88
359.802	344.88
360.029	350.88
360.256	370.88
360.483	361.88
360.709	344.88
360.936	331.88
361.163	343.88
361.39	332.88
361.616	338.88
361.843	336.88
362.07	362.88
362.296	344.88
362.523	337.88
362.749	346.88
362.976	335.88
363.203	350.88
363.429	325.88
363.656	355.88
363.882	332.88
364.109	329.88
364.335	329.88
364.562	341.88
364.788	317.88
365.015	336.88
365.241	323.88
365.468	329.88
365.694	347.88
365.92	339.88
366.147	341.88
366.373	332.88
366.599	311.88
366.826	333.88
367.052	328.88
367.278	323.88
367.505	314.88
367.731	328.88
367.957	306.88
368.184	330.88
368.41	342.88
368.636	327.88
368.862	337.88
369.089	378.88
369.315	344.88
369.541	332.88
369.767	327.88
369.993	336.88
370.219	352.88
370.445	349.88
370.672	338.88
370.898	337.88
371.124	338.88
371.35	336.88
371.576	340.88
371.802	334.88
372.028	344.88
372.254	340.88
372.48	362.88
372.706	347.88
372.932	346.88
373.158	333.88
373.384	350.88
373.61	335.88
373.835	323.88
374.061	321.88
374.287	349.88
374.513	346.88
374.739	348.88
374.965	349.88
375.191	362.88
375.416	350.88
375.642	341.88
375.868	337.88
376.094	332.88
376.319	340.88
376.545	335.88
376.771	342.88
376.997	352.88
377.222	337.88
377.448	338.88
377.674	335.88
377.899	335.88
378.125	347.88
378.35	340.88
378.576	352.88
378.802	346.88
379.027	339.88
379.253	341.88
379.478	342.88
379.704	334.88
379.929	331.88
380.155	331.88
380.38	326.88
380.606	338.88
380.831	338.88
381.057	346.88
381.282	335.88
381.507	335.88
381.733	336.88
381.958	341.88
382.184	333.88
382.409	344.88
382.634	354.88
382.86	322.88
383.085	351.88
383.31	336.88
383.535	342.88
383.761	344.88
383.986	358.88
384.211	347.88
384.436	356.88
384.662	350.88
384.887	375.88
385.112	374.88
385.337	370.88
385.562	390.88
385.787	380.88
386.013	374.88
386.238	380.88
386.463	388.88
386.688	382.88
386.913	365.88
387.138	371.88
387.363	384.88
387.588	363.88
387.813	378.88
388.038	360.88
388.263	384.88
388.488	391.88
388.713	376.88
388.938	384.88
389.163	377.88
389.387	361.88
389.612	370.88
389.837	352.88
390.062	368.88
390.287	380.88
390.512	362.88
390.736	372.88
390.961	386.88
391.186	382.88
391.411	386.88
391.636	390.88
391.86	401.88
392.085	397.88
392.31	399.88
392.534	395.88
392.759	405.88
392.984	394.88
393.208	390.88
393.433	374.88
393.658	387.88
393.882	389.88
394.107	387.88
394.331	403.88
394.556	380.88
394.78	384.88
395.005	392.88
395.229	404.88
395.454	395.88
395.678	389.88
395.903	407.88
396.127	426.88
396.352	411.88
396.576	389.88
396.801	398.88
397.025	390.88
397.249	431.88
397.474	404.88
397.698	402.88
397.922	418.88
398.147	427.88
398.371	430.88
398.595	407.88
398.82	460.88
399.044	455.88
399.268	507.88
399.492	509.88
399.717	579.88
399.941	554.88
400.165	560.88
400.389	561.88
400.613	493.88
400.837	457.88
401.062	455.88
401.286	427.88
401.51	447.88
401.734	419.88
401.958	450.88
402.182	442.88
402.406	471.88
402.63	448.88
402.854	487.88
403.078	443.88
403.302	453.88
403.526	445.88
403.75	474.88
403.974	461.88
404.198	479.88
404.422	464.88
404.645	467.88
404.869	477.88
405.093	494.88
405.317	502.88
405.541	520.88
405.765	490.88
405.988	481.88
406.212	477.88
406.436	502.88
406.66	510.88
406.883	512.88
407.107	514.88
407.331	562.88
407.555	575.88
407.778	579.88
408.002	548.88
408.226	509.88
408.449	509.88
408.673	524.88
408.896	503.88
409.12	518.88
409.344	508.88
409.567	468.88
409.791	478.88
410.014	467.88
410.238	450.88
410.461	441.88
410.685	459.88
410.908	474.88
411.132	474.88
411.355	472.88
411.578	477.88
411.802	462.88
412.025	450.88
412.249	460.88
412.472	468.88
412.695	504.88
412.919	463.88
413.142	450.88
413.365	430.88
413.589	439.88
413.812	438.88
414.035	446.88
414.258	453.88
414.482	428.88
414.705	461.88
414.928	434.88
415.151	426.88
415.374	430.88
415.597	436.88
415.821	434.88
416.044	430.88
416.267	410.88
416.49	422.88
416.713	431.88
416.936	426.88
417.159	436.88
417.382	428.88
417.605	440.88
417.828	446.88
418.051	450.88
418.274	435.88
418.497	433.88
418.72	442.88
418.943	447.88
419.166	452.88
419.389	462.88
419.611	459.88
419.834	469.88
420.057	460.88
420.28	462.88
420.503	463.88
420.726	421.88
420.948	436.88
421.171	459.88
421.394	483.88
421.617	462.88
421.839	446.88
422.062	447.88
422.285	455.88
422.507	484.88
422.73	530.88
422.953	489.88
423.175	484.88
423.398	466.88
423.621	460.88
423.843	464.88
424.066	480.88
424.288	487.88
424.511	493.88
424.733	502.88
424.956	530.88
425.178	527.88
425.401	500.88
425.623	530.88
425.846	468.88
426.068	461.88
426.291	444.88
426.513	445.88
426.735	466.88
426.958	484.88
427.18	531.88
427.402	604.88
427.625	628.88
427.847	547.88
428.069	486.88
428.292	430.88
428.514	419.88
428.736	425.88
428.958	415.88
429.181	412.88
429.403	414.88
429.625	423.88
429.847	455.88
430.069	479.88
430.292	478.88
430.514	440.88
430.736	405.88
430.958	420.88
431.18	400.88
431.402	390.88
431.624	407.88
431.846	404.88
432.068	396.88
432.29	417.88
432.512	413.88
432.734	404.88
432.956	404.88
433.178	416.88
433.4	415.88
433.622	393.88
433.844	413.88
434.066	399.88
434.287	391.88
434.509	425.88
434.731	432.88
434.953	432.88
435.175	441.88
435.397	450.88
435.618	442.88
435.84	477.88
436.062	505.88
436.284	544.88
436.505	494.88
436.727	444.88
436.949	430.88
437.17	394.88
437.392	419.88
437.614	432.88
437.835	404.88
438.057	484.88
438.278	555.88
438.5	535.88
438.721	569.88
438.943	562.88
439.165	481.88
439.386	442.88
439.608	470.88
439.829	436.88
440.05	470.88
440.272	482.88
440.493	466.88
440.715	432.88
440.936	443.88
441.158	427.88
441.379	431.88
441.6	454.88
441.822	466.88
442.043	459.88
442.264	528.88
442.486	555.88
442.707	506.88
442.928	461.88
443.149	467.88
443.371	490.88
443.592	516.88
443.813	539.88
444.034	610.88
444.255	517.88
444.476	489.88
444.698	471.88
444.919	490.88
445.14	623.88
445.361	551.88
445.582	513.88
445.803	513.88
446.024	557.88
446.245	563.88
446.466	512.88
446.687	482.88
446.908	460.88
447.129	406.88
447.35	394.88
447.571	389.88
447.792	408.88
448.013	424.88
448.234	418.88
448.455	468.88
448.675	517.88
448.896	580.88
449.117	493.88
449.338	468.88
449.559	544.88
449.779	599.88
450	484.88
450.221	428.88
450.442	413.88
450.662	401.88
450.883	396.88
451.104	430.88
451.324	427.88
451.545	395.88
451.766	393.88
451.986	380.88
452.207	389.88
452.428	380.88
452.648	365.88
452.869	381.88
453.089	382.88
453.31	386.88
453.53	387.88
453.751	363.88
453.971	370.88
454.192	382.88
454.412	374.88
454.633	358.88
454.853	364.88
455.073	376.88
455.294	386.88
455.514	424.88
455.734	422.88
455.955	366.88
456.175	355.88
456.395	332.88
456.616	330.88
456.836	376.88
457.056	358.88
457.276	353.88
457.497	372.88
457.717	367.88
457.937	378.88
458.157	370.88
458.377	375.88
458.598	379.88
458.818	430.88
459.038	476.88
459.258	470.88
459.478	424.88
459.698	423.88
459.918	427.88
460.138	439.88
460.358	431.88
460.578	437.88
460.798	428.88
461.018	442.88
461.238	421.88
461.458	436.88
461.678	445.88
461.898	453.88
462.118	442.88
462.338	455.88
462.558	448.88
462.777	469.88
462.997	498.88
463.217	529.88
463.437	546.88
463.657	493.88
463.876	470.88
464.096	478.88
464.316	475.88
464.536	478.88
464.755	484.88
464.975	462.88
465.195	496.88
465.414	522.88
465.634	466.88
465.854	416.88
466.073	410.88
466.293	399.88
466.512	382.88
466.732	399.88
466.951	398.88
467.171	393.88
467.391	397.88
467.61	407.88
467.829	409.88
468.049	399.88
468.268	398.88
468.488	390.88
468.707	387.88
468.927	402.88
469.146	363.88
469.365	392.88
469.585	404.88
469.804	391.88
470.023	411.88
470.243	390.88
470.462	404.88
470.681	420.88
470.901	415.88
471.12	398.88
471.339	390.88
471.558	403.88
471.777	400.88
471.997	394.88
472.216	387.88
472.435	448.88
472.654	412.88
472.873	394.88
473.092	387.88
473.311	380.88
473.53	390.88
473.749	404.88
473.968	424.88
474.187	457.88
474.406	449.88
474.625	408.88
474.844	389.88
475.063	391.88
475.282	405.88
475.501	389.88
475.72	406.88
475.939	387.88
476.158	412.88
476.377	387.88
476.596	407.88
476.814	405.88
477.033	393.88
477.252	402.88
477.471	436.88
477.69	436.88
477.908	427.88
478.127	429.88
478.346	438.88
478.564	452.88
478.783	470.88
479.002	458.88
479.22	454.88
479.439	480.88
479.658	471.88
479.876	482.88
480.095	482.88
480.313	496.88
480.532	492.88
480.751	477.88
480.969	468.88
481.188	510.88
481.406	538.88
481.624	488.88
481.843	472.88
482.061	450.88
482.28	466.88
482.498	434.88
482.717	450.88
482.935	469.88
483.153	431.88
483.372	428.88
483.59	455.88
483.808	446.88
484.027	437.88
484.245	464.88
484.463	452.88
484.681	457.88
484.9	467.88
485.118	475.88
485.336	464.88
485.554	452.88
485.772	447.88
485.99	466.88
486.209	481.88
486.427	466.88
486.645	466.88
486.863	478.88
487.081	465.88
487.299	488.88
487.517	487.88
487.735	480.88
487.953	500.88
488.171	490.88
488.389	491.88
488.607	499.88
488.825	502.88
489.043	493.88
489.261	499.88
489.479	488.88
489.696	489.88
489.914	498.88
490.132	503.88
490.35	489.88
490.568	491.88
490.786	503.88
491.003	522.88
491.221	507.88
491.439	525.88
491.657	536.88
491.874	553.88
492.092	548.88
492.31	564.88
492.527	568.88
492.745	539.88
492.963	565.88
493.18	562.88
493.398	542.88
493.615	551.88
493.833	557.88
494.05	553.88
494.268	575.88
494.485	557.88
494.703	555.88
494.92	570.88
495.138	551.88
495.355	587.88
495.573	565.88
495.79	580.88
496.008	576.88
496.225	596.88
496.442	573.88
496.66	575.88
496.877	573.88
497.094	572.88
497.312	572.88
497.529	580.88
497.746	590.88
497.963	617.88
498.181	615.88
498.398	637.88
498.615	639.88
498.832	667.88
499.049	695.88
499.267	724.88
499.484	760.88
499.701	812.88
499.918	860.88
500.135	920.88
500.352	978.88
500.569	1004.88
500.786	1014.88
501.003	957.88
501.22	930.88
501.437	841.88
501.654	815.88
501.871	781.88
502.088	736.88
502.305	712.88
502.522	660.88
502.739	646.88
502.956	639.88
503.172	601.88
503.389	588.88
503.606	598.88
503.823	580.88
504.04	586.88
504.256	605.88
504.473	591.88
504.69	596.88
504.907	586.88
505.123	570.88
505.34	550.88
505.557	548.88
505.773	535.88
505.99	536.88
506.207	540.88
506.423	509.88
506.64	508.88
506.856	526.88
507.073	515.88
507.289	520.88
507.506	493.88
507.722	514.88
507.939	521.88
508.155	514.88
508.372	487.88
508.588	473.88
508.805	498.88
509.021	503.88
509.238	495.88
509.454	508.88
509.67	500.88
509.887	500.88
510.103	492.88
510.319	482.88
510.536	541.88
510.752	735.88
510.968	644.88
511.184	474.88
511.401	489.88
511.617	461.88
511.833	480.88
512.049	479.88
512.265	470.88
512.481	474.88
512.698	452.88
512.914	456.88
513.13	467.88
513.346	475.88
513.562	470.88
513.778	450.88
513.994	453.88
514.21	472.88
514.426	464.88
514.642	507.88
514.858	497.88
515.074	518.88
515.29	604.88
515.506	802.88
515.721	662.88
515.937	520.88
516.153	495.88
516.369	492.88
516.585	487.88
516.801	492.88
517.016	508.88
517.232	496.88
517.448	541.88
517.664	540.88
517.879	552.88
518.095	536.88
518.311	519.88
518.527	526.88
518.742	508.88
518.958	491.88
519.173	487.88
519.389	475.88
519.605	484.88
519.82	460.88
520.036	466.88
520.251	484.88
520.467	498.88
520.682	478.88
520.898	482.88
521.113	475.88
521.329	498.88
521.544	524.88
521.76	631.88
521.975	935.88
522.19	967.88
522.406	580.88
522.621	484.88
522.836	445.88
523.052	426.88
523.267	414.88
523.482	430.88
523.698	411.88
523.913	415.88
524.128	428.88
524.343	405.88
524.559	400.88
524.774	408.88
524.989	411.88
525.204	436.88
525.419	406.88
525.634	396.88
525.849	417.88
526.064	398.88
526.28	405.88
526.495	389.88
526.71	400.88
526.925	386.88
527.14	370.88
527.355	392.88
527.57	357.88
527.785	373.88
527.999	374.88
528.214	389.88
528.429	396.88
528.644	389.88
528.859	402.88
529.074	401.88
529.289	395.88
529.503	428.88
529.718	429.88
529.933	390.88
530.148	389.88
530.363	399.88
530.577	366.88
530.792	376.88
531.007	392.88
531.221	378.88
531.436	384.88
531.651	382.88
531.865	383.88
532.08	386.88
532.295	364.88
532.509	382.88
532.724	374.88
532.938	382.88
533.153	371.88
533.367	386.88
533.582	385.88
533.796	367.88
534.011	386.88
534.225	364.88
534.44	372.88
534.654	376.88
534.868	387.88
535.083	378.88
535.297	367.88
535.511	353.88
535.726	393.88
535.94	379.88
536.154	366.88
536.369	367.88
536.583	365.88
536.797	351.88
537.011	360.88
537.225	374.88
537.44	380.88
537.654	356.88
537.868	363.88
538.082	361.88
538.296	372.88
538.51	360.88
538.724	380.88
538.938	360.88
539.153	366.88
539.367	366.88
539.581	377.88
539.795	356.88
540.009	366.88
540.222	353.88
540.436	353.88
540.65	373.88
540.864	382.88
541.078	367.88
541.292	388.88
541.506	384.88
541.72	350.88
541.934	380.88
542.147	376.88
542.361	365.88
542.575	350.88
542.789	362.88
543.002	367.88
543.216	376.88
543.43	366.88
543.644	387.88
543.857	360.88
544.071	374.88
544.285	375.88
544.498	357.88
544.712	376.88
544.925	383.88
545.139	382.88
545.352	378.88
545.566	363.88
545.779	363.88
545.993	378.88
546.206	386.88
546.42	380.88
546.633	366.88
546.847	354.88
547.06	342.88
547.274	374.88
547.487	358.88
547.7	347.88
547.914	359.88
548.127	369.88
548.34	359.88
548.554	363.88
548.767	371.88
548.98	370.88
549.193	367.88
549.407	385.88
549.62	378.88
549.833	374.88
550.046	362.88
550.259	363.88
550.473	359.88
550.686	374.88
550.899	369.88
551.112	354.88
551.325	354.88
551.538	336.88
551.751	368.88
551.964	376.88
552.177	358.88
552.39	374.88
552.603	374.88
552.816	359.88
553.029	378.88
553.242	376.88
553.455	393.88
553.667	382.88
553.88	398.88
554.093	384.88
554.306	376.88
554.519	375.88
554.732	367.88
554.944	343.88
555.157	343.88
555.37	344.88
555.583	334.88
555.795	332.88
556.008	325.88
556.221	335.88
556.433	342.88
556.646	346.88
556.859	327.88
557.071	328.88
557.284	313.88
557.496	325.88
557.709	306.88
557.921	322.88
558.134	311.88
558.346	321.88
558.559	340.88
558.771	306.88
558.984	302.88
559.196	307.88
559.409	299.88
559.621	314.88
559.833	322.88
560.046	320.88
560.258	318.88
560.47	326.88
560.683	322.88
560.895	298.88
561.107	332.88
561.32	314.88
561.532	318.88
561.744	328.88
561.956	330.88
562.168	314.88
562.381	317.88
562.593	318.88
562.805	310.88
563.017	308.88
563.229	320.88
563.441	328.88
563.653	317.88
563.865	314.88
564.077	317.88
564.289	334.88
564.501	338.88
564.713	336.88
564.925	332.88
565.137	336.88
565.349	331.88
565.561	345.88
565.773	350.88
565.985	381.88
566.197	380.88
566.408	412.88
566.62	405.88
566.832	432.88
567.044	428.88
567.255	435.88
567.467	438.88
567.679	460.88
567.891	487.88
568.102	482.88
568.314	443.88
568.526	459.88
568.737	413.88
568.949	401.88
569.161	369.88
569.372	354.88
569.584	324.88
569.795	319.88
570.007	316.88
570.218	347.88
570.43	341.88
570.641	314.88
570.853	335.88
571.064	343.88
571.276	356.88
571.487	318.88
571.698	330.88
571.91	312.88
572.121	313.88
572.333	304.88
572.544	296.88
572.755	282.88
572.966	299.88
573.178	286.88
573.389	291.88
573.6	282.88
573.811	274.88
574.023	286.88
574.234	277.88
574.445	281.88
574.656	276.88
574.867	298.88
575.078	268.88
575.289	257.88
575.501	268.88
575.712	284.88
575.923	270.88
576.134	270.88
576.345	275.88
576.556	279.88
576.767	284.88
576.978	260.88
577.188	268.88
577.399	266.88
577.61	271.88
577.821	258.88
578.032	280.88
578.243	295.88
578.454	380.88
578.665	325.88
578.875	276.88
579.086	275.88
579.297	262.88
579.508	268.88
579.718	242.88
579.929	251.88
580.14	249.88
580.35	267.88
580.561	247.88
580.772	266.88
580.982	234.88
581.193	253.88
581.403	252.88
581.614	245.88
581.825	250.88
582.035	258.88
582.246	231.88
582.456	258.88
582.667	252.88
582.877	256.88
583.087	255.88
583.298	234.88
583.508	245.88
583.719	235.88
583.929	247.88
584.139	274.88
584.35	256.88
584.56	254.88
584.77	231.88
584.981	248.88
585.191	233.88
585.401	228.88
585.611	228.88
585.821	245.88
586.032	246.88
586.242	252.88
586.452	245.88
586.662	228.88
586.872	246.88
587.082	236.88
587.292	239.88
587.502	254.88
587.713	235.88
587.923	247.88
588.133	247.88
588.343	237.88
588.553	244.88
588.762	239.88
588.972	243.88
589.182	245.88
589.392	263.88
589.602	228.88
589.812	242.88
590.022	247.88
590.232	240.88
590.441	237.88
590.651	232.88
590.861	249.88
591.071	236.88
591.281	267.88
591.49	248.88
591.7	228.88
591.91	266.88
592.119	257.88
592.329	280.88
592.539	271.88
592.748	268.88
592.958	274.88
593.167	282.88
593.377	280.88
593.587	295.88
593.796	284.88
594.006	284.88
594.215	271.88
594.424	284.88
594.634	274.88
594.843	280.88
595.053	267.88
595.262	263.88
595.472	243.88
595.681	245.88
595.89	253.88
596.1	242.88
596.309	236.88
596.518	247.88
596.727	235.88
596.937	246.88
597.146	248.88
597.355	239.88
597.564	232.88
597.774	219.88
597.983	221.88
598.192	219.88
598.401	221.88
598.61	233.88
598.819	227.88
599.028	231.88
599.237	220.88
599.446	226.88
599.655	229.88
599.864	223.88
600.073	214.88
600.282	224.88
600.491	224.88
600.7	215.88
600.909	215.88
601.118	220.88
601.327	209.88
601.536	228.88
601.745	226.88
601.953	238.88
602.162	201.88
602.371	208.88
602.58	216.88
602.789	222.88
602.997	224.88
603.206	219.88
603.415	229.88
603.623	227.88
603.832	219.88
604.041	220.88
604.249	209.88
604.458	208.88
604.666	219.88
604.875	204.88
605.084	206.88
605.292	208.88
605.501	213.88
605.709	218.88
605.918	198.88
606.126	213.88
606.334	206.88
606.543	221.88
606.751	202.88
606.96	207.88
607.168	216.88
607.376	212.88
607.585	213.88
607.793	206.88
608.001	210.88
608.21	207.88
608.418	204.88
608.626	201.88
608.834	195.88
609.043	210.88
609.251	190.88
609.459	182.88
609.667	202.88
609.875	214.88
610.083	212.88
610.291	212.88
610.499	223.88
610.707	202.88
610.916	221.88
611.124	210.88
611.332	209.88
611.54	212.88
611.748	218.88
611.955	215.88
612.163	216.88
612.371	209.88
612.579	203.88
612.787	196.88
612.995	200.88
613.203	200.88
613.411	215.88
613.618	207.88
613.826	217.88
614.034	205.88
614.242	204.88
614.449	197.88
614.657	208.88
614.865	206.88
615.072	211.88
615.28	214.88
615.488	190.88
615.695	196.88
615.903	221.88
616.111	218.88
616.318	213.88
616.526	195.88
616.733	199.88
616.941	204.88
617.148	200.88
617.356	202.88
617.563	214.88
617.771	206.88
617.978	202.88
618.185	186.88
618.393	220.88
618.6	204.88
618.807	208.88
619.015	201.88
619.222	205.88
619.429	184.88
619.637	196.88
619.844	199.88
620.051	203.88
620.258	208.88
620.466	191.88
620.673	204.88
620.88	197.88
621.087	205.88
621.294	196.88
621.501	196.88
621.708	183.88
621.915	196.88
622.122	198.88
622.329	186.88
622.536	203.88
622.743	179.88
622.95	200.88
623.157	187.88
623.364	191.88
623.571	208.88
623.778	193.88
623.985	180.88
624.192	183.88
624.399	198.88
624.606	193.88
624.812	175.88
625.019	186.88
625.226	180.88
625.433	183.88
625.639	174.88
625.846	195.88
626.053	191.88
626.259	179.88
626.466	185.88
626.673	178.88
626.879	184.88
627.086	179.88
627.293	181.88
627.499	194.88
627.706	184.88
627.912	168.88
628.119	190.88
628.325	179.88
628.532	169.88
628.738	191.88
628.945	179.88
629.151	175.88
629.357	178.88
629.564	170.88
629.77	163.88
629.976	171.88
630.183	168.88
630.389	179.88
630.595	183.88
630.802	175.88
631.008	172.88
631.214	182.88
631.42	164.88
631.627	172.88
631.833	174.88
632.039	157.88
632.245	160.88
632.451	175.88
632.657	178.88
632.863	163.88
633.069	170.88
633.275	162.88
633.481	171.88
633.688	157.88
633.893	180.88
634.099	159.88
634.305	155.88
634.511	168.88
634.717	170.88
634.923	168.88
635.129	171.88
635.335	156.88
635.541	178.88
635.747	146.88
635.952	152.88
636.158	178.88
636.364	180.88
636.57	200.88
636.775	150.88
636.981	164.88
637.187	158.88
637.392	162.88
637.598	171.88
637.804	178.88
638.009	168.88
638.215	178.88
638.421	152.88
638.626	152.88
638.832	159.88
639.037	156.88
639.243	151.88
639.448	157.88
639.654	155.88
639.859	149.88
640.065	154.88
640.27	163.88
640.475	159.88
640.681	144.88
640.886	156.88
641.091	155.88
641.297	155.88
641.502	152.88
641.707	147.88
641.913	168.88
642.118	148.88
642.323	152.88
642.528	158.88
642.733	153.88
642.939	150.88
643.144	153.88
643.349	154.88
643.554	157.88
643.759	157.88
643.964	163.88
644.169	151.88
644.374	142.88
644.579	144.88
644.784	159.88
644.989	152.88
645.194	140.88
645.399	143.88
645.604	138.88
645.809	160.88
646.014	146.88
646.219	146.88
646.423	144.88
646.628	159.88
646.833	149.88
647.038	161.88
647.243	144.88
647.447	161.88
647.652	170.88
647.857	156.88
648.062	156.88
648.266	156.88
648.471	154.88
648.676	147.88
648.88	162.88
649.085	151.88
649.289	162.88
649.494	158.88
649.698	160.88
649.903	158.88
650.107	151.88
650.312	141.88
650.516	148.88
650.721	149.88
650.925	143.88
651.13	145.88
651.334	131.88
651.539	146.88
651.743	143.88
651.947	154.88
652.152	144.88
652.356	133.88
652.56	135.88
652.764	135.88
652.969	128.88
653.173	121.88
653.377	130.88
653.581	144.88
653.785	125.88
653.99	127.88
654.194	119.88
654.398	139.88
654.602	141.88
654.806	136.88
655.01	143.88
655.214	128.88
655.418	124.88
655.622	131.88
655.826	127.88
656.03	131.88
656.234	146.88
656.438	128.88
656.642	153.88
656.846	132.88
657.049	138.88
657.253	122.88
657.457	123.88
657.661	130.88
657.865	111.88
658.068	130.88
658.272	102.88
658.476	114.88
658.68	109.88
658.883	110.88
659.087	116.88
659.291	100.88
659.494	105.88
659.698	101.88
659.901	97.88
660.105	109.88
660.309	85.88
660.512	101.88
660.716	86.88
660.919	102.88
661.123	100.88
661.326	93.88
661.53	92.88
661.733	97.88
661.936	89.88
662.14	83.88
662.343	90.88
662.546	88.88
662.75	74.88
662.953	88.88
663.156	78.88
663.36	79.88
663.563	88.88
663.766	84.88
663.969	94.88
664.173	83.88
664.376	85.88
664.579	72.88
664.782	85.88
664.985	94.88
665.188	92.88
665.391	78.88
665.594	87.88
665.797	84.88
666	94.88
666.203	81.88
666.406	105.88
666.609	75.88
666.812	101.88
667.015	83.88
667.218	98.88
667.421	93.88
667.624	84.88
667.827	90.88
668.03	91.88
668.232	86.88
668.435	70.88
668.638	85.88
668.841	86.88
669.043	76.88
669.246	89.88
669.449	84.88
669.651	77.88
669.854	98.88
670.057	89.88
670.259	84.88
670.462	83.88
670.665	76.88
670.867	88.88
671.07	89.88
671.272	78.88
671.475	89.88
671.677	72.88
671.88	102.88
672.082	97.88
672.284	73.88
672.487	74.88
672.689	72.88
672.892	87.88
