Data from 1969.PennyLincolnUp.Lamp.En5.5.200Scan.071719.P1._HRD10591_14-54-55-972.txt Node
Date: Thu Jul 18 14:54:55 EDT 2019
User: cochatt
Spectrometer: HR+D1059
Trigger mode: 1
Integration Time (sec): 1.000000E-1
Scans to average: 1
Electric dark correction enabled: true
Nonlinearity correction enabled: false
Boxcar width: 0
XAxis mode: Wavelengths
Number of Pixels in Spectrum: 2048
>>>>>Begin Spectral Data<<<<<
223.165	-16.94
223.4	-16.94
223.635	-16.94
223.869	-29.94
224.104	-13.94
224.338	-12.94
224.573	-11.94
224.808	-19.94
225.042	-2.94
225.277	-12.94
225.511	-3.94
225.746	10.06
225.98	-5.94
226.215	8.06
226.449	12.06
226.683	30.06
226.918	37.06
227.152	34.06
227.387	35.06
227.621	36.06
227.856	40.06
228.09	44.06
228.324	37.06
228.559	53.06
228.793	55.06
229.027	66.06
229.262	90.06
229.496	92.06
229.73	94.06
229.964	106.06
230.199	101.06
230.433	77.06
230.667	96.06
230.901	87.06
231.136	92.06
231.37	99.06
231.604	90.06
231.838	98.06
232.072	107.06
232.306	98.06
232.541	92.06
232.775	99.06
233.009	98.06
233.243	106.06
233.477	95.06
233.711	113.06
233.945	98.06
234.179	97.06
234.413	105.06
234.647	116.06
234.881	107.06
235.115	105.06
235.349	109.06
235.583	102.06
235.817	120.06
236.051	122.06
236.285	108.06
236.519	91.06
236.753	104.06
236.987	116.06
237.221	141.06
237.455	152.06
237.689	140.06
237.922	141.06
238.156	111.06
238.39	117.06
238.624	105.06
238.858	114.06
239.091	108.06
239.325	116.06
239.559	101.06
239.793	117.06
240.027	117.06
240.26	109.06
240.494	121.06
240.728	127.06
240.961	122.06
241.195	123.06
241.429	108.06
241.662	125.06
241.896	129.06
242.13	117.06
242.363	105.06
242.597	135.06
242.83	122.06
243.064	119.06
243.298	121.06
243.531	118.06
243.765	126.06
243.998	122.06
244.232	126.06
244.465	128.06
244.699	127.06
244.932	135.06
245.166	125.06
245.399	121.06
245.633	116.06
245.866	119.06
246.099	123.06
246.333	143.06
246.566	124.06
246.8	128.06
247.033	141.06
247.266	138.06
247.5	139.06
247.733	145.06
247.966	134.06
248.2	148.06
248.433	143.06
248.666	135.06
248.899	150.06
249.133	157.06
249.366	178.06
249.599	157.06
249.832	143.06
250.066	136.06
250.299	152.06
250.532	157.06
250.765	157.06
250.998	171.06
251.231	147.06
251.465	182.06
251.698	160.06
251.931	149.06
252.164	164.06
252.397	150.06
252.63	159.06
252.863	158.06
253.096	183.06
253.329	170.06
253.562	175.06
253.795	184.06
254.028	177.06
254.261	166.06
254.494	183.06
254.727	206.06
254.96	188.06
255.193	202.06
255.426	191.06
255.659	175.06
255.892	189.06
256.124	180.06
256.357	173.06
256.59	181.06
256.823	172.06
257.056	192.06
257.289	168.06
257.521	164.06
257.754	166.06
257.987	158.06
258.22	184.06
258.452	168.06
258.685	166.06
258.918	170.06
259.151	168.06
259.383	168.06
259.616	184.06
259.849	182.06
260.081	197.06
260.314	193.06
260.547	190.06
260.779	205.06
261.012	183.06
261.244	186.06
261.477	168.06
261.71	177.06
261.942	172.06
262.175	192.06
262.407	181.06
262.64	181.06
262.872	164.06
263.105	180.06
263.337	182.06
263.57	170.06
263.802	170.06
264.035	185.06
264.267	163.06
264.499	185.06
264.732	211.06
264.964	190.06
265.197	169.06
265.429	172.06
265.661	173.06
265.894	177.06
266.126	190.06
266.358	187.06
266.591	183.06
266.823	179.06
267.055	189.06
267.287	188.06
267.52	193.06
267.752	196.06
267.984	194.06
268.216	197.06
268.448	185.06
268.681	201.06
268.913	202.06
269.145	207.06
269.377	218.06
269.609	205.06
269.841	216.06
270.073	215.06
270.306	230.06
270.538	235.06
270.77	244.06
271.002	230.06
271.234	233.06
271.466	232.06
271.698	231.06
271.93	251.06
272.162	257.06
272.394	238.06
272.626	225.06
272.858	212.06
273.09	208.06
273.322	200.06
273.553	201.06
273.785	210.06
274.017	218.06
274.249	201.06
274.481	214.06
274.713	230.06
274.945	213.06
275.176	205.06
275.408	210.06
275.64	230.06
275.872	207.06
276.104	233.06
276.335	209.06
276.567	213.06
276.799	225.06
277.031	229.06
277.262	250.06
277.494	259.06
277.726	249.06
277.957	239.06
278.189	210.06
278.421	205.06
278.652	213.06
278.884	232.06
279.115	229.06
279.347	207.06
279.579	231.06
279.81	210.06
280.042	211.06
280.273	219.06
280.505	224.06
280.736	224.06
280.968	221.06
281.199	213.06
281.431	225.06
281.662	232.06
281.894	219.06
282.125	214.06
282.356	227.06
282.588	249.06
282.819	246.06
283.051	238.06
283.282	226.06
283.513	236.06
283.745	233.06
283.976	250.06
284.207	232.06
284.439	220.06
284.67	219.06
284.901	233.06
285.132	234.06
285.364	232.06
285.595	261.06
285.826	247.06
286.057	244.06
286.288	243.06
286.52	246.06
286.751	230.06
286.982	237.06
287.213	257.06
287.444	245.06
287.675	260.06
287.906	251.06
288.138	250.06
288.369	269.06
288.6	270.06
288.831	247.06
289.062	247.06
289.293	248.06
289.524	257.06
289.755	232.06
289.986	249.06
290.217	233.06
290.448	237.06
290.679	269.06
290.91	254.06
291.141	258.06
291.371	253.06
291.602	260.06
291.833	237.06
292.064	257.06
292.295	257.06
292.526	249.06
292.757	259.06
292.987	251.06
293.218	251.06
293.449	260.06
293.68	262.06
293.91	255.06
294.141	251.06
294.372	248.06
294.603	249.06
294.833	250.06
295.064	254.06
295.295	262.06
295.525	273.06
295.756	237.06
295.987	263.06
296.217	263.06
296.448	283.06
296.679	261.06
296.909	264.06
297.14	257.06
297.37	259.06
297.601	262.06
297.831	266.06
298.062	258.06
298.292	268.06
298.523	256.06
298.753	263.06
298.984	280.06
299.214	268.06
299.445	278.06
299.675	261.06
299.905	277.06
300.136	262.06
300.366	271.06
300.597	281.06
300.827	270.06
301.057	284.06
301.288	278.06
301.518	299.06
301.748	271.06
301.979	287.06
302.209	270.06
302.439	276.06
302.669	265.06
302.9	273.06
303.13	293.06
303.36	294.06
303.59	280.06
303.82	281.06
304.051	276.06
304.281	294.06
304.511	257.06
304.741	281.06
304.971	250.06
305.201	290.06
305.431	282.06
305.661	293.06
305.891	272.06
306.121	267.06
306.352	271.06
306.582	276.06
306.812	277.06
307.042	283.06
307.272	274.06
307.502	276.06
307.731	292.06
307.961	281.06
308.191	276.06
308.421	301.06
308.651	281.06
308.881	276.06
309.111	279.06
309.341	259.06
309.571	270.06
309.8	289.06
310.03	308.06
310.26	301.06
310.49	313.06
310.72	307.06
310.949	305.06
311.179	306.06
311.409	293.06
311.639	308.06
311.868	301.06
312.098	311.06
312.328	286.06
312.557	303.06
312.787	298.06
313.017	290.06
313.246	318.06
313.476	297.06
313.706	311.06
313.935	298.06
314.165	336.06
314.394	322.06
314.624	306.06
314.853	305.06
315.083	301.06
315.312	315.06
315.542	293.06
315.771	311.06
316.001	305.06
316.23	300.06
316.46	317.06
316.689	308.06
316.919	308.06
317.148	323.06
317.377	323.06
317.607	325.06
317.836	296.06
318.065	303.06
318.295	314.06
318.524	315.06
318.753	301.06
318.983	276.06
319.212	318.06
319.441	300.06
319.67	312.06
319.9	310.06
320.129	296.06
320.358	317.06
320.587	309.06
320.816	299.06
321.046	318.06
321.275	299.06
321.504	317.06
321.733	300.06
321.962	327.06
322.191	318.06
322.42	318.06
322.649	328.06
322.878	333.06
323.108	349.06
323.337	341.06
323.566	362.06
323.795	359.06
324.024	399.06
324.253	437.06
324.482	566.06
324.71	789.06
324.939	1015.06
325.168	875.06
325.397	473.06
325.626	402.06
325.855	389.06
326.084	361.06
326.313	359.06
326.542	355.06
326.77	379.06
326.999	438.06
327.228	529.06
327.457	695.06
327.686	786.06
327.914	564.06
328.143	433.06
328.372	399.06
328.6	396.06
328.829	376.06
329.058	370.06
329.287	413.06
329.515	373.06
329.744	357.06
329.972	343.06
330.201	387.06
330.43	416.06
330.658	401.06
330.887	422.06
331.115	417.06
331.344	381.06
331.572	363.06
331.801	359.06
332.03	341.06
332.258	372.06
332.486	352.06
332.715	373.06
332.943	388.06
333.172	393.06
333.4	409.06
333.629	375.06
333.857	405.06
334.085	402.06
334.314	408.06
334.542	419.06
334.771	430.06
334.999	404.06
335.227	404.06
335.455	376.06
335.684	365.06
335.912	376.06
336.14	369.06
336.369	365.06
336.597	364.06
336.825	371.06
337.053	363.06
337.281	351.06
337.51	360.06
337.738	374.06
337.966	363.06
338.194	369.06
338.422	363.06
338.65	361.06
338.878	346.06
339.106	346.06
339.334	344.06
339.562	346.06
339.79	354.06
340.018	351.06
340.246	342.06
340.474	334.06
340.702	337.06
340.93	344.06
341.158	345.06
341.386	330.06
341.614	338.06
341.842	335.06
342.07	343.06
342.298	329.06
342.526	330.06
342.754	341.06
342.981	334.06
343.209	331.06
343.437	361.06
343.665	355.06
343.893	355.06
344.12	393.06
344.348	373.06
344.576	362.06
344.804	349.06
345.031	357.06
345.259	345.06
345.487	342.06
345.714	313.06
345.942	326.06
346.17	311.06
346.397	318.06
346.625	324.06
346.853	321.06
347.08	315.06
347.308	321.06
347.535	323.06
347.763	346.06
347.99	336.06
348.218	328.06
348.445	343.06
348.673	317.06
348.9	339.06
349.128	345.06
349.355	327.06
349.583	324.06
349.81	310.06
350.037	317.06
350.265	322.06
350.492	313.06
350.72	316.06
350.947	324.06
351.174	328.06
351.402	323.06
351.629	318.06
351.856	291.06
352.083	325.06
352.311	320.06
352.538	306.06
352.765	338.06
352.992	328.06
353.22	313.06
353.447	312.06
353.674	306.06
353.901	322.06
354.128	311.06
354.355	308.06
354.583	332.06
354.81	327.06
355.037	305.06
355.264	299.06
355.491	328.06
355.718	300.06
355.945	332.06
356.172	301.06
356.399	298.06
356.626	306.06
356.853	313.06
357.08	291.06
357.307	325.06
357.534	319.06
357.761	297.06
357.988	301.06
358.215	312.06
358.441	312.06
358.668	323.06
358.895	319.06
359.122	324.06
359.349	323.06
359.576	331.06
359.802	320.06
360.029	320.06
360.256	361.06
360.483	342.06
360.709	323.06
360.936	330.06
361.163	338.06
361.39	326.06
361.616	328.06
361.843	318.06
362.07	301.06
362.296	315.06
362.523	331.06
362.749	324.06
362.976	329.06
363.203	318.06
363.429	309.06
363.656	298.06
363.882	325.06
364.109	318.06
364.335	303.06
364.562	301.06
364.788	311.06
365.015	307.06
365.241	305.06
365.468	293.06
365.694	316.06
365.92	325.06
366.147	332.06
366.373	309.06
366.599	311.06
366.826	322.06
367.052	311.06
367.278	311.06
367.505	328.06
367.731	305.06
367.957	305.06
368.184	301.06
368.41	302.06
368.636	335.06
368.862	331.06
369.089	326.06
369.315	310.06
369.541	324.06
369.767	317.06
369.993	310.06
370.219	317.06
370.445	325.06
370.672	334.06
370.898	322.06
371.124	317.06
371.35	334.06
371.576	317.06
371.802	314.06
372.028	326.06
372.254	337.06
372.48	323.06
372.706	326.06
372.932	313.06
373.158	326.06
373.384	324.06
373.61	331.06
373.835	331.06
374.061	337.06
374.287	334.06
374.513	342.06
374.739	315.06
374.965	334.06
375.191	348.06
375.416	334.06
375.642	326.06
375.868	350.06
376.094	334.06
376.319	309.06
376.545	302.06
376.771	332.06
376.997	337.06
377.222	321.06
377.448	332.06
377.674	312.06
377.899	315.06
378.125	305.06
378.35	321.06
378.576	332.06
378.802	314.06
379.027	305.06
379.253	312.06
379.478	326.06
379.704	307.06
379.929	317.06
380.155	304.06
380.38	317.06
380.606	323.06
380.831	299.06
381.057	325.06
381.282	331.06
381.507	304.06
381.733	321.06
381.958	313.06
382.184	314.06
382.409	328.06
382.634	320.06
382.86	315.06
383.085	334.06
383.31	327.06
383.535	345.06
383.761	333.06
383.986	332.06
384.211	329.06
384.436	352.06
384.662	361.06
384.887	345.06
385.112	363.06
385.337	364.06
385.562	358.06
385.787	347.06
386.013	358.06
386.238	375.06
386.463	353.06
386.688	355.06
386.913	355.06
387.138	362.06
387.363	351.06
387.588	368.06
387.813	357.06
388.038	357.06
388.263	358.06
388.488	364.06
388.713	362.06
388.938	369.06
389.163	356.06
389.387	347.06
389.612	363.06
389.837	334.06
390.062	347.06
390.287	353.06
390.512	367.06
390.736	363.06
390.961	343.06
391.186	348.06
391.411	365.06
391.636	360.06
391.86	385.06
392.085	387.06
392.31	391.06
392.534	363.06
392.759	359.06
392.984	364.06
393.208	374.06
393.433	367.06
393.658	363.06
393.882	375.06
394.107	359.06
394.331	371.06
394.556	375.06
394.78	366.06
395.005	374.06
395.229	353.06
395.454	391.06
395.678	367.06
395.903	397.06
396.127	387.06
396.352	387.06
396.576	369.06
396.801	375.06
397.025	386.06
397.249	377.06
397.474	382.06
397.698	382.06
397.922	404.06
398.147	399.06
398.371	401.06
398.595	413.06
398.82	389.06
399.044	435.06
399.268	472.06
399.492	501.06
399.717	513.06
399.941	540.06
400.165	515.06
400.389	494.06
400.613	483.06
400.837	417.06
401.062	426.06
401.286	427.06
401.51	409.06
401.734	429.06
401.958	429.06
402.182	427.06
402.406	454.06
402.63	424.06
402.854	426.06
403.078	446.06
403.302	446.06
403.526	448.06
403.75	451.06
403.974	448.06
404.198	448.06
404.422	441.06
404.645	458.06
404.869	455.06
405.093	455.06
405.317	454.06
405.541	506.06
405.765	484.06
405.988	455.06
406.212	451.06
406.436	474.06
406.66	455.06
406.883	455.06
407.107	495.06
407.331	502.06
407.555	550.06
407.778	543.06
408.002	496.06
408.226	504.06
408.449	475.06
408.673	451.06
408.896	480.06
409.12	499.06
409.344	461.06
409.567	454.06
409.791	425.06
410.014	439.06
410.238	437.06
410.461	429.06
410.685	427.06
410.908	457.06
411.132	439.06
411.355	457.06
411.578	466.06
411.802	439.06
412.025	419.06
412.249	445.06
412.472	466.06
412.695	474.06
412.919	442.06
413.142	434.06
413.365	420.06
413.589	421.06
413.812	433.06
414.035	402.06
414.258	415.06
414.482	402.06
414.705	407.06
414.928	423.06
415.151	406.06
415.374	413.06
415.597	402.06
415.821	407.06
416.044	417.06
416.267	396.06
416.49	410.06
416.713	409.06
416.936	408.06
417.159	397.06
417.382	397.06
417.605	403.06
417.828	412.06
418.051	417.06
418.274	404.06
418.497	419.06
418.72	437.06
418.943	408.06
419.166	425.06
419.389	442.06
419.611	453.06
419.834	407.06
420.057	410.06
420.28	443.06
420.503	422.06
420.726	417.06
420.948	432.06
421.171	454.06
421.394	436.06
421.617	403.06
421.839	409.06
422.062	436.06
422.285	436.06
422.507	482.06
422.73	511.06
422.953	476.06
423.175	424.06
423.398	424.06
423.621	444.06
423.843	456.06
424.066	460.06
424.288	452.06
424.511	462.06
424.733	472.06
424.956	517.06
425.178	501.06
425.401	493.06
425.623	498.06
425.846	465.06
426.068	440.06
426.291	421.06
426.513	425.06
426.735	423.06
426.958	446.06
427.18	472.06
427.402	537.06
427.625	586.06
427.847	520.06
428.069	459.06
428.292	406.06
428.514	409.06
428.736	399.06
428.958	401.06
429.181	394.06
429.403	391.06
429.625	403.06
429.847	423.06
430.069	430.06
430.292	442.06
430.514	402.06
430.736	392.06
430.958	413.06
431.18	403.06
431.402	395.06
431.624	391.06
431.846	389.06
432.068	378.06
432.29	382.06
432.512	398.06
432.734	391.06
432.956	397.06
433.178	386.06
433.4	396.06
433.622	409.06
433.844	386.06
434.066	377.06
434.287	397.06
434.509	408.06
434.731	409.06
434.953	426.06
435.175	425.06
435.397	411.06
435.618	448.06
435.84	433.06
436.062	469.06
436.284	499.06
436.505	457.06
436.727	414.06
436.949	413.06
437.17	398.06
437.392	413.06
437.614	402.06
437.835	427.06
438.057	453.06
438.278	492.06
438.5	520.06
438.721	555.06
438.943	527.06
439.165	438.06
439.386	412.06
439.608	420.06
439.829	389.06
440.05	449.06
440.272	457.06
440.493	419.06
440.715	403.06
440.936	409.06
441.158	405.06
441.379	383.06
441.6	439.06
441.822	433.06
442.043	469.06
442.264	494.06
442.486	504.06
442.707	471.06
442.928	465.06
443.149	433.06
443.371	434.06
443.592	461.06
443.813	539.06
444.034	535.06
444.255	468.06
444.476	448.06
444.698	449.06
444.919	464.06
445.14	524.06
445.361	516.06
445.582	460.06
445.803	501.06
446.024	515.06
446.245	516.06
446.466	488.06
446.687	452.06
446.908	415.06
447.129	411.06
447.35	393.06
447.571	397.06
447.792	393.06
448.013	382.06
448.234	388.06
448.455	424.06
448.675	485.06
448.896	531.06
449.117	450.06
449.338	440.06
449.559	518.06
449.779	552.06
450	459.06
450.221	413.06
450.442	386.06
450.662	383.06
450.883	379.06
451.104	381.06
451.324	363.06
451.545	356.06
451.766	360.06
451.986	345.06
452.207	332.06
452.428	345.06
452.648	357.06
452.869	335.06
453.089	369.06
453.31	353.06
453.53	365.06
453.751	347.06
453.971	350.06
454.192	353.06
454.412	345.06
454.633	338.06
454.853	353.06
455.073	354.06
455.294	360.06
455.514	400.06
455.734	398.06
455.955	364.06
456.175	329.06
456.395	346.06
456.616	340.06
456.836	344.06
457.056	336.06
457.276	337.06
457.497	348.06
457.717	339.06
457.937	343.06
458.157	361.06
458.377	358.06
458.598	354.06
458.818	389.06
459.038	429.06
459.258	452.06
459.478	406.06
459.698	419.06
459.918	392.06
460.138	387.06
460.358	408.06
460.578	411.06
460.798	421.06
461.018	425.06
461.238	417.06
461.458	418.06
461.678	428.06
461.898	418.06
462.118	420.06
462.338	421.06
462.558	420.06
462.777	445.06
462.997	473.06
463.217	481.06
463.437	472.06
463.657	478.06
463.876	454.06
464.096	433.06
464.316	447.06
464.536	437.06
464.755	453.06
464.975	434.06
465.195	450.06
465.414	455.06
465.634	405.06
465.854	401.06
466.073	399.06
466.293	389.06
466.512	370.06
466.732	364.06
466.951	373.06
467.171	377.06
467.391	367.06
467.61	403.06
467.829	361.06
468.049	375.06
468.268	373.06
468.488	353.06
468.707	353.06
468.927	355.06
469.146	373.06
469.365	371.06
469.585	365.06
469.804	375.06
470.023	379.06
470.243	359.06
470.462	379.06
470.681	382.06
470.901	414.06
471.12	386.06
471.339	371.06
471.558	377.06
471.777	393.06
471.997	371.06
472.216	373.06
472.435	389.06
472.654	369.06
472.873	373.06
473.092	358.06
473.311	359.06
473.53	374.06
473.749	377.06
473.968	411.06
474.187	427.06
474.406	437.06
474.625	366.06
474.844	383.06
475.063	363.06
475.282	373.06
475.501	371.06
475.72	393.06
475.939	369.06
476.158	371.06
476.377	374.06
476.596	384.06
476.814	385.06
477.033	404.06
477.252	387.06
477.471	397.06
477.69	383.06
477.908	419.06
478.127	408.06
478.346	421.06
478.564	410.06
478.783	444.06
479.002	431.06
479.22	445.06
479.439	435.06
479.658	441.06
479.876	453.06
480.095	441.06
480.313	470.06
480.532	472.06
480.751	482.06
480.969	462.06
481.188	500.06
481.406	492.06
481.624	447.06
481.843	433.06
482.061	410.06
482.28	449.06
482.498	435.06
482.717	414.06
482.935	422.06
483.153	425.06
483.372	431.06
483.59	412.06
483.808	419.06
484.027	421.06
484.245	437.06
484.463	432.06
484.681	435.06
484.9	439.06
485.118	430.06
485.336	438.06
485.554	439.06
485.772	428.06
485.99	454.06
486.209	449.06
486.427	453.06
486.645	461.06
486.863	460.06
487.081	441.06
487.299	431.06
487.517	465.06
487.735	459.06
487.953	460.06
488.171	466.06
488.389	435.06
488.607	463.06
488.825	465.06
489.043	443.06
489.261	459.06
489.479	453.06
489.696	455.06
489.914	464.06
490.132	464.06
490.35	469.06
490.568	479.06
490.786	497.06
491.003	471.06
491.221	483.06
491.439	489.06
491.657	484.06
491.874	485.06
492.092	507.06
492.31	517.06
492.527	527.06
492.745	536.06
492.963	512.06
493.18	511.06
493.398	525.06
493.615	513.06
493.833	527.06
494.05	517.06
494.268	533.06
494.485	513.06
494.703	526.06
494.92	531.06
495.138	523.06
495.355	520.06
495.573	539.06
495.79	540.06
496.008	543.06
496.225	535.06
496.442	509.06
496.66	523.06
496.877	546.06
497.094	540.06
497.312	545.06
497.529	566.06
497.746	579.06
497.963	578.06
498.181	587.06
498.398	594.06
498.615	621.06
498.832	659.06
499.049	652.06
499.267	693.06
499.484	731.06
499.701	745.06
499.918	784.06
500.135	894.06
500.352	917.06
500.569	974.06
500.786	949.06
501.003	926.06
501.22	861.06
501.437	796.06
501.654	776.06
501.871	724.06
502.088	685.06
502.305	639.06
502.522	632.06
502.739	602.06
502.956	580.06
503.172	590.06
503.389	577.06
503.606	551.06
503.823	561.06
504.04	561.06
504.256	567.06
504.473	552.06
504.69	573.06
504.907	533.06
505.123	511.06
505.34	505.06
505.557	516.06
505.773	525.06
505.99	490.06
506.207	505.06
506.423	485.06
506.64	469.06
506.856	479.06
507.073	454.06
507.289	483.06
507.506	475.06
507.722	475.06
507.939	465.06
508.155	477.06
508.372	461.06
508.588	458.06
508.805	454.06
509.021	431.06
509.238	462.06
509.454	460.06
509.67	450.06
509.887	433.06
510.103	448.06
510.319	439.06
510.536	498.06
510.752	722.06
510.968	578.06
511.184	459.06
511.401	422.06
511.617	451.06
511.833	430.06
512.049	439.06
512.265	454.06
512.481	434.06
512.698	431.06
512.914	407.06
513.13	444.06
513.346	437.06
513.562	419.06
513.778	449.06
513.994	427.06
514.21	429.06
514.426	444.06
514.642	454.06
514.858	442.06
515.074	482.06
515.29	526.06
515.506	717.06
515.721	603.06
515.937	484.06
516.153	462.06
516.369	464.06
516.585	485.06
516.801	467.06
517.016	479.06
517.232	487.06
517.448	489.06
517.664	499.06
517.879	505.06
518.095	517.06
518.311	485.06
518.527	492.06
518.742	461.06
518.958	462.06
519.173	440.06
519.389	442.06
519.605	460.06
519.82	436.06
520.036	437.06
520.251	446.06
520.467	454.06
520.682	456.06
520.898	443.06
521.113	450.06
521.329	443.06
521.544	484.06
521.76	555.06
521.975	872.06
522.19	846.06
522.406	535.06
522.621	441.06
522.836	412.06
523.052	410.06
523.267	393.06
523.482	392.06
523.698	392.06
523.913	393.06
524.128	407.06
524.343	403.06
524.559	387.06
524.774	381.06
524.989	396.06
525.204	375.06
525.419	381.06
525.634	382.06
525.849	373.06
526.064	365.06
526.28	386.06
526.495	373.06
526.71	359.06
526.925	366.06
527.14	372.06
527.355	385.06
527.57	370.06
527.785	386.06
527.999	374.06
528.214	344.06
528.429	379.06
528.644	381.06
528.859	371.06
529.074	384.06
529.289	383.06
529.503	423.06
529.718	397.06
529.933	391.06
530.148	367.06
530.363	381.06
530.577	353.06
530.792	354.06
531.007	334.06
531.221	355.06
531.436	362.06
531.651	361.06
531.865	360.06
532.08	372.06
532.295	361.06
532.509	361.06
532.724	370.06
532.938	362.06
533.153	361.06
533.367	387.06
533.582	357.06
533.796	346.06
534.011	362.06
534.225	345.06
534.44	351.06
534.654	367.06
534.868	371.06
535.083	355.06
535.297	342.06
535.511	369.06
535.726	343.06
535.94	373.06
536.154	343.06
536.369	359.06
536.583	347.06
536.797	354.06
537.011	327.06
537.225	337.06
537.44	340.06
537.654	345.06
537.868	344.06
538.082	340.06
538.296	327.06
538.51	325.06
538.724	345.06
538.938	367.06
539.153	350.06
539.367	341.06
539.581	347.06
539.795	349.06
540.009	349.06
540.222	346.06
540.436	335.06
540.65	340.06
540.864	350.06
541.078	354.06
541.292	349.06
541.506	367.06
541.72	343.06
541.934	358.06
542.147	340.06
542.361	346.06
542.575	333.06
542.789	325.06
543.002	331.06
543.216	351.06
543.43	345.06
543.644	344.06
543.857	343.06
544.071	346.06
544.285	349.06
544.498	339.06
544.712	350.06
544.925	352.06
545.139	351.06
545.352	339.06
545.566	338.06
545.779	346.06
545.993	355.06
546.206	385.06
546.42	365.06
546.633	363.06
546.847	352.06
547.06	340.06
547.274	347.06
547.487	331.06
547.7	356.06
547.914	352.06
548.127	350.06
548.34	350.06
548.554	363.06
548.767	357.06
548.98	366.06
549.193	366.06
549.407	332.06
549.62	330.06
549.833	350.06
550.046	338.06
550.259	351.06
550.473	337.06
550.686	340.06
550.899	315.06
551.112	341.06
551.325	312.06
551.538	338.06
551.751	332.06
551.964	341.06
552.177	346.06
552.39	329.06
552.603	375.06
552.816	361.06
553.029	362.06
553.242	363.06
553.455	358.06
553.667	365.06
553.88	363.06
554.093	363.06
554.306	360.06
554.519	365.06
554.732	333.06
554.944	334.06
555.157	332.06
555.37	339.06
555.583	333.06
555.795	329.06
556.008	333.06
556.221	327.06
556.433	320.06
556.646	333.06
556.859	307.06
557.071	321.06
557.284	310.06
557.496	315.06
557.709	309.06
557.921	321.06
558.134	322.06
558.346	281.06
558.559	307.06
558.771	320.06
558.984	295.06
559.196	308.06
559.409	305.06
559.621	294.06
559.833	307.06
560.046	294.06
560.258	302.06
560.47	301.06
560.683	293.06
560.895	298.06
561.107	291.06
561.32	305.06
561.532	314.06
561.744	301.06
561.956	299.06
562.168	286.06
562.381	302.06
562.593	312.06
562.805	293.06
563.017	293.06
563.229	291.06
563.441	311.06
563.653	305.06
563.865	322.06
564.077	300.06
564.289	300.06
564.501	312.06
564.713	308.06
564.925	319.06
565.137	333.06
565.349	315.06
565.561	345.06
565.773	346.06
565.985	353.06
566.197	363.06
566.408	401.06
566.62	391.06
566.832	403.06
567.044	409.06
567.255	440.06
567.467	427.06
567.679	413.06
567.891	465.06
568.102	455.06
568.314	447.06
568.526	427.06
568.737	421.06
568.949	390.06
569.161	347.06
569.372	364.06
569.584	341.06
569.795	303.06
570.007	311.06
570.218	317.06
570.43	321.06
570.641	309.06
570.853	317.06
571.064	322.06
571.276	321.06
571.487	302.06
571.698	296.06
571.91	303.06
572.121	284.06
572.333	288.06
572.544	282.06
572.755	279.06
572.966	285.06
573.178	283.06
573.389	275.06
573.6	270.06
573.811	242.06
574.023	263.06
574.234	272.06
574.445	263.06
574.656	261.06
574.867	258.06
575.078	284.06
575.289	265.06
575.501	264.06
575.712	268.06
575.923	254.06
576.134	284.06
576.345	257.06
576.556	278.06
576.767	267.06
576.978	253.06
577.188	268.06
577.399	255.06
577.61	254.06
577.821	244.06
578.032	252.06
578.243	272.06
578.454	354.06
578.665	299.06
578.875	245.06
579.086	245.06
579.297	260.06
579.508	244.06
579.718	256.06
579.929	223.06
580.14	244.06
580.35	241.06
580.561	240.06
580.772	244.06
580.982	251.06
581.193	228.06
581.403	249.06
581.614	243.06
581.825	246.06
582.035	233.06
582.246	249.06
582.456	230.06
582.667	233.06
582.877	218.06
583.087	229.06
583.298	235.06
583.508	247.06
583.719	243.06
583.929	227.06
584.139	236.06
584.35	242.06
584.56	236.06
584.77	237.06
584.981	239.06
585.191	237.06
585.401	223.06
585.611	232.06
585.821	244.06
586.032	235.06
586.242	225.06
586.452	219.06
586.662	242.06
586.872	238.06
587.082	239.06
587.292	237.06
587.502	235.06
587.713	231.06
587.923	239.06
588.133	245.06
588.343	232.06
588.553	236.06
588.762	234.06
588.972	222.06
589.182	241.06
589.392	243.06
589.602	236.06
589.812	231.06
590.022	251.06
590.232	227.06
590.441	246.06
590.651	235.06
590.861	230.06
591.071	249.06
591.281	248.06
591.49	234.06
591.7	245.06
591.91	255.06
592.119	233.06
592.329	249.06
592.539	269.06
592.748	252.06
592.958	284.06
593.167	248.06
593.377	278.06
593.587	279.06
593.796	275.06
594.006	293.06
594.215	282.06
594.424	287.06
594.634	269.06
594.843	278.06
595.053	253.06
595.262	264.06
595.472	245.06
595.681	241.06
595.89	235.06
596.1	245.06
596.309	230.06
596.518	231.06
596.727	246.06
596.937	229.06
597.146	237.06
597.355	218.06
597.564	217.06
597.774	241.06
597.983	217.06
598.192	200.06
598.401	222.06
598.61	232.06
598.819	211.06
599.028	216.06
599.237	191.06
599.446	219.06
599.655	212.06
599.864	204.06
600.073	210.06
600.282	211.06
600.491	205.06
600.7	203.06
600.909	212.06
601.118	219.06
601.327	213.06
601.536	190.06
601.745	209.06
601.953	215.06
602.162	202.06
602.371	209.06
602.58	203.06
602.789	213.06
602.997	194.06
603.206	207.06
603.415	201.06
603.623	221.06
603.832	198.06
604.041	212.06
604.249	209.06
604.458	194.06
604.666	227.06
604.875	196.06
605.084	210.06
605.292	206.06
605.501	200.06
605.709	202.06
605.918	197.06
606.126	205.06
606.334	194.06
606.543	208.06
606.751	200.06
606.96	201.06
607.168	199.06
607.376	191.06
607.585	192.06
607.793	213.06
608.001	192.06
608.21	203.06
608.418	193.06
608.626	195.06
608.834	174.06
609.043	190.06
609.251	190.06
609.459	193.06
609.667	207.06
609.875	208.06
610.083	193.06
610.291	199.06
610.499	200.06
610.707	210.06
610.916	205.06
611.124	203.06
611.332	219.06
611.54	207.06
611.748	207.06
611.955	198.06
612.163	190.06
612.371	201.06
612.579	205.06
612.787	193.06
612.995	212.06
613.203	203.06
613.411	189.06
613.618	193.06
613.826	199.06
614.034	203.06
614.242	178.06
614.449	193.06
614.657	203.06
614.865	193.06
615.072	204.06
615.28	201.06
615.488	202.06
615.695	184.06
615.903	191.06
616.111	193.06
616.318	204.06
616.526	223.06
616.733	199.06
616.941	197.06
617.148	202.06
617.356	204.06
617.563	221.06
617.771	199.06
617.978	189.06
618.185	197.06
618.393	195.06
618.6	183.06
618.807	195.06
619.015	201.06
619.222	197.06
619.429	188.06
619.637	190.06
619.844	186.06
620.051	196.06
620.258	189.06
620.466	189.06
620.673	187.06
620.88	180.06
621.087	188.06
621.294	177.06
621.501	196.06
621.708	195.06
621.915	188.06
622.122	190.06
622.329	203.06
622.536	198.06
622.743	177.06
622.95	181.06
623.157	168.06
623.364	190.06
623.571	188.06
623.778	187.06
623.985	191.06
624.192	178.06
624.399	171.06
624.606	179.06
624.812	187.06
625.019	185.06
625.226	187.06
625.433	181.06
625.639	155.06
625.846	152.06
626.053	154.06
626.259	177.06
626.466	185.06
626.673	171.06
626.879	181.06
627.086	173.06
627.293	178.06
627.499	171.06
627.706	173.06
627.912	168.06
628.119	159.06
628.325	172.06
628.532	165.06
628.738	185.06
628.945	171.06
629.151	166.06
629.357	177.06
629.564	173.06
629.77	185.06
629.976	170.06
630.183	169.06
630.389	155.06
630.595	169.06
630.802	170.06
631.008	175.06
631.214	169.06
631.42	180.06
631.627	159.06
631.833	169.06
632.039	151.06
632.245	171.06
632.451	157.06
632.657	152.06
632.863	155.06
633.069	155.06
633.275	153.06
633.481	166.06
633.688	173.06
633.893	153.06
634.099	165.06
634.305	167.06
634.511	172.06
634.717	169.06
634.923	165.06
635.129	150.06
635.335	148.06
635.541	166.06
635.747	152.06
635.952	167.06
636.158	161.06
636.364	164.06
636.57	155.06
636.775	153.06
636.981	158.06
637.187	164.06
637.392	156.06
637.598	136.06
637.804	153.06
638.009	150.06
638.215	141.06
638.421	157.06
638.626	164.06
638.832	166.06
639.037	157.06
639.243	141.06
639.448	167.06
639.654	158.06
639.859	151.06
640.065	159.06
640.27	167.06
640.475	160.06
640.681	144.06
640.886	173.06
641.091	158.06
641.297	150.06
641.502	136.06
641.707	158.06
641.913	149.06
642.118	137.06
642.323	131.06
642.528	134.06
642.733	154.06
642.939	142.06
643.144	136.06
643.349	149.06
643.554	145.06
643.759	148.06
643.964	156.06
644.169	160.06
644.374	147.06
644.579	133.06
644.784	129.06
644.989	149.06
645.194	150.06
645.399	143.06
645.604	135.06
645.809	163.06
646.014	159.06
646.219	148.06
646.423	124.06
646.628	146.06
646.833	151.06
647.038	153.06
647.243	131.06
647.447	149.06
647.652	145.06
647.857	150.06
648.062	159.06
648.266	149.06
648.471	153.06
648.676	147.06
648.88	143.06
649.085	147.06
649.289	138.06
649.494	151.06
649.698	163.06
649.903	157.06
650.107	142.06
650.312	141.06
650.516	138.06
650.721	137.06
650.925	149.06
651.13	136.06
651.334	127.06
651.539	141.06
651.743	121.06
651.947	136.06
652.152	154.06
652.356	137.06
652.56	124.06
652.764	132.06
652.969	137.06
653.173	118.06
653.377	137.06
653.581	131.06
653.785	124.06
653.99	139.06
654.194	129.06
654.398	125.06
654.602	116.06
654.806	119.06
655.01	120.06
655.214	117.06
655.418	131.06
655.622	131.06
655.826	133.06
656.03	135.06
656.234	130.06
656.438	139.06
656.642	134.06
656.846	139.06
657.049	127.06
657.253	128.06
657.457	121.06
657.661	114.06
657.865	107.06
658.068	110.06
658.272	114.06
658.476	102.06
658.68	100.06
658.883	94.06
659.087	85.06
659.291	97.06
659.494	98.06
659.698	92.06
659.901	108.06
660.105	91.06
660.309	91.06
660.512	82.06
660.716	84.06
660.919	88.06
661.123	93.06
661.326	96.06
661.53	82.06
661.733	84.06
661.936	94.06
662.14	82.06
662.343	95.06
662.546	80.06
662.75	97.06
662.953	82.06
663.156	84.06
663.36	84.06
663.563	83.06
663.766	80.06
663.969	66.06
664.173	84.06
664.376	63.06
664.579	79.06
664.782	86.06
664.985	77.06
665.188	71.06
665.391	75.06
665.594	73.06
665.797	84.06
666	71.06
666.203	83.06
666.406	87.06
666.609	79.06
666.812	69.06
667.015	85.06
667.218	96.06
667.421	59.06
667.624	83.06
667.827	72.06
668.03	69.06
668.232	74.06
668.435	95.06
668.638	94.06
668.841	90.06
669.043	78.06
669.246	88.06
669.449	89.06
669.651	67.06
669.854	101.06
670.057	78.06
670.259	76.06
670.462	81.06
670.665	74.06
670.867	79.06
671.07	89.06
671.272	93.06
671.475	82.06
671.677	75.06
671.88	82.06
672.082	85.06
672.284	78.06
672.487	78.06
672.689	75.06
672.892	81.06
