Data from 1969.PennyLincolnUp.Lamp.En5.5.200Scan.071719.P1._HRD10591_14-55-17-972.txt Node
Date: Thu Jul 18 14:55:17 EDT 2019
User: cochatt
Spectrometer: HR+D1059
Trigger mode: 1
Integration Time (sec): 1.000000E-1
Scans to average: 1
Electric dark correction enabled: true
Nonlinearity correction enabled: false
Boxcar width: 0
XAxis mode: Wavelengths
Number of Pixels in Spectrum: 2048
>>>>>Begin Spectral Data<<<<<
223.165	-9.62
223.4	-9.62
223.635	-9.62
223.869	-10.62
224.104	-14.62
224.338	-24.62
224.573	-6.62
224.808	-12.62
225.042	-11.62
225.277	-26.62
225.511	-2.62
225.746	5.38
225.98	17.38
226.215	24.38
226.449	16.38
226.683	21.38
226.918	9.38
227.152	25.38
227.387	37.38
227.621	40.38
227.856	40.38
228.09	49.38
228.324	47.38
228.559	49.38
228.793	55.38
229.027	80.38
229.262	93.38
229.496	102.38
229.73	94.38
229.964	119.38
230.199	107.38
230.433	94.38
230.667	102.38
230.901	103.38
231.136	99.38
231.37	94.38
231.604	96.38
231.838	116.38
232.072	102.38
232.306	107.38
232.541	110.38
232.775	115.38
233.009	104.38
233.243	108.38
233.477	110.38
233.711	106.38
233.945	106.38
234.179	112.38
234.413	112.38
234.647	104.38
234.881	93.38
235.115	96.38
235.349	120.38
235.583	108.38
235.817	103.38
236.051	88.38
236.285	131.38
236.519	119.38
236.753	109.38
236.987	115.38
237.221	137.38
237.455	150.38
237.689	139.38
237.922	115.38
238.156	119.38
238.39	118.38
238.624	112.38
238.858	116.38
239.091	104.38
239.325	110.38
239.559	122.38
239.793	117.38
240.027	123.38
240.26	125.38
240.494	131.38
240.728	127.38
240.961	131.38
241.195	115.38
241.429	121.38
241.662	129.38
241.896	125.38
242.13	116.38
242.363	117.38
242.597	130.38
242.83	126.38
243.064	126.38
243.298	133.38
243.531	131.38
243.765	134.38
243.998	130.38
244.232	126.38
244.465	118.38
244.699	141.38
244.932	140.38
245.166	128.38
245.399	112.38
245.633	125.38
245.866	143.38
246.099	132.38
246.333	150.38
246.566	137.38
246.8	135.38
247.033	128.38
247.266	138.38
247.5	144.38
247.733	133.38
247.966	148.38
248.2	136.38
248.433	133.38
248.666	158.38
248.899	151.38
249.133	170.38
249.366	172.38
249.599	162.38
249.832	150.38
250.066	151.38
250.299	160.38
250.532	161.38
250.765	165.38
250.998	189.38
251.231	176.38
251.465	176.38
251.698	166.38
251.931	155.38
252.164	142.38
252.397	170.38
252.63	152.38
252.863	176.38
253.096	185.38
253.329	183.38
253.562	168.38
253.795	175.38
254.028	169.38
254.261	164.38
254.494	178.38
254.727	199.38
254.96	208.38
255.193	205.38
255.426	205.38
255.659	192.38
255.892	183.38
256.124	190.38
256.357	192.38
256.59	180.38
256.823	170.38
257.056	183.38
257.289	161.38
257.521	167.38
257.754	185.38
257.987	166.38
258.22	195.38
258.452	181.38
258.685	175.38
258.918	179.38
259.151	156.38
259.383	170.38
259.616	175.38
259.849	181.38
260.081	179.38
260.314	204.38
260.547	213.38
260.779	191.38
261.012	208.38
261.244	179.38
261.477	188.38
261.71	180.38
261.942	184.38
262.175	198.38
262.407	200.38
262.64	198.38
262.872	183.38
263.105	188.38
263.337	192.38
263.57	178.38
263.802	179.38
264.035	190.38
264.267	188.38
264.499	185.38
264.732	192.38
264.964	200.38
265.197	197.38
265.429	185.38
265.661	172.38
265.894	191.38
266.126	181.38
266.358	190.38
266.591	191.38
266.823	185.38
267.055	196.38
267.287	204.38
267.52	209.38
267.752	186.38
267.984	185.38
268.216	200.38
268.448	185.38
268.681	179.38
268.913	210.38
269.145	226.38
269.377	230.38
269.609	215.38
269.841	228.38
270.073	221.38
270.306	243.38
270.538	245.38
270.77	244.38
271.002	230.38
271.234	235.38
271.466	236.38
271.698	260.38
271.93	235.38
272.162	250.38
272.394	240.38
272.626	255.38
272.858	219.38
273.09	239.38
273.322	209.38
273.553	221.38
273.785	223.38
274.017	218.38
274.249	220.38
274.481	215.38
274.713	218.38
274.945	243.38
275.176	232.38
275.408	222.38
275.64	224.38
275.872	222.38
276.104	225.38
276.335	236.38
276.567	240.38
276.799	225.38
277.031	246.38
277.262	251.38
277.494	243.38
277.726	237.38
277.957	231.38
278.189	228.38
278.421	237.38
278.652	235.38
278.884	215.38
279.115	230.38
279.347	206.38
279.579	232.38
279.81	214.38
280.042	216.38
280.273	222.38
280.505	245.38
280.736	239.38
280.968	241.38
281.199	233.38
281.431	232.38
281.662	245.38
281.894	230.38
282.125	239.38
282.356	248.38
282.588	236.38
282.819	241.38
283.051	235.38
283.282	236.38
283.513	243.38
283.745	257.38
283.976	243.38
284.207	259.38
284.439	246.38
284.67	253.38
284.901	243.38
285.132	261.38
285.364	235.38
285.595	262.38
285.826	244.38
286.057	239.38
286.288	238.38
286.52	255.38
286.751	226.38
286.982	251.38
287.213	247.38
287.444	266.38
287.675	255.38
287.906	242.38
288.138	261.38
288.369	272.38
288.6	272.38
288.831	254.38
289.062	261.38
289.293	271.38
289.524	270.38
289.755	260.38
289.986	243.38
290.217	263.38
290.448	247.38
290.679	250.38
290.91	241.38
291.141	265.38
291.371	249.38
291.602	255.38
291.833	249.38
292.064	244.38
292.295	235.38
292.526	263.38
292.757	271.38
292.987	243.38
293.218	243.38
293.449	260.38
293.68	264.38
293.91	235.38
294.141	242.38
294.372	260.38
294.603	268.38
294.833	262.38
295.064	267.38
295.295	260.38
295.525	253.38
295.756	283.38
295.987	266.38
296.217	305.38
296.448	291.38
296.679	280.38
296.909	271.38
297.14	265.38
297.37	265.38
297.601	261.38
297.831	272.38
298.062	289.38
298.292	282.38
298.523	265.38
298.753	278.38
298.984	274.38
299.214	274.38
299.445	289.38
299.675	281.38
299.905	279.38
300.136	273.38
300.366	292.38
300.597	279.38
300.827	298.38
301.057	292.38
301.288	273.38
301.518	295.38
301.748	280.38
301.979	287.38
302.209	285.38
302.439	287.38
302.669	289.38
302.9	294.38
303.13	274.38
303.36	287.38
303.59	283.38
303.82	294.38
304.051	289.38
304.281	299.38
304.511	283.38
304.741	292.38
304.971	297.38
305.201	278.38
305.431	298.38
305.661	289.38
305.891	279.38
306.121	294.38
306.352	291.38
306.582	285.38
306.812	298.38
307.042	294.38
307.272	279.38
307.502	293.38
307.731	293.38
307.961	293.38
308.191	302.38
308.421	297.38
308.651	302.38
308.881	283.38
309.111	286.38
309.341	304.38
309.571	295.38
309.8	310.38
310.03	291.38
310.26	310.38
310.49	313.38
310.72	309.38
310.949	313.38
311.179	312.38
311.409	316.38
311.639	325.38
311.868	311.38
312.098	310.38
312.328	315.38
312.557	324.38
312.787	315.38
313.017	352.38
313.246	309.38
313.476	319.38
313.706	320.38
313.935	333.38
314.165	319.38
314.394	300.38
314.624	322.38
314.853	307.38
315.083	306.38
315.312	320.38
315.542	318.38
315.771	314.38
316.001	324.38
316.23	326.38
316.46	312.38
316.689	317.38
316.919	314.38
317.148	318.38
317.377	321.38
317.607	315.38
317.836	330.38
318.065	316.38
318.295	329.38
318.524	316.38
318.753	314.38
318.983	318.38
319.212	319.38
319.441	330.38
319.67	317.38
319.9	319.38
320.129	314.38
320.358	308.38
320.587	318.38
320.816	310.38
321.046	303.38
321.275	295.38
321.504	305.38
321.733	311.38
321.962	327.38
322.191	335.38
322.42	352.38
322.649	328.38
322.878	357.38
323.108	354.38
323.337	350.38
323.566	377.38
323.795	371.38
324.024	423.38
324.253	448.38
324.482	614.38
324.71	843.38
324.939	1068.38
325.168	887.38
325.397	536.38
325.626	420.38
325.855	376.38
326.084	368.38
326.313	382.38
326.542	393.38
326.77	374.38
326.999	436.38
327.228	551.38
327.457	749.38
327.686	810.38
327.914	600.38
328.143	464.38
328.372	434.38
328.6	394.38
328.829	398.38
329.058	399.38
329.287	416.38
329.515	418.38
329.744	379.38
329.972	359.38
330.201	407.38
330.43	424.38
330.658	438.38
330.887	449.38
331.115	436.38
331.344	417.38
331.572	379.38
331.801	388.38
332.03	374.38
332.258	389.38
332.486	401.38
332.715	396.38
332.943	406.38
333.172	406.38
333.4	402.38
333.629	405.38
333.857	421.38
334.085	423.38
334.314	445.38
334.542	452.38
334.771	447.38
334.999	447.38
335.227	413.38
335.455	387.38
335.684	394.38
335.912	388.38
336.14	379.38
336.369	392.38
336.597	375.38
336.825	388.38
337.053	395.38
337.281	381.38
337.51	377.38
337.738	367.38
337.966	381.38
338.194	379.38
338.422	352.38
338.65	351.38
338.878	360.38
339.106	364.38
339.334	364.38
339.562	366.38
339.79	345.38
340.018	378.38
340.246	364.38
340.474	366.38
340.702	369.38
340.93	334.38
341.158	355.38
341.386	347.38
341.614	354.38
341.842	359.38
342.07	349.38
342.298	337.38
342.526	346.38
342.754	339.38
342.981	348.38
343.209	350.38
343.437	354.38
343.665	386.38
343.893	380.38
344.12	385.38
344.348	379.38
344.576	368.38
344.804	393.38
345.031	375.38
345.259	365.38
345.487	374.38
345.714	350.38
345.942	335.38
346.17	326.38
346.397	340.38
346.625	325.38
346.853	350.38
347.08	340.38
347.308	337.38
347.535	356.38
347.763	351.38
347.99	351.38
348.218	357.38
348.445	350.38
348.673	353.38
348.9	347.38
349.128	352.38
349.355	331.38
349.583	336.38
349.81	330.38
350.037	339.38
350.265	337.38
350.492	329.38
350.72	338.38
350.947	340.38
351.174	337.38
351.402	333.38
351.629	332.38
351.856	334.38
352.083	355.38
352.311	340.38
352.538	335.38
352.765	344.38
352.992	337.38
353.22	324.38
353.447	338.38
353.674	331.38
353.901	339.38
354.128	320.38
354.355	310.38
354.583	325.38
354.81	323.38
355.037	323.38
355.264	302.38
355.491	342.38
355.718	318.38
355.945	327.38
356.172	333.38
356.399	328.38
356.626	319.38
356.853	323.38
357.08	326.38
357.307	336.38
357.534	307.38
357.761	303.38
357.988	327.38
358.215	328.38
358.441	323.38
358.668	329.38
358.895	329.38
359.122	317.38
359.349	337.38
359.576	323.38
359.802	355.38
360.029	368.38
360.256	364.38
360.483	364.38
360.709	347.38
360.936	325.38
361.163	337.38
361.39	354.38
361.616	324.38
361.843	324.38
362.07	321.38
362.296	339.38
362.523	328.38
362.749	335.38
362.976	337.38
363.203	317.38
363.429	329.38
363.656	324.38
363.882	325.38
364.109	335.38
364.335	327.38
364.562	311.38
364.788	326.38
365.015	323.38
365.241	323.38
365.468	336.38
365.694	305.38
365.92	334.38
366.147	339.38
366.373	311.38
366.599	310.38
366.826	320.38
367.052	328.38
367.278	328.38
367.505	338.38
367.731	344.38
367.957	336.38
368.184	333.38
368.41	333.38
368.636	311.38
368.862	334.38
369.089	317.38
369.315	320.38
369.541	313.38
369.767	332.38
369.993	317.38
370.219	325.38
370.445	337.38
370.672	323.38
370.898	332.38
371.124	304.38
371.35	315.38
371.576	339.38
371.802	342.38
372.028	331.38
372.254	347.38
372.48	336.38
372.706	339.38
372.932	326.38
373.158	339.38
373.384	345.38
373.61	361.38
373.835	347.38
374.061	333.38
374.287	355.38
374.513	321.38
374.739	348.38
374.965	355.38
375.191	341.38
375.416	353.38
375.642	345.38
375.868	345.38
376.094	344.38
376.319	344.38
376.545	346.38
376.771	349.38
376.997	335.38
377.222	337.38
377.448	340.38
377.674	321.38
377.899	335.38
378.125	311.38
378.35	340.38
378.576	324.38
378.802	315.38
379.027	343.38
379.253	328.38
379.478	334.38
379.704	332.38
379.929	326.38
380.155	341.38
380.38	345.38
380.606	344.38
380.831	338.38
381.057	355.38
381.282	324.38
381.507	311.38
381.733	328.38
381.958	332.38
382.184	333.38
382.409	348.38
382.634	355.38
382.86	333.38
383.085	358.38
383.31	353.38
383.535	373.38
383.761	357.38
383.986	375.38
384.211	359.38
384.436	361.38
384.662	369.38
384.887	344.38
385.112	365.38
385.337	379.38
385.562	360.38
385.787	365.38
386.013	376.38
386.238	345.38
386.463	387.38
386.688	368.38
386.913	365.38
387.138	358.38
387.363	364.38
387.588	374.38
387.813	367.38
388.038	371.38
388.263	371.38
388.488	389.38
388.713	373.38
388.938	373.38
389.163	375.38
389.387	368.38
389.612	371.38
389.837	375.38
390.062	355.38
390.287	368.38
390.512	361.38
390.736	366.38
390.961	373.38
391.186	375.38
391.411	371.38
391.636	377.38
391.86	390.38
392.085	416.38
392.31	411.38
392.534	395.38
392.759	388.38
392.984	379.38
393.208	362.38
393.433	375.38
393.658	391.38
393.882	372.38
394.107	382.38
394.331	377.38
394.556	371.38
394.78	378.38
395.005	384.38
395.229	379.38
395.454	378.38
395.678	384.38
395.903	391.38
396.127	424.38
396.352	402.38
396.576	381.38
396.801	400.38
397.025	397.38
397.249	397.38
397.474	413.38
397.698	393.38
397.922	412.38
398.147	419.38
398.371	417.38
398.595	435.38
398.82	439.38
399.044	457.38
399.268	492.38
399.492	514.38
399.717	551.38
399.941	571.38
400.165	552.38
400.389	515.38
400.613	475.38
400.837	456.38
401.062	464.38
401.286	448.38
401.51	428.38
401.734	431.38
401.958	433.38
402.182	441.38
402.406	443.38
402.63	461.38
402.854	456.38
403.078	457.38
403.302	465.38
403.526	475.38
403.75	462.38
403.974	462.38
404.198	457.38
404.422	466.38
404.645	465.38
404.869	486.38
405.093	486.38
405.317	491.38
405.541	501.38
405.765	517.38
405.988	489.38
406.212	489.38
406.436	508.38
406.66	507.38
406.883	476.38
407.107	499.38
407.331	547.38
407.555	577.38
407.778	578.38
408.002	515.38
408.226	471.38
408.449	499.38
408.673	504.38
408.896	491.38
409.12	520.38
409.344	491.38
409.567	458.38
409.791	453.38
410.014	436.38
410.238	447.38
410.461	438.38
410.685	420.38
410.908	458.38
411.132	469.38
411.355	469.38
411.578	473.38
411.802	445.38
412.025	449.38
412.249	453.38
412.472	469.38
412.695	475.38
412.919	474.38
413.142	468.38
413.365	438.38
413.589	440.38
413.812	424.38
414.035	454.38
414.258	430.38
414.482	439.38
414.705	444.38
414.928	426.38
415.151	424.38
415.374	440.38
415.597	424.38
415.821	420.38
416.044	436.38
416.267	414.38
416.49	431.38
416.713	436.38
416.936	423.38
417.159	421.38
417.382	403.38
417.605	433.38
417.828	430.38
418.051	443.38
418.274	427.38
418.497	414.38
418.72	444.38
418.943	432.38
419.166	448.38
419.389	457.38
419.611	445.38
419.834	452.38
420.057	462.38
420.28	455.38
420.503	456.38
420.726	451.38
420.948	440.38
421.171	451.38
421.394	484.38
421.617	458.38
421.839	436.38
422.062	438.38
422.285	431.38
422.507	480.38
422.73	496.38
422.953	506.38
423.175	468.38
423.398	454.38
423.621	461.38
423.843	457.38
424.066	478.38
424.288	468.38
424.511	483.38
424.733	488.38
424.956	521.38
425.178	518.38
425.401	504.38
425.623	503.38
425.846	464.38
426.068	445.38
426.291	409.38
426.513	426.38
426.735	441.38
426.958	469.38
427.18	491.38
427.402	561.38
427.625	602.38
427.847	547.38
428.069	494.38
428.292	432.38
428.514	427.38
428.736	397.38
428.958	421.38
429.181	428.38
429.403	421.38
429.625	427.38
429.847	435.38
430.069	476.38
430.292	455.38
430.514	415.38
430.736	400.38
430.958	395.38
431.18	395.38
431.402	408.38
431.624	411.38
431.846	390.38
432.068	397.38
432.29	405.38
432.512	404.38
432.734	396.38
432.956	415.38
433.178	409.38
433.4	415.38
433.622	401.38
433.844	410.38
434.066	409.38
434.287	429.38
434.509	417.38
434.731	406.38
434.953	437.38
435.175	454.38
435.397	455.38
435.618	446.38
435.84	462.38
436.062	506.38
436.284	516.38
436.505	445.38
436.727	425.38
436.949	439.38
437.17	414.38
437.392	401.38
437.614	396.38
437.835	407.38
438.057	469.38
438.278	523.38
438.5	527.38
438.721	550.38
438.943	523.38
439.165	464.38
439.386	414.38
439.608	427.38
439.829	429.38
440.05	440.38
440.272	465.38
440.493	444.38
440.715	436.38
440.936	424.38
441.158	409.38
441.379	425.38
441.6	437.38
441.822	439.38
442.043	471.38
442.264	506.38
442.486	523.38
442.707	456.38
442.928	433.38
443.149	454.38
443.371	474.38
443.592	495.38
443.813	520.38
444.034	586.38
444.255	518.38
444.476	473.38
444.698	499.38
444.919	487.38
445.14	553.38
445.361	519.38
445.582	480.38
445.803	513.38
446.024	537.38
446.245	535.38
446.466	506.38
446.687	449.38
446.908	433.38
447.129	418.38
447.35	393.38
447.571	398.38
447.792	398.38
448.013	384.38
448.234	410.38
448.455	432.38
448.675	475.38
448.896	543.38
449.117	460.38
449.338	469.38
449.559	533.38
449.779	556.38
450	481.38
450.221	402.38
450.442	399.38
450.662	391.38
450.883	402.38
451.104	417.38
451.324	401.38
451.545	385.38
451.766	384.38
451.986	356.38
452.207	345.38
452.428	379.38
452.648	355.38
452.869	361.38
453.089	381.38
453.31	383.38
453.53	378.38
453.751	383.38
453.971	373.38
454.192	368.38
454.412	375.38
454.633	381.38
454.853	371.38
455.073	344.38
455.294	370.38
455.514	417.38
455.734	381.38
455.955	360.38
456.175	366.38
456.395	357.38
456.616	362.38
456.836	371.38
457.056	362.38
457.276	325.38
457.497	353.38
457.717	341.38
457.937	362.38
458.157	347.38
458.377	376.38
458.598	391.38
458.818	398.38
459.038	445.38
459.258	447.38
459.478	432.38
459.698	402.38
459.918	408.38
460.138	406.38
460.358	417.38
460.578	437.38
460.798	432.38
461.018	439.38
461.238	429.38
461.458	435.38
461.678	436.38
461.898	436.38
462.118	428.38
462.338	447.38
462.558	455.38
462.777	469.38
462.997	494.38
463.217	492.38
463.437	517.38
463.657	486.38
463.876	466.38
464.096	457.38
464.316	474.38
464.536	462.38
464.755	460.38
464.975	449.38
465.195	466.38
465.414	472.38
465.634	443.38
465.854	407.38
466.073	406.38
466.293	393.38
466.512	394.38
466.732	385.38
466.951	381.38
467.171	366.38
467.391	383.38
467.61	397.38
467.829	363.38
468.049	377.38
468.268	389.38
468.488	389.38
468.707	363.38
468.927	358.38
469.146	361.38
469.365	377.38
469.585	380.38
469.804	393.38
470.023	394.38
470.243	400.38
470.462	398.38
470.681	397.38
470.901	407.38
471.12	422.38
471.339	395.38
471.558	403.38
471.777	412.38
471.997	383.38
472.216	399.38
472.435	392.38
472.654	397.38
472.873	374.38
473.092	365.38
473.311	385.38
473.53	371.38
473.749	408.38
473.968	402.38
474.187	432.38
474.406	458.38
474.625	408.38
474.844	402.38
475.063	384.38
475.282	387.38
475.501	385.38
475.72	390.38
475.939	380.38
476.158	401.38
476.377	392.38
476.596	375.38
476.814	395.38
477.033	396.38
477.252	401.38
477.471	403.38
477.69	403.38
477.908	424.38
478.127	431.38
478.346	439.38
478.564	426.38
478.783	451.38
479.002	453.38
479.22	440.38
479.439	450.38
479.658	473.38
479.876	459.38
480.095	477.38
480.313	481.38
480.532	495.38
480.751	474.38
480.969	479.38
481.188	493.38
481.406	528.38
481.624	487.38
481.843	453.38
482.061	444.38
482.28	444.38
482.498	428.38
482.717	438.38
482.935	445.38
483.153	417.38
483.372	430.38
483.59	451.38
483.808	449.38
484.027	437.38
484.245	431.38
484.463	429.38
484.681	446.38
484.9	437.38
485.118	448.38
485.336	448.38
485.554	451.38
485.772	453.38
485.99	456.38
486.209	456.38
486.427	444.38
486.645	455.38
486.863	470.38
487.081	487.38
487.299	468.38
487.517	457.38
487.735	479.38
487.953	474.38
488.171	472.38
488.389	463.38
488.607	466.38
488.825	464.38
489.043	456.38
489.261	473.38
489.479	476.38
489.696	464.38
489.914	470.38
490.132	499.38
490.35	478.38
490.568	477.38
490.786	515.38
491.003	492.38
491.221	531.38
491.439	520.38
491.657	533.38
491.874	517.38
492.092	530.38
492.31	530.38
492.527	526.38
492.745	540.38
492.963	538.38
493.18	533.38
493.398	543.38
493.615	537.38
493.833	543.38
494.05	543.38
494.268	541.38
494.485	558.38
494.703	553.38
494.92	556.38
495.138	537.38
495.355	554.38
495.573	550.38
495.79	549.38
496.008	554.38
496.225	555.38
496.442	543.38
496.66	552.38
496.877	557.38
497.094	547.38
497.312	567.38
497.529	581.38
497.746	575.38
497.963	589.38
498.181	608.38
498.398	617.38
498.615	629.38
498.832	680.38
499.049	684.38
499.267	725.38
499.484	728.38
499.701	796.38
499.918	849.38
500.135	909.38
500.352	959.38
500.569	986.38
500.786	980.38
501.003	940.38
501.22	881.38
501.437	831.38
501.654	793.38
501.871	728.38
502.088	712.38
502.305	675.38
502.522	637.38
502.739	624.38
502.956	600.38
503.172	598.38
503.389	534.38
503.606	589.38
503.823	597.38
504.04	583.38
504.256	569.38
504.473	586.38
504.69	572.38
504.907	588.38
505.123	559.38
505.34	546.38
505.557	525.38
505.773	523.38
505.99	521.38
506.207	519.38
506.423	508.38
506.64	507.38
506.856	514.38
507.073	514.38
507.289	513.38
507.506	474.38
507.722	488.38
507.939	527.38
508.155	467.38
508.372	483.38
508.588	458.38
508.805	462.38
509.021	471.38
509.238	462.38
509.454	472.38
509.67	459.38
509.887	478.38
510.103	468.38
510.319	451.38
510.536	512.38
510.752	689.38
510.968	630.38
511.184	471.38
511.401	443.38
511.617	460.38
511.833	465.38
512.049	457.38
512.265	447.38
512.481	422.38
512.698	444.38
512.914	435.38
513.13	430.38
513.346	428.38
513.562	442.38
513.778	446.38
513.994	459.38
514.21	462.38
514.426	481.38
514.642	474.38
514.858	473.38
515.074	480.38
515.29	546.38
515.506	733.38
515.721	640.38
515.937	494.38
516.153	499.38
516.369	495.38
516.585	487.38
516.801	494.38
517.016	513.38
517.232	489.38
517.448	518.38
517.664	529.38
517.879	518.38
518.095	513.38
518.311	515.38
518.527	507.38
518.742	486.38
518.958	489.38
519.173	477.38
519.389	479.38
519.605	469.38
519.82	453.38
520.036	473.38
520.251	486.38
520.467	484.38
520.682	455.38
520.898	483.38
521.113	469.38
521.329	476.38
521.544	513.38
521.76	601.38
521.975	886.38
522.19	893.38
522.406	558.38
522.621	445.38
522.836	421.38
523.052	430.38
523.267	425.38
523.482	422.38
523.698	399.38
523.913	411.38
524.128	399.38
524.343	384.38
524.559	395.38
524.774	393.38
524.989	391.38
525.204	408.38
525.419	371.38
525.634	380.38
525.849	396.38
526.064	392.38
526.28	374.38
526.495	374.38
526.71	389.38
526.925	394.38
527.14	372.38
527.355	378.38
527.57	367.38
527.785	368.38
527.999	390.38
528.214	369.38
528.429	357.38
528.644	374.38
528.859	378.38
529.074	390.38
529.289	401.38
529.503	404.38
529.718	398.38
529.933	398.38
530.148	373.38
530.363	373.38
530.577	361.38
530.792	387.38
531.007	378.38
531.221	405.38
531.436	396.38
531.651	390.38
531.865	375.38
532.08	368.38
532.295	367.38
532.509	379.38
532.724	359.38
532.938	353.38
533.153	362.38
533.367	378.38
533.582	370.38
533.796	360.38
534.011	371.38
534.225	358.38
534.44	366.38
534.654	348.38
534.868	364.38
535.083	385.38
535.297	380.38
535.511	373.38
535.726	378.38
535.94	362.38
536.154	373.38
536.369	356.38
536.583	355.38
536.797	365.38
537.011	349.38
537.225	350.38
537.44	333.38
537.654	347.38
537.868	345.38
538.082	384.38
538.296	358.38
538.51	380.38
538.724	367.38
538.938	357.38
539.153	349.38
539.367	357.38
539.581	372.38
539.795	363.38
540.009	354.38
540.222	355.38
540.436	355.38
540.65	343.38
540.864	363.38
541.078	367.38
541.292	350.38
541.506	356.38
541.72	353.38
541.934	351.38
542.147	364.38
542.361	364.38
542.575	365.38
542.789	373.38
543.002	351.38
543.216	353.38
543.43	358.38
543.644	356.38
543.857	355.38
544.071	353.38
544.285	360.38
544.498	368.38
544.712	360.38
544.925	357.38
545.139	351.38
545.352	363.38
545.566	352.38
545.779	356.38
545.993	351.38
546.206	377.38
546.42	365.38
546.633	363.38
546.847	353.38
547.06	346.38
547.274	356.38
547.487	373.38
547.7	358.38
547.914	343.38
548.127	355.38
548.34	365.38
548.554	351.38
548.767	348.38
548.98	356.38
549.193	358.38
549.407	350.38
549.62	372.38
549.833	384.38
550.046	358.38
550.259	365.38
550.473	357.38
550.686	353.38
550.899	343.38
551.112	349.38
551.325	349.38
551.538	344.38
551.751	355.38
551.964	357.38
552.177	347.38
552.39	349.38
552.603	350.38
552.816	338.38
553.029	361.38
553.242	378.38
553.455	361.38
553.667	364.38
553.88	405.38
554.093	375.38
554.306	355.38
554.519	375.38
554.732	361.38
554.944	355.38
555.157	344.38
555.37	357.38
555.583	331.38
555.795	335.38
556.008	331.38
556.221	331.38
556.433	336.38
556.646	328.38
556.859	309.38
557.071	309.38
557.284	301.38
557.496	293.38
557.709	315.38
557.921	319.38
558.134	310.38
558.346	311.38
558.559	318.38
558.771	314.38
558.984	323.38
559.196	309.38
559.409	307.38
559.621	319.38
559.833	323.38
560.046	305.38
560.258	311.38
560.47	325.38
560.683	319.38
560.895	310.38
561.107	311.38
561.32	312.38
561.532	315.38
561.744	313.38
561.956	304.38
562.168	314.38
562.381	320.38
562.593	324.38
562.805	324.38
563.017	315.38
563.229	317.38
563.441	320.38
563.653	311.38
563.865	314.38
564.077	304.38
564.289	302.38
564.501	336.38
564.713	334.38
564.925	335.38
565.137	334.38
565.349	350.38
565.561	341.38
565.773	353.38
565.985	364.38
566.197	362.38
566.408	372.38
566.62	391.38
566.832	406.38
567.044	453.38
567.255	424.38
567.467	441.38
567.679	461.38
567.891	478.38
568.102	475.38
568.314	456.38
568.526	423.38
568.737	429.38
568.949	390.38
569.161	377.38
569.372	351.38
569.584	332.38
569.795	331.38
570.007	333.38
570.218	338.38
570.43	328.38
570.641	319.38
570.853	319.38
571.064	330.38
571.276	328.38
571.487	333.38
571.698	321.38
571.91	299.38
572.121	299.38
572.333	302.38
572.544	283.38
572.755	299.38
572.966	279.38
573.178	278.38
573.389	278.38
573.6	286.38
573.811	282.38
574.023	273.38
574.234	276.38
574.445	264.38
574.656	273.38
574.867	268.38
575.078	281.38
575.289	277.38
575.501	280.38
575.712	265.38
575.923	282.38
576.134	266.38
576.345	265.38
576.556	256.38
576.767	261.38
576.978	267.38
577.188	265.38
577.399	257.38
577.61	254.38
577.821	276.38
578.032	270.38
578.243	278.38
578.454	355.38
578.665	301.38
578.875	249.38
579.086	273.38
579.297	235.38
579.508	255.38
579.718	255.38
579.929	247.38
580.14	244.38
580.35	270.38
580.561	265.38
580.772	249.38
580.982	236.38
581.193	247.38
581.403	238.38
581.614	235.38
581.825	240.38
582.035	251.38
582.246	250.38
582.456	244.38
582.667	248.38
582.877	245.38
583.087	233.38
583.298	238.38
583.508	236.38
583.719	240.38
583.929	246.38
584.139	247.38
584.35	246.38
584.56	247.38
584.77	243.38
584.981	222.38
585.191	240.38
585.401	232.38
585.611	232.38
585.821	253.38
586.032	261.38
586.242	243.38
586.452	248.38
586.662	247.38
586.872	221.38
587.082	245.38
587.292	239.38
587.502	244.38
587.713	232.38
587.923	232.38
588.133	252.38
588.343	256.38
588.553	252.38
588.762	240.38
588.972	248.38
589.182	249.38
589.392	231.38
589.602	226.38
589.812	243.38
590.022	255.38
590.232	239.38
590.441	241.38
590.651	237.38
590.861	232.38
591.071	243.38
591.281	250.38
591.49	238.38
591.7	243.38
591.91	250.38
592.119	259.38
592.329	254.38
592.539	259.38
592.748	269.38
592.958	281.38
593.167	270.38
593.377	271.38
593.587	284.38
593.796	270.38
594.006	292.38
594.215	277.38
594.424	289.38
594.634	281.38
594.843	257.38
595.053	273.38
595.262	259.38
595.472	275.38
595.681	256.38
595.89	242.38
596.1	249.38
596.309	256.38
596.518	230.38
596.727	238.38
596.937	236.38
597.146	232.38
597.355	235.38
597.564	224.38
597.774	232.38
597.983	222.38
598.192	232.38
598.401	222.38
598.61	205.38
598.819	213.38
599.028	226.38
599.237	205.38
599.446	206.38
599.655	215.38
599.864	213.38
600.073	224.38
600.282	217.38
600.491	224.38
600.7	212.38
600.909	215.38
601.118	215.38
601.327	218.38
601.536	211.38
601.745	194.38
601.953	214.38
602.162	233.38
602.371	222.38
602.58	220.38
602.789	227.38
602.997	196.38
603.206	211.38
603.415	220.38
603.623	195.38
603.832	207.38
604.041	208.38
604.249	212.38
604.458	203.38
604.666	190.38
604.875	201.38
605.084	222.38
605.292	193.38
605.501	214.38
605.709	202.38
605.918	202.38
606.126	208.38
606.334	208.38
606.543	218.38
606.751	191.38
606.96	214.38
607.168	208.38
607.376	195.38
607.585	199.38
607.793	195.38
608.001	201.38
608.21	200.38
608.418	203.38
608.626	200.38
608.834	199.38
609.043	209.38
609.251	203.38
609.459	215.38
609.667	207.38
609.875	209.38
610.083	193.38
610.291	215.38
610.499	186.38
610.707	218.38
610.916	201.38
611.124	218.38
611.332	202.38
611.54	214.38
611.748	225.38
611.955	199.38
612.163	220.38
612.371	227.38
612.579	209.38
612.787	205.38
612.995	200.38
613.203	197.38
613.411	203.38
613.618	204.38
613.826	206.38
614.034	196.38
614.242	201.38
614.449	197.38
614.657	221.38
614.865	213.38
615.072	179.38
615.28	198.38
615.488	210.38
615.695	201.38
615.903	195.38
616.111	208.38
616.318	209.38
616.526	190.38
616.733	205.38
616.941	195.38
617.148	195.38
617.356	201.38
617.563	192.38
617.771	202.38
617.978	213.38
618.185	207.38
618.393	199.38
618.6	192.38
618.807	200.38
619.015	216.38
619.222	206.38
619.429	187.38
619.637	206.38
619.844	197.38
620.051	213.38
620.258	189.38
620.466	198.38
620.673	203.38
620.88	191.38
621.087	178.38
621.294	181.38
621.501	180.38
621.708	192.38
621.915	195.38
622.122	197.38
622.329	186.38
622.536	185.38
622.743	184.38
622.95	190.38
623.157	184.38
623.364	191.38
623.571	185.38
623.778	200.38
623.985	189.38
624.192	174.38
624.399	183.38
624.606	181.38
624.812	190.38
625.019	193.38
625.226	197.38
625.433	180.38
625.639	181.38
625.846	176.38
626.053	176.38
626.259	167.38
626.466	189.38
626.673	182.38
626.879	185.38
627.086	187.38
627.293	177.38
627.499	169.38
627.706	175.38
627.912	172.38
628.119	168.38
628.325	180.38
628.532	177.38
628.738	183.38
628.945	171.38
629.151	184.38
629.357	165.38
629.564	175.38
629.77	195.38
629.976	188.38
630.183	173.38
630.389	173.38
630.595	183.38
630.802	181.38
631.008	181.38
631.214	180.38
631.42	166.38
631.627	157.38
631.833	166.38
632.039	179.38
632.245	171.38
632.451	159.38
632.657	155.38
632.863	171.38
633.069	172.38
633.275	171.38
633.481	173.38
633.688	175.38
633.893	158.38
634.099	157.38
634.305	145.38
634.511	163.38
634.717	171.38
634.923	150.38
635.129	168.38
635.335	175.38
635.541	158.38
635.747	164.38
635.952	176.38
636.158	164.38
636.364	163.38
636.57	167.38
636.775	169.38
636.981	160.38
637.187	166.38
637.392	148.38
637.598	151.38
637.804	170.38
638.009	160.38
638.215	171.38
638.421	164.38
638.626	160.38
638.832	161.38
639.037	158.38
639.243	161.38
639.448	160.38
639.654	160.38
639.859	161.38
640.065	168.38
640.27	156.38
640.475	161.38
640.681	158.38
640.886	151.38
641.091	157.38
641.297	149.38
641.502	165.38
641.707	164.38
641.913	167.38
642.118	151.38
642.323	137.38
642.528	152.38
642.733	151.38
642.939	160.38
643.144	163.38
643.349	151.38
643.554	167.38
643.759	143.38
643.964	135.38
644.169	165.38
644.374	160.38
644.579	150.38
644.784	151.38
644.989	133.38
645.194	142.38
645.399	144.38
645.604	150.38
645.809	170.38
646.014	150.38
646.219	155.38
646.423	141.38
646.628	137.38
646.833	136.38
647.038	160.38
647.243	142.38
647.447	138.38
647.652	154.38
647.857	152.38
648.062	156.38
648.266	157.38
648.471	158.38
648.676	168.38
648.88	158.38
649.085	159.38
649.289	152.38
649.494	146.38
649.698	172.38
649.903	152.38
650.107	151.38
650.312	153.38
650.516	158.38
650.721	147.38
650.925	139.38
651.13	141.38
651.334	143.38
651.539	137.38
651.743	130.38
651.947	150.38
652.152	147.38
652.356	135.38
652.56	140.38
652.764	145.38
652.969	132.38
653.173	140.38
653.377	124.38
653.581	131.38
653.785	151.38
653.99	117.38
654.194	148.38
654.398	145.38
654.602	121.38
654.806	129.38
655.01	145.38
655.214	136.38
655.418	126.38
655.622	131.38
655.826	124.38
656.03	118.38
656.234	133.38
656.438	113.38
656.642	142.38
656.846	119.38
657.049	127.38
657.253	117.38
657.457	107.38
657.661	117.38
657.865	126.38
658.068	116.38
658.272	109.38
658.476	119.38
658.68	111.38
658.883	96.38
659.087	87.38
659.291	107.38
659.494	104.38
659.698	111.38
659.901	110.38
660.105	106.38
660.309	96.38
660.512	91.38
660.716	79.38
660.919	94.38
661.123	91.38
661.326	102.38
661.53	90.38
661.733	81.38
661.936	86.38
662.14	79.38
662.343	80.38
662.546	86.38
662.75	85.38
662.953	105.38
663.156	91.38
663.36	100.38
663.563	91.38
663.766	86.38
663.969	82.38
664.173	99.38
664.376	88.38
664.579	93.38
664.782	81.38
664.985	81.38
665.188	81.38
665.391	96.38
665.594	68.38
665.797	89.38
666	70.38
666.203	100.38
666.406	75.38
666.609	91.38
666.812	93.38
667.015	75.38
667.218	93.38
667.421	90.38
667.624	78.38
667.827	84.38
668.03	80.38
668.232	85.38
668.435	89.38
668.638	88.38
668.841	94.38
669.043	87.38
669.246	77.38
669.449	69.38
669.651	92.38
669.854	78.38
670.057	88.38
670.259	80.38
670.462	90.38
670.665	79.38
670.867	82.38
671.07	68.38
671.272	89.38
671.475	87.38
671.677	86.38
671.88	85.38
672.082	92.38
672.284	103.38
672.487	93.38
672.689	67.38
672.892	75.38
