Data from 1969.PennyLincolnUp.Lamp.En5.5.200Scan.071719.P1._HRD10591_14-54-44-971.txt Node
Date: Thu Jul 18 14:54:44 EDT 2019
User: cochatt
Spectrometer: HR+D1059
Trigger mode: 1
Integration Time (sec): 1.000000E-1
Scans to average: 1
Electric dark correction enabled: true
Nonlinearity correction enabled: false
Boxcar width: 0
XAxis mode: Wavelengths
Number of Pixels in Spectrum: 2048
>>>>>Begin Spectral Data<<<<<
223.165	-15.31
223.4	-15.31
223.635	-15.31
223.869	-13.31
224.104	-10.31
224.338	-11.31
224.573	-20.31
224.808	-5.31
225.042	-10.31
225.277	-8.31
225.511	-11.31
225.746	-4.31
225.98	4.69
226.215	11.69
226.449	8.69
226.683	19.69
226.918	28.69
227.152	36.69
227.387	27.69
227.621	43.69
227.856	33.69
228.09	40.69
228.324	46.69
228.559	62.69
228.793	53.69
229.027	70.69
229.262	82.69
229.496	92.69
229.73	104.69
229.964	103.69
230.199	108.69
230.433	96.69
230.667	91.69
230.901	117.69
231.136	105.69
231.37	98.69
231.604	97.69
231.838	106.69
232.072	103.69
232.306	95.69
232.541	96.69
232.775	101.69
233.009	101.69
233.243	101.69
233.477	94.69
233.711	93.69
233.945	106.69
234.179	112.69
234.413	103.69
234.647	109.69
234.881	98.69
235.115	96.69
235.349	113.69
235.583	90.69
235.817	104.69
236.051	104.69
236.285	105.69
236.519	115.69
236.753	118.69
236.987	115.69
237.221	131.69
237.455	142.69
237.689	117.69
237.922	116.69
238.156	114.69
238.39	110.69
238.624	130.69
238.858	109.69
239.091	108.69
239.325	107.69
239.559	120.69
239.793	116.69
240.027	128.69
240.26	121.69
240.494	120.69
240.728	108.69
240.961	138.69
241.195	120.69
241.429	124.69
241.662	125.69
241.896	120.69
242.13	125.69
242.363	122.69
242.597	109.69
242.83	125.69
243.064	124.69
243.298	115.69
243.531	125.69
243.765	126.69
243.998	126.69
244.232	108.69
244.465	121.69
244.699	126.69
244.932	128.69
245.166	116.69
245.399	123.69
245.633	125.69
245.866	132.69
246.099	124.69
246.333	133.69
246.566	129.69
246.8	122.69
247.033	116.69
247.266	125.69
247.5	134.69
247.733	129.69
247.966	155.69
248.2	140.69
248.433	128.69
248.666	148.69
248.899	142.69
249.133	161.69
249.366	173.69
249.599	155.69
249.832	143.69
250.066	142.69
250.299	141.69
250.532	156.69
250.765	155.69
250.998	170.69
251.231	186.69
251.465	173.69
251.698	164.69
251.931	153.69
252.164	169.69
252.397	159.69
252.63	169.69
252.863	175.69
253.096	171.69
253.329	188.69
253.562	187.69
253.795	171.69
254.028	177.69
254.261	169.69
254.494	171.69
254.727	208.69
254.96	205.69
255.193	193.69
255.426	206.69
255.659	193.69
255.892	190.69
256.124	177.69
256.357	186.69
256.59	164.69
256.823	170.69
257.056	172.69
257.289	168.69
257.521	185.69
257.754	173.69
257.987	188.69
258.22	176.69
258.452	181.69
258.685	183.69
258.918	174.69
259.151	167.69
259.383	165.69
259.616	176.69
259.849	184.69
260.081	193.69
260.314	215.69
260.547	208.69
260.779	198.69
261.012	184.69
261.244	180.69
261.477	189.69
261.71	175.69
261.942	181.69
262.175	172.69
262.407	189.69
262.64	171.69
262.872	174.69
263.105	166.69
263.337	193.69
263.57	178.69
263.802	179.69
264.035	178.69
264.267	173.69
264.499	172.69
264.732	179.69
264.964	192.69
265.197	184.69
265.429	182.69
265.661	186.69
265.894	189.69
266.126	185.69
266.358	181.69
266.591	185.69
266.823	189.69
267.055	176.69
267.287	195.69
267.52	192.69
267.752	201.69
267.984	204.69
268.216	196.69
268.448	210.69
268.681	199.69
268.913	197.69
269.145	212.69
269.377	211.69
269.609	214.69
269.841	220.69
270.073	221.69
270.306	241.69
270.538	233.69
270.77	247.69
271.002	218.69
271.234	222.69
271.466	230.69
271.698	220.69
271.93	233.69
272.162	237.69
272.394	256.69
272.626	222.69
272.858	219.69
273.09	214.69
273.322	211.69
273.553	223.69
273.785	213.69
274.017	219.69
274.249	220.69
274.481	219.69
274.713	218.69
274.945	208.69
275.176	214.69
275.408	214.69
275.64	209.69
275.872	221.69
276.104	227.69
276.335	212.69
276.567	210.69
276.799	233.69
277.031	240.69
277.262	256.69
277.494	246.69
277.726	231.69
277.957	238.69
278.189	226.69
278.421	223.69
278.652	216.69
278.884	227.69
279.115	242.69
279.347	234.69
279.579	237.69
279.81	229.69
280.042	228.69
280.273	231.69
280.505	234.69
280.736	230.69
280.968	217.69
281.199	239.69
281.431	211.69
281.662	222.69
281.894	230.69
282.125	234.69
282.356	236.69
282.588	235.69
282.819	245.69
283.051	230.69
283.282	232.69
283.513	236.69
283.745	237.69
283.976	230.69
284.207	246.69
284.439	234.69
284.67	216.69
284.901	257.69
285.132	248.69
285.364	251.69
285.595	239.69
285.826	228.69
286.057	245.69
286.288	238.69
286.52	246.69
286.751	241.69
286.982	237.69
287.213	247.69
287.444	240.69
287.675	252.69
287.906	256.69
288.138	262.69
288.369	252.69
288.6	242.69
288.831	246.69
289.062	267.69
289.293	247.69
289.524	266.69
289.755	241.69
289.986	252.69
290.217	251.69
290.448	238.69
290.679	255.69
290.91	258.69
291.141	228.69
291.371	230.69
291.602	253.69
291.833	262.69
292.064	245.69
292.295	242.69
292.526	235.69
292.757	268.69
292.987	260.69
293.218	254.69
293.449	262.69
293.68	248.69
293.91	251.69
294.141	234.69
294.372	251.69
294.603	245.69
294.833	257.69
295.064	258.69
295.295	265.69
295.525	262.69
295.756	261.69
295.987	257.69
296.217	273.69
296.448	270.69
296.679	270.69
296.909	263.69
297.14	257.69
297.37	278.69
297.601	256.69
297.831	261.69
298.062	276.69
298.292	255.69
298.523	266.69
298.753	272.69
298.984	240.69
299.214	253.69
299.445	262.69
299.675	277.69
299.905	277.69
300.136	268.69
300.366	266.69
300.597	274.69
300.827	282.69
301.057	283.69
301.288	288.69
301.518	276.69
301.748	288.69
301.979	279.69
302.209	284.69
302.439	275.69
302.669	292.69
302.9	275.69
303.13	306.69
303.36	276.69
303.59	285.69
303.82	294.69
304.051	285.69
304.281	284.69
304.511	280.69
304.741	257.69
304.971	274.69
305.201	281.69
305.431	300.69
305.661	279.69
305.891	280.69
306.121	284.69
306.352	305.69
306.582	274.69
306.812	274.69
307.042	284.69
307.272	299.69
307.502	291.69
307.731	283.69
307.961	294.69
308.191	289.69
308.421	276.69
308.651	293.69
308.881	281.69
309.111	294.69
309.341	294.69
309.571	281.69
309.8	302.69
310.03	291.69
310.26	305.69
310.49	306.69
310.72	315.69
310.949	318.69
311.179	301.69
311.409	304.69
311.639	320.69
311.868	314.69
312.098	315.69
312.328	318.69
312.557	298.69
312.787	322.69
313.017	310.69
313.246	308.69
313.476	304.69
313.706	304.69
313.935	322.69
314.165	308.69
314.394	324.69
314.624	314.69
314.853	299.69
315.083	307.69
315.312	320.69
315.542	313.69
315.771	318.69
316.001	313.69
316.23	296.69
316.46	312.69
316.689	308.69
316.919	296.69
317.148	326.69
317.377	316.69
317.607	312.69
317.836	313.69
318.065	295.69
318.295	318.69
318.524	316.69
318.753	299.69
318.983	319.69
319.212	309.69
319.441	311.69
319.67	314.69
319.9	310.69
320.129	312.69
320.358	301.69
320.587	308.69
320.816	309.69
321.046	330.69
321.275	333.69
321.504	337.69
321.733	338.69
321.962	334.69
322.191	341.69
322.42	331.69
322.649	362.69
322.878	351.69
323.108	338.69
323.337	346.69
323.566	363.69
323.795	381.69
324.024	410.69
324.253	439.69
324.482	568.69
324.71	817.69
324.939	1064.69
325.168	863.69
325.397	505.69
325.626	380.69
325.855	364.69
326.084	372.69
326.313	355.69
326.542	363.69
326.77	368.69
326.999	428.69
327.228	544.69
327.457	741.69
327.686	810.69
327.914	588.69
328.143	450.69
328.372	406.69
328.6	394.69
328.829	389.69
329.058	402.69
329.287	392.69
329.515	387.69
329.744	390.69
329.972	372.69
330.201	403.69
330.43	406.69
330.658	408.69
330.887	408.69
331.115	426.69
331.344	375.69
331.572	372.69
331.801	370.69
332.03	359.69
332.258	372.69
332.486	359.69
332.715	396.69
332.943	398.69
333.172	393.69
333.4	416.69
333.629	414.69
333.857	412.69
334.085	410.69
334.314	433.69
334.542	436.69
334.771	443.69
334.999	394.69
335.227	398.69
335.455	389.69
335.684	365.69
335.912	361.69
336.14	367.69
336.369	386.69
336.597	360.69
336.825	372.69
337.053	360.69
337.281	364.69
337.51	359.69
337.738	363.69
337.966	362.69
338.194	363.69
338.422	344.69
338.65	371.69
338.878	353.69
339.106	346.69
339.334	338.69
339.562	343.69
339.79	343.69
340.018	340.69
340.246	355.69
340.474	339.69
340.702	356.69
340.93	343.69
341.158	354.69
341.386	344.69
341.614	348.69
341.842	353.69
342.07	342.69
342.298	343.69
342.526	346.69
342.754	340.69
342.981	327.69
343.209	345.69
343.437	340.69
343.665	363.69
343.893	371.69
344.12	374.69
344.348	374.69
344.576	364.69
344.804	351.69
345.031	354.69
345.259	374.69
345.487	350.69
345.714	338.69
345.942	349.69
346.17	353.69
346.397	329.69
346.625	335.69
346.853	336.69
347.08	310.69
347.308	370.69
347.535	325.69
347.763	338.69
347.99	329.69
348.218	337.69
348.445	329.69
348.673	349.69
348.9	322.69
349.128	336.69
349.355	322.69
349.583	331.69
349.81	330.69
350.037	313.69
350.265	329.69
350.492	324.69
350.72	323.69
350.947	329.69
351.174	338.69
351.402	337.69
351.629	349.69
351.856	326.69
352.083	328.69
352.311	331.69
352.538	344.69
352.765	336.69
352.992	326.69
353.22	317.69
353.447	316.69
353.674	347.69
353.901	332.69
354.128	328.69
354.355	302.69
354.583	302.69
354.81	321.69
355.037	323.69
355.264	322.69
355.491	316.69
355.718	318.69
355.945	290.69
356.172	311.69
356.399	307.69
356.626	302.69
356.853	300.69
357.08	296.69
357.307	294.69
357.534	318.69
357.761	328.69
357.988	316.69
358.215	331.69
358.441	312.69
358.668	319.69
358.895	318.69
359.122	312.69
359.349	319.69
359.576	334.69
359.802	321.69
360.029	347.69
360.256	345.69
360.483	341.69
360.709	333.69
360.936	332.69
361.163	317.69
361.39	321.69
361.616	328.69
361.843	326.69
362.07	328.69
362.296	341.69
362.523	329.69
362.749	324.69
362.976	332.69
363.203	324.69
363.429	322.69
363.656	326.69
363.882	316.69
364.109	324.69
364.335	308.69
364.562	311.69
364.788	302.69
365.015	305.69
365.241	332.69
365.468	322.69
365.694	328.69
365.92	315.69
366.147	316.69
366.373	336.69
366.599	319.69
366.826	308.69
367.052	326.69
367.278	315.69
367.505	318.69
367.731	326.69
367.957	304.69
368.184	318.69
368.41	322.69
368.636	331.69
368.862	315.69
369.089	306.69
369.315	312.69
369.541	315.69
369.767	315.69
369.993	340.69
370.219	328.69
370.445	327.69
370.672	325.69
370.898	327.69
371.124	340.69
371.35	344.69
371.576	317.69
371.802	330.69
372.028	329.69
372.254	325.69
372.48	333.69
372.706	340.69
372.932	330.69
373.158	348.69
373.384	344.69
373.61	348.69
373.835	348.69
374.061	331.69
374.287	320.69
374.513	314.69
374.739	339.69
374.965	326.69
375.191	361.69
375.416	349.69
375.642	330.69
375.868	327.69
376.094	337.69
376.319	329.69
376.545	334.69
376.771	330.69
376.997	330.69
377.222	300.69
377.448	322.69
377.674	322.69
377.899	317.69
378.125	341.69
378.35	335.69
378.576	327.69
378.802	317.69
379.027	323.69
379.253	328.69
379.478	304.69
379.704	313.69
379.929	332.69
380.155	328.69
380.38	330.69
380.606	318.69
380.831	326.69
381.057	326.69
381.282	331.69
381.507	321.69
381.733	338.69
381.958	318.69
382.184	311.69
382.409	344.69
382.634	324.69
382.86	344.69
383.085	330.69
383.31	357.69
383.535	339.69
383.761	337.69
383.986	331.69
384.211	343.69
384.436	351.69
384.662	372.69
384.887	355.69
385.112	355.69
385.337	362.69
385.562	357.69
385.787	374.69
386.013	361.69
386.238	354.69
386.463	361.69
386.688	371.69
386.913	354.69
387.138	373.69
387.363	363.69
387.588	364.69
387.813	348.69
388.038	362.69
388.263	356.69
388.488	347.69
388.713	360.69
388.938	355.69
389.163	362.69
389.387	373.69
389.612	349.69
389.837	349.69
390.062	368.69
390.287	370.69
390.512	328.69
390.736	349.69
390.961	337.69
391.186	370.69
391.411	373.69
391.636	371.69
391.86	376.69
392.085	370.69
392.31	404.69
392.534	388.69
392.759	378.69
392.984	366.69
393.208	370.69
393.433	364.69
393.658	361.69
393.882	346.69
394.107	379.69
394.331	386.69
394.556	372.69
394.78	363.69
395.005	370.69
395.229	348.69
395.454	410.69
395.678	409.69
395.903	402.69
396.127	410.69
396.352	385.69
396.576	372.69
396.801	375.69
397.025	377.69
397.249	388.69
397.474	401.69
397.698	404.69
397.922	398.69
398.147	396.69
398.371	399.69
398.595	411.69
398.82	426.69
399.044	434.69
399.268	456.69
399.492	494.69
399.717	550.69
399.941	540.69
400.165	527.69
400.389	519.69
400.613	470.69
400.837	427.69
401.062	440.69
401.286	429.69
401.51	427.69
401.734	417.69
401.958	440.69
402.182	408.69
402.406	445.69
402.63	439.69
402.854	438.69
403.078	447.69
403.302	472.69
403.526	445.69
403.75	456.69
403.974	454.69
404.198	440.69
404.422	455.69
404.645	454.69
404.869	490.69
405.093	464.69
405.317	506.69
405.541	486.69
405.765	469.69
405.988	438.69
406.212	478.69
406.436	462.69
406.66	475.69
406.883	474.69
407.107	484.69
407.331	510.69
407.555	565.69
407.778	550.69
408.002	502.69
408.226	476.69
408.449	468.69
408.673	467.69
408.896	475.69
409.12	486.69
409.344	460.69
409.567	466.69
409.791	468.69
410.014	445.69
410.238	438.69
410.461	442.69
410.685	453.69
410.908	430.69
411.132	472.69
411.355	444.69
411.578	452.69
411.802	433.69
412.025	432.69
412.249	432.69
412.472	444.69
412.695	462.69
412.919	466.69
413.142	427.69
413.365	419.69
413.589	415.69
413.812	434.69
414.035	414.69
414.258	404.69
414.482	421.69
414.705	416.69
414.928	418.69
415.151	410.69
415.374	398.69
415.597	401.69
415.821	388.69
416.044	417.69
416.267	415.69
416.49	413.69
416.713	400.69
416.936	430.69
417.159	396.69
417.382	407.69
417.605	420.69
417.828	443.69
418.051	434.69
418.274	432.69
418.497	422.69
418.72	432.69
418.943	410.69
419.166	433.69
419.389	435.69
419.611	453.69
419.834	434.69
420.057	430.69
420.28	454.69
420.503	449.69
420.726	450.69
420.948	434.69
421.171	466.69
421.394	444.69
421.617	443.69
421.839	420.69
422.062	428.69
422.285	452.69
422.507	451.69
422.73	496.69
422.953	478.69
423.175	447.69
423.398	453.69
423.621	443.69
423.843	452.69
424.066	449.69
424.288	444.69
424.511	461.69
424.733	473.69
424.956	523.69
425.178	515.69
425.401	487.69
425.623	509.69
425.846	455.69
426.068	424.69
426.291	438.69
426.513	404.69
426.735	440.69
426.958	460.69
427.18	509.69
427.402	569.69
427.625	569.69
427.847	523.69
428.069	460.69
428.292	436.69
428.514	397.69
428.736	402.69
428.958	405.69
429.181	394.69
429.403	384.69
429.625	418.69
429.847	401.69
430.069	448.69
430.292	448.69
430.514	403.69
430.736	393.69
430.958	381.69
431.18	374.69
431.402	402.69
431.624	404.69
431.846	378.69
432.068	379.69
432.29	374.69
432.512	362.69
432.734	388.69
432.956	396.69
433.178	401.69
433.4	397.69
433.622	418.69
433.844	392.69
434.066	386.69
434.287	385.69
434.509	401.69
434.731	418.69
434.953	420.69
435.175	429.69
435.397	464.69
435.618	428.69
435.84	450.69
436.062	491.69
436.284	504.69
436.505	437.69
436.727	418.69
436.949	430.69
437.17	413.69
437.392	388.69
437.614	390.69
437.835	413.69
438.057	476.69
438.278	488.69
438.5	501.69
438.721	544.69
438.943	514.69
439.165	431.69
439.386	424.69
439.608	432.69
439.829	434.69
440.05	445.69
440.272	440.69
440.493	417.69
440.715	404.69
440.936	421.69
441.158	417.69
441.379	405.69
441.6	418.69
441.822	413.69
442.043	452.69
442.264	514.69
442.486	529.69
442.707	473.69
442.928	446.69
443.149	451.69
443.371	452.69
443.592	482.69
443.813	541.69
444.034	569.69
444.255	481.69
444.476	449.69
444.698	482.69
444.919	489.69
445.14	571.69
445.361	503.69
445.582	471.69
445.803	493.69
446.024	530.69
446.245	530.69
446.466	497.69
446.687	440.69
446.908	419.69
447.129	414.69
447.35	427.69
447.571	394.69
447.792	397.69
448.013	388.69
448.234	385.69
448.455	424.69
448.675	479.69
448.896	541.69
449.117	470.69
449.338	459.69
449.559	525.69
449.779	546.69
450	444.69
450.221	395.69
450.442	372.69
450.662	398.69
450.883	412.69
451.104	368.69
451.324	404.69
451.545	390.69
451.766	376.69
451.986	376.69
452.207	365.69
452.428	350.69
452.648	368.69
452.869	360.69
453.089	366.69
453.31	352.69
453.53	356.69
453.751	359.69
453.971	350.69
454.192	355.69
454.412	364.69
454.633	357.69
454.853	355.69
455.073	339.69
455.294	365.69
455.514	405.69
455.734	386.69
455.955	365.69
456.175	346.69
456.395	332.69
456.616	331.69
456.836	328.69
457.056	331.69
457.276	317.69
457.497	337.69
457.717	340.69
457.937	329.69
458.157	355.69
458.377	359.69
458.598	377.69
458.818	384.69
459.038	422.69
459.258	454.69
459.478	409.69
459.698	404.69
459.918	407.69
460.138	405.69
460.358	411.69
460.578	427.69
460.798	403.69
461.018	416.69
461.238	432.69
461.458	423.69
461.678	438.69
461.898	432.69
462.118	423.69
462.338	445.69
462.558	444.69
462.777	443.69
462.997	476.69
463.217	485.69
463.437	496.69
463.657	482.69
463.876	466.69
464.096	465.69
464.316	440.69
464.536	460.69
464.755	458.69
464.975	451.69
465.195	446.69
465.414	483.69
465.634	450.69
465.854	411.69
466.073	394.69
466.293	388.69
466.512	378.69
466.732	378.69
466.951	374.69
467.171	374.69
467.391	386.69
467.61	388.69
467.829	385.69
468.049	359.69
468.268	392.69
468.488	371.69
468.707	366.69
468.927	368.69
469.146	378.69
469.365	368.69
469.585	356.69
469.804	376.69
470.023	381.69
470.243	370.69
470.462	382.69
470.681	383.69
470.901	408.69
471.12	380.69
471.339	378.69
471.558	384.69
471.777	365.69
471.997	358.69
472.216	363.69
472.435	385.69
472.654	371.69
472.873	365.69
473.092	367.69
473.311	363.69
473.53	346.69
473.749	378.69
473.968	403.69
474.187	438.69
474.406	439.69
474.625	405.69
474.844	387.69
475.063	364.69
475.282	375.69
475.501	380.69
475.72	402.69
475.939	380.69
476.158	359.69
476.377	361.69
476.596	378.69
476.814	389.69
477.033	388.69
477.252	408.69
477.471	398.69
477.69	410.69
477.908	420.69
478.127	414.69
478.346	418.69
478.564	433.69
478.783	419.69
479.002	421.69
479.22	424.69
479.439	444.69
479.658	449.69
479.876	460.69
480.095	470.69
480.313	487.69
480.532	493.69
480.751	462.69
480.969	484.69
481.188	486.69
481.406	489.69
481.624	450.69
481.843	425.69
482.061	441.69
482.28	437.69
482.498	424.69
482.717	405.69
482.935	438.69
483.153	416.69
483.372	447.69
483.59	413.69
483.808	427.69
484.027	445.69
484.245	423.69
484.463	414.69
484.681	429.69
484.9	438.69
485.118	447.69
485.336	438.69
485.554	443.69
485.772	445.69
485.99	433.69
486.209	450.69
486.427	448.69
486.645	446.69
486.863	472.69
487.081	457.69
487.299	447.69
487.517	427.69
487.735	446.69
487.953	476.69
488.171	463.69
488.389	461.69
488.607	437.69
488.825	453.69
489.043	464.69
489.261	464.69
489.479	465.69
489.696	448.69
489.914	462.69
490.132	482.69
490.35	458.69
490.568	462.69
490.786	492.69
491.003	503.69
491.221	489.69
491.439	497.69
491.657	501.69
491.874	520.69
492.092	515.69
492.31	520.69
492.527	522.69
492.745	539.69
492.963	520.69
493.18	536.69
493.398	503.69
493.615	502.69
493.833	538.69
494.05	520.69
494.268	547.69
494.485	533.69
494.703	508.69
494.92	550.69
495.138	523.69
495.355	554.69
495.573	547.69
495.79	511.69
496.008	550.69
496.225	543.69
496.442	530.69
496.66	548.69
496.877	556.69
497.094	560.69
497.312	550.69
497.529	556.69
497.746	570.69
497.963	578.69
498.181	585.69
498.398	603.69
498.615	621.69
498.832	628.69
499.049	658.69
499.267	692.69
499.484	710.69
499.701	778.69
499.918	830.69
500.135	865.69
500.352	940.69
500.569	931.69
500.786	965.69
501.003	918.69
501.22	872.69
501.437	828.69
501.654	772.69
501.871	742.69
502.088	697.69
502.305	680.69
502.522	635.69
502.739	610.69
502.956	601.69
503.172	580.69
503.389	598.69
503.606	566.69
503.823	558.69
504.04	545.69
504.256	538.69
504.473	580.69
504.69	565.69
504.907	557.69
505.123	526.69
505.34	526.69
505.557	518.69
505.773	534.69
505.99	507.69
506.207	507.69
506.423	489.69
506.64	500.69
506.856	488.69
507.073	494.69
507.289	497.69
507.506	472.69
507.722	495.69
507.939	508.69
508.155	480.69
508.372	444.69
508.588	457.69
508.805	467.69
509.021	466.69
509.238	465.69
509.454	468.69
509.67	489.69
509.887	438.69
510.103	451.69
510.319	453.69
510.536	518.69
510.752	715.69
510.968	595.69
511.184	461.69
511.401	464.69
511.617	452.69
511.833	437.69
512.049	435.69
512.265	436.69
512.481	442.69
512.698	428.69
512.914	446.69
513.13	421.69
513.346	428.69
513.562	430.69
513.778	445.69
513.994	428.69
514.21	448.69
514.426	439.69
514.642	458.69
514.858	481.69
515.074	489.69
515.29	557.69
515.506	757.69
515.721	640.69
515.937	498.69
516.153	460.69
516.369	474.69
516.585	488.69
516.801	460.69
517.016	479.69
517.232	504.69
517.448	496.69
517.664	492.69
517.879	517.69
518.095	493.69
518.311	492.69
518.527	475.69
518.742	480.69
518.958	496.69
519.173	457.69
519.389	437.69
519.605	463.69
519.82	443.69
520.036	452.69
520.251	465.69
520.467	453.69
520.682	441.69
520.898	465.69
521.113	462.69
521.329	475.69
521.544	516.69
521.76	594.69
521.975	923.69
522.19	870.69
522.406	586.69
522.621	448.69
522.836	435.69
523.052	410.69
523.267	411.69
523.482	409.69
523.698	405.69
523.913	386.69
524.128	400.69
524.343	375.69
524.559	392.69
524.774	398.69
524.989	410.69
525.204	409.69
525.419	382.69
525.634	377.69
525.849	383.69
526.064	350.69
526.28	384.69
526.495	361.69
526.71	380.69
526.925	364.69
527.14	363.69
527.355	377.69
527.57	374.69
527.785	366.69
527.999	362.69
528.214	369.69
528.429	352.69
528.644	372.69
528.859	394.69
529.074	373.69
529.289	374.69
529.503	427.69
529.718	432.69
529.933	398.69
530.148	384.69
530.363	374.69
530.577	372.69
530.792	373.69
531.007	363.69
531.221	372.69
531.436	370.69
531.651	374.69
531.865	364.69
532.08	353.69
532.295	349.69
532.509	377.69
532.724	366.69
532.938	355.69
533.153	358.69
533.367	359.69
533.582	357.69
533.796	363.69
534.011	355.69
534.225	353.69
534.44	350.69
534.654	364.69
534.868	364.69
535.083	360.69
535.297	369.69
535.511	368.69
535.726	368.69
535.94	364.69
536.154	372.69
536.369	376.69
536.583	358.69
536.797	333.69
537.011	339.69
537.225	336.69
537.44	324.69
537.654	342.69
537.868	357.69
538.082	360.69
538.296	349.69
538.51	345.69
538.724	347.69
538.938	331.69
539.153	353.69
539.367	356.69
539.581	347.69
539.795	352.69
540.009	343.69
540.222	344.69
540.436	342.69
540.65	349.69
540.864	357.69
541.078	374.69
541.292	357.69
541.506	350.69
541.72	357.69
541.934	369.69
542.147	341.69
542.361	356.69
542.575	355.69
542.789	342.69
543.002	361.69
543.216	361.69
543.43	354.69
543.644	377.69
543.857	368.69
544.071	349.69
544.285	363.69
544.498	340.69
544.712	356.69
544.925	355.69
545.139	338.69
545.352	348.69
545.566	356.69
545.779	354.69
545.993	348.69
546.206	368.69
546.42	355.69
546.633	358.69
546.847	350.69
547.06	350.69
547.274	351.69
547.487	348.69
547.7	357.69
547.914	348.69
548.127	347.69
548.34	360.69
548.554	345.69
548.767	350.69
548.98	350.69
549.193	347.69
549.407	336.69
549.62	351.69
549.833	354.69
550.046	332.69
550.259	349.69
550.473	339.69
550.686	371.69
550.899	357.69
551.112	344.69
551.325	330.69
551.538	361.69
551.751	338.69
551.964	342.69
552.177	356.69
552.39	337.69
552.603	353.69
552.816	377.69
553.029	352.69
553.242	374.69
553.455	380.69
553.667	386.69
553.88	373.69
554.093	350.69
554.306	371.69
554.519	353.69
554.732	337.69
554.944	340.69
555.157	343.69
555.37	355.69
555.583	339.69
555.795	330.69
556.008	330.69
556.221	315.69
556.433	306.69
556.646	314.69
556.859	323.69
557.071	306.69
557.284	323.69
557.496	305.69
557.709	304.69
557.921	296.69
558.134	316.69
558.346	294.69
558.559	306.69
558.771	304.69
558.984	320.69
559.196	281.69
559.409	308.69
559.621	298.69
559.833	307.69
560.046	306.69
560.258	296.69
560.47	290.69
560.683	289.69
560.895	285.69
561.107	290.69
561.32	306.69
561.532	314.69
561.744	300.69
561.956	302.69
562.168	294.69
562.381	295.69
562.593	293.69
562.805	316.69
563.017	317.69
563.229	325.69
563.441	307.69
563.653	290.69
563.865	289.69
564.077	308.69
564.289	321.69
564.501	316.69
564.713	308.69
564.925	342.69
565.137	323.69
565.349	336.69
565.561	329.69
565.773	358.69
565.985	363.69
566.197	377.69
566.408	386.69
566.62	397.69
566.832	408.69
567.044	426.69
567.255	429.69
567.467	438.69
567.679	446.69
567.891	466.69
568.102	456.69
568.314	439.69
568.526	412.69
568.737	397.69
568.949	380.69
569.161	360.69
569.372	319.69
569.584	322.69
569.795	322.69
570.007	311.69
570.218	346.69
570.43	324.69
570.641	312.69
570.853	318.69
571.064	305.69
571.276	298.69
571.487	322.69
571.698	298.69
571.91	277.69
572.121	292.69
572.333	280.69
572.544	269.69
572.755	278.69
572.966	269.69
573.178	282.69
573.389	267.69
573.6	276.69
573.811	275.69
574.023	271.69
574.234	258.69
574.445	269.69
574.656	250.69
574.867	272.69
575.078	242.69
575.289	265.69
575.501	257.69
575.712	270.69
575.923	269.69
576.134	253.69
576.345	245.69
576.556	261.69
576.767	253.69
576.978	265.69
577.188	268.69
577.399	258.69
577.61	262.69
577.821	253.69
578.032	253.69
578.243	261.69
578.454	361.69
578.665	292.69
578.875	272.69
579.086	255.69
579.297	241.69
579.508	263.69
579.718	237.69
579.929	237.69
580.14	240.69
580.35	230.69
580.561	256.69
580.772	237.69
580.982	258.69
581.193	260.69
581.403	231.69
581.614	252.69
581.825	236.69
582.035	254.69
582.246	234.69
582.456	236.69
582.667	230.69
582.877	245.69
583.087	242.69
583.298	240.69
583.508	266.69
583.719	252.69
583.929	235.69
584.139	230.69
584.35	220.69
584.56	239.69
584.77	221.69
584.981	240.69
585.191	241.69
585.401	240.69
585.611	231.69
585.821	224.69
586.032	230.69
586.242	237.69
586.452	234.69
586.662	219.69
586.872	223.69
587.082	240.69
587.292	228.69
587.502	248.69
587.713	240.69
587.923	232.69
588.133	236.69
588.343	242.69
588.553	256.69
588.762	230.69
588.972	232.69
589.182	233.69
589.392	251.69
589.602	249.69
589.812	235.69
590.022	232.69
590.232	220.69
590.441	237.69
590.651	233.69
590.861	237.69
591.071	248.69
591.281	222.69
591.49	241.69
591.7	257.69
591.91	251.69
592.119	243.69
592.329	263.69
592.539	268.69
592.748	271.69
592.958	284.69
593.167	267.69
593.377	273.69
593.587	268.69
593.796	286.69
594.006	260.69
594.215	273.69
594.424	260.69
594.634	272.69
594.843	277.69
595.053	257.69
595.262	259.69
595.472	253.69
595.681	251.69
595.89	244.69
596.1	235.69
596.309	216.69
596.518	253.69
596.727	231.69
596.937	234.69
597.146	221.69
597.355	233.69
597.564	244.69
597.774	238.69
597.983	217.69
598.192	206.69
598.401	223.69
598.61	209.69
598.819	221.69
599.028	216.69
599.237	228.69
599.446	227.69
599.655	217.69
599.864	212.69
600.073	204.69
600.282	204.69
600.491	194.69
600.7	194.69
600.909	213.69
601.118	209.69
601.327	198.69
601.536	200.69
601.745	195.69
601.953	215.69
602.162	210.69
602.371	207.69
602.58	203.69
602.789	208.69
602.997	200.69
603.206	197.69
603.415	206.69
603.623	210.69
603.832	202.69
604.041	203.69
604.249	204.69
604.458	193.69
604.666	206.69
604.875	195.69
605.084	201.69
605.292	210.69
605.501	207.69
605.709	199.69
605.918	202.69
606.126	214.69
606.334	213.69
606.543	197.69
606.751	192.69
606.96	206.69
607.168	206.69
607.376	203.69
607.585	215.69
607.793	190.69
608.001	191.69
608.21	203.69
608.418	206.69
608.626	215.69
608.834	198.69
609.043	202.69
609.251	208.69
609.459	205.69
609.667	195.69
609.875	209.69
610.083	203.69
610.291	206.69
610.499	174.69
610.707	198.69
610.916	214.69
611.124	197.69
611.332	218.69
611.54	212.69
611.748	203.69
611.955	193.69
612.163	209.69
612.371	200.69
612.579	200.69
612.787	202.69
612.995	192.69
613.203	193.69
613.411	202.69
613.618	187.69
613.826	200.69
614.034	187.69
614.242	190.69
614.449	186.69
614.657	185.69
614.865	186.69
615.072	189.69
615.28	194.69
615.488	193.69
615.695	198.69
615.903	188.69
616.111	192.69
616.318	196.69
616.526	211.69
616.733	203.69
616.941	189.69
617.148	204.69
617.356	200.69
617.563	216.69
617.771	203.69
617.978	205.69
618.185	203.69
618.393	188.69
618.6	180.69
618.807	190.69
619.015	185.69
619.222	198.69
619.429	201.69
619.637	192.69
619.844	193.69
620.051	181.69
620.258	183.69
620.466	187.69
620.673	180.69
620.88	170.69
621.087	188.69
621.294	205.69
621.501	192.69
621.708	178.69
621.915	189.69
622.122	192.69
622.329	191.69
622.536	185.69
622.743	192.69
622.95	174.69
623.157	192.69
623.364	182.69
623.571	194.69
623.778	192.69
623.985	193.69
624.192	192.69
624.399	169.69
624.606	189.69
624.812	172.69
625.019	192.69
625.226	184.69
625.433	165.69
625.639	198.69
625.846	180.69
626.053	175.69
626.259	173.69
626.466	171.69
626.673	169.69
626.879	165.69
627.086	172.69
627.293	171.69
627.499	187.69
627.706	168.69
627.912	158.69
628.119	186.69
628.325	171.69
628.532	166.69
628.738	165.69
628.945	168.69
629.151	176.69
629.357	158.69
629.564	147.69
629.77	172.69
629.976	160.69
630.183	166.69
630.389	169.69
630.595	157.69
630.802	189.69
631.008	169.69
631.214	161.69
631.42	178.69
631.627	174.69
631.833	162.69
632.039	151.69
632.245	162.69
632.451	171.69
632.657	164.69
632.863	146.69
633.069	155.69
633.275	148.69
633.481	168.69
633.688	156.69
633.893	169.69
634.099	166.69
634.305	148.69
634.511	166.69
634.717	164.69
634.923	146.69
635.129	160.69
635.335	155.69
635.541	170.69
635.747	156.69
635.952	161.69
636.158	161.69
636.364	160.69
636.57	147.69
636.775	160.69
636.981	152.69
637.187	154.69
637.392	167.69
637.598	152.69
637.804	148.69
638.009	141.69
638.215	158.69
638.421	161.69
638.626	145.69
638.832	150.69
639.037	158.69
639.243	156.69
639.448	163.69
639.654	161.69
639.859	152.69
640.065	148.69
640.27	150.69
640.475	149.69
640.681	147.69
640.886	135.69
641.091	148.69
641.297	150.69
641.502	130.69
641.707	160.69
641.913	144.69
642.118	143.69
642.323	150.69
642.528	148.69
642.733	145.69
642.939	133.69
643.144	140.69
643.349	140.69
643.554	145.69
643.759	161.69
643.964	159.69
644.169	161.69
644.374	134.69
644.579	138.69
644.784	147.69
644.989	152.69
645.194	141.69
645.399	146.69
645.604	164.69
645.809	154.69
646.014	142.69
646.219	142.69
646.423	140.69
646.628	134.69
646.833	154.69
647.038	145.69
647.243	152.69
647.447	142.69
647.652	136.69
647.857	162.69
648.062	164.69
648.266	153.69
648.471	156.69
648.676	142.69
648.88	154.69
649.085	140.69
649.289	152.69
649.494	152.69
649.698	166.69
649.903	164.69
650.107	139.69
650.312	154.69
650.516	133.69
650.721	127.69
650.925	138.69
651.13	138.69
651.334	140.69
651.539	138.69
651.743	128.69
651.947	132.69
652.152	122.69
652.356	142.69
652.56	143.69
652.764	136.69
652.969	136.69
653.173	133.69
653.377	129.69
653.581	129.69
653.785	130.69
653.99	129.69
654.194	128.69
654.398	122.69
654.602	128.69
654.806	126.69
655.01	131.69
655.214	128.69
655.418	125.69
655.622	123.69
655.826	120.69
656.03	120.69
656.234	129.69
656.438	134.69
656.642	111.69
656.846	126.69
657.049	128.69
657.253	126.69
657.457	130.69
657.661	113.69
657.865	102.69
658.068	112.69
658.272	104.69
658.476	108.69
658.68	104.69
658.883	89.69
659.087	100.69
659.291	109.69
659.494	95.69
659.698	96.69
659.901	97.69
660.105	93.69
660.309	101.69
660.512	99.69
660.716	77.69
660.919	79.69
661.123	104.69
661.326	97.69
661.53	94.69
661.733	93.69
661.936	90.69
662.14	86.69
662.343	84.69
662.546	89.69
662.75	92.69
662.953	101.69
663.156	88.69
663.36	95.69
663.563	88.69
663.766	84.69
663.969	72.69
664.173	76.69
664.376	84.69
664.579	81.69
664.782	72.69
664.985	89.69
665.188	69.69
665.391	86.69
665.594	81.69
665.797	81.69
666	78.69
666.203	91.69
666.406	82.69
666.609	85.69
666.812	80.69
667.015	88.69
667.218	83.69
667.421	80.69
667.624	88.69
667.827	88.69
668.03	83.69
668.232	80.69
668.435	93.69
668.638	69.69
668.841	86.69
669.043	76.69
669.246	77.69
669.449	62.69
669.651	72.69
669.854	77.69
670.057	83.69
670.259	84.69
670.462	87.69
670.665	75.69
670.867	85.69
671.07	82.69
671.272	82.69
671.475	84.69
671.677	81.69
671.88	84.69
672.082	84.69
672.284	89.69
672.487	78.69
672.689	90.69
672.892	97.69
