Data from 1969.PennyLincolnUp.Lamp.En5.5.200Scan.071719.P1._HRD10591_14-54-31-972.txt Node
Date: Thu Jul 18 14:54:31 EDT 2019
User: cochatt
Spectrometer: HR+D1059
Trigger mode: 1
Integration Time (sec): 1.000000E-1
Scans to average: 1
Electric dark correction enabled: true
Nonlinearity correction enabled: false
Boxcar width: 0
XAxis mode: Wavelengths
Number of Pixels in Spectrum: 2048
>>>>>Begin Spectral Data<<<<<
223.165	-7.31
223.4	-7.31
223.635	-7.31
223.869	-12.31
224.104	-34.31
224.338	-22.31
224.573	-9.31
224.808	-11.31
225.042	-0.31
225.277	11.69
225.511	-8.31
225.746	12.69
225.98	11.69
226.215	7.69
226.449	7.69
226.683	-2.31
226.918	22.69
227.152	33.69
227.387	30.69
227.621	23.69
227.856	26.69
228.09	44.69
228.324	46.69
228.559	48.69
228.793	53.69
229.027	94.69
229.262	83.69
229.496	86.69
229.73	105.69
229.964	105.69
230.199	106.69
230.433	83.69
230.667	94.69
230.901	103.69
231.136	99.69
231.37	110.69
231.604	96.69
231.838	96.69
232.072	100.69
232.306	110.69
232.541	104.69
232.775	94.69
233.009	93.69
233.243	104.69
233.477	106.69
233.711	107.69
233.945	108.69
234.179	105.69
234.413	102.69
234.647	95.69
234.881	91.69
235.115	89.69
235.349	104.69
235.583	115.69
235.817	90.69
236.051	102.69
236.285	105.69
236.519	113.69
236.753	115.69
236.987	123.69
237.221	121.69
237.455	158.69
237.689	136.69
237.922	114.69
238.156	104.69
238.39	112.69
238.624	101.69
238.858	95.69
239.091	118.69
239.325	102.69
239.559	108.69
239.793	119.69
240.027	112.69
240.26	117.69
240.494	106.69
240.728	122.69
240.961	120.69
241.195	134.69
241.429	124.69
241.662	112.69
241.896	114.69
242.13	109.69
242.363	102.69
242.597	119.69
242.83	128.69
243.064	104.69
243.298	126.69
243.531	121.69
243.765	114.69
243.998	111.69
244.232	139.69
244.465	122.69
244.699	123.69
244.932	121.69
245.166	122.69
245.399	118.69
245.633	107.69
245.866	136.69
246.099	136.69
246.333	137.69
246.566	130.69
246.8	121.69
247.033	133.69
247.266	126.69
247.5	139.69
247.733	140.69
247.966	135.69
248.2	143.69
248.433	131.69
248.666	150.69
248.899	153.69
249.133	152.69
249.366	149.69
249.599	143.69
249.832	131.69
250.066	152.69
250.299	139.69
250.532	163.69
250.765	151.69
250.998	149.69
251.231	161.69
251.465	167.69
251.698	165.69
251.931	154.69
252.164	152.69
252.397	160.69
252.63	166.69
252.863	155.69
253.096	178.69
253.329	163.69
253.562	178.69
253.795	174.69
254.028	158.69
254.261	166.69
254.494	158.69
254.727	206.69
254.96	202.69
255.193	200.69
255.426	169.69
255.659	169.69
255.892	189.69
256.124	182.69
256.357	181.69
256.59	178.69
256.823	166.69
257.056	168.69
257.289	166.69
257.521	173.69
257.754	169.69
257.987	163.69
258.22	167.69
258.452	168.69
258.685	169.69
258.918	165.69
259.151	170.69
259.383	180.69
259.616	168.69
259.849	172.69
260.081	163.69
260.314	196.69
260.547	215.69
260.779	186.69
261.012	168.69
261.244	163.69
261.477	166.69
261.71	184.69
261.942	178.69
262.175	178.69
262.407	183.69
262.64	174.69
262.872	174.69
263.105	191.69
263.337	183.69
263.57	181.69
263.802	174.69
264.035	183.69
264.267	177.69
264.499	171.69
264.732	182.69
264.964	180.69
265.197	170.69
265.429	176.69
265.661	182.69
265.894	182.69
266.126	165.69
266.358	191.69
266.591	185.69
266.823	177.69
267.055	191.69
267.287	192.69
267.52	206.69
267.752	197.69
267.984	186.69
268.216	179.69
268.448	202.69
268.681	200.69
268.913	196.69
269.145	205.69
269.377	198.69
269.609	207.69
269.841	231.69
270.073	225.69
270.306	220.69
270.538	217.69
270.77	220.69
271.002	224.69
271.234	212.69
271.466	227.69
271.698	227.69
271.93	219.69
272.162	231.69
272.394	239.69
272.626	222.69
272.858	214.69
273.09	214.69
273.322	201.69
273.553	204.69
273.785	222.69
274.017	205.69
274.249	211.69
274.481	205.69
274.713	208.69
274.945	222.69
275.176	231.69
275.408	207.69
275.64	219.69
275.872	222.69
276.104	202.69
276.335	213.69
276.567	225.69
276.799	249.69
277.031	228.69
277.262	269.69
277.494	238.69
277.726	236.69
277.957	233.69
278.189	226.69
278.421	224.69
278.652	211.69
278.884	206.69
279.115	227.69
279.347	224.69
279.579	230.69
279.81	225.69
280.042	217.69
280.273	244.69
280.505	217.69
280.736	214.69
280.968	213.69
281.199	222.69
281.431	222.69
281.662	227.69
281.894	210.69
282.125	234.69
282.356	218.69
282.588	230.69
282.819	246.69
283.051	224.69
283.282	238.69
283.513	248.69
283.745	239.69
283.976	216.69
284.207	233.69
284.439	232.69
284.67	231.69
284.901	243.69
285.132	243.69
285.364	233.69
285.595	227.69
285.826	227.69
286.057	244.69
286.288	227.69
286.52	211.69
286.751	235.69
286.982	225.69
287.213	233.69
287.444	228.69
287.675	244.69
287.906	256.69
288.138	239.69
288.369	253.69
288.6	250.69
288.831	231.69
289.062	277.69
289.293	256.69
289.524	246.69
289.755	242.69
289.986	246.69
290.217	255.69
290.448	223.69
290.679	247.69
290.91	256.69
291.141	245.69
291.371	246.69
291.602	239.69
291.833	241.69
292.064	234.69
292.295	246.69
292.526	244.69
292.757	236.69
292.987	236.69
293.218	246.69
293.449	254.69
293.68	240.69
293.91	231.69
294.141	240.69
294.372	235.69
294.603	264.69
294.833	244.69
295.064	258.69
295.295	255.69
295.525	260.69
295.756	258.69
295.987	256.69
296.217	259.69
296.448	271.69
296.679	244.69
296.909	262.69
297.14	256.69
297.37	261.69
297.601	273.69
297.831	255.69
298.062	262.69
298.292	272.69
298.523	254.69
298.753	278.69
298.984	271.69
299.214	260.69
299.445	271.69
299.675	245.69
299.905	267.69
300.136	274.69
300.366	264.69
300.597	264.69
300.827	258.69
301.057	254.69
301.288	277.69
301.518	275.69
301.748	259.69
301.979	276.69
302.209	289.69
302.439	280.69
302.669	273.69
302.9	263.69
303.13	291.69
303.36	290.69
303.59	277.69
303.82	291.69
304.051	302.69
304.281	275.69
304.511	280.69
304.741	283.69
304.971	273.69
305.201	275.69
305.431	278.69
305.661	284.69
305.891	272.69
306.121	279.69
306.352	292.69
306.582	286.69
306.812	280.69
307.042	278.69
307.272	285.69
307.502	286.69
307.731	296.69
307.961	292.69
308.191	285.69
308.421	273.69
308.651	287.69
308.881	306.69
309.111	296.69
309.341	288.69
309.571	279.69
309.8	298.69
310.03	283.69
310.26	319.69
310.49	289.69
310.72	292.69
310.949	311.69
311.179	313.69
311.409	311.69
311.639	302.69
311.868	305.69
312.098	278.69
312.328	303.69
312.557	312.69
312.787	332.69
313.017	331.69
313.246	315.69
313.476	313.69
313.706	321.69
313.935	309.69
314.165	327.69
314.394	323.69
314.624	328.69
314.853	315.69
315.083	327.69
315.312	306.69
315.542	302.69
315.771	308.69
316.001	291.69
316.23	295.69
316.46	300.69
316.689	318.69
316.919	292.69
317.148	302.69
317.377	321.69
317.607	319.69
317.836	306.69
318.065	305.69
318.295	291.69
318.524	302.69
318.753	304.69
318.983	311.69
319.212	298.69
319.441	304.69
319.67	304.69
319.9	314.69
320.129	315.69
320.358	334.69
320.587	306.69
320.816	329.69
321.046	301.69
321.275	326.69
321.504	309.69
321.733	328.69
321.962	332.69
322.191	324.69
322.42	325.69
322.649	316.69
322.878	333.69
323.108	346.69
323.337	342.69
323.566	360.69
323.795	376.69
324.024	368.69
324.253	458.69
324.482	579.69
324.71	818.69
324.939	1064.69
325.168	871.69
325.397	512.69
325.626	390.69
325.855	379.69
326.084	371.69
326.313	374.69
326.542	359.69
326.77	388.69
326.999	425.69
327.228	542.69
327.457	722.69
327.686	827.69
327.914	557.69
328.143	449.69
328.372	402.69
328.6	382.69
328.829	393.69
329.058	403.69
329.287	390.69
329.515	391.69
329.744	370.69
329.972	383.69
330.201	399.69
330.43	407.69
330.658	414.69
330.887	433.69
331.115	420.69
331.344	378.69
331.572	362.69
331.801	376.69
332.03	370.69
332.258	373.69
332.486	359.69
332.715	370.69
332.943	380.69
333.172	398.69
333.4	379.69
333.629	374.69
333.857	396.69
334.085	404.69
334.314	427.69
334.542	422.69
334.771	437.69
334.999	416.69
335.227	412.69
335.455	389.69
335.684	388.69
335.912	364.69
336.14	375.69
336.369	366.69
336.597	370.69
336.825	368.69
337.053	372.69
337.281	365.69
337.51	352.69
337.738	369.69
337.966	352.69
338.194	358.69
338.422	358.69
338.65	352.69
338.878	339.69
339.106	337.69
339.334	350.69
339.562	336.69
339.79	367.69
340.018	357.69
340.246	330.69
340.474	354.69
340.702	352.69
340.93	345.69
341.158	325.69
341.386	339.69
341.614	329.69
341.842	335.69
342.07	332.69
342.298	338.69
342.526	338.69
342.754	334.69
342.981	340.69
343.209	324.69
343.437	362.69
343.665	338.69
343.893	376.69
344.12	384.69
344.348	366.69
344.576	363.69
344.804	363.69
345.031	343.69
345.259	352.69
345.487	331.69
345.714	318.69
345.942	322.69
346.17	324.69
346.397	327.69
346.625	344.69
346.853	326.69
347.08	324.69
347.308	328.69
347.535	328.69
347.763	331.69
347.99	326.69
348.218	328.69
348.445	326.69
348.673	331.69
348.9	329.69
349.128	342.69
349.355	346.69
349.583	326.69
349.81	327.69
350.037	315.69
350.265	325.69
350.492	311.69
350.72	319.69
350.947	326.69
351.174	330.69
351.402	320.69
351.629	318.69
351.856	340.69
352.083	324.69
352.311	320.69
352.538	325.69
352.765	330.69
352.992	324.69
353.22	326.69
353.447	317.69
353.674	313.69
353.901	323.69
354.128	316.69
354.355	313.69
354.583	309.69
354.81	303.69
355.037	306.69
355.264	307.69
355.491	306.69
355.718	321.69
355.945	327.69
356.172	302.69
356.399	297.69
356.626	313.69
356.853	312.69
357.08	307.69
357.307	320.69
357.534	312.69
357.761	350.69
357.988	319.69
358.215	310.69
358.441	315.69
358.668	318.69
358.895	312.69
359.122	306.69
359.349	314.69
359.576	314.69
359.802	335.69
360.029	349.69
360.256	348.69
360.483	317.69
360.709	330.69
360.936	327.69
361.163	307.69
361.39	321.69
361.616	328.69
361.843	317.69
362.07	346.69
362.296	319.69
362.523	332.69
362.749	326.69
362.976	323.69
363.203	319.69
363.429	307.69
363.656	316.69
363.882	299.69
364.109	290.69
364.335	291.69
364.562	299.69
364.788	308.69
365.015	314.69
365.241	316.69
365.468	303.69
365.694	319.69
365.92	317.69
366.147	307.69
366.373	328.69
366.599	322.69
366.826	321.69
367.052	303.69
367.278	308.69
367.505	301.69
367.731	319.69
367.957	311.69
368.184	320.69
368.41	299.69
368.636	325.69
368.862	327.69
369.089	304.69
369.315	319.69
369.541	310.69
369.767	318.69
369.993	336.69
370.219	331.69
370.445	320.69
370.672	320.69
370.898	319.69
371.124	328.69
371.35	318.69
371.576	323.69
371.802	329.69
372.028	325.69
372.254	333.69
372.48	312.69
372.706	338.69
372.932	327.69
373.158	365.69
373.384	327.69
373.61	336.69
373.835	335.69
374.061	314.69
374.287	335.69
374.513	346.69
374.739	330.69
374.965	336.69
375.191	328.69
375.416	354.69
375.642	348.69
375.868	342.69
376.094	335.69
376.319	330.69
376.545	320.69
376.771	316.69
376.997	294.69
377.222	328.69
377.448	336.69
377.674	313.69
377.899	330.69
378.125	321.69
378.35	319.69
378.576	324.69
378.802	314.69
379.027	322.69
379.253	329.69
379.478	323.69
379.704	328.69
379.929	313.69
380.155	322.69
380.38	311.69
380.606	331.69
380.831	330.69
381.057	331.69
381.282	321.69
381.507	325.69
381.733	314.69
381.958	326.69
382.184	328.69
382.409	329.69
382.634	329.69
382.86	331.69
383.085	328.69
383.31	341.69
383.535	331.69
383.761	331.69
383.986	348.69
384.211	330.69
384.436	342.69
384.662	352.69
384.887	371.69
385.112	364.69
385.337	352.69
385.562	345.69
385.787	353.69
386.013	369.69
386.238	374.69
386.463	368.69
386.688	369.69
386.913	354.69
387.138	374.69
387.363	358.69
387.588	355.69
387.813	359.69
388.038	348.69
388.263	354.69
388.488	352.69
388.713	337.69
388.938	363.69
389.163	359.69
389.387	360.69
389.612	358.69
389.837	346.69
390.062	347.69
390.287	344.69
390.512	369.69
390.736	351.69
390.961	350.69
391.186	359.69
391.411	365.69
391.636	390.69
391.86	381.69
392.085	389.69
392.31	412.69
392.534	367.69
392.759	375.69
392.984	361.69
393.208	370.69
393.433	359.69
393.658	362.69
393.882	358.69
394.107	362.69
394.331	370.69
394.556	380.69
394.78	370.69
395.005	353.69
395.229	348.69
395.454	360.69
395.678	392.69
395.903	392.69
396.127	387.69
396.352	392.69
396.576	382.69
396.801	376.69
397.025	369.69
397.249	378.69
397.474	367.69
397.698	391.69
397.922	407.69
398.147	409.69
398.371	434.69
398.595	418.69
398.82	421.69
399.044	443.69
399.268	457.69
399.492	500.69
399.717	553.69
399.941	553.69
400.165	516.69
400.389	500.69
400.613	488.69
400.837	434.69
401.062	445.69
401.286	424.69
401.51	402.69
401.734	426.69
401.958	420.69
402.182	420.69
402.406	432.69
402.63	427.69
402.854	430.69
403.078	430.69
403.302	428.69
403.526	438.69
403.75	449.69
403.974	445.69
404.198	449.69
404.422	443.69
404.645	424.69
404.869	431.69
405.093	498.69
405.317	491.69
405.541	490.69
405.765	455.69
405.988	451.69
406.212	469.69
406.436	461.69
406.66	484.69
406.883	471.69
407.107	495.69
407.331	503.69
407.555	545.69
407.778	544.69
408.002	499.69
408.226	499.69
408.449	459.69
408.673	483.69
408.896	483.69
409.12	504.69
409.344	472.69
409.567	450.69
409.791	440.69
410.014	450.69
410.238	435.69
410.461	424.69
410.685	432.69
410.908	462.69
411.132	467.69
411.355	463.69
411.578	458.69
411.802	457.69
412.025	448.69
412.249	444.69
412.472	434.69
412.695	450.69
412.919	476.69
413.142	436.69
413.365	422.69
413.589	435.69
413.812	417.69
414.035	414.69
414.258	404.69
414.482	416.69
414.705	430.69
414.928	422.69
415.151	401.69
415.374	411.69
415.597	402.69
415.821	407.69
416.044	404.69
416.267	413.69
416.49	396.69
416.713	418.69
416.936	395.69
417.159	410.69
417.382	410.69
417.605	417.69
417.828	431.69
418.051	414.69
418.274	423.69
418.497	433.69
418.72	434.69
418.943	401.69
419.166	432.69
419.389	433.69
419.611	426.69
419.834	428.69
420.057	437.69
420.28	432.69
420.503	427.69
420.726	437.69
420.948	432.69
421.171	443.69
421.394	461.69
421.617	423.69
421.839	408.69
422.062	416.69
422.285	417.69
422.507	473.69
422.73	455.69
422.953	448.69
423.175	452.69
423.398	442.69
423.621	462.69
423.843	449.69
424.066	452.69
424.288	451.69
424.511	464.69
424.733	478.69
424.956	519.69
425.178	491.69
425.401	506.69
425.623	531.69
425.846	443.69
426.068	425.69
426.291	430.69
426.513	425.69
426.735	422.69
426.958	435.69
427.18	491.69
427.402	569.69
427.625	570.69
427.847	522.69
428.069	472.69
428.292	431.69
428.514	417.69
428.736	417.69
428.958	400.69
429.181	393.69
429.403	394.69
429.625	400.69
429.847	425.69
430.069	444.69
430.292	436.69
430.514	390.69
430.736	407.69
430.958	396.69
431.18	400.69
431.402	402.69
431.624	389.69
431.846	388.69
432.068	391.69
432.29	406.69
432.512	401.69
432.734	393.69
432.956	407.69
433.178	397.69
433.4	400.69
433.622	379.69
433.844	386.69
434.066	378.69
434.287	399.69
434.509	386.69
434.731	378.69
434.953	400.69
435.175	410.69
435.397	425.69
435.618	409.69
435.84	449.69
436.062	495.69
436.284	520.69
436.505	459.69
436.727	411.69
436.949	416.69
437.17	393.69
437.392	377.69
437.614	402.69
437.835	416.69
438.057	475.69
438.278	506.69
438.5	497.69
438.721	545.69
438.943	526.69
439.165	449.69
439.386	421.69
439.608	436.69
439.829	427.69
440.05	436.69
440.272	454.69
440.493	422.69
440.715	426.69
440.936	412.69
441.158	412.69
441.379	419.69
441.6	449.69
441.822	448.69
442.043	469.69
442.264	514.69
442.486	510.69
442.707	462.69
442.928	454.69
443.149	440.69
443.371	452.69
443.592	462.69
443.813	532.69
444.034	542.69
444.255	473.69
444.476	460.69
444.698	473.69
444.919	458.69
445.14	552.69
445.361	505.69
445.582	467.69
445.803	490.69
446.024	511.69
446.245	524.69
446.466	499.69
446.687	426.69
446.908	408.69
447.129	398.69
447.35	399.69
447.571	402.69
447.792	383.69
448.013	381.69
448.234	416.69
448.455	428.69
448.675	460.69
448.896	538.69
449.117	457.69
449.338	455.69
449.559	511.69
449.779	552.69
450	450.69
450.221	403.69
450.442	378.69
450.662	374.69
450.883	381.69
451.104	382.69
451.324	386.69
451.545	377.69
451.766	367.69
451.986	339.69
452.207	368.69
452.428	354.69
452.648	361.69
452.869	346.69
453.089	355.69
453.31	355.69
453.53	376.69
453.751	342.69
453.971	346.69
454.192	361.69
454.412	356.69
454.633	361.69
454.853	328.69
455.073	338.69
455.294	355.69
455.514	393.69
455.734	382.69
455.955	357.69
456.175	348.69
456.395	340.69
456.616	353.69
456.836	332.69
457.056	343.69
457.276	324.69
457.497	333.69
457.717	355.69
457.937	363.69
458.157	355.69
458.377	347.69
458.598	382.69
458.818	378.69
459.038	432.69
459.258	443.69
459.478	394.69
459.698	374.69
459.918	391.69
460.138	390.69
460.358	419.69
460.578	420.69
460.798	420.69
461.018	428.69
461.238	404.69
461.458	414.69
461.678	419.69
461.898	414.69
462.118	417.69
462.338	434.69
462.558	450.69
462.777	481.69
462.997	482.69
463.217	491.69
463.437	482.69
463.657	458.69
463.876	442.69
464.096	473.69
464.316	464.69
464.536	455.69
464.755	469.69
464.975	434.69
465.195	428.69
465.414	467.69
465.634	446.69
465.854	413.69
466.073	378.69
466.293	396.69
466.512	401.69
466.732	387.69
466.951	382.69
467.171	379.69
467.391	371.69
467.61	359.69
467.829	394.69
468.049	379.69
468.268	386.69
468.488	386.69
468.707	349.69
468.927	376.69
469.146	359.69
469.365	360.69
469.585	350.69
469.804	373.69
470.023	378.69
470.243	375.69
470.462	388.69
470.681	378.69
470.901	403.69
471.12	402.69
471.339	378.69
471.558	376.69
471.777	371.69
471.997	373.69
472.216	391.69
472.435	399.69
472.654	378.69
472.873	376.69
473.092	352.69
473.311	387.69
473.53	352.69
473.749	360.69
473.968	381.69
474.187	449.69
474.406	455.69
474.625	395.69
474.844	373.69
475.063	377.69
475.282	366.69
475.501	359.69
475.72	388.69
475.939	374.69
476.158	407.69
476.377	368.69
476.596	381.69
476.814	388.69
477.033	372.69
477.252	409.69
477.471	392.69
477.69	409.69
477.908	407.69
478.127	431.69
478.346	400.69
478.564	409.69
478.783	441.69
479.002	416.69
479.22	430.69
479.439	441.69
479.658	442.69
479.876	452.69
480.095	449.69
480.313	481.69
480.532	459.69
480.751	460.69
480.969	481.69
481.188	515.69
481.406	492.69
481.624	480.69
481.843	420.69
482.061	427.69
482.28	408.69
482.498	419.69
482.717	438.69
482.935	394.69
483.153	417.69
483.372	426.69
483.59	434.69
483.808	415.69
484.027	410.69
484.245	430.69
484.463	420.69
484.681	425.69
484.9	422.69
485.118	441.69
485.336	432.69
485.554	439.69
485.772	446.69
485.99	421.69
486.209	434.69
486.427	424.69
486.645	445.69
486.863	458.69
487.081	450.69
487.299	466.69
487.517	450.69
487.735	440.69
487.953	457.69
488.171	467.69
488.389	467.69
488.607	459.69
488.825	459.69
489.043	448.69
489.261	443.69
489.479	467.69
489.696	454.69
489.914	460.69
490.132	446.69
490.35	477.69
490.568	488.69
490.786	495.69
491.003	483.69
491.221	491.69
491.439	488.69
491.657	516.69
491.874	516.69
492.092	511.69
492.31	527.69
492.527	482.69
492.745	489.69
492.963	513.69
493.18	524.69
493.398	524.69
493.615	528.69
493.833	532.69
494.05	543.69
494.268	527.69
494.485	538.69
494.703	513.69
494.92	524.69
495.138	532.69
495.355	530.69
495.573	532.69
495.79	510.69
496.008	562.69
496.225	538.69
496.442	523.69
496.66	547.69
496.877	524.69
497.094	543.69
497.312	535.69
497.529	536.69
497.746	550.69
497.963	564.69
498.181	585.69
498.398	592.69
498.615	588.69
498.832	645.69
499.049	671.69
499.267	694.69
499.484	750.69
499.701	786.69
499.918	834.69
500.135	882.69
500.352	919.69
500.569	963.69
500.786	970.69
501.003	908.69
501.22	868.69
501.437	826.69
501.654	760.69
501.871	763.69
502.088	681.69
502.305	683.69
502.522	644.69
502.739	630.69
502.956	605.69
503.172	573.69
503.389	580.69
503.606	568.69
503.823	535.69
504.04	549.69
504.256	551.69
504.473	565.69
504.69	567.69
504.907	543.69
505.123	524.69
505.34	501.69
505.557	503.69
505.773	503.69
505.99	516.69
506.207	524.69
506.423	500.69
506.64	491.69
506.856	494.69
507.073	486.69
507.289	452.69
507.506	461.69
507.722	480.69
507.939	479.69
508.155	464.69
508.372	466.69
508.588	458.69
508.805	459.69
509.021	456.69
509.238	460.69
509.454	484.69
509.67	439.69
509.887	452.69
510.103	450.69
510.319	460.69
510.536	499.69
510.752	676.69
510.968	575.69
511.184	447.69
511.401	446.69
511.617	431.69
511.833	435.69
512.049	448.69
512.265	413.69
512.481	414.69
512.698	418.69
512.914	438.69
513.13	420.69
513.346	461.69
513.562	442.69
513.778	420.69
513.994	426.69
514.21	430.69
514.426	452.69
514.642	457.69
514.858	491.69
515.074	464.69
515.29	538.69
515.506	723.69
515.721	625.69
515.937	481.69
516.153	442.69
516.369	478.69
516.585	475.69
516.801	476.69
517.016	475.69
517.232	463.69
517.448	507.69
517.664	494.69
517.879	506.69
518.095	499.69
518.311	509.69
518.527	464.69
518.742	469.69
518.958	457.69
519.173	451.69
519.389	474.69
519.605	444.69
519.82	420.69
520.036	419.69
520.251	459.69
520.467	442.69
520.682	453.69
520.898	452.69
521.113	476.69
521.329	443.69
521.544	487.69
521.76	592.69
521.975	871.69
522.19	851.69
522.406	538.69
522.621	467.69
522.836	421.69
523.052	422.69
523.267	383.69
523.482	379.69
523.698	389.69
523.913	381.69
524.128	386.69
524.343	402.69
524.559	386.69
524.774	375.69
524.989	388.69
525.204	394.69
525.419	387.69
525.634	384.69
525.849	377.69
526.064	356.69
526.28	348.69
526.495	375.69
526.71	370.69
526.925	378.69
527.14	360.69
527.355	355.69
527.57	348.69
527.785	366.69
527.999	354.69
528.214	366.69
528.429	370.69
528.644	359.69
528.859	376.69
529.074	368.69
529.289	382.69
529.503	411.69
529.718	414.69
529.933	389.69
530.148	355.69
530.363	360.69
530.577	362.69
530.792	369.69
531.007	355.69
531.221	350.69
531.436	385.69
531.651	370.69
531.865	351.69
532.08	374.69
532.295	370.69
532.509	348.69
532.724	348.69
532.938	343.69
533.153	361.69
533.367	347.69
533.582	356.69
533.796	352.69
534.011	363.69
534.225	360.69
534.44	341.69
534.654	360.69
534.868	357.69
535.083	353.69
535.297	373.69
535.511	348.69
535.726	371.69
535.94	343.69
536.154	348.69
536.369	334.69
536.583	337.69
536.797	351.69
537.011	336.69
537.225	344.69
537.44	324.69
537.654	343.69
537.868	332.69
538.082	327.69
538.296	347.69
538.51	336.69
538.724	345.69
538.938	343.69
539.153	335.69
539.367	345.69
539.581	343.69
539.795	340.69
540.009	334.69
540.222	350.69
540.436	329.69
540.65	329.69
540.864	337.69
541.078	338.69
541.292	366.69
541.506	356.69
541.72	337.69
541.934	347.69
542.147	331.69
542.361	357.69
542.575	352.69
542.789	350.69
543.002	328.69
543.216	352.69
543.43	353.69
543.644	335.69
543.857	347.69
544.071	360.69
544.285	353.69
544.498	352.69
544.712	343.69
544.925	350.69
545.139	353.69
545.352	360.69
545.566	344.69
545.779	366.69
545.993	348.69
546.206	357.69
546.42	347.69
546.633	341.69
546.847	346.69
547.06	330.69
547.274	316.69
547.487	339.69
547.7	342.69
547.914	343.69
548.127	339.69
548.34	346.69
548.554	340.69
548.767	357.69
548.98	342.69
549.193	343.69
549.407	370.69
549.62	352.69
549.833	360.69
550.046	344.69
550.259	329.69
550.473	349.69
550.686	354.69
550.899	354.69
551.112	329.69
551.325	340.69
551.538	342.69
551.751	336.69
551.964	327.69
552.177	350.69
552.39	337.69
552.603	367.69
552.816	355.69
553.029	352.69
553.242	366.69
553.455	363.69
553.667	366.69
553.88	380.69
554.093	350.69
554.306	357.69
554.519	347.69
554.732	346.69
554.944	341.69
555.157	331.69
555.37	332.69
555.583	328.69
555.795	331.69
556.008	302.69
556.221	282.69
556.433	325.69
556.646	313.69
556.859	316.69
557.071	311.69
557.284	304.69
557.496	311.69
557.709	321.69
557.921	312.69
558.134	304.69
558.346	311.69
558.559	311.69
558.771	290.69
558.984	300.69
559.196	318.69
559.409	306.69
559.621	293.69
559.833	302.69
560.046	292.69
560.258	284.69
560.47	294.69
560.683	292.69
560.895	306.69
561.107	303.69
561.32	298.69
561.532	297.69
561.744	307.69
561.956	307.69
562.168	295.69
562.381	310.69
562.593	306.69
562.805	314.69
563.017	288.69
563.229	310.69
563.441	311.69
563.653	300.69
563.865	322.69
564.077	316.69
564.289	311.69
564.501	291.69
564.713	315.69
564.925	316.69
565.137	336.69
565.349	328.69
565.561	335.69
565.773	357.69
565.985	355.69
566.197	357.69
566.408	359.69
566.62	392.69
566.832	428.69
567.044	422.69
567.255	427.69
567.467	433.69
567.679	437.69
567.891	445.69
568.102	482.69
568.314	442.69
568.526	432.69
568.737	409.69
568.949	372.69
569.161	343.69
569.372	345.69
569.584	341.69
569.795	331.69
570.007	311.69
570.218	327.69
570.43	317.69
570.641	293.69
570.853	305.69
571.064	326.69
571.276	308.69
571.487	305.69
571.698	299.69
571.91	291.69
572.121	283.69
572.333	263.69
572.544	276.69
572.755	262.69
572.966	274.69
573.178	263.69
573.389	283.69
573.6	274.69
573.811	266.69
574.023	266.69
574.234	271.69
574.445	255.69
574.656	262.69
574.867	265.69
575.078	272.69
575.289	254.69
575.501	266.69
575.712	244.69
575.923	253.69
576.134	284.69
576.345	261.69
576.556	266.69
576.767	241.69
576.978	275.69
577.188	278.69
577.399	264.69
577.61	243.69
577.821	249.69
578.032	262.69
578.243	265.69
578.454	351.69
578.665	291.69
578.875	259.69
579.086	258.69
579.297	253.69
579.508	266.69
579.718	259.69
579.929	252.69
580.14	250.69
580.35	227.69
580.561	236.69
580.772	232.69
580.982	253.69
581.193	235.69
581.403	238.69
581.614	238.69
581.825	227.69
582.035	235.69
582.246	266.69
582.456	230.69
582.667	239.69
582.877	239.69
583.087	224.69
583.298	224.69
583.508	249.69
583.719	226.69
583.929	234.69
584.139	247.69
584.35	245.69
584.56	240.69
584.77	244.69
584.981	234.69
585.191	242.69
585.401	235.69
585.611	229.69
585.821	219.69
586.032	236.69
586.242	216.69
586.452	234.69
586.662	228.69
586.872	233.69
587.082	238.69
587.292	250.69
587.502	223.69
587.713	230.69
587.923	247.69
588.133	236.69
588.343	230.69
588.553	219.69
588.762	234.69
588.972	229.69
589.182	251.69
589.392	228.69
589.602	215.69
589.812	239.69
590.022	235.69
590.232	238.69
590.441	238.69
590.651	243.69
590.861	239.69
591.071	232.69
591.281	242.69
591.49	245.69
591.7	242.69
591.91	232.69
592.119	247.69
592.329	244.69
592.539	252.69
592.748	257.69
592.958	264.69
593.167	246.69
593.377	279.69
593.587	274.69
593.796	278.69
594.006	273.69
594.215	269.69
594.424	280.69
594.634	262.69
594.843	268.69
595.053	243.69
595.262	259.69
595.472	256.69
595.681	240.69
595.89	243.69
596.1	235.69
596.309	227.69
596.518	207.69
596.727	207.69
596.937	228.69
597.146	232.69
597.355	213.69
597.564	230.69
597.774	224.69
597.983	214.69
598.192	214.69
598.401	226.69
598.61	222.69
598.819	206.69
599.028	211.69
599.237	207.69
599.446	215.69
599.655	208.69
599.864	213.69
600.073	216.69
600.282	216.69
600.491	212.69
600.7	220.69
600.909	200.69
601.118	217.69
601.327	202.69
601.536	204.69
601.745	210.69
601.953	211.69
602.162	213.69
602.371	221.69
602.58	211.69
602.789	206.69
602.997	212.69
603.206	215.69
603.415	218.69
603.623	207.69
603.832	198.69
604.041	195.69
604.249	194.69
604.458	203.69
604.666	202.69
604.875	211.69
605.084	191.69
605.292	190.69
605.501	198.69
605.709	185.69
605.918	206.69
606.126	205.69
606.334	210.69
606.543	216.69
606.751	192.69
606.96	208.69
607.168	199.69
607.376	178.69
607.585	185.69
607.793	188.69
608.001	182.69
608.21	200.69
608.418	207.69
608.626	192.69
608.834	189.69
609.043	194.69
609.251	177.69
609.459	211.69
609.667	186.69
609.875	188.69
610.083	206.69
610.291	195.69
610.499	195.69
610.707	210.69
610.916	196.69
611.124	210.69
611.332	206.69
611.54	194.69
611.748	210.69
611.955	210.69
612.163	207.69
612.371	197.69
612.579	201.69
612.787	205.69
612.995	201.69
613.203	202.69
613.411	199.69
613.618	183.69
613.826	192.69
614.034	194.69
614.242	207.69
614.449	200.69
614.657	208.69
614.865	199.69
615.072	195.69
615.28	189.69
615.488	199.69
615.695	203.69
615.903	185.69
616.111	206.69
616.318	190.69
616.526	203.69
616.733	213.69
616.941	185.69
617.148	197.69
617.356	210.69
617.563	207.69
617.771	185.69
617.978	192.69
618.185	187.69
618.393	199.69
618.6	189.69
618.807	190.69
619.015	204.69
619.222	193.69
619.429	177.69
619.637	199.69
619.844	207.69
620.051	181.69
620.258	192.69
620.466	198.69
620.673	163.69
620.88	198.69
621.087	180.69
621.294	176.69
621.501	190.69
621.708	181.69
621.915	187.69
622.122	187.69
622.329	192.69
622.536	182.69
622.743	176.69
622.95	186.69
623.157	184.69
623.364	190.69
623.571	188.69
623.778	167.69
623.985	188.69
624.192	166.69
624.399	187.69
624.606	175.69
624.812	164.69
625.019	171.69
625.226	164.69
625.433	162.69
625.639	182.69
625.846	178.69
626.053	170.69
626.259	170.69
626.466	154.69
626.673	168.69
626.879	186.69
627.086	181.69
627.293	178.69
627.499	169.69
627.706	184.69
627.912	193.69
628.119	187.69
628.325	178.69
628.532	164.69
628.738	163.69
628.945	183.69
629.151	175.69
629.357	161.69
629.564	162.69
629.77	163.69
629.976	158.69
630.183	146.69
630.389	169.69
630.595	154.69
630.802	164.69
631.008	158.69
631.214	174.69
631.42	166.69
631.627	174.69
631.833	161.69
632.039	152.69
632.245	155.69
632.451	164.69
632.657	164.69
632.863	146.69
633.069	155.69
633.275	176.69
633.481	147.69
633.688	156.69
633.893	179.69
634.099	163.69
634.305	156.69
634.511	156.69
634.717	155.69
634.923	153.69
635.129	155.69
635.335	158.69
635.541	158.69
635.747	165.69
635.952	166.69
636.158	150.69
636.364	160.69
636.57	166.69
636.775	169.69
636.981	158.69
637.187	161.69
637.392	143.69
637.598	160.69
637.804	152.69
638.009	147.69
638.215	165.69
638.421	142.69
638.626	168.69
638.832	148.69
639.037	153.69
639.243	146.69
639.448	146.69
639.654	143.69
639.859	152.69
640.065	149.69
640.27	140.69
640.475	145.69
640.681	158.69
640.886	141.69
641.091	169.69
641.297	165.69
641.502	158.69
641.707	156.69
641.913	150.69
642.118	151.69
642.323	149.69
642.528	144.69
642.733	136.69
642.939	131.69
643.144	145.69
643.349	139.69
643.554	148.69
643.759	146.69
643.964	153.69
644.169	156.69
644.374	138.69
644.579	155.69
644.784	132.69
644.989	148.69
645.194	148.69
645.399	138.69
645.604	136.69
645.809	134.69
646.014	127.69
646.219	135.69
646.423	140.69
646.628	140.69
646.833	147.69
647.038	142.69
647.243	140.69
647.447	149.69
647.652	154.69
647.857	143.69
648.062	151.69
648.266	162.69
648.471	156.69
648.676	138.69
648.88	142.69
649.085	154.69
649.289	151.69
649.494	155.69
649.698	155.69
649.903	159.69
650.107	159.69
650.312	143.69
650.516	137.69
650.721	132.69
650.925	124.69
651.13	137.69
651.334	123.69
651.539	140.69
651.743	141.69
651.947	136.69
652.152	122.69
652.356	120.69
652.56	130.69
652.764	138.69
652.969	128.69
653.173	140.69
653.377	124.69
653.581	122.69
653.785	119.69
653.99	138.69
654.194	118.69
654.398	121.69
654.602	129.69
654.806	142.69
655.01	132.69
655.214	137.69
655.418	129.69
655.622	125.69
655.826	133.69
656.03	126.69
656.234	115.69
656.438	132.69
656.642	139.69
656.846	134.69
657.049	118.69
657.253	122.69
657.457	110.69
657.661	124.69
657.865	107.69
658.068	118.69
658.272	102.69
658.476	102.69
658.68	104.69
658.883	106.69
659.087	103.69
659.291	84.69
659.494	103.69
659.698	102.69
659.901	99.69
660.105	106.69
660.309	105.69
660.512	102.69
660.716	77.69
660.919	78.69
661.123	90.69
661.326	93.69
661.53	84.69
661.733	82.69
661.936	94.69
662.14	88.69
662.343	82.69
662.546	89.69
662.75	76.69
662.953	80.69
663.156	77.69
663.36	69.69
663.563	82.69
663.766	84.69
663.969	100.69
664.173	81.69
664.376	70.69
664.579	86.69
664.782	75.69
664.985	87.69
665.188	79.69
665.391	81.69
665.594	84.69
665.797	71.69
666	79.69
666.203	87.69
666.406	76.69
666.609	88.69
666.812	81.69
667.015	67.69
667.218	79.69
667.421	86.69
667.624	83.69
667.827	66.69
668.03	79.69
668.232	78.69
668.435	83.69
668.638	76.69
668.841	79.69
669.043	80.69
669.246	80.69
669.449	84.69
669.651	98.69
669.854	82.69
670.057	81.69
670.259	71.69
670.462	71.69
670.665	91.69
670.867	83.69
671.07	81.69
671.272	81.69
671.475	71.69
671.677	100.69
671.88	90.69
672.082	78.69
672.284	87.69
672.487	68.69
672.689	75.69
672.892	74.69
