Data from Location1.07152019.Energy5.Lamp.07192019.3%Agarose_HRD10591_14-32-44-015.txt Node
Date: Fri Jul 19 14:32:44 EDT 2019
User: cochatt
Spectrometer: HR+D1059
Trigger mode: 1
Integration Time (sec): 1.000000E-1
Scans to average: 1
Electric dark correction enabled: true
Nonlinearity correction enabled: false
Boxcar width: 0
XAxis mode: Wavelengths
Number of Pixels in Spectrum: 2048
>>>>>Begin Spectral Data<<<<<
223.165	-4.12
223.4	-4.12
223.635	-4.12
223.869	-14.12
224.104	-17.12
224.338	-14.12
224.573	-3.12
224.808	-11.12
225.042	-4.12
225.277	-20.12
225.511	-8.12
225.746	0.88
225.98	1.88
226.215	13.88
226.449	8.88
226.683	22.88
226.918	20.88
227.152	26.88
227.387	37.88
227.621	31.88
227.856	49.88
228.09	52.88
228.324	55.88
228.559	56.88
228.793	49.88
229.027	44.88
229.262	57.88
229.496	62.88
229.73	74.88
229.964	75.88
230.199	73.88
230.433	74.88
230.667	77.88
230.901	74.88
231.136	90.88
231.37	77.88
231.604	87.88
231.838	77.88
232.072	84.88
232.306	78.88
232.541	88.88
232.775	79.88
233.009	72.88
233.243	68.88
233.477	89.88
233.711	79.88
233.945	97.88
234.179	87.88
234.413	88.88
234.647	73.88
234.881	63.88
235.115	86.88
235.349	74.88
235.583	85.88
235.817	89.88
236.051	90.88
236.285	88.88
236.519	74.88
236.753	85.88
236.987	92.88
237.221	74.88
237.455	78.88
237.689	68.88
237.922	74.88
238.156	76.88
238.39	65.88
238.624	82.88
238.858	82.88
239.091	77.88
239.325	90.88
239.559	69.88
239.793	68.88
240.027	74.88
240.26	74.88
240.494	71.88
240.728	74.88
240.961	76.88
241.195	63.88
241.429	79.88
241.662	78.88
241.896	75.88
242.13	76.88
242.363	63.88
242.597	85.88
242.83	77.88
243.064	82.88
243.298	81.88
243.531	66.88
243.765	88.88
243.998	68.88
244.232	77.88
244.465	87.88
244.699	88.88
244.932	85.88
245.166	75.88
245.399	82.88
245.633	77.88
245.866	83.88
246.099	83.88
246.333	73.88
246.566	84.88
246.8	59.88
247.033	65.88
247.266	77.88
247.5	72.88
247.733	67.88
247.966	71.88
248.2	84.88
248.433	88.88
248.666	67.88
248.899	79.88
249.133	74.88
249.366	78.88
249.599	84.88
249.832	73.88
250.066	86.88
250.299	89.88
250.532	79.88
250.765	81.88
250.998	75.88
251.231	74.88
251.465	81.88
251.698	79.88
251.931	70.88
252.164	84.88
252.397	78.88
252.63	82.88
252.863	79.88
253.096	80.88
253.329	77.88
253.562	88.88
253.795	80.88
254.028	78.88
254.261	88.88
254.494	89.88
254.727	69.88
254.96	68.88
255.193	71.88
255.426	66.88
255.659	80.88
255.892	79.88
256.124	65.88
256.357	66.88
256.59	73.88
256.823	70.88
257.056	98.88
257.289	79.88
257.521	74.88
257.754	67.88
257.987	89.88
258.22	82.88
258.452	81.88
258.685	92.88
258.918	81.88
259.151	85.88
259.383	87.88
259.616	98.88
259.849	83.88
260.081	85.88
260.314	86.88
260.547	78.88
260.779	76.88
261.012	81.88
261.244	81.88
261.477	88.88
261.71	86.88
261.942	74.88
262.175	82.88
262.407	81.88
262.64	73.88
262.872	74.88
263.105	85.88
263.337	75.88
263.57	78.88
263.802	95.88
264.035	76.88
264.267	78.88
264.499	90.88
264.732	94.88
264.964	79.88
265.197	86.88
265.429	89.88
265.661	70.88
265.894	75.88
266.126	79.88
266.358	85.88
266.591	83.88
266.823	71.88
267.055	84.88
267.287	85.88
267.52	72.88
267.752	90.88
267.984	76.88
268.216	78.88
268.448	103.88
268.681	91.88
268.913	74.88
269.145	82.88
269.377	68.88
269.609	70.88
269.841	71.88
270.073	75.88
270.306	86.88
270.538	86.88
270.77	77.88
271.002	73.88
271.234	94.88
271.466	84.88
271.698	81.88
271.93	67.88
272.162	76.88
272.394	94.88
272.626	84.88
272.858	92.88
273.09	92.88
273.322	77.88
273.553	74.88
273.785	75.88
274.017	73.88
274.249	77.88
274.481	87.88
274.713	87.88
274.945	83.88
275.176	102.88
275.408	79.88
275.64	84.88
275.872	76.88
276.104	77.88
276.335	91.88
276.567	86.88
276.799	72.88
277.031	95.88
277.262	85.88
277.494	75.88
277.726	89.88
277.957	73.88
278.189	92.88
278.421	80.88
278.652	97.88
278.884	79.88
279.115	91.88
279.347	70.88
279.579	85.88
279.81	88.88
280.042	98.88
280.273	87.88
280.505	86.88
280.736	81.88
280.968	74.88
281.199	90.88
281.431	78.88
281.662	102.88
281.894	74.88
282.125	78.88
282.356	91.88
282.588	94.88
282.819	83.88
283.051	69.88
283.282	78.88
283.513	83.88
283.745	84.88
283.976	72.88
284.207	81.88
284.439	89.88
284.67	83.88
284.901	77.88
285.132	85.88
285.364	78.88
285.595	85.88
285.826	74.88
286.057	89.88
286.288	80.88
286.52	87.88
286.751	84.88
286.982	86.88
287.213	84.88
287.444	94.88
287.675	86.88
287.906	86.88
288.138	76.88
288.369	76.88
288.6	73.88
288.831	85.88
289.062	77.88
289.293	89.88
289.524	90.88
289.755	75.88
289.986	75.88
290.217	85.88
290.448	97.88
290.679	97.88
290.91	75.88
291.141	93.88
291.371	89.88
291.602	80.88
291.833	68.88
292.064	87.88
292.295	101.88
292.526	76.88
292.757	83.88
292.987	73.88
293.218	90.88
293.449	82.88
293.68	92.88
293.91	80.88
294.141	84.88
294.372	73.88
294.603	79.88
294.833	97.88
295.064	70.88
295.295	85.88
295.525	93.88
295.756	97.88
295.987	83.88
296.217	98.88
296.448	90.88
296.679	78.88
296.909	85.88
297.14	88.88
297.37	83.88
297.601	79.88
297.831	69.88
298.062	86.88
298.292	90.88
298.523	85.88
298.753	85.88
298.984	89.88
299.214	86.88
299.445	79.88
299.675	91.88
299.905	83.88
300.136	90.88
300.366	73.88
300.597	89.88
300.827	99.88
301.057	88.88
301.288	82.88
301.518	79.88
301.748	69.88
301.979	81.88
302.209	106.88
302.439	110.88
302.669	94.88
302.9	69.88
303.13	83.88
303.36	87.88
303.59	97.88
303.82	81.88
304.051	69.88
304.281	91.88
304.511	89.88
304.741	81.88
304.971	84.88
305.201	76.88
305.431	93.88
305.661	90.88
305.891	86.88
306.121	87.88
306.352	95.88
306.582	95.88
306.812	76.88
307.042	88.88
307.272	85.88
307.502	85.88
307.731	75.88
307.961	90.88
308.191	84.88
308.421	83.88
308.651	90.88
308.881	97.88
309.111	87.88
309.341	77.88
309.571	82.88
309.8	79.88
310.03	96.88
310.26	84.88
310.49	87.88
310.72	87.88
310.949	83.88
311.179	88.88
311.409	96.88
311.639	93.88
311.868	85.88
312.098	102.88
312.328	78.88
312.557	85.88
312.787	88.88
313.017	90.88
313.246	91.88
313.476	79.88
313.706	74.88
313.935	88.88
314.165	84.88
314.394	85.88
314.624	101.88
314.853	92.88
315.083	89.88
315.312	79.88
315.542	86.88
315.771	80.88
316.001	93.88
316.23	73.88
316.46	89.88
316.689	96.88
316.919	91.88
317.148	85.88
317.377	89.88
317.607	86.88
317.836	85.88
318.065	84.88
318.295	93.88
318.524	88.88
318.753	87.88
318.983	78.88
319.212	98.88
319.441	81.88
319.67	84.88
319.9	73.88
320.129	89.88
320.358	85.88
320.587	89.88
320.816	95.88
321.046	86.88
321.275	82.88
321.504	87.88
321.733	82.88
321.962	90.88
322.191	85.88
322.42	85.88
322.649	100.88
322.878	87.88
323.108	88.88
323.337	71.88
323.566	85.88
323.795	81.88
324.024	96.88
324.253	71.88
324.482	81.88
324.71	79.88
324.939	83.88
325.168	90.88
325.397	93.88
325.626	83.88
325.855	85.88
326.084	88.88
326.313	85.88
326.542	90.88
326.77	73.88
326.999	82.88
327.228	77.88
327.457	90.88
327.686	89.88
327.914	92.88
328.143	87.88
328.372	93.88
328.6	82.88
328.829	71.88
329.058	87.88
329.287	89.88
329.515	79.88
329.744	95.88
329.972	84.88
330.201	82.88
330.43	82.88
330.658	94.88
330.887	89.88
331.115	95.88
331.344	72.88
331.572	92.88
331.801	93.88
332.03	79.88
332.258	85.88
332.486	76.88
332.715	88.88
332.943	77.88
333.172	82.88
333.4	88.88
333.629	96.88
333.857	83.88
334.085	73.88
334.314	90.88
334.542	89.88
334.771	87.88
334.999	88.88
335.227	77.88
335.455	83.88
335.684	89.88
335.912	62.88
336.14	78.88
336.369	84.88
336.597	76.88
336.825	90.88
337.053	87.88
337.281	90.88
337.51	79.88
337.738	82.88
337.966	86.88
338.194	76.88
338.422	90.88
338.65	90.88
338.878	90.88
339.106	88.88
339.334	83.88
339.562	84.88
339.79	91.88
340.018	72.88
340.246	88.88
340.474	82.88
340.702	88.88
340.93	90.88
341.158	78.88
341.386	83.88
341.614	88.88
341.842	82.88
342.07	83.88
342.298	83.88
342.526	89.88
342.754	97.88
342.981	86.88
343.209	85.88
343.437	91.88
343.665	78.88
343.893	78.88
344.12	77.88
344.348	87.88
344.576	73.88
344.804	90.88
345.031	96.88
345.259	69.88
345.487	88.88
345.714	89.88
345.942	74.88
346.17	88.88
346.397	86.88
346.625	85.88
346.853	77.88
347.08	73.88
347.308	92.88
347.535	89.88
347.763	89.88
347.99	83.88
348.218	96.88
348.445	85.88
348.673	85.88
348.9	93.88
349.128	74.88
349.355	80.88
349.583	89.88
349.81	102.88
350.037	90.88
350.265	87.88
350.492	83.88
350.72	92.88
350.947	92.88
351.174	83.88
351.402	86.88
351.629	79.88
351.856	86.88
352.083	91.88
352.311	78.88
352.538	78.88
352.765	74.88
352.992	83.88
353.22	77.88
353.447	73.88
353.674	78.88
353.901	82.88
354.128	82.88
354.355	76.88
354.583	85.88
354.81	89.88
355.037	90.88
355.264	98.88
355.491	88.88
355.718	86.88
355.945	78.88
356.172	92.88
356.399	90.88
356.626	90.88
356.853	81.88
357.08	86.88
357.307	79.88
357.534	88.88
357.761	79.88
357.988	91.88
358.215	86.88
358.441	81.88
358.668	78.88
358.895	86.88
359.122	74.88
359.349	77.88
359.576	84.88
359.802	76.88
360.029	75.88
360.256	90.88
360.483	85.88
360.709	78.88
360.936	81.88
361.163	80.88
361.39	78.88
361.616	81.88
361.843	75.88
362.07	97.88
362.296	73.88
362.523	78.88
362.749	91.88
362.976	84.88
363.203	92.88
363.429	82.88
363.656	74.88
363.882	80.88
364.109	81.88
364.335	86.88
364.562	88.88
364.788	75.88
365.015	85.88
365.241	104.88
365.468	85.88
365.694	68.88
365.92	81.88
366.147	73.88
366.373	83.88
366.599	101.88
366.826	92.88
367.052	82.88
367.278	77.88
367.505	103.88
367.731	94.88
367.957	91.88
368.184	94.88
368.41	76.88
368.636	97.88
368.862	86.88
369.089	90.88
369.315	98.88
369.541	82.88
369.767	85.88
369.993	89.88
370.219	90.88
370.445	94.88
370.672	81.88
370.898	78.88
371.124	81.88
371.35	100.88
371.576	101.88
371.802	87.88
372.028	94.88
372.254	78.88
372.48	87.88
372.706	95.88
372.932	94.88
373.158	102.88
373.384	90.88
373.61	78.88
373.835	73.88
374.061	79.88
374.287	92.88
374.513	91.88
374.739	114.88
374.965	71.88
375.191	101.88
375.416	91.88
375.642	89.88
375.868	103.88
376.094	91.88
376.319	88.88
376.545	90.88
376.771	91.88
376.997	85.88
377.222	84.88
377.448	82.88
377.674	85.88
377.899	93.88
378.125	78.88
378.35	94.88
378.576	92.88
378.802	93.88
379.027	89.88
379.253	106.88
379.478	99.88
379.704	80.88
379.929	97.88
380.155	83.88
380.38	78.88
380.606	94.88
380.831	111.88
381.057	94.88
381.282	85.88
381.507	107.88
381.733	113.88
381.958	89.88
382.184	95.88
382.409	100.88
382.634	98.88
382.86	92.88
383.085	101.88
383.31	97.88
383.535	98.88
383.761	80.88
383.986	94.88
384.211	102.88
384.436	102.88
384.662	105.88
384.887	95.88
385.112	99.88
385.337	97.88
385.562	101.88
385.787	108.88
386.013	116.88
386.238	104.88
386.463	105.88
386.688	88.88
386.913	104.88
387.138	104.88
387.363	89.88
387.588	100.88
387.813	107.88
388.038	89.88
388.263	100.88
388.488	105.88
388.713	97.88
388.938	101.88
389.163	105.88
389.387	101.88
389.612	108.88
389.837	90.88
390.062	113.88
390.287	109.88
390.512	104.88
390.736	95.88
390.961	101.88
391.186	90.88
391.411	100.88
391.636	94.88
391.86	82.88
392.085	93.88
392.31	110.88
392.534	103.88
392.759	105.88
392.984	104.88
393.208	82.88
393.433	92.88
393.658	108.88
393.882	94.88
394.107	108.88
394.331	112.88
394.556	102.88
394.78	118.88
395.005	105.88
395.229	111.88
395.454	109.88
395.678	91.88
395.903	119.88
396.127	100.88
396.352	105.88
396.576	102.88
396.801	88.88
397.025	103.88
397.249	106.88
397.474	106.88
397.698	113.88
397.922	114.88
398.147	102.88
398.371	105.88
398.595	102.88
398.82	97.88
399.044	107.88
399.268	111.88
399.492	91.88
399.717	97.88
399.941	115.88
400.165	90.88
400.389	108.88
400.613	108.88
400.837	93.88
401.062	113.88
401.286	121.88
401.51	108.88
401.734	102.88
401.958	118.88
402.182	116.88
402.406	117.88
402.63	117.88
402.854	116.88
403.078	113.88
403.302	117.88
403.526	99.88
403.75	137.88
403.974	106.88
404.198	111.88
404.422	113.88
404.645	115.88
404.869	117.88
405.093	122.88
405.317	109.88
405.541	118.88
405.765	126.88
405.988	104.88
406.212	129.88
406.436	122.88
406.66	131.88
406.883	119.88
407.107	118.88
407.331	98.88
407.555	108.88
407.778	116.88
408.002	115.88
408.226	111.88
408.449	119.88
408.673	121.88
408.896	127.88
409.12	120.88
409.344	113.88
409.567	128.88
409.791	121.88
410.014	119.88
410.238	126.88
410.461	123.88
410.685	136.88
410.908	113.88
411.132	110.88
411.355	115.88
411.578	123.88
411.802	117.88
412.025	110.88
412.249	123.88
412.472	125.88
412.695	127.88
412.919	123.88
413.142	124.88
413.365	123.88
413.589	133.88
413.812	126.88
414.035	130.88
414.258	110.88
414.482	117.88
414.705	123.88
414.928	117.88
415.151	133.88
415.374	125.88
415.597	116.88
415.821	127.88
416.044	127.88
416.267	124.88
416.49	117.88
416.713	120.88
416.936	116.88
417.159	123.88
417.382	146.88
417.605	121.88
417.828	133.88
418.051	129.88
418.274	133.88
418.497	133.88
418.72	115.88
418.943	137.88
419.166	139.88
419.389	139.88
419.611	140.88
419.834	137.88
420.057	142.88
420.28	131.88
420.503	135.88
420.726	137.88
420.948	128.88
421.171	138.88
421.394	154.88
421.617	138.88
421.839	143.88
422.062	167.88
422.285	139.88
422.507	126.88
422.73	125.88
422.953	133.88
423.175	127.88
423.398	134.88
423.621	129.88
423.843	139.88
424.066	140.88
424.288	137.88
424.511	132.88
424.733	149.88
424.956	138.88
425.178	138.88
425.401	138.88
425.623	125.88
425.846	122.88
426.068	125.88
426.291	120.88
426.513	136.88
426.735	129.88
426.958	141.88
427.18	134.88
427.402	130.88
427.625	125.88
427.847	124.88
428.069	129.88
428.292	129.88
428.514	127.88
428.736	127.88
428.958	131.88
429.181	113.88
429.403	122.88
429.625	126.88
429.847	133.88
430.069	133.88
430.292	130.88
430.514	121.88
430.736	129.88
430.958	133.88
431.18	120.88
431.402	131.88
431.624	114.88
431.846	103.88
432.068	83.88
432.29	83.88
432.512	120.88
432.734	117.88
432.956	120.88
433.178	142.88
433.4	133.88
433.622	147.88
433.844	143.88
434.066	125.88
434.287	113.88
434.509	96.88
434.731	108.88
434.953	109.88
435.175	138.88
435.397	110.88
435.618	117.88
435.84	109.88
436.062	106.88
436.284	123.88
436.505	117.88
436.727	135.88
436.949	134.88
437.17	137.88
437.392	133.88
437.614	135.88
437.835	110.88
438.057	95.88
438.278	108.88
438.5	117.88
438.721	128.88
438.943	142.88
439.165	133.88
439.386	129.88
439.608	155.88
439.829	127.88
440.05	142.88
440.272	134.88
440.493	145.88
440.715	145.88
440.936	136.88
441.158	137.88
441.379	127.88
441.6	154.88
441.822	134.88
442.043	163.88
442.264	122.88
442.486	144.88
442.707	151.88
442.928	128.88
443.149	136.88
443.371	149.88
443.592	137.88
443.813	139.88
444.034	146.88
444.255	143.88
444.476	131.88
444.698	142.88
444.919	129.88
445.14	261.88
445.361	202.88
445.582	143.88
445.803	152.88
446.024	154.88
446.245	145.88
446.466	144.88
446.687	150.88
446.908	158.88
447.129	156.88
447.35	152.88
447.571	148.88
447.792	137.88
448.013	144.88
448.234	152.88
448.455	149.88
448.675	141.88
448.896	144.88
449.117	142.88
449.338	125.88
449.559	131.88
449.779	133.88
450	133.88
450.221	138.88
450.442	134.88
450.662	115.88
450.883	125.88
451.104	123.88
451.324	140.88
451.545	129.88
451.766	124.88
451.986	122.88
452.207	133.88
452.428	121.88
452.648	113.88
452.869	125.88
453.089	106.88
453.31	119.88
453.53	105.88
453.751	102.88
453.971	98.88
454.192	104.88
454.412	107.88
454.633	118.88
454.853	121.88
455.073	131.88
455.294	123.88
455.514	121.88
455.734	114.88
455.955	134.88
456.175	121.88
456.395	105.88
456.616	111.88
456.836	110.88
457.056	99.88
457.276	109.88
457.497	113.88
457.717	107.88
457.937	108.88
458.157	110.88
458.377	96.88
458.598	83.88
458.818	97.88
459.038	102.88
459.258	80.88
459.478	90.88
459.698	81.88
459.918	102.88
460.138	113.88
460.358	115.88
460.578	125.88
460.798	110.88
461.018	120.88
461.238	113.88
461.458	114.88
461.678	116.88
461.898	110.88
462.118	119.88
462.338	109.88
462.558	118.88
462.777	111.88
462.997	110.88
463.217	100.88
463.437	110.88
463.657	111.88
463.876	115.88
464.096	97.88
464.316	115.88
464.536	104.88
464.755	115.88
464.975	120.88
465.195	112.88
465.414	118.88
465.634	122.88
465.854	108.88
466.073	118.88
466.293	110.88
466.512	131.88
466.732	129.88
466.951	133.88
467.171	123.88
467.391	126.88
467.61	140.88
467.829	150.88
468.049	138.88
468.268	129.88
468.488	141.88
468.707	129.88
468.927	144.88
469.146	133.88
469.365	130.88
469.585	141.88
469.804	142.88
470.023	149.88
470.243	142.88
470.462	145.88
470.681	137.88
470.901	146.88
471.12	143.88
471.339	133.88
471.558	129.88
471.777	143.88
471.997	126.88
472.216	127.88
472.435	129.88
472.654	109.88
472.873	113.88
473.092	104.88
473.311	125.88
473.53	113.88
473.749	138.88
473.968	125.88
474.187	133.88
474.406	111.88
474.625	127.88
474.844	126.88
475.063	131.88
475.282	124.88
475.501	117.88
475.72	113.88
475.939	119.88
476.158	137.88
476.377	128.88
476.596	122.88
476.814	113.88
477.033	109.88
477.252	106.88
477.471	121.88
477.69	126.88
477.908	140.88
478.127	142.88
478.346	140.88
478.564	116.88
478.783	127.88
479.002	139.88
479.22	136.88
479.439	132.88
479.658	118.88
479.876	117.88
480.095	109.88
480.313	125.88
480.532	126.88
480.751	110.88
480.969	88.88
481.188	89.88
481.406	108.88
481.624	98.88
481.843	89.88
482.061	87.88
482.28	101.88
482.498	108.88
482.717	107.88
482.935	125.88
483.153	125.88
483.372	144.88
483.59	159.88
483.808	139.88
484.027	124.88
484.245	130.88
484.463	138.88
484.681	158.88
484.9	135.88
485.118	133.88
485.336	135.88
485.554	124.88
485.772	98.88
485.99	84.88
486.209	108.88
486.427	121.88
486.645	119.88
486.863	131.88
487.081	149.88
487.299	133.88
487.517	146.88
487.735	165.88
487.953	190.88
488.171	172.88
488.389	172.88
488.607	172.88
488.825	139.88
489.043	146.88
489.261	117.88
489.479	147.88
489.696	140.88
489.914	137.88
490.132	137.88
490.35	135.88
490.568	164.88
490.786	157.88
491.003	167.88
491.221	176.88
491.439	171.88
491.657	188.88
491.874	214.88
492.092	215.88
492.31	238.88
492.527	232.88
492.745	198.88
492.963	190.88
493.18	197.88
493.398	171.88
493.615	154.88
493.833	182.88
494.05	180.88
494.268	169.88
494.485	151.88
494.703	178.88
494.92	183.88
495.138	179.88
495.355	157.88
495.573	178.88
495.79	171.88
496.008	165.88
496.225	179.88
496.442	177.88
496.66	166.88
496.877	160.88
497.094	169.88
497.312	165.88
497.529	157.88
497.746	164.88
497.963	136.88
498.181	151.88
498.398	111.88
498.615	113.88
498.832	116.88
499.049	127.88
499.267	113.88
499.484	132.88
499.701	139.88
499.918	134.88
500.135	142.88
500.352	154.88
500.569	142.88
500.786	149.88
501.003	152.88
501.22	139.88
501.437	129.88
501.654	128.88
501.871	123.88
502.088	131.88
502.305	125.88
502.522	138.88
502.739	142.88
502.956	133.88
503.172	123.88
503.389	98.88
503.606	126.88
503.823	116.88
504.04	119.88
504.256	120.88
504.473	131.88
504.69	115.88
504.907	133.88
505.123	126.88
505.34	103.88
505.557	109.88
505.773	125.88
505.99	115.88
506.207	122.88
506.423	122.88
506.64	122.88
506.856	130.88
507.073	125.88
507.289	108.88
507.506	113.88
507.722	103.88
507.939	113.88
508.155	112.88
508.372	123.88
508.588	116.88
508.805	102.88
509.021	105.88
509.238	123.88
509.454	89.88
509.67	93.88
509.887	94.88
510.103	101.88
510.319	98.88
510.536	89.88
510.752	85.88
510.968	93.88
511.184	90.88
511.401	92.88
511.617	95.88
511.833	87.88
512.049	71.88
512.265	94.88
512.481	93.88
512.698	95.88
512.914	101.88
513.13	105.88
513.346	106.88
513.562	97.88
513.778	92.88
513.994	84.88
514.21	92.88
514.426	98.88
514.642	80.88
514.858	98.88
515.074	85.88
515.29	91.88
515.506	99.88
515.721	90.88
515.937	85.88
516.153	88.88
516.369	83.88
516.585	91.88
516.801	80.88
517.016	98.88
517.232	99.88
517.448	110.88
517.664	92.88
517.879	94.88
518.095	93.88
518.311	91.88
518.527	102.88
518.742	85.88
518.958	101.88
519.173	97.88
519.389	114.88
519.605	105.88
519.82	105.88
520.036	97.88
520.251	114.88
520.467	105.88
520.682	94.88
520.898	90.88
521.113	78.88
521.329	90.88
521.544	97.88
521.76	94.88
521.975	98.88
522.19	102.88
522.406	101.88
522.621	93.88
522.836	92.88
523.052	116.88
523.267	100.88
523.482	120.88
523.698	122.88
523.913	114.88
524.128	120.88
524.343	124.88
524.559	117.88
524.774	108.88
524.989	124.88
525.204	125.88
525.419	114.88
525.634	119.88
525.849	113.88
526.064	114.88
526.28	112.88
526.495	93.88
526.71	90.88
526.925	87.88
527.14	78.88
527.355	65.88
527.57	82.88
527.785	84.88
527.999	87.88
528.214	95.88
528.429	116.88
528.644	121.88
528.859	140.88
529.074	151.88
529.289	139.88
529.503	165.88
529.718	139.88
529.933	130.88
530.148	114.88
530.363	107.88
530.577	94.88
530.792	72.88
531.007	93.88
531.221	85.88
531.436	88.88
531.651	82.88
531.865	83.88
532.08	79.88
532.295	101.88
532.509	84.88
532.724	103.88
532.938	103.88
533.153	98.88
533.367	104.88
533.582	127.88
533.796	125.88
534.011	119.88
534.225	103.88
534.44	91.88
534.654	103.88
534.868	118.88
535.083	93.88
535.297	89.88
535.511	101.88
535.726	103.88
535.94	100.88
536.154	99.88
536.369	101.88
536.583	98.88
536.797	93.88
537.011	84.88
537.225	88.88
537.44	85.88
537.654	100.88
537.868	98.88
538.082	101.88
538.296	97.88
538.51	107.88
538.724	109.88
538.938	107.88
539.153	110.88
539.367	115.88
539.581	103.88
539.795	104.88
540.009	93.88
540.222	97.88
540.436	94.88
540.65	100.88
540.864	117.88
541.078	147.88
541.292	139.88
541.506	164.88
541.72	163.88
541.934	178.88
542.147	207.88
542.361	189.88
542.575	164.88
542.789	133.88
543.002	125.88
543.216	121.88
543.43	121.88
543.644	141.88
543.857	148.88
544.071	158.88
544.285	161.88
544.498	155.88
544.712	162.88
544.925	157.88
545.139	167.88
545.352	164.88
545.566	172.88
545.779	153.88
545.993	150.88
546.206	149.88
546.42	161.88
546.633	151.88
546.847	156.88
547.06	146.88
547.274	185.88
547.487	179.88
547.7	194.88
547.914	162.88
548.127	154.88
548.34	148.88
548.554	167.88
548.767	157.88
548.98	157.88
549.193	160.88
549.407	157.88
549.62	154.88
549.833	152.88
550.046	157.88
550.259	140.88
550.473	145.88
550.686	157.88
550.899	160.88
551.112	155.88
551.325	127.88
551.538	132.88
551.751	123.88
551.964	125.88
552.177	134.88
552.39	146.88
552.603	144.88
552.816	156.88
553.029	164.88
553.242	155.88
553.455	156.88
553.667	168.88
553.88	143.88
554.093	165.88
554.306	155.88
554.519	137.88
554.732	138.88
554.944	147.88
555.157	143.88
555.37	139.88
555.583	134.88
555.795	147.88
556.008	143.88
556.221	153.88
556.433	139.88
556.646	129.88
556.859	140.88
557.071	130.88
557.284	146.88
557.496	148.88
557.709	129.88
557.921	135.88
558.134	145.88
558.346	141.88
558.559	139.88
558.771	131.88
558.984	126.88
559.196	153.88
559.409	131.88
559.621	134.88
559.833	126.88
560.046	137.88
560.258	141.88
560.47	127.88
560.683	127.88
560.895	132.88
561.107	136.88
561.32	140.88
561.532	140.88
561.744	135.88
561.956	138.88
562.168	121.88
562.381	133.88
562.593	117.88
562.805	130.88
563.017	137.88
563.229	123.88
563.441	120.88
563.653	131.88
563.865	125.88
564.077	136.88
564.289	131.88
564.501	129.88
564.713	111.88
564.925	129.88
565.137	116.88
565.349	108.88
565.561	108.88
565.773	119.88
565.985	129.88
566.197	117.88
566.408	131.88
566.62	117.88
566.832	117.88
567.044	123.88
567.255	119.88
567.467	117.88
567.679	105.88
567.891	110.88
568.102	114.88
568.314	105.88
568.526	87.88
568.737	95.88
568.949	99.88
569.161	86.88
569.372	79.88
569.584	85.88
569.795	101.88
570.007	97.88
570.218	102.88
570.43	91.88
570.641	94.88
570.853	99.88
571.064	99.88
571.276	93.88
571.487	113.88
571.698	117.88
571.91	114.88
572.121	100.88
572.333	98.88
572.544	105.88
572.755	89.88
572.966	86.88
573.178	88.88
573.389	93.88
573.6	98.88
573.811	100.88
574.023	85.88
574.234	85.88
574.445	108.88
574.656	92.88
574.867	104.88
575.078	87.88
575.289	89.88
575.501	107.88
575.712	85.88
575.923	95.88
576.134	95.88
576.345	106.88
576.556	114.88
576.767	93.88
576.978	102.88
577.188	105.88
577.399	86.88
577.61	94.88
577.821	111.88
578.032	82.88
578.243	93.88
578.454	80.88
578.665	87.88
578.875	78.88
579.086	97.88
579.297	84.88
579.508	77.88
579.718	81.88
579.929	85.88
580.14	96.88
580.35	96.88
580.561	87.88
580.772	96.88
580.982	87.88
581.193	85.88
581.403	112.88
581.614	97.88
581.825	95.88
582.035	97.88
582.246	100.88
582.456	87.88
582.667	93.88
582.877	91.88
583.087	78.88
583.298	88.88
583.508	84.88
583.719	78.88
583.929	91.88
584.139	87.88
584.35	93.88
584.56	89.88
584.77	82.88
584.981	78.88
585.191	85.88
585.401	89.88
585.611	63.88
585.821	85.88
586.032	79.88
586.242	92.88
586.452	95.88
586.662	89.88
586.872	64.88
587.082	79.88
587.292	94.88
587.502	77.88
587.713	84.88
587.923	73.88
588.133	75.88
588.343	83.88
588.553	81.88
588.762	77.88
588.972	84.88
589.182	89.88
589.392	80.88
589.602	83.88
589.812	79.88
590.022	88.88
590.232	95.88
590.441	92.88
590.651	97.88
590.861	88.88
591.071	93.88
591.281	101.88
591.49	93.88
591.7	80.88
591.91	83.88
592.119	96.88
592.329	97.88
592.539	83.88
592.748	89.88
592.958	87.88
593.167	75.88
593.377	93.88
593.587	88.88
593.796	86.88
594.006	84.88
594.215	93.88
594.424	88.88
594.634	107.88
594.843	91.88
595.053	98.88
595.262	92.88
595.472	103.88
595.681	98.88
595.89	82.88
596.1	90.88
596.309	86.88
596.518	91.88
596.727	83.88
596.937	97.88
597.146	100.88
597.355	96.88
597.564	91.88
597.774	79.88
597.983	88.88
598.192	81.88
598.401	90.88
598.61	95.88
598.819	96.88
599.028	99.88
599.237	97.88
599.446	105.88
599.655	107.88
599.864	87.88
600.073	81.88
600.282	103.88
600.491	89.88
600.7	92.88
600.909	102.88
601.118	84.88
601.327	86.88
601.536	100.88
601.745	107.88
601.953	109.88
602.162	107.88
602.371	97.88
602.58	116.88
602.789	113.88
602.997	95.88
603.206	103.88
603.415	120.88
603.623	108.88
603.832	117.88
604.041	110.88
604.249	102.88
604.458	94.88
604.666	89.88
604.875	98.88
605.084	99.88
605.292	88.88
605.501	128.88
605.709	107.88
605.918	131.88
606.126	99.88
606.334	115.88
606.543	117.88
606.751	114.88
606.96	116.88
607.168	99.88
607.376	121.88
607.585	108.88
607.793	106.88
608.001	118.88
608.21	112.88
608.418	113.88
608.626	124.88
608.834	123.88
609.043	112.88
609.251	105.88
609.459	117.88
609.667	115.88
609.875	122.88
610.083	95.88
610.291	120.88
610.499	101.88
610.707	129.88
610.916	116.88
611.124	113.88
611.332	131.88
611.54	128.88
611.748	124.88
611.955	123.88
612.163	129.88
612.371	110.88
612.579	116.88
612.787	108.88
612.995	109.88
613.203	118.88
613.411	115.88
613.618	104.88
613.826	122.88
614.034	111.88
614.242	111.88
614.449	112.88
614.657	108.88
614.865	116.88
615.072	118.88
615.28	113.88
615.488	121.88
615.695	124.88
615.903	125.88
616.111	105.88
616.318	129.88
616.526	106.88
616.733	125.88
616.941	96.88
617.148	115.88
617.356	113.88
617.563	117.88
617.771	107.88
617.978	89.88
618.185	99.88
618.393	118.88
618.6	113.88
618.807	121.88
619.015	102.88
619.222	117.88
619.429	105.88
619.637	117.88
619.844	95.88
620.051	105.88
620.258	108.88
620.466	106.88
620.673	114.88
620.88	110.88
621.087	109.88
621.294	108.88
621.501	99.88
621.708	110.88
621.915	102.88
622.122	103.88
622.329	106.88
622.536	108.88
622.743	105.88
622.95	106.88
623.157	100.88
623.364	114.88
623.571	117.88
623.778	115.88
623.985	100.88
624.192	105.88
624.399	118.88
624.606	103.88
624.812	110.88
625.019	101.88
625.226	107.88
625.433	101.88
625.639	107.88
625.846	102.88
626.053	98.88
626.259	93.88
626.466	112.88
626.673	93.88
626.879	97.88
627.086	110.88
627.293	98.88
627.499	106.88
627.706	107.88
627.912	108.88
628.119	88.88
628.325	106.88
628.532	95.88
628.738	121.88
628.945	110.88
629.151	110.88
629.357	96.88
629.564	97.88
629.77	103.88
629.976	106.88
630.183	106.88
630.389	107.88
630.595	101.88
630.802	88.88
631.008	96.88
631.214	105.88
631.42	100.88
631.627	107.88
631.833	106.88
632.039	114.88
632.245	118.88
632.451	103.88
632.657	102.88
632.863	91.88
633.069	94.88
633.275	90.88
633.481	95.88
633.688	110.88
633.893	109.88
634.099	98.88
634.305	93.88
634.511	95.88
634.717	101.88
634.923	96.88
635.129	86.88
635.335	103.88
635.541	104.88
635.747	97.88
635.952	87.88
636.158	86.88
636.364	105.88
636.57	99.88
636.775	103.88
636.981	107.88
637.187	99.88
637.392	99.88
637.598	124.88
637.804	125.88
638.009	104.88
638.215	99.88
638.421	94.88
638.626	90.88
638.832	101.88
639.037	105.88
639.243	107.88
639.448	108.88
639.654	95.88
639.859	103.88
640.065	98.88
640.27	107.88
640.475	113.88
640.681	110.88
640.886	89.88
641.091	83.88
641.297	95.88
641.502	94.88
641.707	108.88
641.913	104.88
642.118	106.88
642.323	103.88
642.528	118.88
642.733	102.88
642.939	99.88
643.144	116.88
643.349	115.88
643.554	109.88
643.759	101.88
643.964	96.88
644.169	109.88
644.374	100.88
644.579	108.88
644.784	101.88
644.989	106.88
645.194	93.88
645.399	92.88
645.604	92.88
645.809	96.88
646.014	93.88
646.219	82.88
646.423	96.88
646.628	106.88
646.833	87.88
647.038	90.88
647.243	86.88
647.447	105.88
647.652	100.88
647.857	114.88
648.062	99.88
648.266	101.88
648.471	95.88
648.676	104.88
648.88	107.88
649.085	102.88
649.289	96.88
649.494	92.88
649.698	99.88
649.903	95.88
650.107	107.88
650.312	91.88
650.516	93.88
650.721	116.88
650.925	96.88
651.13	92.88
651.334	100.88
651.539	97.88
651.743	97.88
651.947	97.88
652.152	74.88
652.356	86.88
652.56	100.88
652.764	110.88
652.969	93.88
653.173	100.88
653.377	93.88
653.581	113.88
653.785	104.88
653.99	87.88
654.194	89.88
654.398	86.88
654.602	97.88
654.806	100.88
655.01	92.88
655.214	104.88
655.418	102.88
655.622	98.88
655.826	100.88
656.03	98.88
656.234	90.88
656.438	100.88
656.642	100.88
656.846	98.88
657.049	89.88
657.253	102.88
657.457	77.88
657.661	84.88
657.865	96.88
658.068	91.88
658.272	89.88
658.476	92.88
658.68	90.88
658.883	87.88
659.087	84.88
659.291	90.88
659.494	88.88
659.698	91.88
659.901	96.88
660.105	78.88
660.309	81.88
660.512	84.88
660.716	79.88
660.919	81.88
661.123	89.88
661.326	87.88
661.53	78.88
661.733	91.88
661.936	80.88
662.14	77.88
662.343	96.88
662.546	89.88
662.75	77.88
662.953	83.88
663.156	95.88
663.36	94.88
663.563	93.88
663.766	73.88
663.969	88.88
664.173	89.88
664.376	77.88
664.579	78.88
664.782	88.88
664.985	89.88
665.188	91.88
665.391	76.88
665.594	89.88
665.797	82.88
666	74.88
666.203	85.88
666.406	98.88
666.609	90.88
666.812	90.88
667.015	81.88
667.218	76.88
667.421	81.88
667.624	78.88
667.827	71.88
668.03	93.88
668.232	94.88
668.435	93.88
668.638	73.88
668.841	86.88
669.043	92.88
669.246	75.88
669.449	81.88
669.651	92.88
669.854	69.88
670.057	80.88
670.259	85.88
670.462	78.88
670.665	85.88
670.867	92.88
671.07	79.88
671.272	83.88
671.475	78.88
671.677	83.88
671.88	76.88
672.082	78.88
672.284	74.88
672.487	78.88
672.689	68.88
672.892	86.88
