Data from Location1.07152019.Energy5.Lamp.07192019.3%Agarose_HRD10591_14-32-26-016.txt Node
Date: Fri Jul 19 14:32:26 EDT 2019
User: cochatt
Spectrometer: HR+D1059
Trigger mode: 1
Integration Time (sec): 1.000000E-1
Scans to average: 1
Electric dark correction enabled: true
Nonlinearity correction enabled: false
Boxcar width: 0
XAxis mode: Wavelengths
Number of Pixels in Spectrum: 2048
>>>>>Begin Spectral Data<<<<<
223.165	-18.12
223.4	-18.12
223.635	-18.12
223.869	-10.12
224.104	-12.12
224.338	-2.12
224.573	-11.12
224.808	-26.12
225.042	-1.12
225.277	4.88
225.511	-6.12
225.746	-9.12
225.98	11.88
226.215	7.88
226.449	6.88
226.683	16.88
226.918	9.88
227.152	37.88
227.387	35.88
227.621	37.88
227.856	44.88
228.09	38.88
228.324	55.88
228.559	65.88
228.793	58.88
229.027	71.88
229.262	61.88
229.496	67.88
229.73	73.88
229.964	72.88
230.199	79.88
230.433	74.88
230.667	75.88
230.901	80.88
231.136	83.88
231.37	80.88
231.604	84.88
231.838	82.88
232.072	79.88
232.306	80.88
232.541	79.88
232.775	78.88
233.009	84.88
233.243	81.88
233.477	86.88
233.711	75.88
233.945	71.88
234.179	69.88
234.413	68.88
234.647	87.88
234.881	72.88
235.115	81.88
235.349	78.88
235.583	95.88
235.817	77.88
236.051	76.88
236.285	89.88
236.519	71.88
236.753	73.88
236.987	78.88
237.221	78.88
237.455	74.88
237.689	79.88
237.922	82.88
238.156	78.88
238.39	94.88
238.624	80.88
238.858	72.88
239.091	78.88
239.325	80.88
239.559	73.88
239.793	78.88
240.027	81.88
240.26	91.88
240.494	83.88
240.728	75.88
240.961	72.88
241.195	79.88
241.429	72.88
241.662	68.88
241.896	71.88
242.13	76.88
242.363	84.88
242.597	87.88
242.83	94.88
243.064	71.88
243.298	64.88
243.531	83.88
243.765	72.88
243.998	69.88
244.232	75.88
244.465	73.88
244.699	74.88
244.932	81.88
245.166	86.88
245.399	83.88
245.633	70.88
245.866	79.88
246.099	74.88
246.333	78.88
246.566	78.88
246.8	73.88
247.033	88.88
247.266	87.88
247.5	84.88
247.733	85.88
247.966	79.88
248.2	81.88
248.433	69.88
248.666	78.88
248.899	85.88
249.133	74.88
249.366	84.88
249.599	90.88
249.832	88.88
250.066	83.88
250.299	86.88
250.532	72.88
250.765	70.88
250.998	84.88
251.231	84.88
251.465	78.88
251.698	93.88
251.931	79.88
252.164	70.88
252.397	95.88
252.63	73.88
252.863	73.88
253.096	83.88
253.329	75.88
253.562	68.88
253.795	84.88
254.028	90.88
254.261	79.88
254.494	85.88
254.727	88.88
254.96	86.88
255.193	90.88
255.426	86.88
255.659	95.88
255.892	89.88
256.124	86.88
256.357	70.88
256.59	87.88
256.823	89.88
257.056	94.88
257.289	87.88
257.521	83.88
257.754	70.88
257.987	68.88
258.22	82.88
258.452	88.88
258.685	72.88
258.918	91.88
259.151	74.88
259.383	70.88
259.616	76.88
259.849	88.88
260.081	80.88
260.314	73.88
260.547	75.88
260.779	83.88
261.012	71.88
261.244	79.88
261.477	76.88
261.71	92.88
261.942	75.88
262.175	68.88
262.407	70.88
262.64	95.88
262.872	85.88
263.105	78.88
263.337	68.88
263.57	91.88
263.802	81.88
264.035	81.88
264.267	79.88
264.499	93.88
264.732	85.88
264.964	70.88
265.197	75.88
265.429	87.88
265.661	71.88
265.894	77.88
266.126	78.88
266.358	75.88
266.591	66.88
266.823	81.88
267.055	70.88
267.287	83.88
267.52	79.88
267.752	85.88
267.984	82.88
268.216	73.88
268.448	80.88
268.681	88.88
268.913	94.88
269.145	76.88
269.377	81.88
269.609	77.88
269.841	81.88
270.073	71.88
270.306	85.88
270.538	81.88
270.77	86.88
271.002	76.88
271.234	78.88
271.466	75.88
271.698	81.88
271.93	75.88
272.162	75.88
272.394	81.88
272.626	85.88
272.858	87.88
273.09	77.88
273.322	78.88
273.553	89.88
273.785	83.88
274.017	69.88
274.249	86.88
274.481	90.88
274.713	85.88
274.945	76.88
275.176	83.88
275.408	78.88
275.64	75.88
275.872	79.88
276.104	73.88
276.335	86.88
276.567	78.88
276.799	90.88
277.031	81.88
277.262	85.88
277.494	84.88
277.726	75.88
277.957	88.88
278.189	75.88
278.421	86.88
278.652	75.88
278.884	94.88
279.115	77.88
279.347	92.88
279.579	77.88
279.81	78.88
280.042	74.88
280.273	78.88
280.505	77.88
280.736	92.88
280.968	85.88
281.199	89.88
281.431	88.88
281.662	86.88
281.894	87.88
282.125	82.88
282.356	93.88
282.588	79.88
282.819	91.88
283.051	76.88
283.282	83.88
283.513	88.88
283.745	82.88
283.976	83.88
284.207	71.88
284.439	91.88
284.67	92.88
284.901	76.88
285.132	80.88
285.364	67.88
285.595	90.88
285.826	76.88
286.057	92.88
286.288	90.88
286.52	80.88
286.751	81.88
286.982	85.88
287.213	87.88
287.444	84.88
287.675	73.88
287.906	75.88
288.138	87.88
288.369	78.88
288.6	87.88
288.831	87.88
289.062	93.88
289.293	82.88
289.524	88.88
289.755	78.88
289.986	73.88
290.217	80.88
290.448	73.88
290.679	86.88
290.91	84.88
291.141	75.88
291.371	87.88
291.602	86.88
291.833	90.88
292.064	84.88
292.295	78.88
292.526	87.88
292.757	86.88
292.987	106.88
293.218	104.88
293.449	73.88
293.68	80.88
293.91	75.88
294.141	86.88
294.372	80.88
294.603	93.88
294.833	80.88
295.064	99.88
295.295	89.88
295.525	80.88
295.756	94.88
295.987	79.88
296.217	81.88
296.448	72.88
296.679	81.88
296.909	87.88
297.14	81.88
297.37	99.88
297.601	75.88
297.831	73.88
298.062	80.88
298.292	83.88
298.523	88.88
298.753	94.88
298.984	74.88
299.214	82.88
299.445	88.88
299.675	78.88
299.905	86.88
300.136	77.88
300.366	83.88
300.597	93.88
300.827	89.88
301.057	85.88
301.288	91.88
301.518	89.88
301.748	71.88
301.979	84.88
302.209	76.88
302.439	80.88
302.669	92.88
302.9	83.88
303.13	77.88
303.36	79.88
303.59	82.88
303.82	97.88
304.051	83.88
304.281	88.88
304.511	90.88
304.741	82.88
304.971	74.88
305.201	84.88
305.431	73.88
305.661	78.88
305.891	76.88
306.121	84.88
306.352	72.88
306.582	76.88
306.812	83.88
307.042	81.88
307.272	85.88
307.502	67.88
307.731	82.88
307.961	81.88
308.191	77.88
308.421	83.88
308.651	89.88
308.881	83.88
309.111	94.88
309.341	89.88
309.571	74.88
309.8	83.88
310.03	79.88
310.26	90.88
310.49	87.88
310.72	94.88
310.949	100.88
311.179	78.88
311.409	81.88
311.639	87.88
311.868	84.88
312.098	78.88
312.328	90.88
312.557	82.88
312.787	78.88
313.017	96.88
313.246	74.88
313.476	79.88
313.706	89.88
313.935	87.88
314.165	84.88
314.394	83.88
314.624	82.88
314.853	94.88
315.083	85.88
315.312	71.88
315.542	78.88
315.771	81.88
316.001	78.88
316.23	93.88
316.46	82.88
316.689	91.88
316.919	88.88
317.148	75.88
317.377	99.88
317.607	92.88
317.836	83.88
318.065	79.88
318.295	75.88
318.524	86.88
318.753	95.88
318.983	77.88
319.212	92.88
319.441	77.88
319.67	81.88
319.9	77.88
320.129	80.88
320.358	85.88
320.587	78.88
320.816	81.88
321.046	91.88
321.275	81.88
321.504	71.88
321.733	87.88
321.962	91.88
322.191	90.88
322.42	82.88
322.649	87.88
322.878	80.88
323.108	82.88
323.337	75.88
323.566	91.88
323.795	71.88
324.024	73.88
324.253	87.88
324.482	81.88
324.71	93.88
324.939	92.88
325.168	89.88
325.397	87.88
325.626	101.88
325.855	78.88
326.084	89.88
326.313	90.88
326.542	84.88
326.77	79.88
326.999	62.88
327.228	77.88
327.457	86.88
327.686	78.88
327.914	90.88
328.143	83.88
328.372	75.88
328.6	88.88
328.829	100.88
329.058	69.88
329.287	74.88
329.515	84.88
329.744	80.88
329.972	94.88
330.201	99.88
330.43	85.88
330.658	77.88
330.887	89.88
331.115	81.88
331.344	95.88
331.572	86.88
331.801	84.88
332.03	84.88
332.258	83.88
332.486	72.88
332.715	71.88
332.943	95.88
333.172	83.88
333.4	82.88
333.629	93.88
333.857	94.88
334.085	89.88
334.314	77.88
334.542	83.88
334.771	81.88
334.999	89.88
335.227	90.88
335.455	84.88
335.684	90.88
335.912	91.88
336.14	90.88
336.369	90.88
336.597	84.88
336.825	90.88
337.053	76.88
337.281	81.88
337.51	89.88
337.738	74.88
337.966	75.88
338.194	85.88
338.422	76.88
338.65	96.88
338.878	89.88
339.106	88.88
339.334	90.88
339.562	82.88
339.79	86.88
340.018	79.88
340.246	81.88
340.474	89.88
340.702	83.88
340.93	79.88
341.158	83.88
341.386	78.88
341.614	81.88
341.842	93.88
342.07	92.88
342.298	96.88
342.526	78.88
342.754	86.88
342.981	74.88
343.209	91.88
343.437	86.88
343.665	105.88
343.893	78.88
344.12	75.88
344.348	84.88
344.576	87.88
344.804	93.88
345.031	78.88
345.259	86.88
345.487	88.88
345.714	94.88
345.942	87.88
346.17	88.88
346.397	86.88
346.625	75.88
346.853	91.88
347.08	80.88
347.308	88.88
347.535	91.88
347.763	83.88
347.99	93.88
348.218	87.88
348.445	85.88
348.673	76.88
348.9	96.88
349.128	83.88
349.355	79.88
349.583	87.88
349.81	88.88
350.037	79.88
350.265	89.88
350.492	86.88
350.72	77.88
350.947	85.88
351.174	89.88
351.402	78.88
351.629	76.88
351.856	93.88
352.083	76.88
352.311	80.88
352.538	84.88
352.765	95.88
352.992	85.88
353.22	91.88
353.447	88.88
353.674	86.88
353.901	76.88
354.128	77.88
354.355	89.88
354.583	86.88
354.81	94.88
355.037	107.88
355.264	89.88
355.491	87.88
355.718	96.88
355.945	99.88
356.172	72.88
356.399	90.88
356.626	89.88
356.853	57.88
357.08	87.88
357.307	72.88
357.534	93.88
357.761	83.88
357.988	76.88
358.215	78.88
358.441	85.88
358.668	76.88
358.895	81.88
359.122	85.88
359.349	82.88
359.576	78.88
359.802	88.88
360.029	85.88
360.256	91.88
360.483	89.88
360.709	83.88
360.936	99.88
361.163	87.88
361.39	87.88
361.616	91.88
361.843	80.88
362.07	93.88
362.296	79.88
362.523	85.88
362.749	72.88
362.976	81.88
363.203	76.88
363.429	94.88
363.656	85.88
363.882	84.88
364.109	89.88
364.335	83.88
364.562	80.88
364.788	81.88
365.015	88.88
365.241	90.88
365.468	94.88
365.694	85.88
365.92	88.88
366.147	88.88
366.373	71.88
366.599	94.88
366.826	80.88
367.052	78.88
367.278	97.88
367.505	89.88
367.731	84.88
367.957	78.88
368.184	96.88
368.41	85.88
368.636	90.88
368.862	103.88
369.089	98.88
369.315	84.88
369.541	96.88
369.767	96.88
369.993	87.88
370.219	93.88
370.445	84.88
370.672	96.88
370.898	83.88
371.124	84.88
371.35	91.88
371.576	75.88
371.802	82.88
372.028	94.88
372.254	91.88
372.48	87.88
372.706	90.88
372.932	90.88
373.158	83.88
373.384	98.88
373.61	82.88
373.835	90.88
374.061	84.88
374.287	94.88
374.513	97.88
374.739	81.88
374.965	76.88
375.191	89.88
375.416	97.88
375.642	95.88
375.868	85.88
376.094	78.88
376.319	89.88
376.545	100.88
376.771	98.88
376.997	81.88
377.222	115.88
377.448	94.88
377.674	99.88
377.899	79.88
378.125	102.88
378.35	100.88
378.576	86.88
378.802	85.88
379.027	95.88
379.253	94.88
379.478	91.88
379.704	108.88
379.929	94.88
380.155	88.88
380.38	96.88
380.606	74.88
380.831	97.88
381.057	86.88
381.282	94.88
381.507	95.88
381.733	105.88
381.958	106.88
382.184	85.88
382.409	100.88
382.634	93.88
382.86	90.88
383.085	93.88
383.31	100.88
383.535	103.88
383.761	86.88
383.986	102.88
384.211	100.88
384.436	90.88
384.662	90.88
384.887	90.88
385.112	85.88
385.337	82.88
385.562	97.88
385.787	105.88
386.013	103.88
386.238	96.88
386.463	95.88
386.688	94.88
386.913	91.88
387.138	86.88
387.363	105.88
387.588	115.88
387.813	103.88
388.038	121.88
388.263	103.88
388.488	95.88
388.713	92.88
388.938	94.88
389.163	101.88
389.387	112.88
389.612	100.88
389.837	96.88
390.062	87.88
390.287	96.88
390.512	93.88
390.736	105.88
390.961	102.88
391.186	91.88
391.411	94.88
391.636	116.88
391.86	113.88
392.085	102.88
392.31	109.88
392.534	104.88
392.759	116.88
392.984	101.88
393.208	117.88
393.433	101.88
393.658	92.88
393.882	102.88
394.107	115.88
394.331	105.88
394.556	103.88
394.78	95.88
395.005	109.88
395.229	98.88
395.454	106.88
395.678	116.88
395.903	91.88
396.127	98.88
396.352	100.88
396.576	118.88
396.801	105.88
397.025	102.88
397.249	96.88
397.474	105.88
397.698	106.88
397.922	112.88
398.147	91.88
398.371	118.88
398.595	116.88
398.82	108.88
399.044	105.88
399.268	101.88
399.492	98.88
399.717	116.88
399.941	104.88
400.165	97.88
400.389	109.88
400.613	107.88
400.837	102.88
401.062	104.88
401.286	105.88
401.51	98.88
401.734	104.88
401.958	102.88
402.182	110.88
402.406	109.88
402.63	102.88
402.854	106.88
403.078	97.88
403.302	107.88
403.526	122.88
403.75	123.88
403.974	122.88
404.198	124.88
404.422	114.88
404.645	103.88
404.869	136.88
405.093	115.88
405.317	114.88
405.541	120.88
405.765	124.88
405.988	121.88
406.212	115.88
406.436	118.88
406.66	108.88
406.883	111.88
407.107	101.88
407.331	123.88
407.555	125.88
407.778	119.88
408.002	112.88
408.226	108.88
408.449	109.88
408.673	118.88
408.896	133.88
409.12	106.88
409.344	111.88
409.567	125.88
409.791	109.88
410.014	124.88
410.238	123.88
410.461	113.88
410.685	128.88
410.908	124.88
411.132	108.88
411.355	129.88
411.578	113.88
411.802	122.88
412.025	127.88
412.249	126.88
412.472	107.88
412.695	123.88
412.919	121.88
413.142	125.88
413.365	118.88
413.589	105.88
413.812	104.88
414.035	116.88
414.258	124.88
414.482	120.88
414.705	117.88
414.928	111.88
415.151	116.88
415.374	137.88
415.597	123.88
415.821	136.88
416.044	121.88
416.267	98.88
416.49	127.88
416.713	129.88
416.936	141.88
417.159	113.88
417.382	114.88
417.605	135.88
417.828	119.88
418.051	130.88
418.274	125.88
418.497	130.88
418.72	131.88
418.943	120.88
419.166	117.88
419.389	126.88
419.611	139.88
419.834	127.88
420.057	120.88
420.28	127.88
420.503	141.88
420.726	127.88
420.948	129.88
421.171	122.88
421.394	126.88
421.617	137.88
421.839	133.88
422.062	131.88
422.285	127.88
422.507	131.88
422.73	115.88
422.953	110.88
423.175	123.88
423.398	134.88
423.621	127.88
423.843	126.88
424.066	135.88
424.288	147.88
424.511	142.88
424.733	139.88
424.956	152.88
425.178	125.88
425.401	132.88
425.623	144.88
425.846	137.88
426.068	124.88
426.291	128.88
426.513	133.88
426.735	126.88
426.958	122.88
427.18	127.88
427.402	129.88
427.625	134.88
427.847	124.88
428.069	131.88
428.292	133.88
428.514	131.88
428.736	121.88
428.958	120.88
429.181	127.88
429.403	123.88
429.625	111.88
429.847	118.88
430.069	113.88
430.292	117.88
430.514	121.88
430.736	125.88
430.958	136.88
431.18	131.88
431.402	107.88
431.624	116.88
431.846	110.88
432.068	93.88
432.29	99.88
432.512	107.88
432.734	123.88
432.956	133.88
433.178	139.88
433.4	126.88
433.622	132.88
433.844	122.88
434.066	120.88
434.287	116.88
434.509	102.88
434.731	108.88
434.953	109.88
435.175	117.88
435.397	131.88
435.618	108.88
435.84	110.88
436.062	99.88
436.284	133.88
436.505	113.88
436.727	126.88
436.949	132.88
437.17	123.88
437.392	119.88
437.614	133.88
437.835	103.88
438.057	109.88
438.278	112.88
438.5	105.88
438.721	137.88
438.943	130.88
439.165	135.88
439.386	137.88
439.608	142.88
439.829	140.88
440.05	127.88
440.272	141.88
440.493	143.88
440.715	139.88
440.936	151.88
441.158	131.88
441.379	126.88
441.6	140.88
441.822	151.88
442.043	157.88
442.264	138.88
442.486	143.88
442.707	126.88
442.928	130.88
443.149	143.88
443.371	135.88
443.592	144.88
443.813	139.88
444.034	124.88
444.255	136.88
444.476	136.88
444.698	139.88
444.919	122.88
445.14	234.88
445.361	186.88
445.582	141.88
445.803	142.88
446.024	140.88
446.245	157.88
446.466	149.88
446.687	149.88
446.908	155.88
447.129	150.88
447.35	142.88
447.571	149.88
447.792	147.88
448.013	141.88
448.234	135.88
448.455	122.88
448.675	143.88
448.896	135.88
449.117	136.88
449.338	135.88
449.559	136.88
449.779	137.88
450	130.88
450.221	123.88
450.442	130.88
450.662	135.88
450.883	135.88
451.104	132.88
451.324	138.88
451.545	130.88
451.766	128.88
451.986	126.88
452.207	119.88
452.428	110.88
452.648	121.88
452.869	129.88
453.089	110.88
453.31	121.88
453.53	104.88
453.751	121.88
453.971	108.88
454.192	109.88
454.412	103.88
454.633	107.88
454.853	116.88
455.073	113.88
455.294	113.88
455.514	103.88
455.734	109.88
455.955	118.88
456.175	117.88
456.395	103.88
456.616	99.88
456.836	113.88
457.056	111.88
457.276	93.88
457.497	106.88
457.717	116.88
457.937	111.88
458.157	131.88
458.377	102.88
458.598	90.88
458.818	110.88
459.038	97.88
459.258	79.88
459.478	97.88
459.698	86.88
459.918	93.88
460.138	98.88
460.358	106.88
460.578	125.88
460.798	102.88
461.018	109.88
461.238	118.88
461.458	127.88
461.678	116.88
461.898	119.88
462.118	127.88
462.338	122.88
462.558	117.88
462.777	109.88
462.997	104.88
463.217	101.88
463.437	127.88
463.657	104.88
463.876	102.88
464.096	103.88
464.316	97.88
464.536	99.88
464.755	111.88
464.975	121.88
465.195	99.88
465.414	112.88
465.634	125.88
465.854	110.88
466.073	122.88
466.293	121.88
466.512	125.88
466.732	139.88
466.951	142.88
467.171	137.88
467.391	116.88
467.61	137.88
467.829	146.88
468.049	139.88
468.268	131.88
468.488	158.88
468.707	145.88
468.927	136.88
469.146	133.88
469.365	128.88
469.585	131.88
469.804	145.88
470.023	137.88
470.243	147.88
470.462	137.88
470.681	131.88
470.901	141.88
471.12	139.88
471.339	135.88
471.558	138.88
471.777	139.88
471.997	134.88
472.216	123.88
472.435	107.88
472.654	107.88
472.873	106.88
473.092	117.88
473.311	101.88
473.53	124.88
473.749	124.88
473.968	115.88
474.187	120.88
474.406	126.88
474.625	130.88
474.844	116.88
475.063	116.88
475.282	125.88
475.501	113.88
475.72	111.88
475.939	128.88
476.158	131.88
476.377	133.88
476.596	124.88
476.814	118.88
477.033	107.88
477.252	116.88
477.471	103.88
477.69	121.88
477.908	133.88
478.127	140.88
478.346	122.88
478.564	133.88
478.783	127.88
479.002	126.88
479.22	134.88
479.439	132.88
479.658	102.88
479.876	113.88
480.095	101.88
480.313	109.88
480.532	116.88
480.751	116.88
480.969	74.88
481.188	87.88
481.406	86.88
481.624	93.88
481.843	90.88
482.061	85.88
482.28	123.88
482.498	123.88
482.717	106.88
482.935	122.88
483.153	137.88
483.372	146.88
483.59	147.88
483.808	133.88
484.027	126.88
484.245	126.88
484.463	133.88
484.681	154.88
484.9	131.88
485.118	129.88
485.336	129.88
485.554	115.88
485.772	101.88
485.99	105.88
486.209	106.88
486.427	109.88
486.645	133.88
486.863	140.88
487.081	143.88
487.299	148.88
487.517	144.88
487.735	151.88
487.953	186.88
488.171	173.88
488.389	166.88
488.607	145.88
488.825	141.88
489.043	129.88
489.261	133.88
489.479	129.88
489.696	149.88
489.914	141.88
490.132	130.88
490.35	136.88
490.568	165.88
490.786	181.88
491.003	163.88
491.221	172.88
491.439	179.88
491.657	166.88
491.874	197.88
492.092	211.88
492.31	238.88
492.527	236.88
492.745	192.88
492.963	175.88
493.18	164.88
493.398	170.88
493.615	186.88
493.833	171.88
494.05	165.88
494.268	168.88
494.485	162.88
494.703	181.88
494.92	174.88
495.138	171.88
495.355	163.88
495.573	155.88
495.79	158.88
496.008	147.88
496.225	166.88
496.442	152.88
496.66	166.88
496.877	162.88
497.094	154.88
497.312	164.88
497.529	145.88
497.746	158.88
497.963	151.88
498.181	132.88
498.398	126.88
498.615	135.88
498.832	122.88
499.049	107.88
499.267	129.88
499.484	119.88
499.701	118.88
499.918	132.88
500.135	130.88
500.352	140.88
500.569	127.88
500.786	145.88
501.003	147.88
501.22	117.88
501.437	135.88
501.654	134.88
501.871	121.88
502.088	129.88
502.305	130.88
502.522	137.88
502.739	126.88
502.956	133.88
503.172	127.88
503.389	120.88
503.606	105.88
503.823	119.88
504.04	113.88
504.256	116.88
504.473	110.88
504.69	117.88
504.907	119.88
505.123	103.88
505.34	114.88
505.557	123.88
505.773	109.88
505.99	104.88
506.207	120.88
506.423	111.88
506.64	115.88
506.856	124.88
507.073	119.88
507.289	105.88
507.506	106.88
507.722	118.88
507.939	111.88
508.155	113.88
508.372	101.88
508.588	119.88
508.805	113.88
509.021	122.88
509.238	109.88
509.454	96.88
509.67	90.88
509.887	98.88
510.103	87.88
510.319	111.88
510.536	79.88
510.752	93.88
510.968	84.88
511.184	85.88
511.401	93.88
511.617	85.88
511.833	83.88
512.049	102.88
512.265	91.88
512.481	92.88
512.698	99.88
512.914	100.88
513.13	93.88
513.346	99.88
513.562	88.88
513.778	93.88
513.994	102.88
514.21	101.88
514.426	95.88
514.642	102.88
514.858	90.88
515.074	99.88
515.29	98.88
515.506	99.88
515.721	73.88
515.937	82.88
516.153	83.88
516.369	85.88
516.585	86.88
516.801	82.88
517.016	93.88
517.232	96.88
517.448	100.88
517.664	90.88
517.879	93.88
518.095	67.88
518.311	83.88
518.527	101.88
518.742	106.88
518.958	104.88
519.173	97.88
519.389	99.88
519.605	108.88
519.82	109.88
520.036	95.88
520.251	85.88
520.467	103.88
520.682	91.88
520.898	90.88
521.113	102.88
521.329	95.88
521.544	83.88
521.76	91.88
521.975	96.88
522.19	103.88
522.406	94.88
522.621	101.88
522.836	100.88
523.052	102.88
523.267	115.88
523.482	117.88
523.698	107.88
523.913	123.88
524.128	110.88
524.343	109.88
524.559	109.88
524.774	122.88
524.989	121.88
525.204	115.88
525.419	110.88
525.634	117.88
525.849	118.88
526.064	114.88
526.28	110.88
526.495	83.88
526.71	71.88
526.925	74.88
527.14	83.88
527.355	77.88
527.57	97.88
527.785	84.88
527.999	84.88
528.214	95.88
528.429	105.88
528.644	124.88
528.859	132.88
529.074	143.88
529.289	150.88
529.503	165.88
529.718	141.88
529.933	115.88
530.148	105.88
530.363	99.88
530.577	92.88
530.792	85.88
531.007	87.88
531.221	85.88
531.436	91.88
531.651	74.88
531.865	80.88
532.08	91.88
532.295	94.88
532.509	89.88
532.724	97.88
532.938	88.88
533.153	96.88
533.367	87.88
533.582	105.88
533.796	103.88
534.011	110.88
534.225	92.88
534.44	90.88
534.654	94.88
534.868	91.88
535.083	115.88
535.297	107.88
535.511	93.88
535.726	99.88
535.94	100.88
536.154	92.88
536.369	92.88
536.583	87.88
536.797	85.88
537.011	89.88
537.225	81.88
537.44	100.88
537.654	79.88
537.868	94.88
538.082	93.88
538.296	93.88
538.51	105.88
538.724	106.88
538.938	127.88
539.153	131.88
539.367	107.88
539.581	108.88
539.795	100.88
540.009	99.88
540.222	103.88
540.436	109.88
540.65	100.88
540.864	123.88
541.078	129.88
541.292	148.88
541.506	132.88
541.72	163.88
541.934	199.88
542.147	197.88
542.361	174.88
542.575	165.88
542.789	141.88
543.002	143.88
543.216	130.88
543.43	125.88
543.644	132.88
543.857	145.88
544.071	135.88
544.285	158.88
544.498	164.88
544.712	161.88
544.925	168.88
545.139	174.88
545.352	155.88
545.566	149.88
545.779	149.88
545.993	157.88
546.206	144.88
546.42	161.88
546.633	163.88
546.847	162.88
547.06	165.88
547.274	172.88
547.487	155.88
547.7	167.88
547.914	150.88
548.127	160.88
548.34	169.88
548.554	158.88
548.767	161.88
548.98	158.88
549.193	141.88
549.407	156.88
549.62	149.88
549.833	153.88
550.046	123.88
550.259	142.88
550.473	141.88
550.686	150.88
550.899	147.88
551.112	141.88
551.325	131.88
551.538	144.88
551.751	130.88
551.964	126.88
552.177	127.88
552.39	133.88
552.603	147.88
552.816	154.88
553.029	151.88
553.242	156.88
553.455	148.88
553.667	149.88
553.88	156.88
554.093	132.88
554.306	149.88
554.519	140.88
554.732	145.88
554.944	138.88
555.157	162.88
555.37	146.88
555.583	142.88
555.795	137.88
556.008	135.88
556.221	125.88
556.433	124.88
556.646	139.88
556.859	133.88
557.071	129.88
557.284	130.88
557.496	142.88
557.709	131.88
557.921	133.88
558.134	138.88
558.346	146.88
558.559	125.88
558.771	125.88
558.984	123.88
559.196	124.88
559.409	133.88
559.621	126.88
559.833	115.88
560.046	127.88
560.258	135.88
560.47	126.88
560.683	135.88
560.895	132.88
561.107	141.88
561.32	110.88
561.532	145.88
561.744	138.88
561.956	127.88
562.168	124.88
562.381	139.88
562.593	126.88
562.805	125.88
563.017	132.88
563.229	131.88
563.441	126.88
563.653	125.88
563.865	100.88
564.077	107.88
564.289	118.88
564.501	122.88
564.713	122.88
564.925	119.88
565.137	110.88
565.349	124.88
565.561	117.88
565.773	119.88
565.985	118.88
566.197	110.88
566.408	122.88
566.62	129.88
566.832	122.88
567.044	119.88
567.255	105.88
567.467	116.88
567.679	111.88
567.891	117.88
568.102	117.88
568.314	105.88
568.526	93.88
568.737	83.88
568.949	79.88
569.161	83.88
569.372	89.88
569.584	93.88
569.795	85.88
570.007	72.88
570.218	94.88
570.43	94.88
570.641	96.88
570.853	89.88
571.064	92.88
571.276	99.88
571.487	83.88
571.698	105.88
571.91	99.88
572.121	102.88
572.333	104.88
572.544	91.88
572.755	99.88
572.966	101.88
573.178	77.88
573.389	87.88
573.6	87.88
573.811	85.88
574.023	85.88
574.234	78.88
574.445	93.88
574.656	87.88
574.867	98.88
575.078	108.88
575.289	105.88
575.501	102.88
575.712	102.88
575.923	92.88
576.134	100.88
576.345	101.88
576.556	97.88
576.767	93.88
576.978	98.88
577.188	92.88
577.399	105.88
577.61	118.88
577.821	98.88
578.032	96.88
578.243	114.88
578.454	99.88
578.665	95.88
578.875	98.88
579.086	79.88
579.297	73.88
579.508	102.88
579.718	81.88
579.929	95.88
580.14	86.88
580.35	83.88
580.561	75.88
580.772	76.88
580.982	94.88
581.193	98.88
581.403	102.88
581.614	86.88
581.825	81.88
582.035	78.88
582.246	91.88
582.456	91.88
582.667	98.88
582.877	99.88
583.087	104.88
583.298	87.88
583.508	91.88
583.719	77.88
583.929	94.88
584.139	80.88
584.35	86.88
584.56	88.88
584.77	89.88
584.981	84.88
585.191	94.88
585.401	93.88
585.611	85.88
585.821	76.88
586.032	87.88
586.242	67.88
586.452	91.88
586.662	78.88
586.872	87.88
587.082	82.88
587.292	76.88
587.502	83.88
587.713	77.88
587.923	75.88
588.133	76.88
588.343	73.88
588.553	88.88
588.762	84.88
588.972	95.88
589.182	86.88
589.392	91.88
589.602	85.88
589.812	85.88
590.022	88.88
590.232	97.88
590.441	75.88
590.651	80.88
590.861	85.88
591.071	92.88
591.281	79.88
591.49	74.88
591.7	87.88
591.91	91.88
592.119	85.88
592.329	82.88
592.539	77.88
592.748	80.88
592.958	95.88
593.167	94.88
593.377	78.88
593.587	86.88
593.796	85.88
594.006	89.88
594.215	92.88
594.424	89.88
594.634	86.88
594.843	93.88
595.053	101.88
595.262	83.88
595.472	98.88
595.681	101.88
595.89	94.88
596.1	93.88
596.309	95.88
596.518	94.88
596.727	93.88
596.937	98.88
597.146	99.88
597.355	86.88
597.564	89.88
597.774	93.88
597.983	82.88
598.192	81.88
598.401	106.88
598.61	78.88
598.819	83.88
599.028	93.88
599.237	99.88
599.446	100.88
599.655	80.88
599.864	85.88
600.073	95.88
600.282	89.88
600.491	90.88
600.7	86.88
600.909	102.88
601.118	90.88
601.327	101.88
601.536	102.88
601.745	98.88
601.953	96.88
602.162	104.88
602.371	94.88
602.58	106.88
602.789	111.88
602.997	115.88
603.206	109.88
603.415	93.88
603.623	114.88
603.832	103.88
604.041	111.88
604.249	112.88
604.458	84.88
604.666	93.88
604.875	104.88
605.084	114.88
605.292	105.88
605.501	124.88
605.709	115.88
605.918	102.88
606.126	125.88
606.334	97.88
606.543	110.88
606.751	97.88
606.96	105.88
607.168	104.88
607.376	102.88
607.585	101.88
607.793	113.88
608.001	122.88
608.21	113.88
608.418	106.88
608.626	107.88
608.834	117.88
609.043	113.88
609.251	115.88
609.459	115.88
609.667	110.88
609.875	113.88
610.083	124.88
610.291	119.88
610.499	109.88
610.707	107.88
610.916	117.88
611.124	92.88
611.332	100.88
611.54	113.88
611.748	123.88
611.955	124.88
612.163	121.88
612.371	116.88
612.579	109.88
612.787	113.88
612.995	114.88
613.203	119.88
613.411	106.88
613.618	114.88
613.826	116.88
614.034	101.88
614.242	117.88
614.449	110.88
614.657	103.88
614.865	110.88
615.072	103.88
615.28	109.88
615.488	106.88
615.695	92.88
615.903	100.88
616.111	119.88
616.318	126.88
616.526	118.88
616.733	115.88
616.941	107.88
617.148	113.88
617.356	102.88
617.563	119.88
617.771	100.88
617.978	92.88
618.185	116.88
618.393	106.88
618.6	105.88
618.807	95.88
619.015	86.88
619.222	105.88
619.429	109.88
619.637	109.88
619.844	105.88
620.051	105.88
620.258	114.88
620.466	118.88
620.673	101.88
620.88	99.88
621.087	84.88
621.294	115.88
621.501	114.88
621.708	103.88
621.915	97.88
622.122	121.88
622.329	117.88
622.536	111.88
622.743	111.88
622.95	107.88
623.157	104.88
623.364	104.88
623.571	117.88
623.778	107.88
623.985	106.88
624.192	114.88
624.399	103.88
624.606	101.88
624.812	98.88
625.019	110.88
625.226	98.88
625.433	115.88
625.639	106.88
625.846	99.88
626.053	108.88
626.259	91.88
626.466	103.88
626.673	100.88
626.879	106.88
627.086	102.88
627.293	107.88
627.499	99.88
627.706	110.88
627.912	113.88
628.119	93.88
628.325	90.88
628.532	106.88
628.738	98.88
628.945	95.88
629.151	112.88
629.357	105.88
629.564	89.88
629.77	110.88
629.976	102.88
630.183	83.88
630.389	95.88
630.595	100.88
630.802	112.88
631.008	102.88
631.214	94.88
631.42	104.88
631.627	110.88
631.833	97.88
632.039	99.88
632.245	97.88
632.451	106.88
632.657	104.88
632.863	97.88
633.069	89.88
633.275	106.88
633.481	96.88
633.688	101.88
633.893	106.88
634.099	84.88
634.305	93.88
634.511	101.88
634.717	84.88
634.923	99.88
635.129	85.88
635.335	103.88
635.541	98.88
635.747	96.88
635.952	88.88
636.158	107.88
636.364	104.88
636.57	96.88
636.775	89.88
636.981	100.88
637.187	92.88
637.392	96.88
637.598	107.88
637.804	93.88
638.009	98.88
638.215	115.88
638.421	90.88
638.626	93.88
638.832	99.88
639.037	105.88
639.243	90.88
639.448	110.88
639.654	102.88
639.859	100.88
640.065	100.88
640.27	115.88
640.475	100.88
640.681	99.88
640.886	102.88
641.091	94.88
641.297	72.88
641.502	91.88
641.707	90.88
641.913	99.88
642.118	103.88
642.323	105.88
642.528	90.88
642.733	86.88
642.939	101.88
643.144	100.88
643.349	90.88
643.554	106.88
643.759	94.88
643.964	101.88
644.169	95.88
644.374	101.88
644.579	100.88
644.784	88.88
644.989	91.88
645.194	86.88
645.399	92.88
645.604	101.88
645.809	97.88
646.014	93.88
646.219	102.88
646.423	104.88
646.628	110.88
646.833	94.88
647.038	100.88
647.243	96.88
647.447	96.88
647.652	96.88
647.857	99.88
648.062	91.88
648.266	76.88
648.471	94.88
648.676	99.88
648.88	98.88
649.085	94.88
649.289	113.88
649.494	92.88
649.698	98.88
649.903	106.88
650.107	91.88
650.312	90.88
650.516	101.88
650.721	98.88
650.925	94.88
651.13	91.88
651.334	103.88
651.539	95.88
651.743	94.88
651.947	103.88
652.152	108.88
652.356	86.88
652.56	85.88
652.764	101.88
652.969	90.88
653.173	93.88
653.377	98.88
653.581	76.88
653.785	87.88
653.99	96.88
654.194	81.88
654.398	93.88
654.602	91.88
654.806	86.88
655.01	100.88
655.214	102.88
655.418	83.88
655.622	97.88
655.826	89.88
656.03	87.88
656.234	91.88
656.438	93.88
656.642	86.88
656.846	88.88
657.049	94.88
657.253	78.88
657.457	103.88
657.661	84.88
657.865	85.88
658.068	89.88
658.272	86.88
658.476	81.88
658.68	115.88
658.883	87.88
659.087	89.88
659.291	85.88
659.494	90.88
659.698	89.88
659.901	74.88
660.105	86.88
660.309	73.88
660.512	65.88
660.716	91.88
660.919	85.88
661.123	79.88
661.326	85.88
661.53	83.88
661.733	77.88
661.936	79.88
662.14	80.88
662.343	80.88
662.546	100.88
662.75	91.88
662.953	76.88
663.156	88.88
663.36	96.88
663.563	91.88
663.766	83.88
663.969	78.88
664.173	71.88
664.376	74.88
664.579	72.88
664.782	78.88
664.985	86.88
665.188	84.88
665.391	80.88
665.594	83.88
665.797	70.88
666	77.88
666.203	75.88
666.406	79.88
666.609	90.88
666.812	85.88
667.015	79.88
667.218	79.88
667.421	72.88
667.624	78.88
667.827	77.88
668.03	70.88
668.232	81.88
668.435	77.88
668.638	73.88
668.841	79.88
669.043	83.88
669.246	73.88
669.449	83.88
669.651	90.88
669.854	67.88
670.057	95.88
670.259	76.88
670.462	81.88
670.665	83.88
670.867	84.88
671.07	83.88
671.272	68.88
671.475	90.88
671.677	76.88
671.88	79.88
672.082	81.88
672.284	92.88
672.487	76.88
672.689	72.88
672.892	62.88
