Data from Location1.07152019.Energy5.Lamp.07192019.3%Agarose_HRD10591_14-32-03-016.txt Node
Date: Fri Jul 19 14:32:03 EDT 2019
User: cochatt
Spectrometer: HR+D1059
Trigger mode: 1
Integration Time (sec): 1.000000E-1
Scans to average: 1
Electric dark correction enabled: true
Nonlinearity correction enabled: false
Boxcar width: 0
XAxis mode: Wavelengths
Number of Pixels in Spectrum: 2048
>>>>>Begin Spectral Data<<<<<
223.165	-23.94
223.4	-23.94
223.635	-23.94
223.869	-9.94
224.104	-11.94
224.338	-14.94
224.573	-17.94
224.808	-12.94
225.042	-4.94
225.277	-9.94
225.511	4.06
225.746	13.06
225.98	13.06
226.215	5.06
226.449	5.06
226.683	18.06
226.918	18.06
227.152	30.06
227.387	24.06
227.621	34.06
227.856	34.06
228.09	42.06
228.324	37.06
228.559	67.06
228.793	65.06
229.027	55.06
229.262	64.06
229.496	72.06
229.73	83.06
229.964	77.06
230.199	89.06
230.433	67.06
230.667	78.06
230.901	79.06
231.136	79.06
231.37	85.06
231.604	75.06
231.838	80.06
232.072	93.06
232.306	84.06
232.541	88.06
232.775	88.06
233.009	86.06
233.243	84.06
233.477	91.06
233.711	100.06
233.945	73.06
234.179	81.06
234.413	82.06
234.647	76.06
234.881	75.06
235.115	106.06
235.349	89.06
235.583	67.06
235.817	77.06
236.051	94.06
236.285	75.06
236.519	76.06
236.753	78.06
236.987	79.06
237.221	82.06
237.455	88.06
237.689	80.06
237.922	90.06
238.156	76.06
238.39	78.06
238.624	75.06
238.858	86.06
239.091	77.06
239.325	81.06
239.559	96.06
239.793	83.06
240.027	85.06
240.26	77.06
240.494	76.06
240.728	87.06
240.961	78.06
241.195	71.06
241.429	83.06
241.662	81.06
241.896	82.06
242.13	95.06
242.363	79.06
242.597	75.06
242.83	61.06
243.064	76.06
243.298	76.06
243.531	80.06
243.765	89.06
243.998	84.06
244.232	87.06
244.465	97.06
244.699	74.06
244.932	63.06
245.166	68.06
245.399	72.06
245.633	66.06
245.866	75.06
246.099	74.06
246.333	75.06
246.566	76.06
246.8	89.06
247.033	76.06
247.266	76.06
247.5	92.06
247.733	81.06
247.966	81.06
248.2	82.06
248.433	95.06
248.666	80.06
248.899	80.06
249.133	73.06
249.366	78.06
249.599	87.06
249.832	77.06
250.066	84.06
250.299	79.06
250.532	74.06
250.765	93.06
250.998	88.06
251.231	72.06
251.465	88.06
251.698	76.06
251.931	85.06
252.164	80.06
252.397	91.06
252.63	95.06
252.863	91.06
253.096	85.06
253.329	79.06
253.562	76.06
253.795	94.06
254.028	88.06
254.261	82.06
254.494	90.06
254.727	87.06
254.96	82.06
255.193	88.06
255.426	89.06
255.659	69.06
255.892	83.06
256.124	76.06
256.357	68.06
256.59	76.06
256.823	74.06
257.056	82.06
257.289	87.06
257.521	79.06
257.754	84.06
257.987	77.06
258.22	98.06
258.452	78.06
258.685	71.06
258.918	88.06
259.151	71.06
259.383	83.06
259.616	76.06
259.849	83.06
260.081	73.06
260.314	101.06
260.547	76.06
260.779	78.06
261.012	88.06
261.244	83.06
261.477	90.06
261.71	94.06
261.942	82.06
262.175	87.06
262.407	69.06
262.64	85.06
262.872	81.06
263.105	80.06
263.337	87.06
263.57	92.06
263.802	99.06
264.035	85.06
264.267	78.06
264.499	89.06
264.732	88.06
264.964	81.06
265.197	76.06
265.429	84.06
265.661	82.06
265.894	87.06
266.126	95.06
266.358	84.06
266.591	84.06
266.823	78.06
267.055	83.06
267.287	79.06
267.52	77.06
267.752	84.06
267.984	79.06
268.216	86.06
268.448	74.06
268.681	75.06
268.913	89.06
269.145	97.06
269.377	80.06
269.609	88.06
269.841	87.06
270.073	84.06
270.306	73.06
270.538	83.06
270.77	87.06
271.002	99.06
271.234	85.06
271.466	90.06
271.698	79.06
271.93	76.06
272.162	89.06
272.394	74.06
272.626	85.06
272.858	75.06
273.09	80.06
273.322	92.06
273.553	81.06
273.785	85.06
274.017	85.06
274.249	74.06
274.481	78.06
274.713	70.06
274.945	92.06
275.176	83.06
275.408	95.06
275.64	85.06
275.872	74.06
276.104	78.06
276.335	91.06
276.567	82.06
276.799	75.06
277.031	88.06
277.262	77.06
277.494	100.06
277.726	75.06
277.957	103.06
278.189	91.06
278.421	95.06
278.652	83.06
278.884	102.06
279.115	82.06
279.347	72.06
279.579	88.06
279.81	76.06
280.042	91.06
280.273	86.06
280.505	91.06
280.736	90.06
280.968	90.06
281.199	77.06
281.431	88.06
281.662	88.06
281.894	94.06
282.125	81.06
282.356	82.06
282.588	89.06
282.819	89.06
283.051	76.06
283.282	90.06
283.513	82.06
283.745	82.06
283.976	93.06
284.207	97.06
284.439	84.06
284.67	87.06
284.901	79.06
285.132	81.06
285.364	86.06
285.595	97.06
285.826	73.06
286.057	79.06
286.288	84.06
286.52	92.06
286.751	94.06
286.982	76.06
287.213	94.06
287.444	87.06
287.675	77.06
287.906	89.06
288.138	90.06
288.369	97.06
288.6	95.06
288.831	81.06
289.062	95.06
289.293	95.06
289.524	100.06
289.755	99.06
289.986	106.06
290.217	85.06
290.448	92.06
290.679	91.06
290.91	98.06
291.141	83.06
291.371	86.06
291.602	70.06
291.833	81.06
292.064	78.06
292.295	83.06
292.526	103.06
292.757	91.06
292.987	83.06
293.218	100.06
293.449	89.06
293.68	84.06
293.91	80.06
294.141	81.06
294.372	89.06
294.603	79.06
294.833	105.06
295.064	78.06
295.295	92.06
295.525	69.06
295.756	94.06
295.987	81.06
296.217	90.06
296.448	95.06
296.679	89.06
296.909	73.06
297.14	88.06
297.37	87.06
297.601	74.06
297.831	99.06
298.062	87.06
298.292	82.06
298.523	84.06
298.753	101.06
298.984	87.06
299.214	96.06
299.445	86.06
299.675	87.06
299.905	77.06
300.136	87.06
300.366	77.06
300.597	87.06
300.827	91.06
301.057	84.06
301.288	79.06
301.518	90.06
301.748	78.06
301.979	89.06
302.209	87.06
302.439	72.06
302.669	77.06
302.9	96.06
303.13	89.06
303.36	87.06
303.59	96.06
303.82	90.06
304.051	79.06
304.281	93.06
304.511	84.06
304.741	102.06
304.971	85.06
305.201	90.06
305.431	88.06
305.661	85.06
305.891	86.06
306.121	85.06
306.352	77.06
306.582	81.06
306.812	91.06
307.042	78.06
307.272	91.06
307.502	82.06
307.731	86.06
307.961	93.06
308.191	105.06
308.421	93.06
308.651	78.06
308.881	83.06
309.111	91.06
309.341	77.06
309.571	93.06
309.8	77.06
310.03	74.06
310.26	77.06
310.49	84.06
310.72	94.06
310.949	71.06
311.179	85.06
311.409	84.06
311.639	88.06
311.868	85.06
312.098	94.06
312.328	76.06
312.557	88.06
312.787	79.06
313.017	90.06
313.246	99.06
313.476	80.06
313.706	91.06
313.935	78.06
314.165	97.06
314.394	98.06
314.624	75.06
314.853	88.06
315.083	86.06
315.312	79.06
315.542	96.06
315.771	83.06
316.001	77.06
316.23	88.06
316.46	89.06
316.689	88.06
316.919	78.06
317.148	83.06
317.377	99.06
317.607	92.06
317.836	75.06
318.065	89.06
318.295	87.06
318.524	95.06
318.753	82.06
318.983	94.06
319.212	99.06
319.441	89.06
319.67	91.06
319.9	94.06
320.129	89.06
320.358	99.06
320.587	71.06
320.816	89.06
321.046	79.06
321.275	78.06
321.504	89.06
321.733	79.06
321.962	77.06
322.191	79.06
322.42	88.06
322.649	83.06
322.878	82.06
323.108	86.06
323.337	92.06
323.566	96.06
323.795	76.06
324.024	84.06
324.253	95.06
324.482	81.06
324.71	83.06
324.939	79.06
325.168	78.06
325.397	70.06
325.626	81.06
325.855	77.06
326.084	82.06
326.313	71.06
326.542	84.06
326.77	87.06
326.999	82.06
327.228	85.06
327.457	89.06
327.686	78.06
327.914	96.06
328.143	92.06
328.372	99.06
328.6	92.06
328.829	88.06
329.058	84.06
329.287	82.06
329.515	88.06
329.744	84.06
329.972	71.06
330.201	89.06
330.43	96.06
330.658	71.06
330.887	86.06
331.115	74.06
331.344	87.06
331.572	94.06
331.801	93.06
332.03	87.06
332.258	81.06
332.486	80.06
332.715	91.06
332.943	89.06
333.172	83.06
333.4	88.06
333.629	71.06
333.857	71.06
334.085	88.06
334.314	86.06
334.542	84.06
334.771	80.06
334.999	78.06
335.227	91.06
335.455	96.06
335.684	84.06
335.912	92.06
336.14	91.06
336.369	77.06
336.597	98.06
336.825	88.06
337.053	91.06
337.281	86.06
337.51	97.06
337.738	90.06
337.966	78.06
338.194	86.06
338.422	91.06
338.65	91.06
338.878	82.06
339.106	84.06
339.334	88.06
339.562	103.06
339.79	90.06
340.018	90.06
340.246	90.06
340.474	87.06
340.702	94.06
340.93	84.06
341.158	104.06
341.386	96.06
341.614	79.06
341.842	93.06
342.07	79.06
342.298	84.06
342.526	95.06
342.754	90.06
342.981	101.06
343.209	94.06
343.437	82.06
343.665	91.06
343.893	85.06
344.12	86.06
344.348	97.06
344.576	86.06
344.804	103.06
345.031	85.06
345.259	84.06
345.487	85.06
345.714	88.06
345.942	86.06
346.17	101.06
346.397	87.06
346.625	91.06
346.853	86.06
347.08	76.06
347.308	85.06
347.535	83.06
347.763	94.06
347.99	93.06
348.218	81.06
348.445	85.06
348.673	91.06
348.9	98.06
349.128	107.06
349.355	85.06
349.583	91.06
349.81	79.06
350.037	86.06
350.265	80.06
350.492	78.06
350.72	79.06
350.947	80.06
351.174	95.06
351.402	95.06
351.629	87.06
351.856	93.06
352.083	83.06
352.311	81.06
352.538	93.06
352.765	78.06
352.992	81.06
353.22	93.06
353.447	84.06
353.674	87.06
353.901	93.06
354.128	84.06
354.355	89.06
354.583	85.06
354.81	87.06
355.037	68.06
355.264	91.06
355.491	102.06
355.718	97.06
355.945	76.06
356.172	91.06
356.399	100.06
356.626	90.06
356.853	90.06
357.08	98.06
357.307	91.06
357.534	93.06
357.761	87.06
357.988	91.06
358.215	83.06
358.441	87.06
358.668	90.06
358.895	97.06
359.122	93.06
359.349	91.06
359.576	91.06
359.802	87.06
360.029	97.06
360.256	85.06
360.483	95.06
360.709	89.06
360.936	103.06
361.163	88.06
361.39	86.06
361.616	72.06
361.843	81.06
362.07	87.06
362.296	78.06
362.523	70.06
362.749	75.06
362.976	73.06
363.203	99.06
363.429	88.06
363.656	92.06
363.882	83.06
364.109	73.06
364.335	99.06
364.562	87.06
364.788	85.06
365.015	88.06
365.241	76.06
365.468	84.06
365.694	80.06
365.92	87.06
366.147	86.06
366.373	107.06
366.599	89.06
366.826	81.06
367.052	93.06
367.278	89.06
367.505	80.06
367.731	81.06
367.957	86.06
368.184	98.06
368.41	88.06
368.636	86.06
368.862	107.06
369.089	95.06
369.315	91.06
369.541	83.06
369.767	94.06
369.993	90.06
370.219	80.06
370.445	101.06
370.672	95.06
370.898	99.06
371.124	75.06
371.35	92.06
371.576	87.06
371.802	76.06
372.028	86.06
372.254	88.06
372.48	96.06
372.706	90.06
372.932	95.06
373.158	94.06
373.384	90.06
373.61	87.06
373.835	100.06
374.061	91.06
374.287	97.06
374.513	105.06
374.739	88.06
374.965	91.06
375.191	83.06
375.416	92.06
375.642	94.06
375.868	98.06
376.094	90.06
376.319	89.06
376.545	73.06
376.771	90.06
376.997	89.06
377.222	87.06
377.448	100.06
377.674	96.06
377.899	84.06
378.125	88.06
378.35	95.06
378.576	91.06
378.802	95.06
379.027	92.06
379.253	80.06
379.478	78.06
379.704	94.06
379.929	86.06
380.155	93.06
380.38	103.06
380.606	102.06
380.831	81.06
381.057	117.06
381.282	104.06
381.507	98.06
381.733	97.06
381.958	101.06
382.184	97.06
382.409	73.06
382.634	102.06
382.86	111.06
383.085	93.06
383.31	100.06
383.535	77.06
383.761	101.06
383.986	103.06
384.211	96.06
384.436	101.06
384.662	91.06
384.887	89.06
385.112	92.06
385.337	94.06
385.562	92.06
385.787	85.06
386.013	122.06
386.238	101.06
386.463	104.06
386.688	99.06
386.913	103.06
387.138	94.06
387.363	81.06
387.588	95.06
387.813	98.06
388.038	85.06
388.263	95.06
388.488	96.06
388.713	89.06
388.938	100.06
389.163	117.06
389.387	109.06
389.612	111.06
389.837	112.06
390.062	106.06
390.287	101.06
390.512	119.06
390.736	106.06
390.961	108.06
391.186	98.06
391.411	105.06
391.636	106.06
391.86	101.06
392.085	100.06
392.31	112.06
392.534	97.06
392.759	107.06
392.984	98.06
393.208	116.06
393.433	101.06
393.658	115.06
393.882	104.06
394.107	99.06
394.331	101.06
394.556	112.06
394.78	119.06
395.005	115.06
395.229	115.06
395.454	99.06
395.678	117.06
395.903	99.06
396.127	95.06
396.352	101.06
396.576	109.06
396.801	100.06
397.025	108.06
397.249	106.06
397.474	107.06
397.698	109.06
397.922	122.06
398.147	97.06
398.371	125.06
398.595	115.06
398.82	106.06
399.044	109.06
399.268	108.06
399.492	107.06
399.717	110.06
399.941	101.06
400.165	112.06
400.389	110.06
400.613	115.06
400.837	95.06
401.062	88.06
401.286	102.06
401.51	121.06
401.734	100.06
401.958	94.06
402.182	105.06
402.406	126.06
402.63	115.06
402.854	125.06
403.078	112.06
403.302	118.06
403.526	123.06
403.75	116.06
403.974	107.06
404.198	104.06
404.422	112.06
404.645	124.06
404.869	108.06
405.093	111.06
405.317	109.06
405.541	104.06
405.765	122.06
405.988	125.06
406.212	105.06
406.436	128.06
406.66	115.06
406.883	125.06
407.107	126.06
407.331	112.06
407.555	115.06
407.778	117.06
408.002	125.06
408.226	110.06
408.449	109.06
408.673	125.06
408.896	129.06
409.12	125.06
409.344	120.06
409.567	110.06
409.791	124.06
410.014	111.06
410.238	119.06
410.461	120.06
410.685	122.06
410.908	112.06
411.132	113.06
411.355	108.06
411.578	120.06
411.802	108.06
412.025	121.06
412.249	126.06
412.472	120.06
412.695	106.06
412.919	111.06
413.142	115.06
413.365	124.06
413.589	120.06
413.812	110.06
414.035	121.06
414.258	119.06
414.482	109.06
414.705	123.06
414.928	121.06
415.151	133.06
415.374	121.06
415.597	116.06
415.821	128.06
416.044	116.06
416.267	126.06
416.49	121.06
416.713	127.06
416.936	144.06
417.159	143.06
417.382	115.06
417.605	124.06
417.828	129.06
418.051	122.06
418.274	125.06
418.497	124.06
418.72	124.06
418.943	143.06
419.166	128.06
419.389	133.06
419.611	137.06
419.834	132.06
420.057	125.06
420.28	120.06
420.503	127.06
420.726	124.06
420.948	141.06
421.171	142.06
421.394	141.06
421.617	149.06
421.839	135.06
422.062	141.06
422.285	152.06
422.507	137.06
422.73	115.06
422.953	127.06
423.175	131.06
423.398	127.06
423.621	131.06
423.843	124.06
424.066	134.06
424.288	135.06
424.511	148.06
424.733	141.06
424.956	133.06
425.178	150.06
425.401	134.06
425.623	135.06
425.846	137.06
426.068	139.06
426.291	136.06
426.513	131.06
426.735	133.06
426.958	129.06
427.18	110.06
427.402	137.06
427.625	137.06
427.847	104.06
428.069	107.06
428.292	124.06
428.514	129.06
428.736	127.06
428.958	144.06
429.181	135.06
429.403	118.06
429.625	127.06
429.847	115.06
430.069	145.06
430.292	123.06
430.514	130.06
430.736	126.06
430.958	117.06
431.18	125.06
431.402	136.06
431.624	115.06
431.846	112.06
432.068	98.06
432.29	99.06
432.512	95.06
432.734	124.06
432.956	139.06
433.178	135.06
433.4	147.06
433.622	143.06
433.844	133.06
434.066	132.06
434.287	90.06
434.509	96.06
434.731	93.06
434.953	102.06
435.175	111.06
435.397	130.06
435.618	150.06
435.84	112.06
436.062	129.06
436.284	125.06
436.505	127.06
436.727	131.06
436.949	130.06
437.17	129.06
437.392	129.06
437.614	119.06
437.835	123.06
438.057	107.06
438.278	113.06
438.5	119.06
438.721	122.06
438.943	135.06
439.165	125.06
439.386	137.06
439.608	147.06
439.829	143.06
440.05	134.06
440.272	137.06
440.493	157.06
440.715	143.06
440.936	132.06
441.158	147.06
441.379	133.06
441.6	142.06
441.822	135.06
442.043	139.06
442.264	146.06
442.486	140.06
442.707	144.06
442.928	145.06
443.149	133.06
443.371	134.06
443.592	144.06
443.813	148.06
444.034	142.06
444.255	139.06
444.476	134.06
444.698	141.06
444.919	155.06
445.14	273.06
445.361	205.06
445.582	152.06
445.803	135.06
446.024	146.06
446.245	157.06
446.466	158.06
446.687	141.06
446.908	167.06
447.129	146.06
447.35	145.06
447.571	142.06
447.792	156.06
448.013	144.06
448.234	140.06
448.455	129.06
448.675	135.06
448.896	145.06
449.117	154.06
449.338	143.06
449.559	129.06
449.779	128.06
450	139.06
450.221	132.06
450.442	118.06
450.662	145.06
450.883	149.06
451.104	127.06
451.324	133.06
451.545	133.06
451.766	121.06
451.986	119.06
452.207	102.06
452.428	137.06
452.648	134.06
452.869	131.06
453.089	120.06
453.31	108.06
453.53	106.06
453.751	117.06
453.971	110.06
454.192	119.06
454.412	110.06
454.633	105.06
454.853	117.06
455.073	120.06
455.294	114.06
455.514	119.06
455.734	98.06
455.955	109.06
456.175	120.06
456.395	115.06
456.616	129.06
456.836	116.06
457.056	101.06
457.276	102.06
457.497	123.06
457.717	108.06
457.937	96.06
458.157	102.06
458.377	101.06
458.598	103.06
458.818	95.06
459.038	90.06
459.258	91.06
459.478	78.06
459.698	100.06
459.918	94.06
460.138	109.06
460.358	116.06
460.578	111.06
460.798	115.06
461.018	105.06
461.238	115.06
461.458	143.06
461.678	124.06
461.898	103.06
462.118	113.06
462.338	101.06
462.558	113.06
462.777	110.06
462.997	108.06
463.217	99.06
463.437	96.06
463.657	104.06
463.876	98.06
464.096	101.06
464.316	110.06
464.536	123.06
464.755	116.06
464.975	126.06
465.195	118.06
465.414	124.06
465.634	109.06
465.854	123.06
466.073	117.06
466.293	129.06
466.512	132.06
466.732	135.06
466.951	137.06
467.171	126.06
467.391	139.06
467.61	128.06
467.829	125.06
468.049	131.06
468.268	130.06
468.488	123.06
468.707	135.06
468.927	131.06
469.146	129.06
469.365	128.06
469.585	140.06
469.804	122.06
470.023	132.06
470.243	136.06
470.462	160.06
470.681	152.06
470.901	150.06
471.12	137.06
471.339	142.06
471.558	139.06
471.777	110.06
471.997	135.06
472.216	128.06
472.435	109.06
472.654	104.06
472.873	110.06
473.092	105.06
473.311	126.06
473.53	128.06
473.749	137.06
473.968	131.06
474.187	114.06
474.406	123.06
474.625	133.06
474.844	124.06
475.063	128.06
475.282	119.06
475.501	107.06
475.72	118.06
475.939	125.06
476.158	121.06
476.377	127.06
476.596	126.06
476.814	124.06
477.033	102.06
477.252	111.06
477.471	104.06
477.69	123.06
477.908	135.06
478.127	143.06
478.346	137.06
478.564	141.06
478.783	116.06
479.002	149.06
479.22	129.06
479.439	124.06
479.658	129.06
479.876	124.06
480.095	116.06
480.313	126.06
480.532	112.06
480.751	125.06
480.969	98.06
481.188	83.06
481.406	106.06
481.624	90.06
481.843	99.06
482.061	104.06
482.28	106.06
482.498	106.06
482.717	101.06
482.935	125.06
483.153	141.06
483.372	155.06
483.59	140.06
483.808	154.06
484.027	133.06
484.245	139.06
484.463	139.06
484.681	167.06
484.9	142.06
485.118	151.06
485.336	123.06
485.554	127.06
485.772	116.06
485.99	127.06
486.209	111.06
486.427	109.06
486.645	112.06
486.863	134.06
487.081	163.06
487.299	136.06
487.517	128.06
487.735	171.06
487.953	195.06
488.171	174.06
488.389	168.06
488.607	142.06
488.825	159.06
489.043	119.06
489.261	131.06
489.479	153.06
489.696	136.06
489.914	126.06
490.132	143.06
490.35	142.06
490.568	170.06
490.786	182.06
491.003	165.06
491.221	168.06
491.439	188.06
491.657	193.06
491.874	192.06
492.092	212.06
492.31	248.06
492.527	223.06
492.745	213.06
492.963	203.06
493.18	196.06
493.398	201.06
493.615	164.06
493.833	163.06
494.05	171.06
494.268	171.06
494.485	161.06
494.703	163.06
494.92	166.06
495.138	165.06
495.355	168.06
495.573	168.06
495.79	169.06
496.008	173.06
496.225	168.06
496.442	190.06
496.66	163.06
496.877	155.06
497.094	163.06
497.312	164.06
497.529	159.06
497.746	141.06
497.963	136.06
498.181	124.06
498.398	123.06
498.615	119.06
498.832	108.06
499.049	108.06
499.267	135.06
499.484	127.06
499.701	134.06
499.918	112.06
500.135	140.06
500.352	125.06
500.569	140.06
500.786	146.06
501.003	133.06
501.22	137.06
501.437	141.06
501.654	131.06
501.871	154.06
502.088	129.06
502.305	125.06
502.522	132.06
502.739	120.06
502.956	135.06
503.172	139.06
503.389	122.06
503.606	104.06
503.823	121.06
504.04	115.06
504.256	103.06
504.473	117.06
504.69	114.06
504.907	112.06
505.123	123.06
505.34	120.06
505.557	117.06
505.773	111.06
505.99	122.06
506.207	111.06
506.423	115.06
506.64	115.06
506.856	120.06
507.073	126.06
507.289	118.06
507.506	109.06
507.722	101.06
507.939	103.06
508.155	121.06
508.372	123.06
508.588	93.06
508.805	106.06
509.021	103.06
509.238	91.06
509.454	109.06
509.67	117.06
509.887	102.06
510.103	100.06
510.319	80.06
510.536	90.06
510.752	99.06
510.968	88.06
511.184	83.06
511.401	76.06
511.617	91.06
511.833	86.06
512.049	98.06
512.265	92.06
512.481	102.06
512.698	91.06
512.914	97.06
513.13	101.06
513.346	84.06
513.562	82.06
513.778	89.06
513.994	100.06
514.21	93.06
514.426	95.06
514.642	96.06
514.858	86.06
515.074	80.06
515.29	88.06
515.506	99.06
515.721	100.06
515.937	91.06
516.153	81.06
516.369	92.06
516.585	82.06
516.801	78.06
517.016	77.06
517.232	87.06
517.448	89.06
517.664	102.06
517.879	93.06
518.095	98.06
518.311	91.06
518.527	105.06
518.742	92.06
518.958	97.06
519.173	101.06
519.389	119.06
519.605	98.06
519.82	116.06
520.036	121.06
520.251	111.06
520.467	106.06
520.682	104.06
520.898	87.06
521.113	79.06
521.329	99.06
521.544	88.06
521.76	91.06
521.975	88.06
522.19	101.06
522.406	109.06
522.621	100.06
522.836	93.06
523.052	112.06
523.267	110.06
523.482	103.06
523.698	102.06
523.913	105.06
524.128	129.06
524.343	123.06
524.559	123.06
524.774	122.06
524.989	118.06
525.204	118.06
525.419	119.06
525.634	112.06
525.849	108.06
526.064	105.06
526.28	110.06
526.495	100.06
526.71	78.06
526.925	92.06
527.14	77.06
527.355	81.06
527.57	96.06
527.785	93.06
527.999	93.06
528.214	97.06
528.429	100.06
528.644	137.06
528.859	133.06
529.074	161.06
529.289	157.06
529.503	160.06
529.718	116.06
529.933	124.06
530.148	115.06
530.363	103.06
530.577	82.06
530.792	81.06
531.007	85.06
531.221	85.06
531.436	92.06
531.651	91.06
531.865	85.06
532.08	78.06
532.295	87.06
532.509	93.06
532.724	95.06
532.938	91.06
533.153	109.06
533.367	112.06
533.582	124.06
533.796	128.06
534.011	124.06
534.225	103.06
534.44	94.06
534.654	100.06
534.868	99.06
535.083	115.06
535.297	105.06
535.511	107.06
535.726	90.06
535.94	89.06
536.154	95.06
536.369	103.06
536.583	89.06
536.797	90.06
537.011	87.06
537.225	82.06
537.44	88.06
537.654	94.06
537.868	99.06
538.082	89.06
538.296	95.06
538.51	102.06
538.724	109.06
538.938	106.06
539.153	108.06
539.367	112.06
539.581	108.06
539.795	100.06
540.009	102.06
540.222	111.06
540.436	117.06
540.65	121.06
540.864	134.06
541.078	125.06
541.292	143.06
541.506	158.06
541.72	183.06
541.934	191.06
542.147	191.06
542.361	178.06
542.575	168.06
542.789	144.06
543.002	131.06
543.216	131.06
543.43	120.06
543.644	131.06
543.857	153.06
544.071	163.06
544.285	153.06
544.498	154.06
544.712	152.06
544.925	149.06
545.139	153.06
545.352	160.06
545.566	149.06
545.779	143.06
545.993	169.06
546.206	176.06
546.42	168.06
546.633	169.06
546.847	181.06
547.06	157.06
547.274	165.06
547.487	162.06
547.7	176.06
547.914	157.06
548.127	144.06
548.34	151.06
548.554	144.06
548.767	156.06
548.98	155.06
549.193	151.06
549.407	144.06
549.62	154.06
549.833	149.06
550.046	145.06
550.259	144.06
550.473	132.06
550.686	151.06
550.899	141.06
551.112	143.06
551.325	138.06
551.538	137.06
551.751	119.06
551.964	123.06
552.177	127.06
552.39	138.06
552.603	145.06
552.816	140.06
553.029	141.06
553.242	151.06
553.455	155.06
553.667	169.06
553.88	156.06
554.093	156.06
554.306	158.06
554.519	143.06
554.732	147.06
554.944	135.06
555.157	149.06
555.37	151.06
555.583	143.06
555.795	146.06
556.008	131.06
556.221	128.06
556.433	128.06
556.646	122.06
556.859	136.06
557.071	143.06
557.284	137.06
557.496	151.06
557.709	142.06
557.921	127.06
558.134	135.06
558.346	131.06
558.559	134.06
558.771	128.06
558.984	139.06
559.196	125.06
559.409	121.06
559.621	128.06
559.833	129.06
560.046	120.06
560.258	124.06
560.47	137.06
560.683	128.06
560.895	128.06
561.107	141.06
561.32	129.06
561.532	128.06
561.744	138.06
561.956	133.06
562.168	127.06
562.381	116.06
562.593	119.06
562.805	113.06
563.017	128.06
563.229	116.06
563.441	99.06
563.653	110.06
563.865	124.06
564.077	131.06
564.289	126.06
564.501	119.06
564.713	123.06
564.925	113.06
565.137	122.06
565.349	127.06
565.561	118.06
565.773	121.06
565.985	133.06
566.197	124.06
566.408	110.06
566.62	119.06
566.832	112.06
567.044	122.06
567.255	121.06
567.467	118.06
567.679	107.06
567.891	105.06
568.102	98.06
568.314	96.06
568.526	93.06
568.737	102.06
568.949	101.06
569.161	99.06
569.372	86.06
569.584	100.06
569.795	76.06
570.007	76.06
570.218	65.06
570.43	78.06
570.641	90.06
570.853	94.06
571.064	103.06
571.276	107.06
571.487	97.06
571.698	103.06
571.91	106.06
572.121	92.06
572.333	99.06
572.544	99.06
572.755	91.06
572.966	104.06
573.178	89.06
573.389	105.06
573.6	92.06
573.811	85.06
574.023	82.06
574.234	90.06
574.445	92.06
574.656	103.06
574.867	91.06
575.078	101.06
575.289	96.06
575.501	115.06
575.712	97.06
575.923	94.06
576.134	110.06
576.345	96.06
576.556	91.06
576.767	89.06
576.978	94.06
577.188	105.06
577.399	90.06
577.61	91.06
577.821	90.06
578.032	82.06
578.243	90.06
578.454	75.06
578.665	103.06
578.875	85.06
579.086	92.06
579.297	82.06
579.508	88.06
579.718	92.06
579.929	82.06
580.14	96.06
580.35	82.06
580.561	87.06
580.772	92.06
580.982	100.06
581.193	96.06
581.403	103.06
581.614	94.06
581.825	96.06
582.035	92.06
582.246	105.06
582.456	99.06
582.667	89.06
582.877	96.06
583.087	97.06
583.298	100.06
583.508	92.06
583.719	85.06
583.929	87.06
584.139	104.06
584.35	86.06
584.56	74.06
584.77	99.06
584.981	91.06
585.191	94.06
585.401	89.06
585.611	93.06
585.821	73.06
586.032	98.06
586.242	92.06
586.452	79.06
586.662	83.06
586.872	79.06
587.082	93.06
587.292	87.06
587.502	79.06
587.713	87.06
587.923	84.06
588.133	83.06
588.343	108.06
588.553	85.06
588.762	102.06
588.972	91.06
589.182	73.06
589.392	89.06
589.602	93.06
589.812	89.06
590.022	79.06
590.232	91.06
590.441	82.06
590.651	89.06
590.861	90.06
591.071	79.06
591.281	91.06
591.49	72.06
591.7	81.06
591.91	84.06
592.119	82.06
592.329	87.06
592.539	81.06
592.748	89.06
592.958	79.06
593.167	79.06
593.377	93.06
593.587	83.06
593.796	91.06
594.006	90.06
594.215	93.06
594.424	87.06
594.634	104.06
594.843	88.06
595.053	93.06
595.262	104.06
595.472	91.06
595.681	94.06
595.89	88.06
596.1	101.06
596.309	95.06
596.518	91.06
596.727	82.06
596.937	85.06
597.146	89.06
597.355	102.06
597.564	103.06
597.774	122.06
597.983	91.06
598.192	92.06
598.401	89.06
598.61	103.06
598.819	75.06
599.028	92.06
599.237	87.06
599.446	101.06
599.655	103.06
599.864	106.06
600.073	96.06
600.282	92.06
600.491	97.06
600.7	89.06
600.909	89.06
601.118	100.06
601.327	91.06
601.536	112.06
601.745	111.06
601.953	103.06
602.162	111.06
602.371	92.06
602.58	95.06
602.789	92.06
602.997	102.06
603.206	109.06
603.415	110.06
603.623	107.06
603.832	107.06
604.041	112.06
604.249	113.06
604.458	99.06
604.666	105.06
604.875	106.06
605.084	106.06
605.292	90.06
605.501	117.06
605.709	106.06
605.918	115.06
606.126	116.06
606.334	109.06
606.543	104.06
606.751	107.06
606.96	128.06
607.168	122.06
607.376	109.06
607.585	123.06
607.793	98.06
608.001	109.06
608.21	99.06
608.418	109.06
608.626	108.06
608.834	97.06
609.043	119.06
609.251	118.06
609.459	99.06
609.667	119.06
609.875	98.06
610.083	119.06
610.291	131.06
610.499	123.06
610.707	121.06
610.916	109.06
611.124	125.06
611.332	96.06
611.54	108.06
611.748	118.06
611.955	104.06
612.163	112.06
612.371	112.06
612.579	104.06
612.787	114.06
612.995	108.06
613.203	117.06
613.411	99.06
613.618	115.06
613.826	110.06
614.034	127.06
614.242	116.06
614.449	118.06
614.657	101.06
614.865	98.06
615.072	124.06
615.28	109.06
615.488	104.06
615.695	85.06
615.903	112.06
616.111	100.06
616.318	104.06
616.526	124.06
616.733	115.06
616.941	113.06
617.148	118.06
617.356	118.06
617.563	119.06
617.771	111.06
617.978	108.06
618.185	105.06
618.393	111.06
618.6	110.06
618.807	108.06
619.015	104.06
619.222	107.06
619.429	123.06
619.637	115.06
619.844	104.06
620.051	100.06
620.258	96.06
620.466	121.06
620.673	119.06
620.88	106.06
621.087	104.06
621.294	111.06
621.501	112.06
621.708	97.06
621.915	105.06
622.122	97.06
622.329	123.06
622.536	115.06
622.743	118.06
622.95	105.06
623.157	101.06
623.364	97.06
623.571	98.06
623.778	100.06
623.985	104.06
624.192	106.06
624.399	106.06
624.606	107.06
624.812	105.06
625.019	106.06
625.226	111.06
625.433	105.06
625.639	95.06
625.846	111.06
626.053	95.06
626.259	95.06
626.466	95.06
626.673	93.06
626.879	75.06
627.086	99.06
627.293	96.06
627.499	103.06
627.706	110.06
627.912	111.06
628.119	104.06
628.325	110.06
628.532	112.06
628.738	109.06
628.945	96.06
629.151	113.06
629.357	115.06
629.564	106.06
629.77	100.06
629.976	103.06
630.183	92.06
630.389	100.06
630.595	97.06
630.802	106.06
631.008	99.06
631.214	109.06
631.42	111.06
631.627	105.06
631.833	118.06
632.039	101.06
632.245	89.06
632.451	109.06
632.657	105.06
632.863	103.06
633.069	98.06
633.275	107.06
633.481	112.06
633.688	103.06
633.893	85.06
634.099	106.06
634.305	109.06
634.511	105.06
634.717	97.06
634.923	109.06
635.129	110.06
635.335	104.06
635.541	97.06
635.747	100.06
635.952	101.06
636.158	112.06
636.364	99.06
636.57	111.06
636.775	94.06
636.981	103.06
637.187	118.06
637.392	99.06
637.598	102.06
637.804	88.06
638.009	106.06
638.215	101.06
638.421	116.06
638.626	87.06
638.832	94.06
639.037	97.06
639.243	115.06
639.448	107.06
639.654	109.06
639.859	103.06
640.065	95.06
640.27	110.06
640.475	89.06
640.681	94.06
640.886	101.06
641.091	104.06
641.297	105.06
641.502	102.06
641.707	110.06
641.913	93.06
642.118	114.06
642.323	99.06
642.528	103.06
642.733	108.06
642.939	101.06
643.144	106.06
643.349	110.06
643.554	97.06
643.759	119.06
643.964	91.06
644.169	100.06
644.374	101.06
644.579	96.06
644.784	101.06
644.989	100.06
645.194	90.06
645.399	109.06
645.604	94.06
645.809	91.06
646.014	92.06
646.219	101.06
646.423	84.06
646.628	89.06
646.833	94.06
647.038	104.06
647.243	90.06
647.447	94.06
647.652	102.06
647.857	92.06
648.062	106.06
648.266	96.06
648.471	102.06
648.676	96.06
648.88	103.06
649.085	98.06
649.289	94.06
649.494	103.06
649.698	91.06
649.903	91.06
650.107	95.06
650.312	102.06
650.516	111.06
650.721	104.06
650.925	99.06
651.13	115.06
651.334	90.06
651.539	111.06
651.743	84.06
651.947	115.06
652.152	98.06
652.356	92.06
652.56	81.06
652.764	89.06
652.969	92.06
653.173	97.06
653.377	88.06
653.581	98.06
653.785	87.06
653.99	95.06
654.194	96.06
654.398	103.06
654.602	89.06
654.806	89.06
655.01	99.06
655.214	96.06
655.418	99.06
655.622	84.06
655.826	97.06
656.03	89.06
656.234	91.06
656.438	80.06
656.642	95.06
656.846	110.06
657.049	86.06
657.253	105.06
657.457	89.06
657.661	99.06
657.865	88.06
658.068	90.06
658.272	76.06
658.476	94.06
658.68	92.06
658.883	89.06
659.087	93.06
659.291	89.06
659.494	89.06
659.698	85.06
659.901	84.06
660.105	91.06
660.309	104.06
660.512	63.06
660.716	85.06
660.919	89.06
661.123	86.06
661.326	96.06
661.53	81.06
661.733	88.06
661.936	77.06
662.14	67.06
662.343	72.06
662.546	87.06
662.75	93.06
662.953	81.06
663.156	85.06
663.36	83.06
663.563	77.06
663.766	87.06
663.969	87.06
664.173	98.06
664.376	86.06
664.579	92.06
664.782	88.06
664.985	84.06
665.188	91.06
665.391	88.06
665.594	84.06
665.797	78.06
666	88.06
666.203	90.06
666.406	70.06
666.609	88.06
666.812	79.06
667.015	82.06
667.218	86.06
667.421	80.06
667.624	93.06
667.827	96.06
668.03	68.06
668.232	81.06
668.435	91.06
668.638	77.06
668.841	76.06
669.043	81.06
669.246	86.06
669.449	91.06
669.651	83.06
669.854	80.06
670.057	93.06
670.259	75.06
670.462	83.06
670.665	81.06
670.867	80.06
671.07	78.06
671.272	79.06
671.475	90.06
671.677	87.06
671.88	88.06
672.082	100.06
672.284	88.06
672.487	92.06
672.689	79.06
672.892	78.06
