Data from Location1.07152019.Energy5.Lamp.07192019.3%Agarose_HRD10591_14-31-54-015.txt Node
Date: Fri Jul 19 14:31:54 EDT 2019
User: cochatt
Spectrometer: HR+D1059
Trigger mode: 1
Integration Time (sec): 1.000000E-1
Scans to average: 1
Electric dark correction enabled: true
Nonlinearity correction enabled: false
Boxcar width: 0
XAxis mode: Wavelengths
Number of Pixels in Spectrum: 2048
>>>>>Begin Spectral Data<<<<<
223.165	-15.44
223.4	-15.44
223.635	-15.44
223.869	-3.44
224.104	-7.44
224.338	-32.44
224.573	-3.44
224.808	-0.44
225.042	-5.44
225.277	-6.44
225.511	-11.44
225.746	-12.44
225.98	1.56
226.215	11.56
226.449	18.56
226.683	10.56
226.918	28.56
227.152	27.56
227.387	28.56
227.621	42.56
227.856	24.56
228.09	31.56
228.324	39.56
228.559	56.56
228.793	58.56
229.027	53.56
229.262	56.56
229.496	56.56
229.73	68.56
229.964	71.56
230.199	57.56
230.433	68.56
230.667	75.56
230.901	72.56
231.136	75.56
231.37	78.56
231.604	86.56
231.838	69.56
232.072	56.56
232.306	74.56
232.541	83.56
232.775	83.56
233.009	83.56
233.243	74.56
233.477	84.56
233.711	78.56
233.945	81.56
234.179	86.56
234.413	63.56
234.647	65.56
234.881	80.56
235.115	78.56
235.349	85.56
235.583	81.56
235.817	83.56
236.051	87.56
236.285	83.56
236.519	88.56
236.753	64.56
236.987	72.56
237.221	82.56
237.455	73.56
237.689	88.56
237.922	87.56
238.156	71.56
238.39	73.56
238.624	64.56
238.858	82.56
239.091	64.56
239.325	77.56
239.559	69.56
239.793	76.56
240.027	71.56
240.26	71.56
240.494	76.56
240.728	82.56
240.961	76.56
241.195	55.56
241.429	76.56
241.662	88.56
241.896	67.56
242.13	71.56
242.363	77.56
242.597	63.56
242.83	80.56
243.064	73.56
243.298	73.56
243.531	77.56
243.765	69.56
243.998	89.56
244.232	75.56
244.465	84.56
244.699	84.56
244.932	74.56
245.166	83.56
245.399	64.56
245.633	76.56
245.866	81.56
246.099	81.56
246.333	87.56
246.566	70.56
246.8	71.56
247.033	74.56
247.266	73.56
247.5	81.56
247.733	72.56
247.966	74.56
248.2	82.56
248.433	84.56
248.666	81.56
248.899	80.56
249.133	74.56
249.366	71.56
249.599	73.56
249.832	68.56
250.066	73.56
250.299	85.56
250.532	65.56
250.765	83.56
250.998	84.56
251.231	74.56
251.465	84.56
251.698	71.56
251.931	63.56
252.164	68.56
252.397	75.56
252.63	77.56
252.863	70.56
253.096	75.56
253.329	80.56
253.562	79.56
253.795	85.56
254.028	75.56
254.261	82.56
254.494	67.56
254.727	87.56
254.96	73.56
255.193	73.56
255.426	72.56
255.659	84.56
255.892	79.56
256.124	84.56
256.357	90.56
256.59	79.56
256.823	70.56
257.056	77.56
257.289	77.56
257.521	72.56
257.754	73.56
257.987	76.56
258.22	79.56
258.452	78.56
258.685	79.56
258.918	78.56
259.151	65.56
259.383	73.56
259.616	98.56
259.849	95.56
260.081	78.56
260.314	91.56
260.547	78.56
260.779	68.56
261.012	76.56
261.244	88.56
261.477	92.56
261.71	79.56
261.942	87.56
262.175	80.56
262.407	88.56
262.64	81.56
262.872	84.56
263.105	66.56
263.337	89.56
263.57	85.56
263.802	90.56
264.035	93.56
264.267	79.56
264.499	74.56
264.732	69.56
264.964	90.56
265.197	80.56
265.429	92.56
265.661	95.56
265.894	75.56
266.126	81.56
266.358	82.56
266.591	76.56
266.823	74.56
267.055	84.56
267.287	91.56
267.52	74.56
267.752	79.56
267.984	84.56
268.216	82.56
268.448	82.56
268.681	83.56
268.913	86.56
269.145	82.56
269.377	89.56
269.609	76.56
269.841	95.56
270.073	87.56
270.306	93.56
270.538	95.56
270.77	83.56
271.002	75.56
271.234	81.56
271.466	77.56
271.698	95.56
271.93	63.56
272.162	77.56
272.394	103.56
272.626	79.56
272.858	86.56
273.09	91.56
273.322	61.56
273.553	80.56
273.785	81.56
274.017	78.56
274.249	71.56
274.481	69.56
274.713	66.56
274.945	76.56
275.176	90.56
275.408	81.56
275.64	88.56
275.872	87.56
276.104	83.56
276.335	89.56
276.567	86.56
276.799	85.56
277.031	93.56
277.262	74.56
277.494	87.56
277.726	93.56
277.957	81.56
278.189	79.56
278.421	94.56
278.652	75.56
278.884	81.56
279.115	73.56
279.347	74.56
279.579	73.56
279.81	67.56
280.042	72.56
280.273	82.56
280.505	81.56
280.736	76.56
280.968	83.56
281.199	82.56
281.431	81.56
281.662	86.56
281.894	82.56
282.125	82.56
282.356	89.56
282.588	75.56
282.819	81.56
283.051	73.56
283.282	76.56
283.513	83.56
283.745	95.56
283.976	80.56
284.207	76.56
284.439	75.56
284.67	90.56
284.901	81.56
285.132	87.56
285.364	81.56
285.595	92.56
285.826	91.56
286.057	81.56
286.288	76.56
286.52	84.56
286.751	84.56
286.982	87.56
287.213	78.56
287.444	87.56
287.675	81.56
287.906	77.56
288.138	77.56
288.369	70.56
288.6	76.56
288.831	86.56
289.062	86.56
289.293	73.56
289.524	96.56
289.755	83.56
289.986	76.56
290.217	87.56
290.448	77.56
290.679	84.56
290.91	86.56
291.141	94.56
291.371	92.56
291.602	72.56
291.833	89.56
292.064	86.56
292.295	85.56
292.526	66.56
292.757	76.56
292.987	92.56
293.218	64.56
293.449	73.56
293.68	88.56
293.91	81.56
294.141	86.56
294.372	91.56
294.603	84.56
294.833	95.56
295.064	84.56
295.295	83.56
295.525	91.56
295.756	76.56
295.987	85.56
296.217	78.56
296.448	98.56
296.679	69.56
296.909	92.56
297.14	59.56
297.37	77.56
297.601	94.56
297.831	92.56
298.062	83.56
298.292	88.56
298.523	61.56
298.753	80.56
298.984	76.56
299.214	82.56
299.445	83.56
299.675	81.56
299.905	74.56
300.136	84.56
300.366	74.56
300.597	73.56
300.827	80.56
301.057	78.56
301.288	76.56
301.518	68.56
301.748	81.56
301.979	84.56
302.209	75.56
302.439	91.56
302.669	88.56
302.9	84.56
303.13	72.56
303.36	87.56
303.59	79.56
303.82	81.56
304.051	83.56
304.281	85.56
304.511	75.56
304.741	98.56
304.971	87.56
305.201	78.56
305.431	93.56
305.661	71.56
305.891	73.56
306.121	85.56
306.352	83.56
306.582	71.56
306.812	75.56
307.042	81.56
307.272	78.56
307.502	72.56
307.731	76.56
307.961	83.56
308.191	81.56
308.421	84.56
308.651	85.56
308.881	85.56
309.111	86.56
309.341	93.56
309.571	83.56
309.8	75.56
310.03	88.56
310.26	87.56
310.49	85.56
310.72	83.56
310.949	73.56
311.179	70.56
311.409	72.56
311.639	76.56
311.868	80.56
312.098	91.56
312.328	81.56
312.557	84.56
312.787	86.56
313.017	81.56
313.246	83.56
313.476	77.56
313.706	84.56
313.935	96.56
314.165	80.56
314.394	77.56
314.624	86.56
314.853	75.56
315.083	83.56
315.312	88.56
315.542	84.56
315.771	74.56
316.001	87.56
316.23	78.56
316.46	90.56
316.689	86.56
316.919	83.56
317.148	82.56
317.377	82.56
317.607	95.56
317.836	97.56
318.065	89.56
318.295	83.56
318.524	89.56
318.753	86.56
318.983	85.56
319.212	85.56
319.441	85.56
319.67	72.56
319.9	85.56
320.129	83.56
320.358	83.56
320.587	84.56
320.816	82.56
321.046	84.56
321.275	74.56
321.504	83.56
321.733	90.56
321.962	96.56
322.191	89.56
322.42	96.56
322.649	75.56
322.878	75.56
323.108	80.56
323.337	81.56
323.566	63.56
323.795	82.56
324.024	86.56
324.253	88.56
324.482	80.56
324.71	73.56
324.939	83.56
325.168	96.56
325.397	96.56
325.626	67.56
325.855	88.56
326.084	76.56
326.313	79.56
326.542	99.56
326.77	97.56
326.999	83.56
327.228	88.56
327.457	75.56
327.686	89.56
327.914	92.56
328.143	77.56
328.372	87.56
328.6	88.56
328.829	82.56
329.058	78.56
329.287	87.56
329.515	76.56
329.744	78.56
329.972	84.56
330.201	70.56
330.43	83.56
330.658	88.56
330.887	67.56
331.115	85.56
331.344	86.56
331.572	91.56
331.801	99.56
332.03	98.56
332.258	79.56
332.486	70.56
332.715	85.56
332.943	76.56
333.172	91.56
333.4	83.56
333.629	83.56
333.857	75.56
334.085	77.56
334.314	80.56
334.542	71.56
334.771	90.56
334.999	92.56
335.227	83.56
335.455	87.56
335.684	89.56
335.912	85.56
336.14	82.56
336.369	78.56
336.597	88.56
336.825	76.56
337.053	91.56
337.281	75.56
337.51	74.56
337.738	87.56
337.966	73.56
338.194	84.56
338.422	83.56
338.65	72.56
338.878	82.56
339.106	65.56
339.334	80.56
339.562	95.56
339.79	92.56
340.018	90.56
340.246	70.56
340.474	92.56
340.702	86.56
340.93	83.56
341.158	77.56
341.386	74.56
341.614	97.56
341.842	98.56
342.07	88.56
342.298	73.56
342.526	88.56
342.754	97.56
342.981	67.56
343.209	86.56
343.437	78.56
343.665	84.56
343.893	74.56
344.12	94.56
344.348	82.56
344.576	89.56
344.804	85.56
345.031	77.56
345.259	83.56
345.487	80.56
345.714	83.56
345.942	90.56
346.17	83.56
346.397	82.56
346.625	80.56
346.853	84.56
347.08	94.56
347.308	83.56
347.535	75.56
347.763	93.56
347.99	73.56
348.218	83.56
348.445	71.56
348.673	83.56
348.9	96.56
349.128	85.56
349.355	75.56
349.583	87.56
349.81	76.56
350.037	87.56
350.265	83.56
350.492	87.56
350.72	89.56
350.947	89.56
351.174	84.56
351.402	75.56
351.629	73.56
351.856	82.56
352.083	92.56
352.311	85.56
352.538	79.56
352.765	74.56
352.992	80.56
353.22	84.56
353.447	79.56
353.674	81.56
353.901	90.56
354.128	98.56
354.355	86.56
354.583	89.56
354.81	86.56
355.037	88.56
355.264	77.56
355.491	77.56
355.718	72.56
355.945	85.56
356.172	92.56
356.399	81.56
356.626	85.56
356.853	80.56
357.08	85.56
357.307	91.56
357.534	88.56
357.761	81.56
357.988	80.56
358.215	84.56
358.441	77.56
358.668	74.56
358.895	77.56
359.122	79.56
359.349	86.56
359.576	77.56
359.802	98.56
360.029	75.56
360.256	82.56
360.483	85.56
360.709	93.56
360.936	82.56
361.163	87.56
361.39	86.56
361.616	87.56
361.843	71.56
362.07	97.56
362.296	79.56
362.523	94.56
362.749	71.56
362.976	72.56
363.203	85.56
363.429	82.56
363.656	78.56
363.882	88.56
364.109	77.56
364.335	77.56
364.562	78.56
364.788	88.56
365.015	82.56
365.241	94.56
365.468	75.56
365.694	74.56
365.92	84.56
366.147	81.56
366.373	72.56
366.599	85.56
366.826	80.56
367.052	75.56
367.278	103.56
367.505	90.56
367.731	80.56
367.957	86.56
368.184	83.56
368.41	92.56
368.636	70.56
368.862	85.56
369.089	92.56
369.315	80.56
369.541	86.56
369.767	106.56
369.993	94.56
370.219	78.56
370.445	69.56
370.672	84.56
370.898	89.56
371.124	99.56
371.35	97.56
371.576	92.56
371.802	88.56
372.028	78.56
372.254	78.56
372.48	81.56
372.706	92.56
372.932	70.56
373.158	70.56
373.384	85.56
373.61	96.56
373.835	83.56
374.061	84.56
374.287	85.56
374.513	89.56
374.739	97.56
374.965	95.56
375.191	93.56
375.416	87.56
375.642	87.56
375.868	98.56
376.094	80.56
376.319	78.56
376.545	85.56
376.771	85.56
376.997	83.56
377.222	75.56
377.448	96.56
377.674	98.56
377.899	84.56
378.125	83.56
378.35	71.56
378.576	79.56
378.802	85.56
379.027	99.56
379.253	101.56
379.478	83.56
379.704	92.56
379.929	101.56
380.155	93.56
380.38	101.56
380.606	103.56
380.831	94.56
381.057	102.56
381.282	87.56
381.507	86.56
381.733	116.56
381.958	99.56
382.184	101.56
382.409	101.56
382.634	97.56
382.86	85.56
383.085	95.56
383.31	85.56
383.535	84.56
383.761	103.56
383.986	87.56
384.211	87.56
384.436	104.56
384.662	96.56
384.887	98.56
385.112	92.56
385.337	98.56
385.562	103.56
385.787	79.56
386.013	92.56
386.238	105.56
386.463	92.56
386.688	89.56
386.913	90.56
387.138	87.56
387.363	78.56
387.588	86.56
387.813	77.56
388.038	98.56
388.263	96.56
388.488	91.56
388.713	99.56
388.938	100.56
389.163	84.56
389.387	96.56
389.612	90.56
389.837	95.56
390.062	104.56
390.287	113.56
390.512	105.56
390.736	81.56
390.961	106.56
391.186	106.56
391.411	114.56
391.636	99.56
391.86	103.56
392.085	107.56
392.31	83.56
392.534	91.56
392.759	94.56
392.984	97.56
393.208	89.56
393.433	97.56
393.658	105.56
393.882	97.56
394.107	98.56
394.331	96.56
394.556	114.56
394.78	105.56
395.005	94.56
395.229	85.56
395.454	115.56
395.678	115.56
395.903	122.56
396.127	104.56
396.352	102.56
396.576	106.56
396.801	105.56
397.025	102.56
397.249	98.56
397.474	98.56
397.698	85.56
397.922	91.56
398.147	102.56
398.371	106.56
398.595	117.56
398.82	96.56
399.044	103.56
399.268	102.56
399.492	111.56
399.717	96.56
399.941	99.56
400.165	116.56
400.389	111.56
400.613	120.56
400.837	127.56
401.062	117.56
401.286	93.56
401.51	103.56
401.734	106.56
401.958	111.56
402.182	113.56
402.406	120.56
402.63	115.56
402.854	116.56
403.078	119.56
403.302	94.56
403.526	106.56
403.75	116.56
403.974	104.56
404.198	106.56
404.422	105.56
404.645	115.56
404.869	120.56
405.093	102.56
405.317	103.56
405.541	109.56
405.765	121.56
405.988	113.56
406.212	125.56
406.436	102.56
406.66	115.56
406.883	118.56
407.107	110.56
407.331	107.56
407.555	126.56
407.778	115.56
408.002	119.56
408.226	103.56
408.449	121.56
408.673	120.56
408.896	117.56
409.12	105.56
409.344	122.56
409.567	121.56
409.791	111.56
410.014	122.56
410.238	124.56
410.461	112.56
410.685	116.56
410.908	108.56
411.132	116.56
411.355	113.56
411.578	116.56
411.802	117.56
412.025	117.56
412.249	124.56
412.472	109.56
412.695	119.56
412.919	129.56
413.142	124.56
413.365	125.56
413.589	94.56
413.812	116.56
414.035	122.56
414.258	116.56
414.482	125.56
414.705	117.56
414.928	107.56
415.151	124.56
415.374	123.56
415.597	127.56
415.821	129.56
416.044	120.56
416.267	127.56
416.49	116.56
416.713	121.56
416.936	115.56
417.159	123.56
417.382	99.56
417.605	113.56
417.828	129.56
418.051	146.56
418.274	115.56
418.497	127.56
418.72	124.56
418.943	128.56
419.166	128.56
419.389	122.56
419.611	123.56
419.834	128.56
420.057	147.56
420.28	129.56
420.503	119.56
420.726	119.56
420.948	128.56
421.171	135.56
421.394	139.56
421.617	137.56
421.839	123.56
422.062	120.56
422.285	131.56
422.507	133.56
422.73	126.56
422.953	115.56
423.175	101.56
423.398	123.56
423.621	121.56
423.843	139.56
424.066	118.56
424.288	141.56
424.511	137.56
424.733	137.56
424.956	128.56
425.178	122.56
425.401	145.56
425.623	141.56
425.846	114.56
426.068	125.56
426.291	129.56
426.513	128.56
426.735	134.56
426.958	124.56
427.18	131.56
427.402	120.56
427.625	143.56
427.847	115.56
428.069	122.56
428.292	125.56
428.514	132.56
428.736	122.56
428.958	127.56
429.181	117.56
429.403	136.56
429.625	120.56
429.847	112.56
430.069	113.56
430.292	131.56
430.514	117.56
430.736	138.56
430.958	121.56
431.18	117.56
431.402	115.56
431.624	105.56
431.846	111.56
432.068	107.56
432.29	83.56
432.512	117.56
432.734	113.56
432.956	135.56
433.178	122.56
433.4	126.56
433.622	127.56
433.844	131.56
434.066	123.56
434.287	108.56
434.509	91.56
434.731	115.56
434.953	99.56
435.175	121.56
435.397	122.56
435.618	116.56
435.84	128.56
436.062	108.56
436.284	122.56
436.505	122.56
436.727	122.56
436.949	131.56
437.17	125.56
437.392	129.56
437.614	128.56
437.835	120.56
438.057	124.56
438.278	108.56
438.5	136.56
438.721	135.56
438.943	126.56
439.165	128.56
439.386	131.56
439.608	126.56
439.829	138.56
440.05	124.56
440.272	142.56
440.493	139.56
440.715	112.56
440.936	121.56
441.158	136.56
441.379	146.56
441.6	147.56
441.822	148.56
442.043	134.56
442.264	136.56
442.486	140.56
442.707	137.56
442.928	138.56
443.149	131.56
443.371	138.56
443.592	146.56
443.813	136.56
444.034	117.56
444.255	144.56
444.476	138.56
444.698	139.56
444.919	132.56
445.14	264.56
445.361	205.56
445.582	147.56
445.803	131.56
446.024	163.56
446.245	156.56
446.466	145.56
446.687	143.56
446.908	157.56
447.129	154.56
447.35	155.56
447.571	153.56
447.792	140.56
448.013	156.56
448.234	140.56
448.455	138.56
448.675	131.56
448.896	127.56
449.117	140.56
449.338	137.56
449.559	139.56
449.779	125.56
450	148.56
450.221	130.56
450.442	132.56
450.662	138.56
450.883	128.56
451.104	122.56
451.324	126.56
451.545	128.56
451.766	133.56
451.986	128.56
452.207	133.56
452.428	121.56
452.648	124.56
452.869	113.56
453.089	99.56
453.31	100.56
453.53	106.56
453.751	120.56
453.971	104.56
454.192	101.56
454.412	100.56
454.633	114.56
454.853	123.56
455.073	97.56
455.294	121.56
455.514	113.56
455.734	124.56
455.955	123.56
456.175	113.56
456.395	95.56
456.616	114.56
456.836	132.56
457.056	95.56
457.276	111.56
457.497	106.56
457.717	94.56
457.937	114.56
458.157	111.56
458.377	115.56
458.598	89.56
458.818	86.56
459.038	89.56
459.258	92.56
459.478	75.56
459.698	87.56
459.918	95.56
460.138	97.56
460.358	107.56
460.578	130.56
460.798	119.56
461.018	114.56
461.238	120.56
461.458	103.56
461.678	109.56
461.898	108.56
462.118	106.56
462.338	113.56
462.558	115.56
462.777	114.56
462.997	110.56
463.217	108.56
463.437	93.56
463.657	111.56
463.876	105.56
464.096	102.56
464.316	102.56
464.536	104.56
464.755	117.56
464.975	108.56
465.195	118.56
465.414	121.56
465.634	119.56
465.854	123.56
466.073	116.56
466.293	128.56
466.512	126.56
466.732	120.56
466.951	133.56
467.171	117.56
467.391	125.56
467.61	126.56
467.829	123.56
468.049	141.56
468.268	139.56
468.488	121.56
468.707	112.56
468.927	141.56
469.146	130.56
469.365	125.56
469.585	135.56
469.804	137.56
470.023	138.56
470.243	104.56
470.462	129.56
470.681	139.56
470.901	126.56
471.12	145.56
471.339	147.56
471.558	131.56
471.777	118.56
471.997	129.56
472.216	134.56
472.435	123.56
472.654	113.56
472.873	121.56
473.092	123.56
473.311	107.56
473.53	124.56
473.749	126.56
473.968	125.56
474.187	103.56
474.406	114.56
474.625	137.56
474.844	145.56
475.063	127.56
475.282	114.56
475.501	129.56
475.72	130.56
475.939	120.56
476.158	122.56
476.377	121.56
476.596	123.56
476.814	118.56
477.033	96.56
477.252	115.56
477.471	125.56
477.69	128.56
477.908	128.56
478.127	130.56
478.346	136.56
478.564	131.56
478.783	121.56
479.002	131.56
479.22	129.56
479.439	136.56
479.658	125.56
479.876	99.56
480.095	116.56
480.313	103.56
480.532	118.56
480.751	106.56
480.969	86.56
481.188	94.56
481.406	74.56
481.624	89.56
481.843	86.56
482.061	95.56
482.28	106.56
482.498	127.56
482.717	96.56
482.935	120.56
483.153	127.56
483.372	140.56
483.59	145.56
483.808	145.56
484.027	137.56
484.245	131.56
484.463	143.56
484.681	160.56
484.9	137.56
485.118	129.56
485.336	115.56
485.554	99.56
485.772	101.56
485.99	112.56
486.209	97.56
486.427	104.56
486.645	103.56
486.863	114.56
487.081	135.56
487.299	120.56
487.517	137.56
487.735	165.56
487.953	183.56
488.171	179.56
488.389	180.56
488.607	143.56
488.825	144.56
489.043	131.56
489.261	137.56
489.479	131.56
489.696	135.56
489.914	152.56
490.132	133.56
490.35	160.56
490.568	140.56
490.786	161.56
491.003	171.56
491.221	177.56
491.439	191.56
491.657	177.56
491.874	200.56
492.092	225.56
492.31	250.56
492.527	230.56
492.745	185.56
492.963	200.56
493.18	190.56
493.398	179.56
493.615	173.56
493.833	170.56
494.05	154.56
494.268	173.56
494.485	159.56
494.703	165.56
494.92	170.56
495.138	154.56
495.355	162.56
495.573	171.56
495.79	163.56
496.008	160.56
496.225	171.56
496.442	153.56
496.66	149.56
496.877	164.56
497.094	175.56
497.312	166.56
497.529	147.56
497.746	149.56
497.963	135.56
498.181	121.56
498.398	132.56
498.615	125.56
498.832	121.56
499.049	107.56
499.267	115.56
499.484	129.56
499.701	130.56
499.918	134.56
500.135	131.56
500.352	158.56
500.569	138.56
500.786	140.56
501.003	146.56
501.22	137.56
501.437	121.56
501.654	127.56
501.871	132.56
502.088	124.56
502.305	121.56
502.522	129.56
502.739	115.56
502.956	116.56
503.172	122.56
503.389	116.56
503.606	118.56
503.823	127.56
504.04	119.56
504.256	116.56
504.473	119.56
504.69	106.56
504.907	115.56
505.123	113.56
505.34	107.56
505.557	117.56
505.773	117.56
505.99	122.56
506.207	117.56
506.423	108.56
506.64	117.56
506.856	106.56
507.073	123.56
507.289	122.56
507.506	121.56
507.722	109.56
507.939	108.56
508.155	106.56
508.372	112.56
508.588	113.56
508.805	113.56
509.021	104.56
509.238	105.56
509.454	100.56
509.67	90.56
509.887	97.56
510.103	98.56
510.319	84.56
510.536	94.56
510.752	91.56
510.968	74.56
511.184	89.56
511.401	89.56
511.617	82.56
511.833	98.56
512.049	103.56
512.265	94.56
512.481	85.56
512.698	94.56
512.914	88.56
513.13	90.56
513.346	83.56
513.562	104.56
513.778	105.56
513.994	91.56
514.21	88.56
514.426	102.56
514.642	94.56
514.858	81.56
515.074	96.56
515.29	84.56
515.506	85.56
515.721	82.56
515.937	90.56
516.153	97.56
516.369	85.56
516.585	94.56
516.801	94.56
517.016	99.56
517.232	85.56
517.448	83.56
517.664	71.56
517.879	99.56
518.095	96.56
518.311	93.56
518.527	85.56
518.742	91.56
518.958	99.56
519.173	98.56
519.389	121.56
519.605	107.56
519.82	118.56
520.036	101.56
520.251	105.56
520.467	109.56
520.682	103.56
520.898	91.56
521.113	89.56
521.329	83.56
521.544	89.56
521.76	94.56
521.975	91.56
522.19	89.56
522.406	104.56
522.621	98.56
522.836	95.56
523.052	96.56
523.267	95.56
523.482	120.56
523.698	123.56
523.913	106.56
524.128	108.56
524.343	89.56
524.559	113.56
524.774	119.56
524.989	128.56
525.204	113.56
525.419	122.56
525.634	116.56
525.849	96.56
526.064	108.56
526.28	87.56
526.495	83.56
526.71	85.56
526.925	90.56
527.14	75.56
527.355	75.56
527.57	83.56
527.785	78.56
527.999	98.56
528.214	93.56
528.429	113.56
528.644	116.56
528.859	129.56
529.074	145.56
529.289	150.56
529.503	133.56
529.718	122.56
529.933	119.56
530.148	101.56
530.363	87.56
530.577	76.56
530.792	72.56
531.007	68.56
531.221	89.56
531.436	72.56
531.651	86.56
531.865	85.56
532.08	81.56
532.295	90.56
532.509	80.56
532.724	77.56
532.938	90.56
533.153	97.56
533.367	113.56
533.582	120.56
533.796	131.56
534.011	104.56
534.225	101.56
534.44	88.56
534.654	89.56
534.868	81.56
535.083	95.56
535.297	101.56
535.511	117.56
535.726	106.56
535.94	104.56
536.154	96.56
536.369	87.56
536.583	91.56
536.797	85.56
537.011	85.56
537.225	89.56
537.44	91.56
537.654	106.56
537.868	93.56
538.082	89.56
538.296	82.56
538.51	104.56
538.724	94.56
538.938	117.56
539.153	133.56
539.367	125.56
539.581	119.56
539.795	111.56
540.009	85.56
540.222	101.56
540.436	101.56
540.65	112.56
540.864	119.56
541.078	129.56
541.292	139.56
541.506	153.56
541.72	171.56
541.934	173.56
542.147	181.56
542.361	189.56
542.575	175.56
542.789	143.56
543.002	128.56
543.216	123.56
543.43	119.56
543.644	130.56
543.857	139.56
544.071	155.56
544.285	157.56
544.498	157.56
544.712	147.56
544.925	141.56
545.139	159.56
545.352	147.56
545.566	154.56
545.779	150.56
545.993	155.56
546.206	169.56
546.42	161.56
546.633	172.56
546.847	169.56
547.06	164.56
547.274	164.56
547.487	170.56
547.7	173.56
547.914	152.56
548.127	152.56
548.34	160.56
548.554	152.56
548.767	158.56
548.98	164.56
549.193	140.56
549.407	155.56
549.62	146.56
549.833	135.56
550.046	156.56
550.259	148.56
550.473	147.56
550.686	161.56
550.899	139.56
551.112	133.56
551.325	126.56
551.538	123.56
551.751	127.56
551.964	119.56
552.177	123.56
552.39	131.56
552.603	138.56
552.816	140.56
553.029	146.56
553.242	165.56
553.455	156.56
553.667	157.56
553.88	153.56
554.093	151.56
554.306	172.56
554.519	137.56
554.732	164.56
554.944	135.56
555.157	147.56
555.37	143.56
555.583	139.56
555.795	141.56
556.008	138.56
556.221	139.56
556.433	139.56
556.646	138.56
556.859	133.56
557.071	131.56
557.284	138.56
557.496	146.56
557.709	138.56
557.921	131.56
558.134	151.56
558.346	135.56
558.559	125.56
558.771	143.56
558.984	133.56
559.196	129.56
559.409	120.56
559.621	127.56
559.833	126.56
560.046	112.56
560.258	125.56
560.47	127.56
560.683	137.56
560.895	129.56
561.107	132.56
561.32	132.56
561.532	141.56
561.744	118.56
561.956	124.56
562.168	137.56
562.381	121.56
562.593	114.56
562.805	116.56
563.017	120.56
563.229	129.56
563.441	116.56
563.653	114.56
563.865	116.56
564.077	108.56
564.289	135.56
564.501	115.56
564.713	119.56
564.925	106.56
565.137	107.56
565.349	115.56
565.561	116.56
565.773	119.56
565.985	118.56
566.197	124.56
566.408	117.56
566.62	116.56
566.832	112.56
567.044	130.56
567.255	127.56
567.467	120.56
567.679	102.56
567.891	105.56
568.102	109.56
568.314	91.56
568.526	81.56
568.737	99.56
568.949	85.56
569.161	84.56
569.372	82.56
569.584	92.56
569.795	81.56
570.007	90.56
570.218	95.56
570.43	99.56
570.641	96.56
570.853	98.56
571.064	101.56
571.276	108.56
571.487	97.56
571.698	103.56
571.91	118.56
572.121	108.56
572.333	101.56
572.544	97.56
572.755	84.56
572.966	96.56
573.178	75.56
573.389	86.56
573.6	75.56
573.811	84.56
574.023	82.56
574.234	89.56
574.445	102.56
574.656	87.56
574.867	80.56
575.078	81.56
575.289	97.56
575.501	99.56
575.712	81.56
575.923	103.56
576.134	102.56
576.345	115.56
576.556	102.56
576.767	101.56
576.978	92.56
577.188	89.56
577.399	89.56
577.61	96.56
577.821	88.56
578.032	80.56
578.243	93.56
578.454	98.56
578.665	91.56
578.875	93.56
579.086	72.56
579.297	85.56
579.508	88.56
579.718	96.56
579.929	79.56
580.14	85.56
580.35	92.56
580.561	75.56
580.772	86.56
580.982	97.56
581.193	84.56
581.403	83.56
581.614	85.56
581.825	105.56
582.035	88.56
582.246	103.56
582.456	79.56
582.667	93.56
582.877	103.56
583.087	88.56
583.298	91.56
583.508	83.56
583.719	83.56
583.929	93.56
584.139	73.56
584.35	77.56
584.56	79.56
584.77	88.56
584.981	91.56
585.191	87.56
585.401	76.56
585.611	77.56
585.821	99.56
586.032	93.56
586.242	90.56
586.452	83.56
586.662	92.56
586.872	77.56
587.082	90.56
587.292	76.56
587.502	84.56
587.713	76.56
587.923	79.56
588.133	83.56
588.343	80.56
588.553	74.56
588.762	74.56
588.972	78.56
589.182	80.56
589.392	91.56
589.602	73.56
589.812	76.56
590.022	78.56
590.232	94.56
590.441	75.56
590.651	92.56
590.861	83.56
591.071	84.56
591.281	88.56
591.49	82.56
591.7	92.56
591.91	69.56
592.119	63.56
592.329	103.56
592.539	81.56
592.748	90.56
592.958	71.56
593.167	88.56
593.377	83.56
593.587	93.56
593.796	92.56
594.006	85.56
594.215	72.56
594.424	91.56
594.634	84.56
594.843	95.56
595.053	101.56
595.262	105.56
595.472	98.56
595.681	91.56
595.89	84.56
596.1	87.56
596.309	93.56
596.518	89.56
596.727	83.56
596.937	99.56
597.146	95.56
597.355	88.56
597.564	100.56
597.774	87.56
597.983	84.56
598.192	87.56
598.401	75.56
598.61	91.56
598.819	85.56
599.028	97.56
599.237	96.56
599.446	88.56
599.655	84.56
599.864	79.56
600.073	86.56
600.282	91.56
600.491	91.56
600.7	90.56
600.909	104.56
601.118	95.56
601.327	107.56
601.536	93.56
601.745	108.56
601.953	101.56
602.162	106.56
602.371	100.56
602.58	103.56
602.789	90.56
602.997	104.56
603.206	121.56
603.415	100.56
603.623	104.56
603.832	111.56
604.041	102.56
604.249	114.56
604.458	114.56
604.666	93.56
604.875	91.56
605.084	97.56
605.292	96.56
605.501	118.56
605.709	104.56
605.918	102.56
606.126	114.56
606.334	107.56
606.543	112.56
606.751	120.56
606.96	98.56
607.168	104.56
607.376	104.56
607.585	105.56
607.793	108.56
608.001	93.56
608.21	100.56
608.418	106.56
608.626	112.56
608.834	124.56
609.043	122.56
609.251	124.56
609.459	109.56
609.667	124.56
609.875	129.56
610.083	108.56
610.291	113.56
610.499	95.56
610.707	113.56
610.916	112.56
611.124	112.56
611.332	110.56
611.54	112.56
611.748	97.56
611.955	119.56
612.163	113.56
612.371	107.56
612.579	104.56
612.787	107.56
612.995	113.56
613.203	109.56
613.411	101.56
613.618	102.56
613.826	113.56
614.034	113.56
614.242	112.56
614.449	118.56
614.657	91.56
614.865	105.56
615.072	105.56
615.28	101.56
615.488	99.56
615.695	111.56
615.903	111.56
616.111	107.56
616.318	111.56
616.526	103.56
616.733	98.56
616.941	106.56
617.148	101.56
617.356	92.56
617.563	117.56
617.771	95.56
617.978	97.56
618.185	104.56
618.393	98.56
618.6	116.56
618.807	107.56
619.015	97.56
619.222	102.56
619.429	105.56
619.637	116.56
619.844	108.56
620.051	96.56
620.258	105.56
620.466	100.56
620.673	107.56
620.88	97.56
621.087	111.56
621.294	108.56
621.501	90.56
621.708	102.56
621.915	105.56
622.122	111.56
622.329	113.56
622.536	111.56
622.743	112.56
622.95	94.56
623.157	100.56
623.364	117.56
623.571	95.56
623.778	108.56
623.985	104.56
624.192	97.56
624.399	102.56
624.606	98.56
624.812	99.56
625.019	99.56
625.226	102.56
625.433	87.56
625.639	99.56
625.846	93.56
626.053	95.56
626.259	99.56
626.466	94.56
626.673	83.56
626.879	89.56
627.086	96.56
627.293	107.56
627.499	99.56
627.706	107.56
627.912	94.56
628.119	105.56
628.325	99.56
628.532	111.56
628.738	101.56
628.945	79.56
629.151	97.56
629.357	99.56
629.564	98.56
629.77	111.56
629.976	104.56
630.183	107.56
630.389	83.56
630.595	99.56
630.802	90.56
631.008	111.56
631.214	102.56
631.42	104.56
631.627	96.56
631.833	97.56
632.039	122.56
632.245	103.56
632.451	85.56
632.657	112.56
632.863	89.56
633.069	113.56
633.275	91.56
633.481	95.56
633.688	87.56
633.893	99.56
634.099	100.56
634.305	107.56
634.511	92.56
634.717	105.56
634.923	68.56
635.129	97.56
635.335	93.56
635.541	97.56
635.747	99.56
635.952	88.56
636.158	95.56
636.364	106.56
636.57	100.56
636.775	92.56
636.981	107.56
637.187	93.56
637.392	96.56
637.598	102.56
637.804	115.56
638.009	93.56
638.215	96.56
638.421	105.56
638.626	90.56
638.832	108.56
639.037	99.56
639.243	86.56
639.448	81.56
639.654	101.56
639.859	107.56
640.065	87.56
640.27	89.56
640.475	99.56
640.681	101.56
640.886	106.56
641.091	99.56
641.297	92.56
641.502	108.56
641.707	99.56
641.913	97.56
642.118	109.56
642.323	100.56
642.528	98.56
642.733	105.56
642.939	86.56
643.144	103.56
643.349	96.56
643.554	85.56
643.759	106.56
643.964	98.56
644.169	91.56
644.374	91.56
644.579	103.56
644.784	97.56
644.989	106.56
645.194	101.56
645.399	89.56
645.604	86.56
645.809	111.56
646.014	105.56
646.219	103.56
646.423	94.56
646.628	99.56
646.833	92.56
647.038	93.56
647.243	100.56
647.447	88.56
647.652	102.56
647.857	88.56
648.062	95.56
648.266	96.56
648.471	110.56
648.676	90.56
648.88	85.56
649.085	87.56
649.289	92.56
649.494	88.56
649.698	100.56
649.903	102.56
650.107	113.56
650.312	82.56
650.516	92.56
650.721	103.56
650.925	97.56
651.13	90.56
651.334	88.56
651.539	84.56
651.743	91.56
651.947	82.56
652.152	91.56
652.356	87.56
652.56	89.56
652.764	81.56
652.969	78.56
653.173	105.56
653.377	98.56
653.581	107.56
653.785	103.56
653.99	91.56
654.194	90.56
654.398	85.56
654.602	87.56
654.806	82.56
655.01	93.56
655.214	104.56
655.418	84.56
655.622	91.56
655.826	91.56
656.03	91.56
656.234	83.56
656.438	76.56
656.642	60.56
656.846	92.56
657.049	92.56
657.253	76.56
657.457	91.56
657.661	85.56
657.865	92.56
658.068	81.56
658.272	80.56
658.476	84.56
658.68	96.56
658.883	75.56
659.087	81.56
659.291	93.56
659.494	83.56
659.698	82.56
659.901	100.56
660.105	77.56
660.309	91.56
660.512	102.56
660.716	95.56
660.919	91.56
661.123	84.56
661.326	84.56
661.53	84.56
661.733	93.56
661.936	83.56
662.14	80.56
662.343	87.56
662.546	72.56
662.75	72.56
662.953	76.56
663.156	76.56
663.36	76.56
663.563	84.56
663.766	90.56
663.969	81.56
664.173	77.56
664.376	75.56
664.579	65.56
664.782	84.56
664.985	86.56
665.188	78.56
665.391	93.56
665.594	71.56
665.797	86.56
666	84.56
666.203	85.56
666.406	91.56
666.609	75.56
666.812	73.56
667.015	77.56
667.218	91.56
667.421	77.56
667.624	85.56
667.827	75.56
668.03	84.56
668.232	85.56
668.435	83.56
668.638	85.56
668.841	87.56
669.043	67.56
669.246	73.56
669.449	69.56
669.651	96.56
669.854	79.56
670.057	88.56
670.259	74.56
670.462	86.56
670.665	88.56
670.867	83.56
671.07	75.56
671.272	84.56
671.475	96.56
671.677	74.56
671.88	79.56
672.082	82.56
672.284	74.56
672.487	88.56
672.689	69.56
672.892	82.56
