Data from Location1.07152019.Energy5.Lamp.07192019.3%Agarose_HRD10591_14-31-12-016.txt Node
Date: Fri Jul 19 14:31:12 EDT 2019
User: cochatt
Spectrometer: HR+D1059
Trigger mode: 1
Integration Time (sec): 1.000000E-1
Scans to average: 1
Electric dark correction enabled: true
Nonlinearity correction enabled: false
Boxcar width: 0
XAxis mode: Wavelengths
Number of Pixels in Spectrum: 2048
>>>>>Begin Spectral Data<<<<<
223.165	0.69
223.4	0.69
223.635	0.69
223.869	-13.31
224.104	-14.31
224.338	-16.31
224.573	-5.31
224.808	-11.31
225.042	-18.31
225.277	-9.31
225.511	10.69
225.746	-2.31
225.98	8.69
226.215	14.69
226.449	9.69
226.683	5.69
226.918	18.69
227.152	21.69
227.387	35.69
227.621	41.69
227.856	35.69
228.09	40.69
228.324	39.69
228.559	46.69
228.793	50.69
229.027	49.69
229.262	56.69
229.496	66.69
229.73	76.69
229.964	73.69
230.199	60.69
230.433	76.69
230.667	65.69
230.901	84.69
231.136	71.69
231.37	68.69
231.604	70.69
231.838	73.69
232.072	77.69
232.306	73.69
232.541	76.69
232.775	76.69
233.009	88.69
233.243	77.69
233.477	87.69
233.711	69.69
233.945	75.69
234.179	73.69
234.413	77.69
234.647	77.69
234.881	76.69
235.115	80.69
235.349	75.69
235.583	78.69
235.817	89.69
236.051	78.69
236.285	78.69
236.519	88.69
236.753	86.69
236.987	84.69
237.221	73.69
237.455	65.69
237.689	81.69
237.922	74.69
238.156	77.69
238.39	74.69
238.624	76.69
238.858	63.69
239.091	77.69
239.325	61.69
239.559	76.69
239.793	81.69
240.027	78.69
240.26	74.69
240.494	67.69
240.728	67.69
240.961	67.69
241.195	76.69
241.429	75.69
241.662	81.69
241.896	67.69
242.13	71.69
242.363	74.69
242.597	73.69
242.83	77.69
243.064	61.69
243.298	71.69
243.531	67.69
243.765	76.69
243.998	79.69
244.232	66.69
244.465	71.69
244.699	74.69
244.932	77.69
245.166	60.69
245.399	78.69
245.633	75.69
245.866	87.69
246.099	102.69
246.333	76.69
246.566	80.69
246.8	67.69
247.033	82.69
247.266	71.69
247.5	78.69
247.733	74.69
247.966	66.69
248.2	66.69
248.433	87.69
248.666	80.69
248.899	73.69
249.133	76.69
249.366	77.69
249.599	80.69
249.832	72.69
250.066	75.69
250.299	68.69
250.532	75.69
250.765	83.69
250.998	73.69
251.231	73.69
251.465	65.69
251.698	68.69
251.931	83.69
252.164	76.69
252.397	94.69
252.63	75.69
252.863	70.69
253.096	91.69
253.329	75.69
253.562	79.69
253.795	69.69
254.028	69.69
254.261	85.69
254.494	94.69
254.727	84.69
254.96	77.69
255.193	79.69
255.426	73.69
255.659	69.69
255.892	85.69
256.124	78.69
256.357	78.69
256.59	82.69
256.823	84.69
257.056	77.69
257.289	83.69
257.521	88.69
257.754	90.69
257.987	75.69
258.22	85.69
258.452	76.69
258.685	76.69
258.918	87.69
259.151	85.69
259.383	68.69
259.616	76.69
259.849	82.69
260.081	81.69
260.314	80.69
260.547	83.69
260.779	83.69
261.012	93.69
261.244	63.69
261.477	83.69
261.71	83.69
261.942	77.69
262.175	73.69
262.407	87.69
262.64	70.69
262.872	86.69
263.105	72.69
263.337	80.69
263.57	87.69
263.802	77.69
264.035	84.69
264.267	72.69
264.499	79.69
264.732	75.69
264.964	76.69
265.197	73.69
265.429	86.69
265.661	84.69
265.894	86.69
266.126	84.69
266.358	83.69
266.591	74.69
266.823	68.69
267.055	80.69
267.287	76.69
267.52	74.69
267.752	77.69
267.984	86.69
268.216	90.69
268.448	90.69
268.681	71.69
268.913	79.69
269.145	79.69
269.377	82.69
269.609	57.69
269.841	85.69
270.073	76.69
270.306	70.69
270.538	73.69
270.77	71.69
271.002	73.69
271.234	78.69
271.466	81.69
271.698	86.69
271.93	79.69
272.162	73.69
272.394	77.69
272.626	84.69
272.858	86.69
273.09	90.69
273.322	57.69
273.553	97.69
273.785	93.69
274.017	78.69
274.249	87.69
274.481	78.69
274.713	75.69
274.945	84.69
275.176	70.69
275.408	82.69
275.64	76.69
275.872	68.69
276.104	89.69
276.335	72.69
276.567	91.69
276.799	93.69
277.031	74.69
277.262	92.69
277.494	96.69
277.726	81.69
277.957	89.69
278.189	73.69
278.421	77.69
278.652	74.69
278.884	87.69
279.115	78.69
279.347	67.69
279.579	85.69
279.81	80.69
280.042	88.69
280.273	77.69
280.505	81.69
280.736	78.69
280.968	81.69
281.199	69.69
281.431	88.69
281.662	92.69
281.894	79.69
282.125	88.69
282.356	75.69
282.588	80.69
282.819	80.69
283.051	86.69
283.282	89.69
283.513	77.69
283.745	76.69
283.976	89.69
284.207	76.69
284.439	75.69
284.67	71.69
284.901	84.69
285.132	75.69
285.364	84.69
285.595	74.69
285.826	70.69
286.057	79.69
286.288	73.69
286.52	93.69
286.751	76.69
286.982	95.69
287.213	85.69
287.444	72.69
287.675	79.69
287.906	71.69
288.138	80.69
288.369	87.69
288.6	73.69
288.831	77.69
289.062	74.69
289.293	69.69
289.524	87.69
289.755	83.69
289.986	73.69
290.217	81.69
290.448	84.69
290.679	77.69
290.91	76.69
291.141	96.69
291.371	74.69
291.602	105.69
291.833	78.69
292.064	81.69
292.295	85.69
292.526	80.69
292.757	67.69
292.987	81.69
293.218	75.69
293.449	82.69
293.68	79.69
293.91	85.69
294.141	96.69
294.372	85.69
294.603	77.69
294.833	99.69
295.064	87.69
295.295	77.69
295.525	77.69
295.756	74.69
295.987	79.69
296.217	67.69
296.448	92.69
296.679	101.69
296.909	88.69
297.14	91.69
297.37	78.69
297.601	86.69
297.831	80.69
298.062	89.69
298.292	77.69
298.523	79.69
298.753	75.69
298.984	75.69
299.214	77.69
299.445	96.69
299.675	70.69
299.905	76.69
300.136	90.69
300.366	85.69
300.597	76.69
300.827	80.69
301.057	79.69
301.288	61.69
301.518	91.69
301.748	80.69
301.979	76.69
302.209	73.69
302.439	92.69
302.669	75.69
302.9	85.69
303.13	72.69
303.36	80.69
303.59	89.69
303.82	87.69
304.051	72.69
304.281	89.69
304.511	69.69
304.741	82.69
304.971	85.69
305.201	97.69
305.431	91.69
305.661	87.69
305.891	81.69
306.121	64.69
306.352	77.69
306.582	61.69
306.812	81.69
307.042	75.69
307.272	79.69
307.502	72.69
307.731	96.69
307.961	96.69
308.191	85.69
308.421	83.69
308.651	78.69
308.881	77.69
309.111	77.69
309.341	71.69
309.571	87.69
309.8	68.69
310.03	73.69
310.26	88.69
310.49	86.69
310.72	79.69
310.949	82.69
311.179	83.69
311.409	67.69
311.639	64.69
311.868	73.69
312.098	76.69
312.328	75.69
312.557	83.69
312.787	67.69
313.017	94.69
313.246	82.69
313.476	80.69
313.706	77.69
313.935	79.69
314.165	79.69
314.394	89.69
314.624	78.69
314.853	73.69
315.083	67.69
315.312	71.69
315.542	80.69
315.771	99.69
316.001	73.69
316.23	78.69
316.46	82.69
316.689	86.69
316.919	83.69
317.148	77.69
317.377	75.69
317.607	87.69
317.836	75.69
318.065	80.69
318.295	100.69
318.524	82.69
318.753	82.69
318.983	91.69
319.212	71.69
319.441	92.69
319.67	89.69
319.9	88.69
320.129	83.69
320.358	70.69
320.587	78.69
320.816	78.69
321.046	75.69
321.275	84.69
321.504	89.69
321.733	77.69
321.962	96.69
322.191	81.69
322.42	82.69
322.649	87.69
322.878	79.69
323.108	92.69
323.337	86.69
323.566	97.69
323.795	85.69
324.024	79.69
324.253	71.69
324.482	92.69
324.71	93.69
324.939	77.69
325.168	83.69
325.397	82.69
325.626	84.69
325.855	76.69
326.084	78.69
326.313	85.69
326.542	95.69
326.77	96.69
326.999	83.69
327.228	83.69
327.457	71.69
327.686	88.69
327.914	76.69
328.143	82.69
328.372	76.69
328.6	77.69
328.829	74.69
329.058	68.69
329.287	90.69
329.515	65.69
329.744	74.69
329.972	78.69
330.201	81.69
330.43	82.69
330.658	71.69
330.887	68.69
331.115	90.69
331.344	76.69
331.572	86.69
331.801	69.69
332.03	83.69
332.258	94.69
332.486	81.69
332.715	85.69
332.943	85.69
333.172	81.69
333.4	78.69
333.629	90.69
333.857	64.69
334.085	63.69
334.314	79.69
334.542	83.69
334.771	83.69
334.999	84.69
335.227	76.69
335.455	71.69
335.684	99.69
335.912	83.69
336.14	86.69
336.369	93.69
336.597	89.69
336.825	85.69
337.053	82.69
337.281	89.69
337.51	82.69
337.738	83.69
337.966	80.69
338.194	92.69
338.422	89.69
338.65	83.69
338.878	84.69
339.106	74.69
339.334	87.69
339.562	66.69
339.79	87.69
340.018	83.69
340.246	79.69
340.474	78.69
340.702	92.69
340.93	87.69
341.158	76.69
341.386	80.69
341.614	100.69
341.842	81.69
342.07	87.69
342.298	97.69
342.526	71.69
342.754	83.69
342.981	72.69
343.209	86.69
343.437	91.69
343.665	89.69
343.893	84.69
344.12	81.69
344.348	76.69
344.576	77.69
344.804	71.69
345.031	86.69
345.259	73.69
345.487	78.69
345.714	84.69
345.942	85.69
346.17	76.69
346.397	73.69
346.625	80.69
346.853	91.69
347.08	65.69
347.308	71.69
347.535	73.69
347.763	69.69
347.99	78.69
348.218	81.69
348.445	97.69
348.673	75.69
348.9	92.69
349.128	85.69
349.355	80.69
349.583	79.69
349.81	79.69
350.037	75.69
350.265	89.69
350.492	87.69
350.72	88.69
350.947	90.69
351.174	68.69
351.402	88.69
351.629	86.69
351.856	89.69
352.083	95.69
352.311	76.69
352.538	96.69
352.765	84.69
352.992	82.69
353.22	69.69
353.447	71.69
353.674	85.69
353.901	84.69
354.128	71.69
354.355	81.69
354.583	73.69
354.81	73.69
355.037	80.69
355.264	77.69
355.491	77.69
355.718	69.69
355.945	91.69
356.172	90.69
356.399	77.69
356.626	71.69
356.853	88.69
357.08	85.69
357.307	76.69
357.534	77.69
357.761	85.69
357.988	88.69
358.215	82.69
358.441	70.69
358.668	87.69
358.895	93.69
359.122	79.69
359.349	81.69
359.576	92.69
359.802	84.69
360.029	91.69
360.256	74.69
360.483	79.69
360.709	90.69
360.936	83.69
361.163	84.69
361.39	68.69
361.616	94.69
361.843	76.69
362.07	91.69
362.296	76.69
362.523	69.69
362.749	84.69
362.976	93.69
363.203	91.69
363.429	72.69
363.656	76.69
363.882	76.69
364.109	95.69
364.335	77.69
364.562	85.69
364.788	80.69
365.015	70.69
365.241	91.69
365.468	92.69
365.694	67.69
365.92	72.69
366.147	88.69
366.373	95.69
366.599	77.69
366.826	100.69
367.052	80.69
367.278	85.69
367.505	93.69
367.731	81.69
367.957	81.69
368.184	91.69
368.41	83.69
368.636	94.69
368.862	87.69
369.089	90.69
369.315	91.69
369.541	101.69
369.767	89.69
369.993	77.69
370.219	95.69
370.445	95.69
370.672	83.69
370.898	89.69
371.124	84.69
371.35	93.69
371.576	106.69
371.802	85.69
372.028	75.69
372.254	102.69
372.48	84.69
372.706	88.69
372.932	82.69
373.158	93.69
373.384	85.69
373.61	87.69
373.835	87.69
374.061	72.69
374.287	78.69
374.513	85.69
374.739	89.69
374.965	81.69
375.191	87.69
375.416	86.69
375.642	92.69
375.868	91.69
376.094	94.69
376.319	79.69
376.545	80.69
376.771	83.69
376.997	87.69
377.222	104.69
377.448	106.69
377.674	80.69
377.899	96.69
378.125	101.69
378.35	89.69
378.576	96.69
378.802	105.69
379.027	74.69
379.253	100.69
379.478	85.69
379.704	81.69
379.929	96.69
380.155	97.69
380.38	75.69
380.606	80.69
380.831	96.69
381.057	90.69
381.282	86.69
381.507	94.69
381.733	95.69
381.958	89.69
382.184	88.69
382.409	90.69
382.634	91.69
382.86	94.69
383.085	85.69
383.31	96.69
383.535	81.69
383.761	91.69
383.986	93.69
384.211	82.69
384.436	107.69
384.662	98.69
384.887	93.69
385.112	89.69
385.337	100.69
385.562	100.69
385.787	96.69
386.013	90.69
386.238	88.69
386.463	101.69
386.688	86.69
386.913	89.69
387.138	89.69
387.363	100.69
387.588	108.69
387.813	93.69
388.038	71.69
388.263	99.69
388.488	92.69
388.713	97.69
388.938	99.69
389.163	98.69
389.387	94.69
389.612	103.69
389.837	87.69
390.062	115.69
390.287	81.69
390.512	91.69
390.736	114.69
390.961	111.69
391.186	107.69
391.411	100.69
391.636	104.69
391.86	111.69
392.085	91.69
392.31	89.69
392.534	96.69
392.759	105.69
392.984	116.69
393.208	103.69
393.433	104.69
393.658	104.69
393.882	96.69
394.107	100.69
394.331	111.69
394.556	101.69
394.78	96.69
395.005	109.69
395.229	97.69
395.454	113.69
395.678	82.69
395.903	114.69
396.127	99.69
396.352	91.69
396.576	104.69
396.801	111.69
397.025	96.69
397.249	105.69
397.474	102.69
397.698	108.69
397.922	113.69
398.147	100.69
398.371	105.69
398.595	101.69
398.82	113.69
399.044	111.69
399.268	109.69
399.492	100.69
399.717	95.69
399.941	112.69
400.165	119.69
400.389	116.69
400.613	97.69
400.837	104.69
401.062	105.69
401.286	119.69
401.51	105.69
401.734	110.69
401.958	101.69
402.182	100.69
402.406	99.69
402.63	113.69
402.854	109.69
403.078	119.69
403.302	111.69
403.526	101.69
403.75	115.69
403.974	111.69
404.198	101.69
404.422	108.69
404.645	111.69
404.869	114.69
405.093	118.69
405.317	106.69
405.541	120.69
405.765	108.69
405.988	111.69
406.212	107.69
406.436	121.69
406.66	128.69
406.883	111.69
407.107	103.69
407.331	127.69
407.555	127.69
407.778	115.69
408.002	101.69
408.226	101.69
408.449	114.69
408.673	112.69
408.896	109.69
409.12	104.69
409.344	117.69
409.567	119.69
409.791	122.69
410.014	108.69
410.238	117.69
410.461	117.69
410.685	123.69
410.908	116.69
411.132	119.69
411.355	105.69
411.578	100.69
411.802	121.69
412.025	121.69
412.249	116.69
412.472	103.69
412.695	119.69
412.919	129.69
413.142	132.69
413.365	141.69
413.589	120.69
413.812	112.69
414.035	114.69
414.258	113.69
414.482	118.69
414.705	104.69
414.928	123.69
415.151	119.69
415.374	130.69
415.597	118.69
415.821	121.69
416.044	115.69
416.267	104.69
416.49	118.69
416.713	123.69
416.936	115.69
417.159	111.69
417.382	127.69
417.605	105.69
417.828	130.69
418.051	117.69
418.274	129.69
418.497	116.69
418.72	121.69
418.943	125.69
419.166	132.69
419.389	125.69
419.611	126.69
419.834	127.69
420.057	141.69
420.28	126.69
420.503	136.69
420.726	115.69
420.948	130.69
421.171	124.69
421.394	122.69
421.617	121.69
421.839	148.69
422.062	124.69
422.285	134.69
422.507	135.69
422.73	121.69
422.953	121.69
423.175	126.69
423.398	117.69
423.621	129.69
423.843	124.69
424.066	115.69
424.288	135.69
424.511	147.69
424.733	135.69
424.956	135.69
425.178	137.69
425.401	127.69
425.623	129.69
425.846	128.69
426.068	130.69
426.291	117.69
426.513	113.69
426.735	121.69
426.958	137.69
427.18	123.69
427.402	120.69
427.625	131.69
427.847	115.69
428.069	112.69
428.292	128.69
428.514	131.69
428.736	115.69
428.958	117.69
429.181	119.69
429.403	127.69
429.625	119.69
429.847	119.69
430.069	116.69
430.292	111.69
430.514	124.69
430.736	129.69
430.958	113.69
431.18	106.69
431.402	109.69
431.624	117.69
431.846	107.69
432.068	77.69
432.29	102.69
432.512	115.69
432.734	119.69
432.956	120.69
433.178	139.69
433.4	131.69
433.622	148.69
433.844	135.69
434.066	113.69
434.287	99.69
434.509	101.69
434.731	105.69
434.953	112.69
435.175	121.69
435.397	122.69
435.618	113.69
435.84	117.69
436.062	94.69
436.284	109.69
436.505	111.69
436.727	129.69
436.949	133.69
437.17	131.69
437.392	125.69
437.614	125.69
437.835	102.69
438.057	117.69
438.278	119.69
438.5	113.69
438.721	129.69
438.943	135.69
439.165	126.69
439.386	128.69
439.608	136.69
439.829	133.69
440.05	149.69
440.272	139.69
440.493	148.69
440.715	137.69
440.936	135.69
441.158	140.69
441.379	129.69
441.6	144.69
441.822	142.69
442.043	136.69
442.264	139.69
442.486	131.69
442.707	138.69
442.928	133.69
443.149	121.69
443.371	134.69
443.592	137.69
443.813	136.69
444.034	125.69
444.255	148.69
444.476	137.69
444.698	139.69
444.919	140.69
445.14	258.69
445.361	187.69
445.582	133.69
445.803	141.69
446.024	145.69
446.245	149.69
446.466	157.69
446.687	156.69
446.908	138.69
447.129	152.69
447.35	141.69
447.571	147.69
447.792	137.69
448.013	140.69
448.234	126.69
448.455	132.69
448.675	125.69
448.896	130.69
449.117	141.69
449.338	140.69
449.559	128.69
449.779	131.69
450	133.69
450.221	128.69
450.442	140.69
450.662	119.69
450.883	128.69
451.104	131.69
451.324	125.69
451.545	108.69
451.766	127.69
451.986	106.69
452.207	125.69
452.428	117.69
452.648	120.69
452.869	119.69
453.089	130.69
453.31	118.69
453.53	109.69
453.751	113.69
453.971	107.69
454.192	109.69
454.412	105.69
454.633	102.69
454.853	118.69
455.073	125.69
455.294	124.69
455.514	115.69
455.734	103.69
455.955	120.69
456.175	115.69
456.395	119.69
456.616	93.69
456.836	105.69
457.056	109.69
457.276	113.69
457.497	109.69
457.717	96.69
457.937	115.69
458.157	107.69
458.377	106.69
458.598	97.69
458.818	86.69
459.038	81.69
459.258	90.69
459.478	83.69
459.698	87.69
459.918	76.69
460.138	101.69
460.358	116.69
460.578	115.69
460.798	104.69
461.018	100.69
461.238	101.69
461.458	115.69
461.678	119.69
461.898	100.69
462.118	118.69
462.338	107.69
462.558	121.69
462.777	115.69
462.997	99.69
463.217	100.69
463.437	92.69
463.657	110.69
463.876	110.69
464.096	127.69
464.316	103.69
464.536	115.69
464.755	116.69
464.975	104.69
465.195	97.69
465.414	122.69
465.634	115.69
465.854	117.69
466.073	128.69
466.293	133.69
466.512	105.69
466.732	119.69
466.951	150.69
467.171	119.69
467.391	133.69
467.61	115.69
467.829	123.69
468.049	131.69
468.268	119.69
468.488	143.69
468.707	136.69
468.927	121.69
469.146	131.69
469.365	129.69
469.585	143.69
469.804	141.69
470.023	151.69
470.243	132.69
470.462	147.69
470.681	142.69
470.901	129.69
471.12	131.69
471.339	135.69
471.558	137.69
471.777	132.69
471.997	124.69
472.216	117.69
472.435	125.69
472.654	103.69
472.873	106.69
473.092	119.69
473.311	129.69
473.53	124.69
473.749	105.69
473.968	115.69
474.187	109.69
474.406	114.69
474.625	122.69
474.844	124.69
475.063	129.69
475.282	129.69
475.501	120.69
475.72	115.69
475.939	98.69
476.158	132.69
476.377	114.69
476.596	120.69
476.814	97.69
477.033	111.69
477.252	133.69
477.471	117.69
477.69	135.69
477.908	135.69
478.127	132.69
478.346	135.69
478.564	116.69
478.783	121.69
479.002	136.69
479.22	145.69
479.439	143.69
479.658	125.69
479.876	102.69
480.095	108.69
480.313	100.69
480.532	137.69
480.751	124.69
480.969	87.69
481.188	101.69
481.406	90.69
481.624	89.69
481.843	83.69
482.061	94.69
482.28	119.69
482.498	96.69
482.717	109.69
482.935	118.69
483.153	132.69
483.372	147.69
483.59	138.69
483.808	137.69
484.027	133.69
484.245	133.69
484.463	151.69
484.681	156.69
484.9	132.69
485.118	120.69
485.336	108.69
485.554	109.69
485.772	98.69
485.99	99.69
486.209	103.69
486.427	118.69
486.645	104.69
486.863	131.69
487.081	137.69
487.299	119.69
487.517	140.69
487.735	153.69
487.953	185.69
488.171	175.69
488.389	159.69
488.607	146.69
488.825	145.69
489.043	108.69
489.261	125.69
489.479	136.69
489.696	131.69
489.914	139.69
490.132	150.69
490.35	139.69
490.568	152.69
490.786	163.69
491.003	169.69
491.221	171.69
491.439	185.69
491.657	181.69
491.874	213.69
492.092	204.69
492.31	230.69
492.527	201.69
492.745	212.69
492.963	196.69
493.18	180.69
493.398	164.69
493.615	169.69
493.833	188.69
494.05	158.69
494.268	171.69
494.485	187.69
494.703	169.69
494.92	169.69
495.138	158.69
495.355	159.69
495.573	168.69
495.79	180.69
496.008	164.69
496.225	160.69
496.442	173.69
496.66	166.69
496.877	147.69
497.094	166.69
497.312	161.69
497.529	145.69
497.746	132.69
497.963	123.69
498.181	128.69
498.398	117.69
498.615	122.69
498.832	127.69
499.049	118.69
499.267	115.69
499.484	121.69
499.701	121.69
499.918	133.69
500.135	131.69
500.352	134.69
500.569	122.69
500.786	126.69
501.003	131.69
501.22	133.69
501.437	138.69
501.654	123.69
501.871	134.69
502.088	127.69
502.305	134.69
502.522	101.69
502.739	132.69
502.956	135.69
503.172	130.69
503.389	117.69
503.606	123.69
503.823	114.69
504.04	115.69
504.256	133.69
504.473	119.69
504.69	119.69
504.907	130.69
505.123	121.69
505.34	116.69
505.557	112.69
505.773	116.69
505.99	116.69
506.207	127.69
506.423	117.69
506.64	125.69
506.856	122.69
507.073	122.69
507.289	107.69
507.506	96.69
507.722	115.69
507.939	108.69
508.155	95.69
508.372	106.69
508.588	104.69
508.805	108.69
509.021	100.69
509.238	116.69
509.454	104.69
509.67	115.69
509.887	93.69
510.103	91.69
510.319	98.69
510.536	87.69
510.752	83.69
510.968	95.69
511.184	90.69
511.401	90.69
511.617	79.69
511.833	99.69
512.049	97.69
512.265	89.69
512.481	81.69
512.698	108.69
512.914	105.69
513.13	99.69
513.346	74.69
513.562	77.69
513.778	105.69
513.994	98.69
514.21	101.69
514.426	81.69
514.642	98.69
514.858	91.69
515.074	87.69
515.29	88.69
515.506	75.69
515.721	102.69
515.937	83.69
516.153	80.69
516.369	94.69
516.585	93.69
516.801	90.69
517.016	80.69
517.232	94.69
517.448	80.69
517.664	88.69
517.879	85.69
518.095	88.69
518.311	96.69
518.527	96.69
518.742	96.69
518.958	92.69
519.173	96.69
519.389	98.69
519.605	112.69
519.82	107.69
520.036	111.69
520.251	86.69
520.467	121.69
520.682	88.69
520.898	90.69
521.113	88.69
521.329	82.69
521.544	76.69
521.76	82.69
521.975	90.69
522.19	83.69
522.406	91.69
522.621	103.69
522.836	104.69
523.052	100.69
523.267	118.69
523.482	117.69
523.698	94.69
523.913	115.69
524.128	106.69
524.343	119.69
524.559	109.69
524.774	123.69
524.989	125.69
525.204	119.69
525.419	126.69
525.634	102.69
525.849	110.69
526.064	105.69
526.28	111.69
526.495	101.69
526.71	100.69
526.925	77.69
527.14	72.69
527.355	91.69
527.57	83.69
527.785	83.69
527.999	102.69
528.214	95.69
528.429	105.69
528.644	116.69
528.859	127.69
529.074	143.69
529.289	161.69
529.503	140.69
529.718	150.69
529.933	125.69
530.148	98.69
530.363	98.69
530.577	90.69
530.792	84.69
531.007	85.69
531.221	82.69
531.436	83.69
531.651	95.69
531.865	82.69
532.08	79.69
532.295	91.69
532.509	84.69
532.724	79.69
532.938	88.69
533.153	103.69
533.367	119.69
533.582	117.69
533.796	118.69
534.011	111.69
534.225	92.69
534.44	84.69
534.654	105.69
534.868	84.69
535.083	109.69
535.297	91.69
535.511	104.69
535.726	95.69
535.94	96.69
536.154	87.69
536.369	93.69
536.583	77.69
536.797	93.69
537.011	88.69
537.225	87.69
537.44	80.69
537.654	89.69
537.868	95.69
538.082	75.69
538.296	90.69
538.51	96.69
538.724	105.69
538.938	107.69
539.153	108.69
539.367	109.69
539.581	107.69
539.795	99.69
540.009	93.69
540.222	99.69
540.436	103.69
540.65	111.69
540.864	123.69
541.078	119.69
541.292	139.69
541.506	132.69
541.72	167.69
541.934	164.69
542.147	192.69
542.361	180.69
542.575	151.69
542.789	126.69
543.002	141.69
543.216	127.69
543.43	115.69
543.644	129.69
543.857	148.69
544.071	155.69
544.285	154.69
544.498	154.69
544.712	150.69
544.925	170.69
545.139	146.69
545.352	128.69
545.566	143.69
545.779	144.69
545.993	150.69
546.206	151.69
546.42	161.69
546.633	157.69
546.847	157.69
547.06	155.69
547.274	160.69
547.487	170.69
547.7	173.69
547.914	153.69
548.127	151.69
548.34	163.69
548.554	164.69
548.767	156.69
548.98	146.69
549.193	148.69
549.407	159.69
549.62	163.69
549.833	138.69
550.046	150.69
550.259	153.69
550.473	154.69
550.686	151.69
550.899	132.69
551.112	152.69
551.325	136.69
551.538	120.69
551.751	122.69
551.964	118.69
552.177	135.69
552.39	138.69
552.603	136.69
552.816	128.69
553.029	145.69
553.242	140.69
553.455	156.69
553.667	140.69
553.88	161.69
554.093	141.69
554.306	137.69
554.519	132.69
554.732	122.69
554.944	147.69
555.157	149.69
555.37	140.69
555.583	149.69
555.795	124.69
556.008	119.69
556.221	135.69
556.433	144.69
556.646	140.69
556.859	123.69
557.071	135.69
557.284	133.69
557.496	130.69
557.709	135.69
557.921	129.69
558.134	132.69
558.346	132.69
558.559	132.69
558.771	130.69
558.984	126.69
559.196	127.69
559.409	124.69
559.621	139.69
559.833	127.69
560.046	116.69
560.258	127.69
560.47	123.69
560.683	129.69
560.895	129.69
561.107	108.69
561.32	104.69
561.532	132.69
561.744	132.69
561.956	127.69
562.168	128.69
562.381	121.69
562.593	122.69
562.805	113.69
563.017	124.69
563.229	124.69
563.441	127.69
563.653	119.69
563.865	109.69
564.077	121.69
564.289	129.69
564.501	125.69
564.713	124.69
564.925	111.69
565.137	122.69
565.349	124.69
565.561	120.69
565.773	115.69
565.985	114.69
566.197	104.69
566.408	104.69
566.62	115.69
566.832	123.69
567.044	118.69
567.255	125.69
567.467	106.69
567.679	107.69
567.891	97.69
568.102	112.69
568.314	106.69
568.526	105.69
568.737	81.69
568.949	92.69
569.161	92.69
569.372	81.69
569.584	82.69
569.795	83.69
570.007	78.69
570.218	92.69
570.43	88.69
570.641	102.69
570.853	82.69
571.064	111.69
571.276	93.69
571.487	104.69
571.698	93.69
571.91	97.69
572.121	100.69
572.333	97.69
572.544	91.69
572.755	106.69
572.966	99.69
573.178	87.69
573.389	79.69
573.6	84.69
573.811	85.69
574.023	78.69
574.234	91.69
574.445	93.69
574.656	88.69
574.867	88.69
575.078	91.69
575.289	100.69
575.501	102.69
575.712	82.69
575.923	79.69
576.134	95.69
576.345	85.69
576.556	104.69
576.767	99.69
576.978	89.69
577.188	93.69
577.399	96.69
577.61	75.69
577.821	99.69
578.032	81.69
578.243	96.69
578.454	82.69
578.665	70.69
578.875	100.69
579.086	78.69
579.297	88.69
579.508	74.69
579.718	80.69
579.929	83.69
580.14	77.69
580.35	90.69
580.561	93.69
580.772	83.69
580.982	79.69
581.193	103.69
581.403	98.69
581.614	101.69
581.825	95.69
582.035	91.69
582.246	89.69
582.456	84.69
582.667	84.69
582.877	82.69
583.087	96.69
583.298	88.69
583.508	86.69
583.719	95.69
583.929	85.69
584.139	86.69
584.35	95.69
584.56	86.69
584.77	84.69
584.981	79.69
585.191	74.69
585.401	93.69
585.611	88.69
585.821	84.69
586.032	106.69
586.242	70.69
586.452	76.69
586.662	85.69
586.872	69.69
587.082	77.69
587.292	84.69
587.502	83.69
587.713	93.69
587.923	89.69
588.133	72.69
588.343	82.69
588.553	75.69
588.762	89.69
588.972	92.69
589.182	87.69
589.392	70.69
589.602	81.69
589.812	83.69
590.022	88.69
590.232	84.69
590.441	81.69
590.651	73.69
590.861	76.69
591.071	86.69
591.281	79.69
591.49	93.69
591.7	73.69
591.91	87.69
592.119	79.69
592.329	81.69
592.539	77.69
592.748	89.69
592.958	69.69
593.167	90.69
593.377	83.69
593.587	93.69
593.796	70.69
594.006	83.69
594.215	86.69
594.424	93.69
594.634	86.69
594.843	95.69
595.053	98.69
595.262	87.69
595.472	88.69
595.681	83.69
595.89	92.69
596.1	87.69
596.309	90.69
596.518	99.69
596.727	97.69
596.937	91.69
597.146	82.69
597.355	92.69
597.564	93.69
597.774	99.69
597.983	90.69
598.192	86.69
598.401	76.69
598.61	81.69
598.819	61.69
599.028	92.69
599.237	83.69
599.446	92.69
599.655	85.69
599.864	85.69
600.073	98.69
600.282	95.69
600.491	105.69
600.7	89.69
600.909	106.69
601.118	99.69
601.327	104.69
601.536	92.69
601.745	100.69
601.953	101.69
602.162	113.69
602.371	96.69
602.58	107.69
602.789	115.69
602.997	101.69
603.206	102.69
603.415	95.69
603.623	92.69
603.832	116.69
604.041	106.69
604.249	120.69
604.458	86.69
604.666	106.69
604.875	100.69
605.084	104.69
605.292	94.69
605.501	104.69
605.709	107.69
605.918	101.69
606.126	119.69
606.334	120.69
606.543	106.69
606.751	107.69
606.96	106.69
607.168	113.69
607.376	109.69
607.585	106.69
607.793	103.69
608.001	104.69
608.21	92.69
608.418	115.69
608.626	111.69
608.834	103.69
609.043	95.69
609.251	100.69
609.459	107.69
609.667	115.69
609.875	123.69
610.083	124.69
610.291	114.69
610.499	116.69
610.707	103.69
610.916	102.69
611.124	109.69
611.332	117.69
611.54	111.69
611.748	105.69
611.955	104.69
612.163	109.69
612.371	95.69
612.579	104.69
612.787	112.69
612.995	111.69
613.203	101.69
613.411	101.69
613.618	123.69
613.826	121.69
614.034	115.69
614.242	112.69
614.449	118.69
614.657	113.69
614.865	120.69
615.072	108.69
615.28	100.69
615.488	108.69
615.695	85.69
615.903	108.69
616.111	102.69
616.318	125.69
616.526	106.69
616.733	106.69
616.941	107.69
617.148	104.69
617.356	104.69
617.563	105.69
617.771	105.69
617.978	103.69
618.185	105.69
618.393	109.69
618.6	103.69
618.807	115.69
619.015	106.69
619.222	98.69
619.429	114.69
619.637	112.69
619.844	114.69
620.051	98.69
620.258	121.69
620.466	106.69
620.673	99.69
620.88	100.69
621.087	103.69
621.294	107.69
621.501	88.69
621.708	87.69
621.915	93.69
622.122	98.69
622.329	93.69
622.536	101.69
622.743	115.69
622.95	105.69
623.157	105.69
623.364	97.69
623.571	98.69
623.778	92.69
623.985	111.69
624.192	117.69
624.399	106.69
624.606	115.69
624.812	101.69
625.019	89.69
625.226	104.69
625.433	93.69
625.639	85.69
625.846	89.69
626.053	85.69
626.259	94.69
626.466	91.69
626.673	90.69
626.879	104.69
627.086	98.69
627.293	105.69
627.499	88.69
627.706	105.69
627.912	89.69
628.119	108.69
628.325	106.69
628.532	94.69
628.738	95.69
628.945	97.69
629.151	88.69
629.357	93.69
629.564	101.69
629.77	104.69
629.976	98.69
630.183	88.69
630.389	104.69
630.595	106.69
630.802	103.69
631.008	89.69
631.214	102.69
631.42	83.69
631.627	97.69
631.833	99.69
632.039	108.69
632.245	105.69
632.451	106.69
632.657	103.69
632.863	111.69
633.069	109.69
633.275	99.69
633.481	99.69
633.688	104.69
633.893	95.69
634.099	102.69
634.305	90.69
634.511	85.69
634.717	98.69
634.923	87.69
635.129	102.69
635.335	97.69
635.541	93.69
635.747	82.69
635.952	99.69
636.158	100.69
636.364	95.69
636.57	88.69
636.775	96.69
636.981	102.69
637.187	103.69
637.392	89.69
637.598	105.69
637.804	103.69
638.009	95.69
638.215	101.69
638.421	103.69
638.626	95.69
638.832	102.69
639.037	94.69
639.243	103.69
639.448	89.69
639.654	96.69
639.859	85.69
640.065	100.69
640.27	92.69
640.475	79.69
640.681	97.69
640.886	104.69
641.091	85.69
641.297	113.69
641.502	96.69
641.707	97.69
641.913	105.69
642.118	79.69
642.323	89.69
642.528	108.69
642.733	118.69
642.939	91.69
643.144	97.69
643.349	97.69
643.554	103.69
643.759	98.69
643.964	79.69
644.169	95.69
644.374	101.69
644.579	112.69
644.784	106.69
644.989	93.69
645.194	91.69
645.399	102.69
645.604	89.69
645.809	107.69
646.014	108.69
646.219	102.69
646.423	90.69
646.628	102.69
646.833	101.69
647.038	91.69
647.243	105.69
647.447	106.69
647.652	101.69
647.857	97.69
648.062	90.69
648.266	96.69
648.471	82.69
648.676	76.69
648.88	85.69
649.085	97.69
649.289	96.69
649.494	107.69
649.698	113.69
649.903	95.69
650.107	97.69
650.312	100.69
650.516	99.69
650.721	101.69
650.925	90.69
651.13	100.69
651.334	103.69
651.539	76.69
651.743	101.69
651.947	94.69
652.152	88.69
652.356	99.69
652.56	89.69
652.764	93.69
652.969	105.69
653.173	93.69
653.377	89.69
653.581	86.69
653.785	85.69
653.99	82.69
654.194	77.69
654.398	89.69
654.602	87.69
654.806	90.69
655.01	87.69
655.214	104.69
655.418	82.69
655.622	89.69
655.826	87.69
656.03	90.69
656.234	85.69
656.438	89.69
656.642	92.69
656.846	84.69
657.049	89.69
657.253	91.69
657.457	83.69
657.661	88.69
657.865	85.69
658.068	94.69
658.272	84.69
658.476	95.69
658.68	84.69
658.883	64.69
659.087	93.69
659.291	74.69
659.494	92.69
659.698	85.69
659.901	75.69
660.105	83.69
660.309	69.69
660.512	71.69
660.716	87.69
660.919	76.69
661.123	95.69
661.326	88.69
661.53	61.69
661.733	80.69
661.936	81.69
662.14	72.69
662.343	89.69
662.546	77.69
662.75	88.69
662.953	92.69
663.156	81.69
663.36	75.69
663.563	79.69
663.766	74.69
663.969	64.69
664.173	83.69
664.376	77.69
664.579	84.69
664.782	79.69
664.985	73.69
665.188	76.69
665.391	84.69
665.594	75.69
665.797	73.69
666	88.69
666.203	66.69
666.406	77.69
666.609	74.69
666.812	84.69
667.015	78.69
667.218	77.69
667.421	84.69
667.624	76.69
667.827	72.69
668.03	75.69
668.232	75.69
668.435	71.69
668.638	75.69
668.841	85.69
669.043	78.69
669.246	86.69
669.449	73.69
669.651	76.69
669.854	69.69
670.057	75.69
670.259	76.69
670.462	96.69
670.665	73.69
670.867	87.69
671.07	91.69
671.272	72.69
671.475	84.69
671.677	102.69
671.88	96.69
672.082	83.69
672.284	77.69
672.487	75.69
672.689	73.69
672.892	69.69
