Data from Location1.07152019.Energy5.Lamp.07192019.3%Agarose_HRD10591_14-31-17-017.txt Node
Date: Fri Jul 19 14:31:17 EDT 2019
User: cochatt
Spectrometer: HR+D1059
Trigger mode: 1
Integration Time (sec): 1.000000E-1
Scans to average: 1
Electric dark correction enabled: true
Nonlinearity correction enabled: false
Boxcar width: 0
XAxis mode: Wavelengths
Number of Pixels in Spectrum: 2048
>>>>>Begin Spectral Data<<<<<
223.165	-7.25
223.4	-7.25
223.635	-7.25
223.869	-22.25
224.104	-13.25
224.338	-27.25
224.573	-17.25
224.808	-10.25
225.042	-6.25
225.277	-1.25
225.511	3.75
225.746	19.75
225.98	-9.25
226.215	20.75
226.449	15.75
226.683	9.75
226.918	24.75
227.152	19.75
227.387	28.75
227.621	36.75
227.856	54.75
228.09	48.75
228.324	65.75
228.559	49.75
228.793	66.75
229.027	65.75
229.262	54.75
229.496	59.75
229.73	72.75
229.964	75.75
230.199	59.75
230.433	71.75
230.667	78.75
230.901	75.75
231.136	77.75
231.37	88.75
231.604	77.75
231.838	87.75
232.072	77.75
232.306	89.75
232.541	79.75
232.775	80.75
233.009	98.75
233.243	84.75
233.477	81.75
233.711	72.75
233.945	80.75
234.179	75.75
234.413	66.75
234.647	70.75
234.881	84.75
235.115	95.75
235.349	86.75
235.583	84.75
235.817	70.75
236.051	78.75
236.285	81.75
236.519	74.75
236.753	75.75
236.987	91.75
237.221	68.75
237.455	69.75
237.689	90.75
237.922	84.75
238.156	67.75
238.39	71.75
238.624	67.75
238.858	76.75
239.091	84.75
239.325	73.75
239.559	79.75
239.793	78.75
240.027	70.75
240.26	64.75
240.494	76.75
240.728	75.75
240.961	77.75
241.195	77.75
241.429	70.75
241.662	71.75
241.896	72.75
242.13	65.75
242.363	61.75
242.597	77.75
242.83	78.75
243.064	74.75
243.298	88.75
243.531	68.75
243.765	78.75
243.998	77.75
244.232	69.75
244.465	79.75
244.699	69.75
244.932	88.75
245.166	75.75
245.399	84.75
245.633	87.75
245.866	86.75
246.099	87.75
246.333	77.75
246.566	59.75
246.8	60.75
247.033	62.75
247.266	77.75
247.5	76.75
247.733	80.75
247.966	77.75
248.2	70.75
248.433	78.75
248.666	88.75
248.899	74.75
249.133	85.75
249.366	64.75
249.599	84.75
249.832	72.75
250.066	75.75
250.299	69.75
250.532	77.75
250.765	76.75
250.998	91.75
251.231	77.75
251.465	76.75
251.698	79.75
251.931	72.75
252.164	77.75
252.397	74.75
252.63	71.75
252.863	86.75
253.096	75.75
253.329	77.75
253.562	83.75
253.795	77.75
254.028	91.75
254.261	79.75
254.494	72.75
254.727	74.75
254.96	76.75
255.193	69.75
255.426	76.75
255.659	81.75
255.892	68.75
256.124	82.75
256.357	90.75
256.59	88.75
256.823	85.75
257.056	84.75
257.289	77.75
257.521	79.75
257.754	73.75
257.987	83.75
258.22	89.75
258.452	89.75
258.685	79.75
258.918	70.75
259.151	81.75
259.383	95.75
259.616	86.75
259.849	68.75
260.081	72.75
260.314	72.75
260.547	83.75
260.779	83.75
261.012	83.75
261.244	69.75
261.477	80.75
261.71	77.75
261.942	74.75
262.175	81.75
262.407	97.75
262.64	77.75
262.872	64.75
263.105	88.75
263.337	83.75
263.57	73.75
263.802	74.75
264.035	84.75
264.267	87.75
264.499	79.75
264.732	89.75
264.964	88.75
265.197	80.75
265.429	84.75
265.661	86.75
265.894	85.75
266.126	90.75
266.358	74.75
266.591	78.75
266.823	71.75
267.055	96.75
267.287	84.75
267.52	90.75
267.752	89.75
267.984	71.75
268.216	98.75
268.448	88.75
268.681	84.75
268.913	78.75
269.145	87.75
269.377	83.75
269.609	90.75
269.841	79.75
270.073	90.75
270.306	76.75
270.538	84.75
270.77	75.75
271.002	90.75
271.234	92.75
271.466	98.75
271.698	90.75
271.93	87.75
272.162	84.75
272.394	87.75
272.626	73.75
272.858	85.75
273.09	79.75
273.322	79.75
273.553	81.75
273.785	85.75
274.017	84.75
274.249	85.75
274.481	86.75
274.713	84.75
274.945	66.75
275.176	81.75
275.408	82.75
275.64	75.75
275.872	88.75
276.104	84.75
276.335	86.75
276.567	89.75
276.799	83.75
277.031	85.75
277.262	89.75
277.494	89.75
277.726	88.75
277.957	65.75
278.189	98.75
278.421	90.75
278.652	88.75
278.884	69.75
279.115	84.75
279.347	80.75
279.579	77.75
279.81	76.75
280.042	71.75
280.273	81.75
280.505	76.75
280.736	75.75
280.968	77.75
281.199	87.75
281.431	76.75
281.662	70.75
281.894	78.75
282.125	83.75
282.356	70.75
282.588	78.75
282.819	75.75
283.051	75.75
283.282	83.75
283.513	86.75
283.745	88.75
283.976	77.75
284.207	74.75
284.439	82.75
284.67	75.75
284.901	84.75
285.132	76.75
285.364	80.75
285.595	72.75
285.826	88.75
286.057	78.75
286.288	81.75
286.52	88.75
286.751	76.75
286.982	83.75
287.213	80.75
287.444	81.75
287.675	95.75
287.906	85.75
288.138	91.75
288.369	85.75
288.6	89.75
288.831	76.75
289.062	98.75
289.293	75.75
289.524	96.75
289.755	79.75
289.986	75.75
290.217	92.75
290.448	76.75
290.679	94.75
290.91	95.75
291.141	75.75
291.371	80.75
291.602	76.75
291.833	93.75
292.064	80.75
292.295	84.75
292.526	86.75
292.757	76.75
292.987	83.75
293.218	76.75
293.449	79.75
293.68	88.75
293.91	89.75
294.141	93.75
294.372	78.75
294.603	81.75
294.833	85.75
295.064	79.75
295.295	77.75
295.525	82.75
295.756	94.75
295.987	93.75
296.217	75.75
296.448	78.75
296.679	89.75
296.909	89.75
297.14	84.75
297.37	78.75
297.601	90.75
297.831	85.75
298.062	71.75
298.292	78.75
298.523	90.75
298.753	87.75
298.984	87.75
299.214	76.75
299.445	77.75
299.675	92.75
299.905	88.75
300.136	83.75
300.366	80.75
300.597	83.75
300.827	78.75
301.057	88.75
301.288	81.75
301.518	93.75
301.748	84.75
301.979	76.75
302.209	90.75
302.439	74.75
302.669	87.75
302.9	75.75
303.13	82.75
303.36	98.75
303.59	92.75
303.82	85.75
304.051	77.75
304.281	92.75
304.511	91.75
304.741	77.75
304.971	96.75
305.201	88.75
305.431	77.75
305.661	82.75
305.891	82.75
306.121	94.75
306.352	86.75
306.582	73.75
306.812	86.75
307.042	90.75
307.272	77.75
307.502	90.75
307.731	84.75
307.961	84.75
308.191	84.75
308.421	83.75
308.651	88.75
308.881	87.75
309.111	73.75
309.341	89.75
309.571	75.75
309.8	85.75
310.03	66.75
310.26	88.75
310.49	80.75
310.72	96.75
310.949	82.75
311.179	77.75
311.409	70.75
311.639	88.75
311.868	70.75
312.098	84.75
312.328	85.75
312.557	92.75
312.787	78.75
313.017	84.75
313.246	93.75
313.476	94.75
313.706	81.75
313.935	78.75
314.165	73.75
314.394	82.75
314.624	74.75
314.853	68.75
315.083	86.75
315.312	94.75
315.542	89.75
315.771	86.75
316.001	82.75
316.23	86.75
316.46	77.75
316.689	89.75
316.919	90.75
317.148	75.75
317.377	74.75
317.607	85.75
317.836	92.75
318.065	85.75
318.295	85.75
318.524	85.75
318.753	63.75
318.983	78.75
319.212	93.75
319.441	84.75
319.67	89.75
319.9	83.75
320.129	75.75
320.358	82.75
320.587	82.75
320.816	86.75
321.046	80.75
321.275	73.75
321.504	75.75
321.733	88.75
321.962	97.75
322.191	89.75
322.42	76.75
322.649	87.75
322.878	77.75
323.108	88.75
323.337	72.75
323.566	92.75
323.795	102.75
324.024	84.75
324.253	94.75
324.482	88.75
324.71	71.75
324.939	81.75
325.168	83.75
325.397	80.75
325.626	94.75
325.855	77.75
326.084	75.75
326.313	75.75
326.542	84.75
326.77	74.75
326.999	97.75
327.228	89.75
327.457	80.75
327.686	79.75
327.914	84.75
328.143	79.75
328.372	83.75
328.6	83.75
328.829	82.75
329.058	71.75
329.287	74.75
329.515	78.75
329.744	78.75
329.972	84.75
330.201	75.75
330.43	76.75
330.658	94.75
330.887	80.75
331.115	74.75
331.344	79.75
331.572	76.75
331.801	87.75
332.03	81.75
332.258	93.75
332.486	74.75
332.715	94.75
332.943	83.75
333.172	68.75
333.4	93.75
333.629	89.75
333.857	83.75
334.085	82.75
334.314	92.75
334.542	96.75
334.771	89.75
334.999	67.75
335.227	85.75
335.455	86.75
335.684	92.75
335.912	85.75
336.14	82.75
336.369	82.75
336.597	79.75
336.825	92.75
337.053	84.75
337.281	97.75
337.51	90.75
337.738	89.75
337.966	84.75
338.194	82.75
338.422	89.75
338.65	92.75
338.878	78.75
339.106	67.75
339.334	89.75
339.562	80.75
339.79	77.75
340.018	96.75
340.246	69.75
340.474	83.75
340.702	76.75
340.93	86.75
341.158	91.75
341.386	76.75
341.614	92.75
341.842	79.75
342.07	77.75
342.298	95.75
342.526	91.75
342.754	93.75
342.981	74.75
343.209	76.75
343.437	81.75
343.665	98.75
343.893	73.75
344.12	81.75
344.348	83.75
344.576	82.75
344.804	71.75
345.031	83.75
345.259	89.75
345.487	80.75
345.714	84.75
345.942	71.75
346.17	97.75
346.397	85.75
346.625	69.75
346.853	86.75
347.08	85.75
347.308	78.75
347.535	90.75
347.763	79.75
347.99	77.75
348.218	80.75
348.445	80.75
348.673	100.75
348.9	78.75
349.128	97.75
349.355	89.75
349.583	99.75
349.81	84.75
350.037	75.75
350.265	78.75
350.492	90.75
350.72	79.75
350.947	100.75
351.174	93.75
351.402	65.75
351.629	88.75
351.856	71.75
352.083	75.75
352.311	92.75
352.538	78.75
352.765	80.75
352.992	82.75
353.22	79.75
353.447	82.75
353.674	92.75
353.901	80.75
354.128	79.75
354.355	92.75
354.583	81.75
354.81	91.75
355.037	68.75
355.264	89.75
355.491	82.75
355.718	85.75
355.945	93.75
356.172	78.75
356.399	76.75
356.626	82.75
356.853	76.75
357.08	78.75
357.307	89.75
357.534	88.75
357.761	73.75
357.988	80.75
358.215	73.75
358.441	86.75
358.668	88.75
358.895	80.75
359.122	76.75
359.349	74.75
359.576	75.75
359.802	84.75
360.029	68.75
360.256	73.75
360.483	72.75
360.709	91.75
360.936	86.75
361.163	85.75
361.39	78.75
361.616	74.75
361.843	88.75
362.07	78.75
362.296	83.75
362.523	92.75
362.749	85.75
362.976	92.75
363.203	89.75
363.429	81.75
363.656	92.75
363.882	92.75
364.109	82.75
364.335	79.75
364.562	77.75
364.788	78.75
365.015	73.75
365.241	84.75
365.468	92.75
365.694	77.75
365.92	86.75
366.147	92.75
366.373	69.75
366.599	92.75
366.826	101.75
367.052	68.75
367.278	89.75
367.505	83.75
367.731	89.75
367.957	84.75
368.184	88.75
368.41	78.75
368.636	96.75
368.862	98.75
369.089	97.75
369.315	89.75
369.541	94.75
369.767	103.75
369.993	85.75
370.219	92.75
370.445	74.75
370.672	78.75
370.898	87.75
371.124	82.75
371.35	81.75
371.576	96.75
371.802	82.75
372.028	90.75
372.254	81.75
372.48	93.75
372.706	79.75
372.932	106.75
373.158	84.75
373.384	88.75
373.61	85.75
373.835	84.75
374.061	86.75
374.287	78.75
374.513	86.75
374.739	111.75
374.965	87.75
375.191	86.75
375.416	101.75
375.642	97.75
375.868	69.75
376.094	98.75
376.319	96.75
376.545	84.75
376.771	87.75
376.997	98.75
377.222	88.75
377.448	93.75
377.674	85.75
377.899	90.75
378.125	94.75
378.35	88.75
378.576	93.75
378.802	96.75
379.027	98.75
379.253	90.75
379.478	95.75
379.704	85.75
379.929	98.75
380.155	92.75
380.38	91.75
380.606	81.75
380.831	101.75
381.057	96.75
381.282	96.75
381.507	92.75
381.733	92.75
381.958	94.75
382.184	91.75
382.409	88.75
382.634	92.75
382.86	83.75
383.085	91.75
383.31	81.75
383.535	84.75
383.761	84.75
383.986	92.75
384.211	105.75
384.436	106.75
384.662	96.75
384.887	92.75
385.112	102.75
385.337	90.75
385.562	93.75
385.787	104.75
386.013	94.75
386.238	90.75
386.463	99.75
386.688	100.75
386.913	104.75
387.138	104.75
387.363	104.75
387.588	105.75
387.813	78.75
388.038	110.75
388.263	108.75
388.488	91.75
388.713	105.75
388.938	100.75
389.163	109.75
389.387	114.75
389.612	98.75
389.837	92.75
390.062	94.75
390.287	115.75
390.512	105.75
390.736	95.75
390.961	107.75
391.186	97.75
391.411	112.75
391.636	110.75
391.86	99.75
392.085	113.75
392.31	112.75
392.534	102.75
392.759	112.75
392.984	99.75
393.208	101.75
393.433	107.75
393.658	95.75
393.882	106.75
394.107	89.75
394.331	104.75
394.556	99.75
394.78	116.75
395.005	112.75
395.229	90.75
395.454	101.75
395.678	92.75
395.903	89.75
396.127	86.75
396.352	98.75
396.576	107.75
396.801	92.75
397.025	109.75
397.249	100.75
397.474	99.75
397.698	93.75
397.922	119.75
398.147	106.75
398.371	107.75
398.595	116.75
398.82	102.75
399.044	97.75
399.268	91.75
399.492	98.75
399.717	117.75
399.941	96.75
400.165	99.75
400.389	100.75
400.613	116.75
400.837	115.75
401.062	118.75
401.286	119.75
401.51	114.75
401.734	100.75
401.958	108.75
402.182	105.75
402.406	117.75
402.63	108.75
402.854	104.75
403.078	112.75
403.302	117.75
403.526	109.75
403.75	109.75
403.974	98.75
404.198	105.75
404.422	118.75
404.645	102.75
404.869	116.75
405.093	100.75
405.317	101.75
405.541	129.75
405.765	125.75
405.988	134.75
406.212	127.75
406.436	125.75
406.66	124.75
406.883	123.75
407.107	120.75
407.331	118.75
407.555	116.75
407.778	116.75
408.002	122.75
408.226	125.75
408.449	114.75
408.673	100.75
408.896	112.75
409.12	118.75
409.344	128.75
409.567	116.75
409.791	107.75
410.014	114.75
410.238	110.75
410.461	120.75
410.685	118.75
410.908	109.75
411.132	108.75
411.355	127.75
411.578	107.75
411.802	114.75
412.025	106.75
412.249	114.75
412.472	117.75
412.695	122.75
412.919	126.75
413.142	118.75
413.365	117.75
413.589	122.75
413.812	124.75
414.035	113.75
414.258	136.75
414.482	112.75
414.705	98.75
414.928	103.75
415.151	116.75
415.374	130.75
415.597	117.75
415.821	117.75
416.044	120.75
416.267	123.75
416.49	132.75
416.713	122.75
416.936	124.75
417.159	116.75
417.382	115.75
417.605	117.75
417.828	122.75
418.051	130.75
418.274	113.75
418.497	131.75
418.72	130.75
418.943	128.75
419.166	124.75
419.389	118.75
419.611	123.75
419.834	131.75
420.057	113.75
420.28	149.75
420.503	134.75
420.726	118.75
420.948	131.75
421.171	123.75
421.394	149.75
421.617	124.75
421.839	121.75
422.062	128.75
422.285	121.75
422.507	129.75
422.73	122.75
422.953	124.75
423.175	126.75
423.398	120.75
423.621	134.75
423.843	124.75
424.066	132.75
424.288	132.75
424.511	158.75
424.733	151.75
424.956	131.75
425.178	130.75
425.401	136.75
425.623	135.75
425.846	117.75
426.068	136.75
426.291	118.75
426.513	133.75
426.735	137.75
426.958	126.75
427.18	135.75
427.402	134.75
427.625	133.75
427.847	134.75
428.069	121.75
428.292	119.75
428.514	116.75
428.736	120.75
428.958	124.75
429.181	119.75
429.403	135.75
429.625	106.75
429.847	115.75
430.069	122.75
430.292	122.75
430.514	119.75
430.736	126.75
430.958	122.75
431.18	118.75
431.402	121.75
431.624	105.75
431.846	119.75
432.068	120.75
432.29	89.75
432.512	112.75
432.734	118.75
432.956	119.75
433.178	124.75
433.4	130.75
433.622	139.75
433.844	134.75
434.066	136.75
434.287	110.75
434.509	99.75
434.731	96.75
434.953	104.75
435.175	105.75
435.397	120.75
435.618	121.75
435.84	105.75
436.062	101.75
436.284	110.75
436.505	132.75
436.727	142.75
436.949	134.75
437.17	123.75
437.392	120.75
437.614	108.75
437.835	120.75
438.057	117.75
438.278	112.75
438.5	116.75
438.721	118.75
438.943	131.75
439.165	122.75
439.386	130.75
439.608	151.75
439.829	148.75
440.05	132.75
440.272	127.75
440.493	129.75
440.715	135.75
440.936	146.75
441.158	138.75
441.379	130.75
441.6	150.75
441.822	148.75
442.043	138.75
442.264	136.75
442.486	139.75
442.707	121.75
442.928	129.75
443.149	134.75
443.371	131.75
443.592	154.75
443.813	125.75
444.034	127.75
444.255	129.75
444.476	148.75
444.698	138.75
444.919	134.75
445.14	236.75
445.361	201.75
445.582	150.75
445.803	128.75
446.024	149.75
446.245	148.75
446.466	160.75
446.687	149.75
446.908	147.75
447.129	145.75
447.35	150.75
447.571	148.75
447.792	145.75
448.013	131.75
448.234	141.75
448.455	135.75
448.675	135.75
448.896	130.75
449.117	154.75
449.338	120.75
449.559	130.75
449.779	139.75
450	114.75
450.221	141.75
450.442	145.75
450.662	142.75
450.883	130.75
451.104	131.75
451.324	143.75
451.545	122.75
451.766	124.75
451.986	128.75
452.207	122.75
452.428	127.75
452.648	104.75
452.869	126.75
453.089	118.75
453.31	118.75
453.53	105.75
453.751	128.75
453.971	102.75
454.192	115.75
454.412	94.75
454.633	97.75
454.853	133.75
455.073	108.75
455.294	122.75
455.514	120.75
455.734	112.75
455.955	115.75
456.175	105.75
456.395	117.75
456.616	105.75
456.836	93.75
457.056	95.75
457.276	104.75
457.497	100.75
457.717	112.75
457.937	106.75
458.157	108.75
458.377	105.75
458.598	101.75
458.818	93.75
459.038	89.75
459.258	82.75
459.478	86.75
459.698	96.75
459.918	97.75
460.138	101.75
460.358	110.75
460.578	113.75
460.798	105.75
461.018	99.75
461.238	112.75
461.458	112.75
461.678	117.75
461.898	114.75
462.118	114.75
462.338	118.75
462.558	118.75
462.777	95.75
462.997	96.75
463.217	97.75
463.437	96.75
463.657	122.75
463.876	115.75
464.096	95.75
464.316	98.75
464.536	103.75
464.755	120.75
464.975	109.75
465.195	114.75
465.414	116.75
465.634	108.75
465.854	126.75
466.073	116.75
466.293	107.75
466.512	128.75
466.732	118.75
466.951	141.75
467.171	122.75
467.391	125.75
467.61	126.75
467.829	134.75
468.049	137.75
468.268	128.75
468.488	140.75
468.707	128.75
468.927	116.75
469.146	122.75
469.365	150.75
469.585	150.75
469.804	125.75
470.023	139.75
470.243	139.75
470.462	132.75
470.681	138.75
470.901	119.75
471.12	148.75
471.339	134.75
471.558	127.75
471.777	132.75
471.997	129.75
472.216	120.75
472.435	128.75
472.654	110.75
472.873	106.75
473.092	125.75
473.311	120.75
473.53	112.75
473.749	121.75
473.968	122.75
474.187	113.75
474.406	109.75
474.625	109.75
474.844	125.75
475.063	116.75
475.282	116.75
475.501	107.75
475.72	120.75
475.939	128.75
476.158	121.75
476.377	119.75
476.596	107.75
476.814	97.75
477.033	98.75
477.252	109.75
477.471	133.75
477.69	134.75
477.908	127.75
478.127	132.75
478.346	138.75
478.564	125.75
478.783	140.75
479.002	120.75
479.22	120.75
479.439	122.75
479.658	115.75
479.876	112.75
480.095	116.75
480.313	116.75
480.532	108.75
480.751	105.75
480.969	103.75
481.188	86.75
481.406	80.75
481.624	72.75
481.843	86.75
482.061	97.75
482.28	110.75
482.498	119.75
482.717	116.75
482.935	109.75
483.153	146.75
483.372	160.75
483.59	143.75
483.808	134.75
484.027	132.75
484.245	151.75
484.463	154.75
484.681	165.75
484.9	150.75
485.118	131.75
485.336	121.75
485.554	101.75
485.772	92.75
485.99	97.75
486.209	94.75
486.427	104.75
486.645	98.75
486.863	125.75
487.081	128.75
487.299	126.75
487.517	146.75
487.735	146.75
487.953	183.75
488.171	175.75
488.389	162.75
488.607	157.75
488.825	138.75
489.043	142.75
489.261	123.75
489.479	142.75
489.696	140.75
489.914	142.75
490.132	137.75
490.35	147.75
490.568	155.75
490.786	168.75
491.003	165.75
491.221	189.75
491.439	168.75
491.657	184.75
491.874	196.75
492.092	215.75
492.31	219.75
492.527	215.75
492.745	201.75
492.963	192.75
493.18	182.75
493.398	177.75
493.615	183.75
493.833	166.75
494.05	162.75
494.268	165.75
494.485	184.75
494.703	165.75
494.92	183.75
495.138	179.75
495.355	168.75
495.573	170.75
495.79	171.75
496.008	160.75
496.225	166.75
496.442	169.75
496.66	162.75
496.877	168.75
497.094	177.75
497.312	149.75
497.529	147.75
497.746	140.75
497.963	131.75
498.181	106.75
498.398	120.75
498.615	124.75
498.832	114.75
499.049	116.75
499.267	119.75
499.484	125.75
499.701	130.75
499.918	128.75
500.135	136.75
500.352	142.75
500.569	144.75
500.786	140.75
501.003	147.75
501.22	142.75
501.437	126.75
501.654	133.75
501.871	123.75
502.088	140.75
502.305	125.75
502.522	118.75
502.739	136.75
502.956	120.75
503.172	113.75
503.389	134.75
503.606	122.75
503.823	115.75
504.04	116.75
504.256	129.75
504.473	118.75
504.69	114.75
504.907	129.75
505.123	119.75
505.34	120.75
505.557	113.75
505.773	116.75
505.99	118.75
506.207	140.75
506.423	126.75
506.64	130.75
506.856	120.75
507.073	110.75
507.289	114.75
507.506	121.75
507.722	123.75
507.939	121.75
508.155	130.75
508.372	118.75
508.588	116.75
508.805	134.75
509.021	100.75
509.238	102.75
509.454	100.75
509.67	93.75
509.887	93.75
510.103	92.75
510.319	94.75
510.536	101.75
510.752	84.75
510.968	75.75
511.184	78.75
511.401	90.75
511.617	78.75
511.833	98.75
512.049	100.75
512.265	102.75
512.481	93.75
512.698	89.75
512.914	99.75
513.13	94.75
513.346	94.75
513.562	85.75
513.778	94.75
513.994	88.75
514.21	86.75
514.426	97.75
514.642	89.75
514.858	92.75
515.074	98.75
515.29	82.75
515.506	95.75
515.721	85.75
515.937	97.75
516.153	86.75
516.369	97.75
516.585	84.75
516.801	81.75
517.016	103.75
517.232	92.75
517.448	97.75
517.664	81.75
517.879	94.75
518.095	100.75
518.311	95.75
518.527	90.75
518.742	102.75
518.958	87.75
519.173	102.75
519.389	106.75
519.605	115.75
519.82	102.75
520.036	105.75
520.251	107.75
520.467	94.75
520.682	97.75
520.898	95.75
521.113	83.75
521.329	77.75
521.544	87.75
521.76	94.75
521.975	96.75
522.19	96.75
522.406	92.75
522.621	103.75
522.836	93.75
523.052	109.75
523.267	102.75
523.482	109.75
523.698	101.75
523.913	100.75
524.128	122.75
524.343	122.75
524.559	125.75
524.774	124.75
524.989	127.75
525.204	120.75
525.419	120.75
525.634	120.75
525.849	106.75
526.064	104.75
526.28	108.75
526.495	97.75
526.71	85.75
526.925	73.75
527.14	84.75
527.355	88.75
527.57	87.75
527.785	82.75
527.999	83.75
528.214	103.75
528.429	107.75
528.644	125.75
528.859	137.75
529.074	150.75
529.289	173.75
529.503	136.75
529.718	132.75
529.933	130.75
530.148	110.75
530.363	100.75
530.577	84.75
530.792	91.75
531.007	88.75
531.221	79.75
531.436	66.75
531.651	85.75
531.865	82.75
532.08	88.75
532.295	79.75
532.509	90.75
532.724	86.75
532.938	80.75
533.153	102.75
533.367	105.75
533.582	133.75
533.796	124.75
534.011	128.75
534.225	87.75
534.44	85.75
534.654	97.75
534.868	91.75
535.083	110.75
535.297	82.75
535.511	108.75
535.726	106.75
535.94	97.75
536.154	92.75
536.369	81.75
536.583	90.75
536.797	77.75
537.011	89.75
537.225	86.75
537.44	84.75
537.654	83.75
537.868	81.75
538.082	94.75
538.296	101.75
538.51	94.75
538.724	118.75
538.938	117.75
539.153	124.75
539.367	125.75
539.581	119.75
539.795	92.75
540.009	101.75
540.222	107.75
540.436	93.75
540.65	112.75
540.864	124.75
541.078	134.75
541.292	152.75
541.506	168.75
541.72	162.75
541.934	162.75
542.147	189.75
542.361	185.75
542.575	155.75
542.789	149.75
543.002	125.75
543.216	122.75
543.43	116.75
543.644	144.75
543.857	152.75
544.071	139.75
544.285	150.75
544.498	164.75
544.712	153.75
544.925	154.75
545.139	155.75
545.352	150.75
545.566	164.75
545.779	159.75
545.993	172.75
546.206	148.75
546.42	161.75
546.633	156.75
546.847	148.75
547.06	148.75
547.274	165.75
547.487	165.75
547.7	169.75
547.914	172.75
548.127	151.75
548.34	176.75
548.554	148.75
548.767	165.75
548.98	147.75
549.193	148.75
549.407	148.75
549.62	138.75
549.833	136.75
550.046	148.75
550.259	140.75
550.473	144.75
550.686	145.75
550.899	155.75
551.112	148.75
551.325	139.75
551.538	128.75
551.751	124.75
551.964	119.75
552.177	118.75
552.39	142.75
552.603	134.75
552.816	162.75
553.029	156.75
553.242	150.75
553.455	159.75
553.667	142.75
553.88	150.75
554.093	166.75
554.306	149.75
554.519	135.75
554.732	144.75
554.944	149.75
555.157	142.75
555.37	143.75
555.583	146.75
555.795	142.75
556.008	142.75
556.221	130.75
556.433	134.75
556.646	134.75
556.859	126.75
557.071	135.75
557.284	136.75
557.496	128.75
557.709	156.75
557.921	140.75
558.134	128.75
558.346	132.75
558.559	141.75
558.771	129.75
558.984	137.75
559.196	114.75
559.409	129.75
559.621	124.75
559.833	125.75
560.046	133.75
560.258	132.75
560.47	131.75
560.683	126.75
560.895	126.75
561.107	138.75
561.32	134.75
561.532	125.75
561.744	128.75
561.956	128.75
562.168	116.75
562.381	117.75
562.593	120.75
562.805	121.75
563.017	126.75
563.229	128.75
563.441	124.75
563.653	122.75
563.865	124.75
564.077	120.75
564.289	104.75
564.501	122.75
564.713	122.75
564.925	131.75
565.137	113.75
565.349	121.75
565.561	120.75
565.773	123.75
565.985	117.75
566.197	116.75
566.408	104.75
566.62	107.75
566.832	101.75
567.044	98.75
567.255	105.75
567.467	122.75
567.679	100.75
567.891	107.75
568.102	100.75
568.314	100.75
568.526	92.75
568.737	78.75
568.949	74.75
569.161	93.75
569.372	68.75
569.584	92.75
569.795	81.75
570.007	79.75
570.218	87.75
570.43	85.75
570.641	72.75
570.853	100.75
571.064	100.75
571.276	100.75
571.487	102.75
571.698	103.75
571.91	102.75
572.121	90.75
572.333	103.75
572.544	113.75
572.755	93.75
572.966	98.75
573.178	78.75
573.389	77.75
573.6	89.75
573.811	88.75
574.023	91.75
574.234	101.75
574.445	89.75
574.656	100.75
574.867	98.75
575.078	98.75
575.289	83.75
575.501	104.75
575.712	91.75
575.923	87.75
576.134	100.75
576.345	93.75
576.556	95.75
576.767	94.75
576.978	82.75
577.188	101.75
577.399	98.75
577.61	87.75
577.821	88.75
578.032	82.75
578.243	76.75
578.454	84.75
578.665	86.75
578.875	84.75
579.086	82.75
579.297	90.75
579.508	91.75
579.718	104.75
579.929	74.75
580.14	72.75
580.35	88.75
580.561	91.75
580.772	88.75
580.982	83.75
581.193	94.75
581.403	93.75
581.614	88.75
581.825	83.75
582.035	112.75
582.246	104.75
582.456	82.75
582.667	96.75
582.877	86.75
583.087	97.75
583.298	84.75
583.508	84.75
583.719	90.75
583.929	90.75
584.139	85.75
584.35	77.75
584.56	83.75
584.77	84.75
584.981	89.75
585.191	99.75
585.401	88.75
585.611	83.75
585.821	76.75
586.032	89.75
586.242	75.75
586.452	86.75
586.662	82.75
586.872	94.75
587.082	97.75
587.292	76.75
587.502	75.75
587.713	78.75
587.923	81.75
588.133	77.75
588.343	68.75
588.553	95.75
588.762	91.75
588.972	86.75
589.182	86.75
589.392	86.75
589.602	90.75
589.812	93.75
590.022	93.75
590.232	85.75
590.441	73.75
590.651	81.75
590.861	83.75
591.071	77.75
591.281	86.75
591.49	80.75
591.7	87.75
591.91	78.75
592.119	84.75
592.329	73.75
592.539	92.75
592.748	83.75
592.958	91.75
593.167	78.75
593.377	79.75
593.587	98.75
593.796	75.75
594.006	89.75
594.215	89.75
594.424	89.75
594.634	88.75
594.843	98.75
595.053	96.75
595.262	67.75
595.472	99.75
595.681	92.75
595.89	91.75
596.1	87.75
596.309	80.75
596.518	89.75
596.727	86.75
596.937	84.75
597.146	98.75
597.355	94.75
597.564	78.75
597.774	88.75
597.983	96.75
598.192	96.75
598.401	87.75
598.61	97.75
598.819	91.75
599.028	105.75
599.237	97.75
599.446	83.75
599.655	85.75
599.864	87.75
600.073	89.75
600.282	98.75
600.491	99.75
600.7	98.75
600.909	89.75
601.118	88.75
601.327	93.75
601.536	104.75
601.745	74.75
601.953	98.75
602.162	114.75
602.371	98.75
602.58	97.75
602.789	109.75
602.997	100.75
603.206	100.75
603.415	104.75
603.623	100.75
603.832	116.75
604.041	114.75
604.249	95.75
604.458	112.75
604.666	85.75
604.875	80.75
605.084	96.75
605.292	109.75
605.501	116.75
605.709	130.75
605.918	112.75
606.126	110.75
606.334	101.75
606.543	92.75
606.751	120.75
606.96	90.75
607.168	109.75
607.376	101.75
607.585	98.75
607.793	108.75
608.001	103.75
608.21	98.75
608.418	110.75
608.626	106.75
608.834	113.75
609.043	102.75
609.251	114.75
609.459	118.75
609.667	113.75
609.875	100.75
610.083	99.75
610.291	115.75
610.499	117.75
610.707	120.75
610.916	109.75
611.124	115.75
611.332	116.75
611.54	109.75
611.748	110.75
611.955	102.75
612.163	121.75
612.371	110.75
612.579	107.75
612.787	110.75
612.995	93.75
613.203	99.75
613.411	109.75
613.618	112.75
613.826	102.75
614.034	107.75
614.242	113.75
614.449	112.75
614.657	118.75
614.865	117.75
615.072	120.75
615.28	123.75
615.488	104.75
615.695	100.75
615.903	99.75
616.111	107.75
616.318	109.75
616.526	109.75
616.733	110.75
616.941	116.75
617.148	120.75
617.356	117.75
617.563	99.75
617.771	103.75
617.978	100.75
618.185	110.75
618.393	106.75
618.6	99.75
618.807	110.75
619.015	115.75
619.222	127.75
619.429	94.75
619.637	107.75
619.844	99.75
620.051	98.75
620.258	97.75
620.466	106.75
620.673	104.75
620.88	104.75
621.087	115.75
621.294	105.75
621.501	114.75
621.708	98.75
621.915	103.75
622.122	93.75
622.329	104.75
622.536	91.75
622.743	104.75
622.95	101.75
623.157	104.75
623.364	109.75
623.571	115.75
623.778	96.75
623.985	98.75
624.192	114.75
624.399	119.75
624.606	105.75
624.812	98.75
625.019	95.75
625.226	102.75
625.433	116.75
625.639	77.75
625.846	105.75
626.053	94.75
626.259	84.75
626.466	95.75
626.673	94.75
626.879	96.75
627.086	107.75
627.293	101.75
627.499	108.75
627.706	103.75
627.912	108.75
628.119	97.75
628.325	105.75
628.532	92.75
628.738	103.75
628.945	106.75
629.151	107.75
629.357	99.75
629.564	96.75
629.77	98.75
629.976	101.75
630.183	89.75
630.389	95.75
630.595	94.75
630.802	105.75
631.008	109.75
631.214	105.75
631.42	107.75
631.627	102.75
631.833	93.75
632.039	98.75
632.245	98.75
632.451	99.75
632.657	84.75
632.863	92.75
633.069	96.75
633.275	106.75
633.481	92.75
633.688	105.75
633.893	109.75
634.099	105.75
634.305	103.75
634.511	104.75
634.717	90.75
634.923	86.75
635.129	95.75
635.335	97.75
635.541	98.75
635.747	95.75
635.952	87.75
636.158	92.75
636.364	103.75
636.57	93.75
636.775	100.75
636.981	92.75
637.187	97.75
637.392	110.75
637.598	93.75
637.804	95.75
638.009	104.75
638.215	109.75
638.421	115.75
638.626	88.75
638.832	99.75
639.037	107.75
639.243	89.75
639.448	103.75
639.654	107.75
639.859	100.75
640.065	100.75
640.27	106.75
640.475	103.75
640.681	111.75
640.886	83.75
641.091	100.75
641.297	83.75
641.502	106.75
641.707	121.75
641.913	96.75
642.118	96.75
642.323	100.75
642.528	101.75
642.733	94.75
642.939	98.75
643.144	99.75
643.349	94.75
643.554	96.75
643.759	110.75
643.964	107.75
644.169	106.75
644.374	82.75
644.579	101.75
644.784	113.75
644.989	105.75
645.194	109.75
645.399	104.75
645.604	103.75
645.809	99.75
646.014	99.75
646.219	103.75
646.423	99.75
646.628	96.75
646.833	94.75
647.038	99.75
647.243	93.75
647.447	93.75
647.652	96.75
647.857	92.75
648.062	105.75
648.266	90.75
648.471	93.75
648.676	107.75
648.88	84.75
649.085	95.75
649.289	92.75
649.494	105.75
649.698	92.75
649.903	103.75
650.107	105.75
650.312	101.75
650.516	88.75
650.721	84.75
650.925	87.75
651.13	98.75
651.334	104.75
651.539	103.75
651.743	86.75
651.947	90.75
652.152	97.75
652.356	100.75
652.56	90.75
652.764	76.75
652.969	90.75
653.173	92.75
653.377	106.75
653.581	98.75
653.785	97.75
653.99	100.75
654.194	99.75
654.398	93.75
654.602	97.75
654.806	88.75
655.01	96.75
655.214	81.75
655.418	98.75
655.622	105.75
655.826	90.75
656.03	94.75
656.234	102.75
656.438	91.75
656.642	102.75
656.846	89.75
657.049	96.75
657.253	94.75
657.457	82.75
657.661	87.75
657.865	96.75
658.068	80.75
658.272	83.75
658.476	93.75
658.68	77.75
658.883	77.75
659.087	85.75
659.291	103.75
659.494	95.75
659.698	102.75
659.901	82.75
660.105	79.75
660.309	75.75
660.512	103.75
660.716	79.75
660.919	69.75
661.123	92.75
661.326	80.75
661.53	79.75
661.733	86.75
661.936	81.75
662.14	68.75
662.343	77.75
662.546	90.75
662.75	86.75
662.953	76.75
663.156	78.75
663.36	81.75
663.563	88.75
663.766	75.75
663.969	86.75
664.173	78.75
664.376	69.75
664.579	84.75
664.782	85.75
664.985	82.75
665.188	81.75
665.391	88.75
665.594	89.75
665.797	80.75
666	78.75
666.203	83.75
666.406	79.75
666.609	74.75
666.812	76.75
667.015	86.75
667.218	72.75
667.421	98.75
667.624	86.75
667.827	78.75
668.03	78.75
668.232	70.75
668.435	92.75
668.638	84.75
668.841	74.75
669.043	69.75
669.246	81.75
669.449	85.75
669.651	78.75
669.854	85.75
670.057	69.75
670.259	83.75
670.462	76.75
670.665	72.75
670.867	89.75
671.07	77.75
671.272	84.75
671.475	88.75
671.677	79.75
671.88	69.75
672.082	79.75
672.284	74.75
672.487	81.75
672.689	77.75
672.892	82.75
