Data from Location1.07152019.Energy5.Lamp.07192019.3%Agarose_HRD10591_14-31-34-015.txt Node
Date: Fri Jul 19 14:31:34 EDT 2019
User: cochatt
Spectrometer: HR+D1059
Trigger mode: 1
Integration Time (sec): 1.000000E-1
Scans to average: 1
Electric dark correction enabled: true
Nonlinearity correction enabled: false
Boxcar width: 0
XAxis mode: Wavelengths
Number of Pixels in Spectrum: 2048
>>>>>Begin Spectral Data<<<<<
223.165	-12.31
223.4	-12.31
223.635	-12.31
223.869	-33.31
224.104	-16.31
224.338	-24.31
224.573	-19.31
224.808	-3.31
225.042	-4.31
225.277	-7.31
225.511	-3.31
225.746	6.69
225.98	18.69
226.215	3.69
226.449	11.69
226.683	35.69
226.918	15.69
227.152	31.69
227.387	37.69
227.621	36.69
227.856	26.69
228.09	31.69
228.324	61.69
228.559	64.69
228.793	63.69
229.027	67.69
229.262	57.69
229.496	63.69
229.73	83.69
229.964	76.69
230.199	80.69
230.433	85.69
230.667	79.69
230.901	77.69
231.136	70.69
231.37	83.69
231.604	86.69
231.838	71.69
232.072	79.69
232.306	87.69
232.541	91.69
232.775	87.69
233.009	78.69
233.243	73.69
233.477	77.69
233.711	73.69
233.945	87.69
234.179	78.69
234.413	77.69
234.647	89.69
234.881	71.69
235.115	84.69
235.349	84.69
235.583	75.69
235.817	83.69
236.051	73.69
236.285	80.69
236.519	76.69
236.753	77.69
236.987	95.69
237.221	88.69
237.455	68.69
237.689	90.69
237.922	61.69
238.156	74.69
238.39	83.69
238.624	92.69
238.858	76.69
239.091	83.69
239.325	93.69
239.559	71.69
239.793	79.69
240.027	80.69
240.26	75.69
240.494	75.69
240.728	69.69
240.961	71.69
241.195	85.69
241.429	84.69
241.662	84.69
241.896	53.69
242.13	84.69
242.363	74.69
242.597	74.69
242.83	77.69
243.064	70.69
243.298	79.69
243.531	82.69
243.765	74.69
243.998	83.69
244.232	74.69
244.465	79.69
244.699	62.69
244.932	71.69
245.166	87.69
245.399	90.69
245.633	79.69
245.866	80.69
246.099	68.69
246.333	76.69
246.566	72.69
246.8	53.69
247.033	85.69
247.266	88.69
247.5	81.69
247.733	90.69
247.966	82.69
248.2	75.69
248.433	71.69
248.666	74.69
248.899	65.69
249.133	80.69
249.366	81.69
249.599	81.69
249.832	89.69
250.066	70.69
250.299	86.69
250.532	91.69
250.765	76.69
250.998	86.69
251.231	82.69
251.465	87.69
251.698	63.69
251.931	77.69
252.164	79.69
252.397	83.69
252.63	86.69
252.863	81.69
253.096	64.69
253.329	82.69
253.562	74.69
253.795	79.69
254.028	78.69
254.261	81.69
254.494	71.69
254.727	75.69
254.96	80.69
255.193	80.69
255.426	75.69
255.659	77.69
255.892	91.69
256.124	76.69
256.357	71.69
256.59	94.69
256.823	85.69
257.056	88.69
257.289	100.69
257.521	94.69
257.754	80.69
257.987	93.69
258.22	74.69
258.452	79.69
258.685	74.69
258.918	78.69
259.151	79.69
259.383	80.69
259.616	79.69
259.849	83.69
260.081	90.69
260.314	60.69
260.547	91.69
260.779	68.69
261.012	84.69
261.244	80.69
261.477	87.69
261.71	72.69
261.942	67.69
262.175	78.69
262.407	66.69
262.64	65.69
262.872	87.69
263.105	86.69
263.337	71.69
263.57	80.69
263.802	88.69
264.035	95.69
264.267	90.69
264.499	88.69
264.732	94.69
264.964	75.69
265.197	81.69
265.429	83.69
265.661	83.69
265.894	75.69
266.126	88.69
266.358	94.69
266.591	76.69
266.823	91.69
267.055	88.69
267.287	86.69
267.52	76.69
267.752	92.69
267.984	88.69
268.216	78.69
268.448	90.69
268.681	86.69
268.913	83.69
269.145	79.69
269.377	79.69
269.609	76.69
269.841	67.69
270.073	84.69
270.306	86.69
270.538	76.69
270.77	79.69
271.002	90.69
271.234	86.69
271.466	80.69
271.698	76.69
271.93	82.69
272.162	83.69
272.394	89.69
272.626	94.69
272.858	76.69
273.09	92.69
273.322	87.69
273.553	78.69
273.785	83.69
274.017	80.69
274.249	80.69
274.481	74.69
274.713	81.69
274.945	67.69
275.176	90.69
275.408	90.69
275.64	76.69
275.872	77.69
276.104	87.69
276.335	67.69
276.567	94.69
276.799	90.69
277.031	79.69
277.262	72.69
277.494	81.69
277.726	84.69
277.957	76.69
278.189	82.69
278.421	74.69
278.652	72.69
278.884	77.69
279.115	75.69
279.347	78.69
279.579	69.69
279.81	82.69
280.042	91.69
280.273	86.69
280.505	87.69
280.736	84.69
280.968	79.69
281.199	88.69
281.431	84.69
281.662	77.69
281.894	86.69
282.125	90.69
282.356	86.69
282.588	100.69
282.819	74.69
283.051	78.69
283.282	88.69
283.513	77.69
283.745	87.69
283.976	87.69
284.207	74.69
284.439	78.69
284.67	89.69
284.901	88.69
285.132	88.69
285.364	84.69
285.595	68.69
285.826	78.69
286.057	82.69
286.288	86.69
286.52	94.69
286.751	72.69
286.982	81.69
287.213	72.69
287.444	91.69
287.675	89.69
287.906	83.69
288.138	89.69
288.369	77.69
288.6	84.69
288.831	78.69
289.062	80.69
289.293	98.69
289.524	93.69
289.755	88.69
289.986	82.69
290.217	81.69
290.448	83.69
290.679	84.69
290.91	69.69
291.141	88.69
291.371	75.69
291.602	70.69
291.833	94.69
292.064	78.69
292.295	76.69
292.526	78.69
292.757	87.69
292.987	84.69
293.218	90.69
293.449	88.69
293.68	78.69
293.91	89.69
294.141	78.69
294.372	84.69
294.603	104.69
294.833	79.69
295.064	81.69
295.295	84.69
295.525	83.69
295.756	82.69
295.987	83.69
296.217	87.69
296.448	77.69
296.679	77.69
296.909	92.69
297.14	89.69
297.37	69.69
297.601	76.69
297.831	93.69
298.062	83.69
298.292	94.69
298.523	86.69
298.753	71.69
298.984	85.69
299.214	66.69
299.445	74.69
299.675	94.69
299.905	85.69
300.136	90.69
300.366	74.69
300.597	80.69
300.827	82.69
301.057	79.69
301.288	82.69
301.518	78.69
301.748	67.69
301.979	75.69
302.209	84.69
302.439	76.69
302.669	90.69
302.9	84.69
303.13	81.69
303.36	83.69
303.59	98.69
303.82	88.69
304.051	77.69
304.281	87.69
304.511	73.69
304.741	82.69
304.971	80.69
305.201	74.69
305.431	87.69
305.661	69.69
305.891	72.69
306.121	84.69
306.352	96.69
306.582	87.69
306.812	90.69
307.042	95.69
307.272	75.69
307.502	88.69
307.731	88.69
307.961	87.69
308.191	84.69
308.421	72.69
308.651	81.69
308.881	83.69
309.111	92.69
309.341	72.69
309.571	80.69
309.8	79.69
310.03	86.69
310.26	66.69
310.49	93.69
310.72	67.69
310.949	84.69
311.179	77.69
311.409	82.69
311.639	78.69
311.868	84.69
312.098	70.69
312.328	85.69
312.557	80.69
312.787	86.69
313.017	82.69
313.246	81.69
313.476	84.69
313.706	78.69
313.935	99.69
314.165	79.69
314.394	88.69
314.624	81.69
314.853	69.69
315.083	77.69
315.312	86.69
315.542	93.69
315.771	98.69
316.001	75.69
316.23	84.69
316.46	72.69
316.689	88.69
316.919	85.69
317.148	91.69
317.377	78.69
317.607	80.69
317.836	86.69
318.065	87.69
318.295	76.69
318.524	74.69
318.753	81.69
318.983	84.69
319.212	86.69
319.441	96.69
319.67	95.69
319.9	81.69
320.129	85.69
320.358	85.69
320.587	71.69
320.816	93.69
321.046	93.69
321.275	81.69
321.504	77.69
321.733	83.69
321.962	80.69
322.191	82.69
322.42	92.69
322.649	87.69
322.878	101.69
323.108	91.69
323.337	87.69
323.566	78.69
323.795	72.69
324.024	72.69
324.253	81.69
324.482	76.69
324.71	71.69
324.939	80.69
325.168	90.69
325.397	76.69
325.626	87.69
325.855	74.69
326.084	70.69
326.313	83.69
326.542	87.69
326.77	90.69
326.999	92.69
327.228	80.69
327.457	79.69
327.686	73.69
327.914	93.69
328.143	86.69
328.372	77.69
328.6	80.69
328.829	86.69
329.058	96.69
329.287	84.69
329.515	105.69
329.744	88.69
329.972	91.69
330.201	102.69
330.43	81.69
330.658	76.69
330.887	73.69
331.115	88.69
331.344	75.69
331.572	87.69
331.801	77.69
332.03	89.69
332.258	80.69
332.486	95.69
332.715	83.69
332.943	98.69
333.172	92.69
333.4	82.69
333.629	85.69
333.857	89.69
334.085	84.69
334.314	79.69
334.542	72.69
334.771	95.69
334.999	93.69
335.227	87.69
335.455	79.69
335.684	87.69
335.912	86.69
336.14	83.69
336.369	86.69
336.597	82.69
336.825	77.69
337.053	76.69
337.281	89.69
337.51	83.69
337.738	77.69
337.966	78.69
338.194	85.69
338.422	80.69
338.65	94.69
338.878	78.69
339.106	81.69
339.334	89.69
339.562	65.69
339.79	81.69
340.018	74.69
340.246	88.69
340.474	83.69
340.702	84.69
340.93	90.69
341.158	74.69
341.386	84.69
341.614	89.69
341.842	83.69
342.07	93.69
342.298	59.69
342.526	83.69
342.754	81.69
342.981	85.69
343.209	90.69
343.437	104.69
343.665	90.69
343.893	83.69
344.12	86.69
344.348	85.69
344.576	74.69
344.804	78.69
345.031	77.69
345.259	94.69
345.487	89.69
345.714	84.69
345.942	79.69
346.17	82.69
346.397	79.69
346.625	84.69
346.853	75.69
347.08	90.69
347.308	87.69
347.535	83.69
347.763	91.69
347.99	107.69
348.218	87.69
348.445	93.69
348.673	88.69
348.9	75.69
349.128	85.69
349.355	86.69
349.583	74.69
349.81	76.69
350.037	91.69
350.265	76.69
350.492	90.69
350.72	82.69
350.947	82.69
351.174	84.69
351.402	78.69
351.629	79.69
351.856	76.69
352.083	95.69
352.311	83.69
352.538	87.69
352.765	84.69
352.992	86.69
353.22	90.69
353.447	88.69
353.674	83.69
353.901	86.69
354.128	79.69
354.355	78.69
354.583	85.69
354.81	86.69
355.037	79.69
355.264	96.69
355.491	66.69
355.718	71.69
355.945	81.69
356.172	91.69
356.399	90.69
356.626	83.69
356.853	98.69
357.08	76.69
357.307	83.69
357.534	82.69
357.761	76.69
357.988	83.69
358.215	83.69
358.441	82.69
358.668	72.69
358.895	78.69
359.122	75.69
359.349	83.69
359.576	69.69
359.802	90.69
360.029	86.69
360.256	78.69
360.483	71.69
360.709	86.69
360.936	79.69
361.163	94.69
361.39	87.69
361.616	91.69
361.843	95.69
362.07	78.69
362.296	71.69
362.523	92.69
362.749	78.69
362.976	76.69
363.203	100.69
363.429	76.69
363.656	79.69
363.882	78.69
364.109	88.69
364.335	82.69
364.562	87.69
364.788	84.69
365.015	96.69
365.241	80.69
365.468	80.69
365.694	83.69
365.92	91.69
366.147	99.69
366.373	83.69
366.599	91.69
366.826	78.69
367.052	69.69
367.278	99.69
367.505	93.69
367.731	94.69
367.957	104.69
368.184	87.69
368.41	86.69
368.636	103.69
368.862	101.69
369.089	76.69
369.315	85.69
369.541	92.69
369.767	78.69
369.993	85.69
370.219	91.69
370.445	76.69
370.672	92.69
370.898	100.69
371.124	96.69
371.35	98.69
371.576	101.69
371.802	81.69
372.028	76.69
372.254	87.69
372.48	86.69
372.706	91.69
372.932	102.69
373.158	95.69
373.384	102.69
373.61	95.69
373.835	90.69
374.061	91.69
374.287	94.69
374.513	89.69
374.739	84.69
374.965	100.69
375.191	92.69
375.416	85.69
375.642	105.69
375.868	83.69
376.094	95.69
376.319	75.69
376.545	108.69
376.771	91.69
376.997	91.69
377.222	88.69
377.448	102.69
377.674	86.69
377.899	96.69
378.125	90.69
378.35	101.69
378.576	95.69
378.802	91.69
379.027	116.69
379.253	89.69
379.478	98.69
379.704	93.69
379.929	94.69
380.155	92.69
380.38	90.69
380.606	87.69
380.831	95.69
381.057	117.69
381.282	102.69
381.507	103.69
381.733	107.69
381.958	102.69
382.184	98.69
382.409	88.69
382.634	102.69
382.86	89.69
383.085	98.69
383.31	99.69
383.535	104.69
383.761	93.69
383.986	84.69
384.211	104.69
384.436	102.69
384.662	98.69
384.887	104.69
385.112	90.69
385.337	90.69
385.562	107.69
385.787	93.69
386.013	92.69
386.238	108.69
386.463	91.69
386.688	97.69
386.913	108.69
387.138	92.69
387.363	112.69
387.588	116.69
387.813	89.69
388.038	107.69
388.263	113.69
388.488	91.69
388.713	113.69
388.938	86.69
389.163	99.69
389.387	107.69
389.612	96.69
389.837	106.69
390.062	110.69
390.287	100.69
390.512	98.69
390.736	108.69
390.961	94.69
391.186	110.69
391.411	114.69
391.636	116.69
391.86	98.69
392.085	99.69
392.31	97.69
392.534	110.69
392.759	94.69
392.984	102.69
393.208	116.69
393.433	92.69
393.658	117.69
393.882	98.69
394.107	104.69
394.331	93.69
394.556	114.69
394.78	109.69
395.005	106.69
395.229	112.69
395.454	105.69
395.678	116.69
395.903	98.69
396.127	106.69
396.352	99.69
396.576	99.69
396.801	96.69
397.025	120.69
397.249	119.69
397.474	107.69
397.698	105.69
397.922	118.69
398.147	104.69
398.371	116.69
398.595	106.69
398.82	111.69
399.044	109.69
399.268	114.69
399.492	114.69
399.717	104.69
399.941	110.69
400.165	97.69
400.389	118.69
400.613	105.69
400.837	116.69
401.062	112.69
401.286	107.69
401.51	98.69
401.734	88.69
401.958	101.69
402.182	106.69
402.406	107.69
402.63	107.69
402.854	110.69
403.078	108.69
403.302	105.69
403.526	111.69
403.75	111.69
403.974	121.69
404.198	123.69
404.422	111.69
404.645	108.69
404.869	111.69
405.093	111.69
405.317	99.69
405.541	127.69
405.765	108.69
405.988	118.69
406.212	130.69
406.436	131.69
406.66	125.69
406.883	115.69
407.107	110.69
407.331	124.69
407.555	104.69
407.778	115.69
408.002	126.69
408.226	128.69
408.449	120.69
408.673	122.69
408.896	129.69
409.12	112.69
409.344	113.69
409.567	96.69
409.791	115.69
410.014	126.69
410.238	134.69
410.461	115.69
410.685	123.69
410.908	115.69
411.132	127.69
411.355	123.69
411.578	116.69
411.802	123.69
412.025	118.69
412.249	132.69
412.472	108.69
412.695	107.69
412.919	120.69
413.142	120.69
413.365	107.69
413.589	122.69
413.812	119.69
414.035	119.69
414.258	120.69
414.482	122.69
414.705	101.69
414.928	116.69
415.151	138.69
415.374	120.69
415.597	109.69
415.821	132.69
416.044	127.69
416.267	127.69
416.49	130.69
416.713	118.69
416.936	134.69
417.159	140.69
417.382	131.69
417.605	119.69
417.828	122.69
418.051	126.69
418.274	119.69
418.497	124.69
418.72	129.69
418.943	118.69
419.166	137.69
419.389	134.69
419.611	153.69
419.834	130.69
420.057	131.69
420.28	136.69
420.503	144.69
420.726	131.69
420.948	128.69
421.171	125.69
421.394	129.69
421.617	138.69
421.839	143.69
422.062	147.69
422.285	126.69
422.507	128.69
422.73	128.69
422.953	123.69
423.175	136.69
423.398	134.69
423.621	130.69
423.843	144.69
424.066	133.69
424.288	144.69
424.511	143.69
424.733	142.69
424.956	119.69
425.178	136.69
425.401	142.69
425.623	138.69
425.846	132.69
426.068	136.69
426.291	131.69
426.513	119.69
426.735	138.69
426.958	130.69
427.18	136.69
427.402	128.69
427.625	126.69
427.847	122.69
428.069	145.69
428.292	126.69
428.514	118.69
428.736	135.69
428.958	135.69
429.181	117.69
429.403	125.69
429.625	127.69
429.847	135.69
430.069	123.69
430.292	131.69
430.514	140.69
430.736	123.69
430.958	140.69
431.18	123.69
431.402	109.69
431.624	119.69
431.846	108.69
432.068	94.69
432.29	95.69
432.512	114.69
432.734	122.69
432.956	129.69
433.178	150.69
433.4	132.69
433.622	120.69
433.844	133.69
434.066	126.69
434.287	99.69
434.509	100.69
434.731	116.69
434.953	105.69
435.175	114.69
435.397	126.69
435.618	118.69
435.84	106.69
436.062	124.69
436.284	131.69
436.505	124.69
436.727	117.69
436.949	122.69
437.17	121.69
437.392	128.69
437.614	111.69
437.835	102.69
438.057	104.69
438.278	107.69
438.5	127.69
438.721	129.69
438.943	136.69
439.165	138.69
439.386	139.69
439.608	150.69
439.829	144.69
440.05	140.69
440.272	138.69
440.493	142.69
440.715	148.69
440.936	134.69
441.158	134.69
441.379	144.69
441.6	150.69
441.822	148.69
442.043	144.69
442.264	143.69
442.486	148.69
442.707	132.69
442.928	132.69
443.149	134.69
443.371	131.69
443.592	141.69
443.813	151.69
444.034	126.69
444.255	142.69
444.476	133.69
444.698	138.69
444.919	145.69
445.14	256.69
445.361	184.69
445.582	163.69
445.803	136.69
446.024	144.69
446.245	159.69
446.466	164.69
446.687	139.69
446.908	154.69
447.129	142.69
447.35	142.69
447.571	149.69
447.792	134.69
448.013	135.69
448.234	127.69
448.455	139.69
448.675	129.69
448.896	127.69
449.117	125.69
449.338	136.69
449.559	126.69
449.779	137.69
450	142.69
450.221	134.69
450.442	145.69
450.662	128.69
450.883	133.69
451.104	136.69
451.324	131.69
451.545	118.69
451.766	128.69
451.986	121.69
452.207	132.69
452.428	142.69
452.648	130.69
452.869	132.69
453.089	122.69
453.31	123.69
453.53	99.69
453.751	127.69
453.971	106.69
454.192	111.69
454.412	93.69
454.633	115.69
454.853	132.69
455.073	139.69
455.294	124.69
455.514	124.69
455.734	127.69
455.955	126.69
456.175	114.69
456.395	119.69
456.616	105.69
456.836	112.69
457.056	110.69
457.276	109.69
457.497	103.69
457.717	114.69
457.937	118.69
458.157	110.69
458.377	111.69
458.598	95.69
458.818	105.69
459.038	104.69
459.258	88.69
459.478	87.69
459.698	94.69
459.918	97.69
460.138	120.69
460.358	114.69
460.578	110.69
460.798	123.69
461.018	120.69
461.238	122.69
461.458	121.69
461.678	102.69
461.898	107.69
462.118	124.69
462.338	106.69
462.558	116.69
462.777	102.69
462.997	96.69
463.217	98.69
463.437	105.69
463.657	122.69
463.876	111.69
464.096	102.69
464.316	110.69
464.536	108.69
464.755	116.69
464.975	110.69
465.195	112.69
465.414	118.69
465.634	126.69
465.854	119.69
466.073	122.69
466.293	130.69
466.512	127.69
466.732	134.69
466.951	125.69
467.171	126.69
467.391	139.69
467.61	133.69
467.829	129.69
468.049	139.69
468.268	119.69
468.488	116.69
468.707	132.69
468.927	141.69
469.146	150.69
469.365	129.69
469.585	136.69
469.804	137.69
470.023	146.69
470.243	119.69
470.462	128.69
470.681	131.69
470.901	141.69
471.12	141.69
471.339	133.69
471.558	128.69
471.777	118.69
471.997	126.69
472.216	118.69
472.435	108.69
472.654	113.69
472.873	116.69
473.092	95.69
473.311	120.69
473.53	115.69
473.749	136.69
473.968	131.69
474.187	122.69
474.406	128.69
474.625	119.69
474.844	139.69
475.063	127.69
475.282	126.69
475.501	115.69
475.72	126.69
475.939	112.69
476.158	130.69
476.377	133.69
476.596	109.69
476.814	91.69
477.033	103.69
477.252	120.69
477.471	128.69
477.69	132.69
477.908	126.69
478.127	135.69
478.346	124.69
478.564	146.69
478.783	133.69
479.002	150.69
479.22	125.69
479.439	120.69
479.658	126.69
479.876	102.69
480.095	109.69
480.313	129.69
480.532	106.69
480.751	105.69
480.969	103.69
481.188	84.69
481.406	96.69
481.624	84.69
481.843	81.69
482.061	106.69
482.28	105.69
482.498	116.69
482.717	122.69
482.935	121.69
483.153	138.69
483.372	144.69
483.59	149.69
483.808	145.69
484.027	138.69
484.245	134.69
484.463	144.69
484.681	165.69
484.9	153.69
485.118	143.69
485.336	133.69
485.554	107.69
485.772	109.69
485.99	100.69
486.209	114.69
486.427	114.69
486.645	119.69
486.863	134.69
487.081	134.69
487.299	139.69
487.517	133.69
487.735	160.69
487.953	170.69
488.171	168.69
488.389	158.69
488.607	155.69
488.825	141.69
489.043	140.69
489.261	139.69
489.479	139.69
489.696	155.69
489.914	147.69
490.132	138.69
490.35	156.69
490.568	159.69
490.786	172.69
491.003	175.69
491.221	174.69
491.439	191.69
491.657	190.69
491.874	200.69
492.092	222.69
492.31	244.69
492.527	228.69
492.745	209.69
492.963	199.69
493.18	156.69
493.398	196.69
493.615	204.69
493.833	182.69
494.05	175.69
494.268	164.69
494.485	174.69
494.703	174.69
494.92	168.69
495.138	172.69
495.355	163.69
495.573	154.69
495.79	165.69
496.008	160.69
496.225	159.69
496.442	166.69
496.66	170.69
496.877	152.69
497.094	130.69
497.312	161.69
497.529	152.69
497.746	152.69
497.963	141.69
498.181	130.69
498.398	143.69
498.615	128.69
498.832	105.69
499.049	124.69
499.267	122.69
499.484	135.69
499.701	138.69
499.918	142.69
500.135	138.69
500.352	139.69
500.569	144.69
500.786	147.69
501.003	138.69
501.22	152.69
501.437	150.69
501.654	147.69
501.871	130.69
502.088	129.69
502.305	126.69
502.522	124.69
502.739	128.69
502.956	142.69
503.172	122.69
503.389	117.69
503.606	125.69
503.823	119.69
504.04	128.69
504.256	124.69
504.473	112.69
504.69	118.69
504.907	120.69
505.123	128.69
505.34	125.69
505.557	129.69
505.773	123.69
505.99	122.69
506.207	123.69
506.423	134.69
506.64	117.69
506.856	106.69
507.073	124.69
507.289	121.69
507.506	121.69
507.722	107.69
507.939	116.69
508.155	106.69
508.372	104.69
508.588	111.69
508.805	122.69
509.021	93.69
509.238	95.69
509.454	104.69
509.67	115.69
509.887	95.69
510.103	93.69
510.319	100.69
510.536	97.69
510.752	93.69
510.968	83.69
511.184	98.69
511.401	79.69
511.617	101.69
511.833	70.69
512.049	95.69
512.265	83.69
512.481	105.69
512.698	91.69
512.914	94.69
513.13	88.69
513.346	90.69
513.562	95.69
513.778	96.69
513.994	87.69
514.21	99.69
514.426	86.69
514.642	90.69
514.858	94.69
515.074	76.69
515.29	109.69
515.506	89.69
515.721	96.69
515.937	102.69
516.153	78.69
516.369	89.69
516.585	86.69
516.801	94.69
517.016	80.69
517.232	95.69
517.448	99.69
517.664	104.69
517.879	99.69
518.095	87.69
518.311	102.69
518.527	96.69
518.742	98.69
518.958	105.69
519.173	101.69
519.389	108.69
519.605	107.69
519.82	100.69
520.036	102.69
520.251	88.69
520.467	103.69
520.682	78.69
520.898	101.69
521.113	107.69
521.329	93.69
521.544	101.69
521.76	89.69
521.975	86.69
522.19	102.69
522.406	99.69
522.621	99.69
522.836	102.69
523.052	109.69
523.267	111.69
523.482	111.69
523.698	121.69
523.913	111.69
524.128	122.69
524.343	121.69
524.559	130.69
524.774	121.69
524.989	126.69
525.204	125.69
525.419	125.69
525.634	110.69
525.849	116.69
526.064	111.69
526.28	95.69
526.495	90.69
526.71	79.69
526.925	60.69
527.14	82.69
527.355	83.69
527.57	86.69
527.785	93.69
527.999	85.69
528.214	101.69
528.429	105.69
528.644	122.69
528.859	127.69
529.074	156.69
529.289	151.69
529.503	159.69
529.718	151.69
529.933	120.69
530.148	110.69
530.363	98.69
530.577	93.69
530.792	77.69
531.007	90.69
531.221	83.69
531.436	93.69
531.651	76.69
531.865	88.69
532.08	81.69
532.295	95.69
532.509	99.69
532.724	87.69
532.938	86.69
533.153	92.69
533.367	101.69
533.582	115.69
533.796	125.69
534.011	101.69
534.225	79.69
534.44	103.69
534.654	90.69
534.868	99.69
535.083	103.69
535.297	89.69
535.511	115.69
535.726	101.69
535.94	102.69
536.154	91.69
536.369	91.69
536.583	93.69
536.797	99.69
537.011	84.69
537.225	93.69
537.44	87.69
537.654	109.69
537.868	89.69
538.082	91.69
538.296	101.69
538.51	107.69
538.724	111.69
538.938	112.69
539.153	136.69
539.367	120.69
539.581	103.69
539.795	106.69
540.009	84.69
540.222	101.69
540.436	98.69
540.65	117.69
540.864	128.69
541.078	118.69
541.292	144.69
541.506	157.69
541.72	174.69
541.934	176.69
542.147	198.69
542.361	181.69
542.575	167.69
542.789	136.69
543.002	137.69
543.216	138.69
543.43	123.69
543.644	120.69
543.857	147.69
544.071	155.69
544.285	166.69
544.498	150.69
544.712	153.69
544.925	156.69
545.139	151.69
545.352	157.69
545.566	167.69
545.779	148.69
545.993	172.69
546.206	166.69
546.42	158.69
546.633	157.69
546.847	159.69
547.06	155.69
547.274	157.69
547.487	162.69
547.7	171.69
547.914	166.69
548.127	163.69
548.34	146.69
548.554	168.69
548.767	151.69
548.98	151.69
549.193	154.69
549.407	140.69
549.62	158.69
549.833	150.69
550.046	144.69
550.259	158.69
550.473	145.69
550.686	151.69
550.899	158.69
551.112	139.69
551.325	136.69
551.538	143.69
551.751	118.69
551.964	124.69
552.177	134.69
552.39	140.69
552.603	133.69
552.816	135.69
553.029	153.69
553.242	162.69
553.455	173.69
553.667	182.69
553.88	149.69
554.093	147.69
554.306	134.69
554.519	138.69
554.732	143.69
554.944	154.69
555.157	151.69
555.37	141.69
555.583	138.69
555.795	139.69
556.008	126.69
556.221	125.69
556.433	138.69
556.646	136.69
556.859	129.69
557.071	131.69
557.284	138.69
557.496	141.69
557.709	138.69
557.921	142.69
558.134	136.69
558.346	138.69
558.559	124.69
558.771	143.69
558.984	132.69
559.196	142.69
559.409	130.69
559.621	130.69
559.833	125.69
560.046	126.69
560.258	117.69
560.47	128.69
560.683	139.69
560.895	138.69
561.107	134.69
561.32	143.69
561.532	148.69
561.744	132.69
561.956	149.69
562.168	117.69
562.381	132.69
562.593	131.69
562.805	130.69
563.017	123.69
563.229	135.69
563.441	111.69
563.653	119.69
563.865	124.69
564.077	119.69
564.289	123.69
564.501	111.69
564.713	118.69
564.925	107.69
565.137	112.69
565.349	118.69
565.561	126.69
565.773	120.69
565.985	108.69
566.197	111.69
566.408	127.69
566.62	111.69
566.832	113.69
567.044	122.69
567.255	122.69
567.467	116.69
567.679	121.69
567.891	101.69
568.102	105.69
568.314	101.69
568.526	97.69
568.737	77.69
568.949	86.69
569.161	88.69
569.372	80.69
569.584	82.69
569.795	100.69
570.007	84.69
570.218	91.69
570.43	89.69
570.641	96.69
570.853	98.69
571.064	91.69
571.276	99.69
571.487	111.69
571.698	105.69
571.91	106.69
572.121	81.69
572.333	108.69
572.544	105.69
572.755	93.69
572.966	78.69
573.178	94.69
573.389	84.69
573.6	80.69
573.811	78.69
574.023	87.69
574.234	83.69
574.445	101.69
574.656	92.69
574.867	84.69
575.078	101.69
575.289	102.69
575.501	76.69
575.712	100.69
575.923	100.69
576.134	99.69
576.345	99.69
576.556	101.69
576.767	98.69
576.978	103.69
577.188	100.69
577.399	101.69
577.61	83.69
577.821	107.69
578.032	97.69
578.243	104.69
578.454	101.69
578.665	98.69
578.875	99.69
579.086	81.69
579.297	76.69
579.508	87.69
579.718	86.69
579.929	88.69
580.14	90.69
580.35	95.69
580.561	80.69
580.772	83.69
580.982	88.69
581.193	100.69
581.403	96.69
581.614	80.69
581.825	93.69
582.035	90.69
582.246	86.69
582.456	88.69
582.667	90.69
582.877	80.69
583.087	98.69
583.298	93.69
583.508	74.69
583.719	76.69
583.929	86.69
584.139	91.69
584.35	81.69
584.56	98.69
584.77	83.69
584.981	96.69
585.191	77.69
585.401	88.69
585.611	72.69
585.821	90.69
586.032	78.69
586.242	78.69
586.452	84.69
586.662	86.69
586.872	82.69
587.082	87.69
587.292	88.69
587.502	89.69
587.713	75.69
587.923	87.69
588.133	81.69
588.343	83.69
588.553	75.69
588.762	77.69
588.972	97.69
589.182	82.69
589.392	97.69
589.602	82.69
589.812	78.69
590.022	85.69
590.232	89.69
590.441	81.69
590.651	91.69
590.861	78.69
591.071	87.69
591.281	82.69
591.49	86.69
591.7	78.69
591.91	82.69
592.119	94.69
592.329	75.69
592.539	83.69
592.748	88.69
592.958	107.69
593.167	93.69
593.377	98.69
593.587	90.69
593.796	98.69
594.006	90.69
594.215	82.69
594.424	91.69
594.634	92.69
594.843	100.69
595.053	93.69
595.262	91.69
595.472	87.69
595.681	96.69
595.89	79.69
596.1	81.69
596.309	96.69
596.518	104.69
596.727	99.69
596.937	85.69
597.146	104.69
597.355	111.69
597.564	96.69
597.774	101.69
597.983	100.69
598.192	99.69
598.401	78.69
598.61	77.69
598.819	87.69
599.028	83.69
599.237	87.69
599.446	101.69
599.655	88.69
599.864	88.69
600.073	93.69
600.282	93.69
600.491	93.69
600.7	92.69
600.909	100.69
601.118	98.69
601.327	91.69
601.536	86.69
601.745	103.69
601.953	122.69
602.162	92.69
602.371	99.69
602.58	101.69
602.789	112.69
602.997	99.69
603.206	107.69
603.415	110.69
603.623	109.69
603.832	115.69
604.041	111.69
604.249	101.69
604.458	110.69
604.666	88.69
604.875	110.69
605.084	104.69
605.292	110.69
605.501	104.69
605.709	89.69
605.918	113.69
606.126	124.69
606.334	112.69
606.543	118.69
606.751	110.69
606.96	97.69
607.168	104.69
607.376	117.69
607.585	99.69
607.793	116.69
608.001	111.69
608.21	105.69
608.418	101.69
608.626	103.69
608.834	102.69
609.043	108.69
609.251	121.69
609.459	94.69
609.667	116.69
609.875	119.69
610.083	124.69
610.291	114.69
610.499	99.69
610.707	117.69
610.916	118.69
611.124	118.69
611.332	117.69
611.54	104.69
611.748	124.69
611.955	120.69
612.163	119.69
612.371	115.69
612.579	114.69
612.787	84.69
612.995	98.69
613.203	121.69
613.411	100.69
613.618	116.69
613.826	104.69
614.034	117.69
614.242	118.69
614.449	115.69
614.657	107.69
614.865	124.69
615.072	114.69
615.28	101.69
615.488	104.69
615.695	125.69
615.903	106.69
616.111	110.69
616.318	107.69
616.526	100.69
616.733	102.69
616.941	108.69
617.148	123.69
617.356	106.69
617.563	104.69
617.771	113.69
617.978	94.69
618.185	115.69
618.393	105.69
618.6	120.69
618.807	106.69
619.015	100.69
619.222	117.69
619.429	116.69
619.637	102.69
619.844	102.69
620.051	100.69
620.258	119.69
620.466	116.69
620.673	110.69
620.88	110.69
621.087	98.69
621.294	95.69
621.501	98.69
621.708	106.69
621.915	108.69
622.122	95.69
622.329	107.69
622.536	118.69
622.743	104.69
622.95	98.69
623.157	96.69
623.364	99.69
623.571	123.69
623.778	116.69
623.985	119.69
624.192	124.69
624.399	109.69
624.606	110.69
624.812	109.69
625.019	109.69
625.226	101.69
625.433	104.69
625.639	104.69
625.846	110.69
626.053	96.69
626.259	104.69
626.466	95.69
626.673	100.69
626.879	101.69
627.086	92.69
627.293	110.69
627.499	113.69
627.706	107.69
627.912	106.69
628.119	100.69
628.325	108.69
628.532	115.69
628.738	102.69
628.945	107.69
629.151	98.69
629.357	111.69
629.564	96.69
629.77	90.69
629.976	117.69
630.183	109.69
630.389	109.69
630.595	104.69
630.802	121.69
631.008	103.69
631.214	96.69
631.42	115.69
631.627	89.69
631.833	90.69
632.039	93.69
632.245	108.69
632.451	108.69
632.657	103.69
632.863	103.69
633.069	99.69
633.275	94.69
633.481	87.69
633.688	96.69
633.893	108.69
634.099	107.69
634.305	97.69
634.511	108.69
634.717	99.69
634.923	85.69
635.129	103.69
635.335	118.69
635.541	91.69
635.747	95.69
635.952	101.69
636.158	115.69
636.364	107.69
636.57	92.69
636.775	109.69
636.981	103.69
637.187	108.69
637.392	104.69
637.598	98.69
637.804	94.69
638.009	104.69
638.215	106.69
638.421	100.69
638.626	100.69
638.832	97.69
639.037	97.69
639.243	99.69
639.448	103.69
639.654	100.69
639.859	91.69
640.065	98.69
640.27	112.69
640.475	95.69
640.681	103.69
640.886	107.69
641.091	115.69
641.297	110.69
641.502	112.69
641.707	104.69
641.913	91.69
642.118	98.69
642.323	99.69
642.528	104.69
642.733	95.69
642.939	96.69
643.144	108.69
643.349	96.69
643.554	105.69
643.759	102.69
643.964	89.69
644.169	107.69
644.374	98.69
644.579	95.69
644.784	99.69
644.989	89.69
645.194	111.69
645.399	111.69
645.604	95.69
645.809	120.69
646.014	94.69
646.219	114.69
646.423	93.69
646.628	98.69
646.833	98.69
647.038	105.69
647.243	76.69
647.447	91.69
647.652	100.69
647.857	102.69
648.062	103.69
648.266	88.69
648.471	99.69
648.676	96.69
648.88	97.69
649.085	90.69
649.289	88.69
649.494	83.69
649.698	98.69
649.903	105.69
650.107	94.69
650.312	111.69
650.516	96.69
650.721	100.69
650.925	101.69
651.13	94.69
651.334	105.69
651.539	96.69
651.743	103.69
651.947	103.69
652.152	110.69
652.356	89.69
652.56	84.69
652.764	98.69
652.969	81.69
653.173	90.69
653.377	94.69
653.581	96.69
653.785	104.69
653.99	88.69
654.194	105.69
654.398	101.69
654.602	84.69
654.806	94.69
655.01	95.69
655.214	88.69
655.418	93.69
655.622	82.69
655.826	91.69
656.03	76.69
656.234	87.69
656.438	83.69
656.642	73.69
656.846	89.69
657.049	72.69
657.253	87.69
657.457	95.69
657.661	86.69
657.865	91.69
658.068	95.69
658.272	81.69
658.476	94.69
658.68	84.69
658.883	88.69
659.087	83.69
659.291	82.69
659.494	91.69
659.698	79.69
659.901	90.69
660.105	95.69
660.309	90.69
660.512	88.69
660.716	83.69
660.919	87.69
661.123	77.69
661.326	75.69
661.53	87.69
661.733	84.69
661.936	83.69
662.14	89.69
662.343	100.69
662.546	94.69
662.75	95.69
662.953	80.69
663.156	82.69
663.36	95.69
663.563	96.69
663.766	80.69
663.969	77.69
664.173	92.69
664.376	85.69
664.579	86.69
664.782	90.69
664.985	86.69
665.188	79.69
665.391	77.69
665.594	86.69
665.797	84.69
666	74.69
666.203	87.69
666.406	93.69
666.609	80.69
666.812	89.69
667.015	80.69
667.218	81.69
667.421	88.69
667.624	80.69
667.827	74.69
668.03	87.69
668.232	84.69
668.435	87.69
668.638	80.69
668.841	88.69
669.043	86.69
669.246	80.69
669.449	81.69
669.651	96.69
669.854	95.69
670.057	90.69
670.259	91.69
670.462	85.69
670.665	70.69
670.867	70.69
671.07	80.69
671.272	84.69
671.475	76.69
671.677	65.69
671.88	94.69
672.082	91.69
672.284	93.69
672.487	74.69
672.689	88.69
672.892	90.69
