Data from Location1.07152019.Energy5.Lamp.07192019.3%Agarose_HRD10591_14-33-21-018.txt Node
Date: Fri Jul 19 14:33:21 EDT 2019
User: cochatt
Spectrometer: HR+D1059
Trigger mode: 1
Integration Time (sec): 1.000000E-1
Scans to average: 1
Electric dark correction enabled: true
Nonlinearity correction enabled: false
Boxcar width: 0
XAxis mode: Wavelengths
Number of Pixels in Spectrum: 2048
>>>>>Begin Spectral Data<<<<<
223.165	-8.31
223.4	-8.31
223.635	-8.31
223.869	-19.31
224.104	-18.31
224.338	-10.31
224.573	-16.31
224.808	-22.31
225.042	4.69
225.277	-5.31
225.511	3.69
225.746	-1.31
225.98	0.69
226.215	13.69
226.449	21.69
226.683	10.69
226.918	30.69
227.152	15.69
227.387	28.69
227.621	37.69
227.856	40.69
228.09	44.69
228.324	57.69
228.559	64.69
228.793	36.69
229.027	53.69
229.262	62.69
229.496	69.69
229.73	69.69
229.964	79.69
230.199	81.69
230.433	91.69
230.667	59.69
230.901	80.69
231.136	70.69
231.37	62.69
231.604	88.69
231.838	80.69
232.072	83.69
232.306	86.69
232.541	87.69
232.775	94.69
233.009	85.69
233.243	82.69
233.477	79.69
233.711	80.69
233.945	76.69
234.179	93.69
234.413	102.69
234.647	80.69
234.881	73.69
235.115	79.69
235.349	71.69
235.583	85.69
235.817	69.69
236.051	91.69
236.285	80.69
236.519	85.69
236.753	91.69
236.987	86.69
237.221	81.69
237.455	79.69
237.689	71.69
237.922	81.69
238.156	80.69
238.39	80.69
238.624	72.69
238.858	79.69
239.091	91.69
239.325	72.69
239.559	70.69
239.793	78.69
240.027	77.69
240.26	78.69
240.494	76.69
240.728	84.69
240.961	83.69
241.195	83.69
241.429	77.69
241.662	74.69
241.896	62.69
242.13	88.69
242.363	85.69
242.597	80.69
242.83	70.69
243.064	80.69
243.298	69.69
243.531	89.69
243.765	89.69
243.998	90.69
244.232	69.69
244.465	75.69
244.699	86.69
244.932	88.69
245.166	84.69
245.399	71.69
245.633	100.69
245.866	72.69
246.099	79.69
246.333	92.69
246.566	89.69
246.8	89.69
247.033	73.69
247.266	80.69
247.5	86.69
247.733	83.69
247.966	98.69
248.2	73.69
248.433	91.69
248.666	84.69
248.899	91.69
249.133	89.69
249.366	77.69
249.599	75.69
249.832	71.69
250.066	78.69
250.299	78.69
250.532	76.69
250.765	80.69
250.998	73.69
251.231	73.69
251.465	81.69
251.698	69.69
251.931	78.69
252.164	95.69
252.397	71.69
252.63	75.69
252.863	90.69
253.096	80.69
253.329	75.69
253.562	81.69
253.795	100.69
254.028	77.69
254.261	71.69
254.494	72.69
254.727	89.69
254.96	64.69
255.193	74.69
255.426	71.69
255.659	79.69
255.892	86.69
256.124	85.69
256.357	79.69
256.59	78.69
256.823	77.69
257.056	85.69
257.289	83.69
257.521	81.69
257.754	86.69
257.987	81.69
258.22	82.69
258.452	87.69
258.685	83.69
258.918	80.69
259.151	90.69
259.383	72.69
259.616	78.69
259.849	77.69
260.081	81.69
260.314	73.69
260.547	84.69
260.779	87.69
261.012	86.69
261.244	68.69
261.477	75.69
261.71	73.69
261.942	94.69
262.175	92.69
262.407	88.69
262.64	89.69
262.872	100.69
263.105	92.69
263.337	80.69
263.57	61.69
263.802	71.69
264.035	79.69
264.267	93.69
264.499	76.69
264.732	80.69
264.964	95.69
265.197	87.69
265.429	80.69
265.661	78.69
265.894	80.69
266.126	80.69
266.358	84.69
266.591	60.69
266.823	83.69
267.055	87.69
267.287	76.69
267.52	100.69
267.752	85.69
267.984	71.69
268.216	91.69
268.448	92.69
268.681	73.69
268.913	77.69
269.145	76.69
269.377	72.69
269.609	95.69
269.841	76.69
270.073	97.69
270.306	82.69
270.538	76.69
270.77	91.69
271.002	79.69
271.234	93.69
271.466	94.69
271.698	86.69
271.93	100.69
272.162	80.69
272.394	92.69
272.626	94.69
272.858	80.69
273.09	84.69
273.322	78.69
273.553	85.69
273.785	96.69
274.017	80.69
274.249	94.69
274.481	87.69
274.713	88.69
274.945	75.69
275.176	83.69
275.408	75.69
275.64	91.69
275.872	93.69
276.104	92.69
276.335	81.69
276.567	84.69
276.799	73.69
277.031	98.69
277.262	84.69
277.494	64.69
277.726	86.69
277.957	82.69
278.189	92.69
278.421	78.69
278.652	86.69
278.884	79.69
279.115	76.69
279.347	80.69
279.579	78.69
279.81	76.69
280.042	84.69
280.273	81.69
280.505	91.69
280.736	81.69
280.968	79.69
281.199	84.69
281.431	83.69
281.662	80.69
281.894	85.69
282.125	87.69
282.356	93.69
282.588	86.69
282.819	88.69
283.051	77.69
283.282	86.69
283.513	85.69
283.745	93.69
283.976	91.69
284.207	92.69
284.439	79.69
284.67	88.69
284.901	90.69
285.132	88.69
285.364	106.69
285.595	83.69
285.826	82.69
286.057	90.69
286.288	93.69
286.52	79.69
286.751	82.69
286.982	84.69
287.213	92.69
287.444	90.69
287.675	96.69
287.906	90.69
288.138	84.69
288.369	96.69
288.6	78.69
288.831	86.69
289.062	83.69
289.293	73.69
289.524	75.69
289.755	91.69
289.986	95.69
290.217	93.69
290.448	72.69
290.679	82.69
290.91	87.69
291.141	97.69
291.371	80.69
291.602	88.69
291.833	96.69
292.064	74.69
292.295	80.69
292.526	93.69
292.757	91.69
292.987	81.69
293.218	80.69
293.449	93.69
293.68	92.69
293.91	95.69
294.141	85.69
294.372	99.69
294.603	92.69
294.833	99.69
295.064	81.69
295.295	88.69
295.525	84.69
295.756	92.69
295.987	92.69
296.217	83.69
296.448	73.69
296.679	80.69
296.909	93.69
297.14	90.69
297.37	85.69
297.601	89.69
297.831	84.69
298.062	78.69
298.292	81.69
298.523	80.69
298.753	96.69
298.984	90.69
299.214	96.69
299.445	107.69
299.675	91.69
299.905	87.69
300.136	91.69
300.366	91.69
300.597	79.69
300.827	81.69
301.057	76.69
301.288	87.69
301.518	88.69
301.748	93.69
301.979	97.69
302.209	78.69
302.439	81.69
302.669	85.69
302.9	101.69
303.13	88.69
303.36	88.69
303.59	76.69
303.82	79.69
304.051	83.69
304.281	89.69
304.511	107.69
304.741	92.69
304.971	86.69
305.201	80.69
305.431	83.69
305.661	88.69
305.891	82.69
306.121	90.69
306.352	97.69
306.582	82.69
306.812	68.69
307.042	76.69
307.272	79.69
307.502	85.69
307.731	70.69
307.961	83.69
308.191	76.69
308.421	81.69
308.651	81.69
308.881	79.69
309.111	88.69
309.341	83.69
309.571	87.69
309.8	87.69
310.03	92.69
310.26	77.69
310.49	91.69
310.72	80.69
310.949	77.69
311.179	93.69
311.409	80.69
311.639	77.69
311.868	85.69
312.098	84.69
312.328	91.69
312.557	82.69
312.787	83.69
313.017	91.69
313.246	89.69
313.476	89.69
313.706	84.69
313.935	97.69
314.165	84.69
314.394	81.69
314.624	80.69
314.853	92.69
315.083	79.69
315.312	95.69
315.542	93.69
315.771	80.69
316.001	87.69
316.23	81.69
316.46	90.69
316.689	91.69
316.919	85.69
317.148	94.69
317.377	76.69
317.607	87.69
317.836	94.69
318.065	88.69
318.295	98.69
318.524	66.69
318.753	87.69
318.983	83.69
319.212	97.69
319.441	94.69
319.67	83.69
319.9	81.69
320.129	93.69
320.358	88.69
320.587	85.69
320.816	83.69
321.046	93.69
321.275	87.69
321.504	71.69
321.733	75.69
321.962	66.69
322.191	84.69
322.42	80.69
322.649	91.69
322.878	94.69
323.108	88.69
323.337	81.69
323.566	85.69
323.795	75.69
324.024	99.69
324.253	71.69
324.482	79.69
324.71	91.69
324.939	84.69
325.168	91.69
325.397	92.69
325.626	62.69
325.855	86.69
326.084	88.69
326.313	90.69
326.542	79.69
326.77	99.69
326.999	89.69
327.228	87.69
327.457	79.69
327.686	79.69
327.914	87.69
328.143	88.69
328.372	100.69
328.6	75.69
328.829	63.69
329.058	75.69
329.287	81.69
329.515	80.69
329.744	83.69
329.972	90.69
330.201	76.69
330.43	92.69
330.658	99.69
330.887	71.69
331.115	81.69
331.344	81.69
331.572	81.69
331.801	91.69
332.03	84.69
332.258	74.69
332.486	96.69
332.715	91.69
332.943	79.69
333.172	76.69
333.4	89.69
333.629	87.69
333.857	89.69
334.085	81.69
334.314	97.69
334.542	67.69
334.771	87.69
334.999	82.69
335.227	95.69
335.455	79.69
335.684	84.69
335.912	81.69
336.14	82.69
336.369	90.69
336.597	76.69
336.825	97.69
337.053	84.69
337.281	72.69
337.51	80.69
337.738	93.69
337.966	81.69
338.194	79.69
338.422	99.69
338.65	87.69
338.878	86.69
339.106	85.69
339.334	76.69
339.562	93.69
339.79	88.69
340.018	93.69
340.246	84.69
340.474	88.69
340.702	91.69
340.93	97.69
341.158	80.69
341.386	80.69
341.614	88.69
341.842	78.69
342.07	96.69
342.298	93.69
342.526	83.69
342.754	94.69
342.981	92.69
343.209	77.69
343.437	75.69
343.665	97.69
343.893	80.69
344.12	88.69
344.348	79.69
344.576	98.69
344.804	97.69
345.031	79.69
345.259	73.69
345.487	76.69
345.714	71.69
345.942	71.69
346.17	87.69
346.397	79.69
346.625	87.69
346.853	91.69
347.08	83.69
347.308	71.69
347.535	76.69
347.763	88.69
347.99	75.69
348.218	79.69
348.445	80.69
348.673	86.69
348.9	92.69
349.128	84.69
349.355	81.69
349.583	80.69
349.81	86.69
350.037	74.69
350.265	94.69
350.492	75.69
350.72	86.69
350.947	76.69
351.174	85.69
351.402	86.69
351.629	91.69
351.856	92.69
352.083	94.69
352.311	91.69
352.538	69.69
352.765	81.69
352.992	82.69
353.22	87.69
353.447	85.69
353.674	75.69
353.901	87.69
354.128	95.69
354.355	86.69
354.583	83.69
354.81	94.69
355.037	85.69
355.264	76.69
355.491	91.69
355.718	87.69
355.945	84.69
356.172	80.69
356.399	71.69
356.626	77.69
356.853	92.69
357.08	85.69
357.307	83.69
357.534	84.69
357.761	83.69
357.988	82.69
358.215	91.69
358.441	78.69
358.668	73.69
358.895	103.69
359.122	101.69
359.349	84.69
359.576	80.69
359.802	87.69
360.029	80.69
360.256	68.69
360.483	81.69
360.709	91.69
360.936	78.69
361.163	83.69
361.39	101.69
361.616	91.69
361.843	95.69
362.07	94.69
362.296	84.69
362.523	91.69
362.749	82.69
362.976	77.69
363.203	85.69
363.429	83.69
363.656	85.69
363.882	81.69
364.109	85.69
364.335	86.69
364.562	81.69
364.788	93.69
365.015	90.69
365.241	93.69
365.468	95.69
365.694	78.69
365.92	94.69
366.147	96.69
366.373	87.69
366.599	96.69
366.826	92.69
367.052	72.69
367.278	76.69
367.505	94.69
367.731	89.69
367.957	82.69
368.184	94.69
368.41	78.69
368.636	95.69
368.862	87.69
369.089	90.69
369.315	99.69
369.541	82.69
369.767	90.69
369.993	87.69
370.219	80.69
370.445	92.69
370.672	83.69
370.898	78.69
371.124	89.69
371.35	86.69
371.576	85.69
371.802	85.69
372.028	92.69
372.254	90.69
372.48	90.69
372.706	100.69
372.932	92.69
373.158	105.69
373.384	91.69
373.61	100.69
373.835	99.69
374.061	92.69
374.287	94.69
374.513	87.69
374.739	95.69
374.965	104.69
375.191	80.69
375.416	97.69
375.642	96.69
375.868	89.69
376.094	86.69
376.319	96.69
376.545	96.69
376.771	98.69
376.997	95.69
377.222	88.69
377.448	95.69
377.674	89.69
377.899	91.69
378.125	79.69
378.35	95.69
378.576	95.69
378.802	93.69
379.027	97.69
379.253	111.69
379.478	102.69
379.704	87.69
379.929	91.69
380.155	96.69
380.38	91.69
380.606	102.69
380.831	84.69
381.057	106.69
381.282	94.69
381.507	103.69
381.733	83.69
381.958	90.69
382.184	94.69
382.409	94.69
382.634	91.69
382.86	88.69
383.085	113.69
383.31	109.69
383.535	116.69
383.761	88.69
383.986	84.69
384.211	100.69
384.436	96.69
384.662	103.69
384.887	105.69
385.112	92.69
385.337	100.69
385.562	87.69
385.787	68.69
386.013	106.69
386.238	92.69
386.463	113.69
386.688	94.69
386.913	91.69
387.138	99.69
387.363	110.69
387.588	113.69
387.813	102.69
388.038	103.69
388.263	96.69
388.488	96.69
388.713	102.69
388.938	119.69
389.163	111.69
389.387	102.69
389.612	100.69
389.837	95.69
390.062	93.69
390.287	89.69
390.512	95.69
390.736	95.69
390.961	108.69
391.186	102.69
391.411	115.69
391.636	103.69
391.86	112.69
392.085	118.69
392.31	120.69
392.534	109.69
392.759	88.69
392.984	91.69
393.208	99.69
393.433	105.69
393.658	102.69
393.882	102.69
394.107	94.69
394.331	118.69
394.556	106.69
394.78	100.69
395.005	101.69
395.229	99.69
395.454	100.69
395.678	96.69
395.903	103.69
396.127	123.69
396.352	121.69
396.576	117.69
396.801	102.69
397.025	105.69
397.249	108.69
397.474	112.69
397.698	125.69
397.922	121.69
398.147	124.69
398.371	112.69
398.595	109.69
398.82	114.69
399.044	117.69
399.268	103.69
399.492	101.69
399.717	107.69
399.941	105.69
400.165	115.69
400.389	105.69
400.613	118.69
400.837	123.69
401.062	116.69
401.286	128.69
401.51	117.69
401.734	92.69
401.958	119.69
402.182	110.69
402.406	120.69
402.63	123.69
402.854	123.69
403.078	125.69
403.302	103.69
403.526	121.69
403.75	95.69
403.974	117.69
404.198	110.69
404.422	101.69
404.645	114.69
404.869	108.69
405.093	121.69
405.317	128.69
405.541	110.69
405.765	110.69
405.988	124.69
406.212	113.69
406.436	114.69
406.66	117.69
406.883	118.69
407.107	108.69
407.331	103.69
407.555	111.69
407.778	121.69
408.002	119.69
408.226	122.69
408.449	113.69
408.673	128.69
408.896	138.69
409.12	123.69
409.344	118.69
409.567	120.69
409.791	120.69
410.014	124.69
410.238	121.69
410.461	120.69
410.685	132.69
410.908	103.69
411.132	122.69
411.355	142.69
411.578	129.69
411.802	122.69
412.025	129.69
412.249	138.69
412.472	135.69
412.695	119.69
412.919	122.69
413.142	113.69
413.365	129.69
413.589	131.69
413.812	125.69
414.035	123.69
414.258	121.69
414.482	124.69
414.705	117.69
414.928	121.69
415.151	119.69
415.374	132.69
415.597	124.69
415.821	128.69
416.044	116.69
416.267	122.69
416.49	118.69
416.713	125.69
416.936	125.69
417.159	127.69
417.382	124.69
417.605	128.69
417.828	138.69
418.051	139.69
418.274	129.69
418.497	133.69
418.72	136.69
418.943	130.69
419.166	132.69
419.389	141.69
419.611	115.69
419.834	127.69
420.057	124.69
420.28	127.69
420.503	127.69
420.726	134.69
420.948	135.69
421.171	129.69
421.394	132.69
421.617	121.69
421.839	128.69
422.062	129.69
422.285	127.69
422.507	133.69
422.73	131.69
422.953	126.69
423.175	141.69
423.398	139.69
423.621	124.69
423.843	133.69
424.066	117.69
424.288	135.69
424.511	152.69
424.733	127.69
424.956	145.69
425.178	145.69
425.401	138.69
425.623	125.69
425.846	142.69
426.068	133.69
426.291	127.69
426.513	130.69
426.735	139.69
426.958	123.69
427.18	122.69
427.402	128.69
427.625	132.69
427.847	127.69
428.069	140.69
428.292	128.69
428.514	126.69
428.736	133.69
428.958	131.69
429.181	132.69
429.403	126.69
429.625	138.69
429.847	128.69
430.069	126.69
430.292	141.69
430.514	129.69
430.736	119.69
430.958	136.69
431.18	134.69
431.402	124.69
431.624	114.69
431.846	99.69
432.068	94.69
432.29	89.69
432.512	104.69
432.734	122.69
432.956	141.69
433.178	128.69
433.4	131.69
433.622	135.69
433.844	128.69
434.066	136.69
434.287	100.69
434.509	90.69
434.731	99.69
434.953	94.69
435.175	122.69
435.397	127.69
435.618	119.69
435.84	111.69
436.062	118.69
436.284	127.69
436.505	135.69
436.727	116.69
436.949	134.69
437.17	127.69
437.392	129.69
437.614	127.69
437.835	124.69
438.057	130.69
438.278	121.69
438.5	115.69
438.721	132.69
438.943	137.69
439.165	125.69
439.386	151.69
439.608	142.69
439.829	140.69
440.05	134.69
440.272	145.69
440.493	137.69
440.715	158.69
440.936	148.69
441.158	144.69
441.379	143.69
441.6	141.69
441.822	153.69
442.043	141.69
442.264	143.69
442.486	140.69
442.707	140.69
442.928	138.69
443.149	132.69
443.371	127.69
443.592	134.69
443.813	149.69
444.034	130.69
444.255	133.69
444.476	144.69
444.698	123.69
444.919	131.69
445.14	227.69
445.361	187.69
445.582	157.69
445.803	141.69
446.024	161.69
446.245	139.69
446.466	159.69
446.687	156.69
446.908	149.69
447.129	138.69
447.35	151.69
447.571	153.69
447.792	138.69
448.013	139.69
448.234	135.69
448.455	146.69
448.675	139.69
448.896	153.69
449.117	136.69
449.338	129.69
449.559	128.69
449.779	139.69
450	131.69
450.221	130.69
450.442	149.69
450.662	138.69
450.883	135.69
451.104	136.69
451.324	131.69
451.545	139.69
451.766	117.69
451.986	112.69
452.207	117.69
452.428	127.69
452.648	132.69
452.869	123.69
453.089	135.69
453.31	127.69
453.53	112.69
453.751	107.69
453.971	101.69
454.192	111.69
454.412	117.69
454.633	125.69
454.853	117.69
455.073	124.69
455.294	112.69
455.514	127.69
455.734	130.69
455.955	108.69
456.175	117.69
456.395	117.69
456.616	117.69
456.836	107.69
457.056	121.69
457.276	107.69
457.497	111.69
457.717	103.69
457.937	118.69
458.157	111.69
458.377	109.69
458.598	112.69
458.818	95.69
459.038	88.69
459.258	90.69
459.478	79.69
459.698	88.69
459.918	89.69
460.138	110.69
460.358	104.69
460.578	119.69
460.798	123.69
461.018	116.69
461.238	113.69
461.458	134.69
461.678	100.69
461.898	123.69
462.118	135.69
462.338	125.69
462.558	122.69
462.777	110.69
462.997	108.69
463.217	102.69
463.437	110.69
463.657	106.69
463.876	128.69
464.096	113.69
464.316	117.69
464.536	119.69
464.755	116.69
464.975	116.69
465.195	113.69
465.414	101.69
465.634	119.69
465.854	119.69
466.073	127.69
466.293	122.69
466.512	145.69
466.732	133.69
466.951	147.69
467.171	127.69
467.391	128.69
467.61	139.69
467.829	133.69
468.049	152.69
468.268	145.69
468.488	132.69
468.707	135.69
468.927	147.69
469.146	141.69
469.365	138.69
469.585	118.69
469.804	131.69
470.023	149.69
470.243	133.69
470.462	133.69
470.681	155.69
470.901	131.69
471.12	127.69
471.339	138.69
471.558	149.69
471.777	126.69
471.997	133.69
472.216	117.69
472.435	113.69
472.654	109.69
472.873	105.69
473.092	111.69
473.311	120.69
473.53	125.69
473.749	115.69
473.968	129.69
474.187	107.69
474.406	112.69
474.625	120.69
474.844	127.69
475.063	140.69
475.282	131.69
475.501	107.69
475.72	126.69
475.939	123.69
476.158	120.69
476.377	132.69
476.596	128.69
476.814	115.69
477.033	110.69
477.252	117.69
477.471	129.69
477.69	113.69
477.908	138.69
478.127	127.69
478.346	132.69
478.564	135.69
478.783	124.69
479.002	139.69
479.22	122.69
479.439	136.69
479.658	125.69
479.876	104.69
480.095	109.69
480.313	125.69
480.532	128.69
480.751	108.69
480.969	95.69
481.188	105.69
481.406	85.69
481.624	84.69
481.843	95.69
482.061	110.69
482.28	126.69
482.498	121.69
482.717	109.69
482.935	122.69
483.153	152.69
483.372	149.69
483.59	146.69
483.808	143.69
484.027	123.69
484.245	128.69
484.463	145.69
484.681	147.69
484.9	151.69
485.118	155.69
485.336	128.69
485.554	99.69
485.772	99.69
485.99	96.69
486.209	121.69
486.427	106.69
486.645	109.69
486.863	138.69
487.081	134.69
487.299	127.69
487.517	130.69
487.735	169.69
487.953	163.69
488.171	168.69
488.389	173.69
488.607	169.69
488.825	130.69
489.043	125.69
489.261	133.69
489.479	137.69
489.696	147.69
489.914	143.69
490.132	151.69
490.35	154.69
490.568	184.69
490.786	179.69
491.003	182.69
491.221	186.69
491.439	182.69
491.657	206.69
491.874	209.69
492.092	213.69
492.31	249.69
492.527	217.69
492.745	227.69
492.963	179.69
493.18	189.69
493.398	179.69
493.615	190.69
493.833	169.69
494.05	161.69
494.268	183.69
494.485	178.69
494.703	172.69
494.92	176.69
495.138	180.69
495.355	185.69
495.573	172.69
495.79	171.69
496.008	172.69
496.225	164.69
496.442	170.69
496.66	185.69
496.877	168.69
497.094	165.69
497.312	148.69
497.529	145.69
497.746	159.69
497.963	141.69
498.181	129.69
498.398	120.69
498.615	120.69
498.832	117.69
499.049	124.69
499.267	118.69
499.484	119.69
499.701	126.69
499.918	131.69
500.135	135.69
500.352	138.69
500.569	149.69
500.786	167.69
501.003	137.69
501.22	141.69
501.437	137.69
501.654	130.69
501.871	135.69
502.088	129.69
502.305	137.69
502.522	129.69
502.739	133.69
502.956	118.69
503.172	117.69
503.389	105.69
503.606	115.69
503.823	120.69
504.04	126.69
504.256	113.69
504.473	118.69
504.69	128.69
504.907	127.69
505.123	124.69
505.34	118.69
505.557	128.69
505.773	129.69
505.99	135.69
506.207	110.69
506.423	121.69
506.64	118.69
506.856	118.69
507.073	128.69
507.289	123.69
507.506	116.69
507.722	140.69
507.939	111.69
508.155	116.69
508.372	105.69
508.588	114.69
508.805	112.69
509.021	112.69
509.238	99.69
509.454	111.69
509.67	103.69
509.887	101.69
510.103	93.69
510.319	106.69
510.536	91.69
510.752	86.69
510.968	85.69
511.184	83.69
511.401	79.69
511.617	86.69
511.833	97.69
512.049	107.69
512.265	86.69
512.481	96.69
512.698	95.69
512.914	99.69
513.13	86.69
513.346	83.69
513.562	102.69
513.778	87.69
513.994	88.69
514.21	88.69
514.426	98.69
514.642	112.69
514.858	105.69
515.074	101.69
515.29	92.69
515.506	80.69
515.721	96.69
515.937	86.69
516.153	86.69
516.369	88.69
516.585	99.69
516.801	89.69
517.016	96.69
517.232	95.69
517.448	101.69
517.664	91.69
517.879	97.69
518.095	98.69
518.311	99.69
518.527	103.69
518.742	107.69
518.958	88.69
519.173	106.69
519.389	102.69
519.605	102.69
519.82	102.69
520.036	121.69
520.251	108.69
520.467	106.69
520.682	94.69
520.898	88.69
521.113	82.69
521.329	92.69
521.544	89.69
521.76	100.69
521.975	96.69
522.19	88.69
522.406	96.69
522.621	104.69
522.836	102.69
523.052	113.69
523.267	103.69
523.482	107.69
523.698	112.69
523.913	133.69
524.128	106.69
524.343	117.69
524.559	117.69
524.774	118.69
524.989	127.69
525.204	111.69
525.419	123.69
525.634	119.69
525.849	130.69
526.064	108.69
526.28	95.69
526.495	85.69
526.71	102.69
526.925	95.69
527.14	86.69
527.355	83.69
527.57	95.69
527.785	89.69
527.999	101.69
528.214	111.69
528.429	99.69
528.644	111.69
528.859	134.69
529.074	131.69
529.289	157.69
529.503	147.69
529.718	137.69
529.933	120.69
530.148	108.69
530.363	101.69
530.577	102.69
530.792	99.69
531.007	84.69
531.221	92.69
531.436	91.69
531.651	89.69
531.865	90.69
532.08	81.69
532.295	82.69
532.509	96.69
532.724	91.69
532.938	81.69
533.153	100.69
533.367	123.69
533.582	110.69
533.796	131.69
534.011	127.69
534.225	99.69
534.44	100.69
534.654	100.69
534.868	92.69
535.083	98.69
535.297	101.69
535.511	104.69
535.726	116.69
535.94	109.69
536.154	94.69
536.369	87.69
536.583	95.69
536.797	80.69
537.011	73.69
537.225	84.69
537.44	90.69
537.654	82.69
537.868	93.69
538.082	88.69
538.296	93.69
538.51	111.69
538.724	108.69
538.938	128.69
539.153	123.69
539.367	134.69
539.581	123.69
539.795	110.69
540.009	95.69
540.222	100.69
540.436	101.69
540.65	109.69
540.864	123.69
541.078	145.69
541.292	150.69
541.506	152.69
541.72	174.69
541.934	197.69
542.147	202.69
542.361	186.69
542.575	161.69
542.789	151.69
543.002	130.69
543.216	128.69
543.43	118.69
543.644	128.69
543.857	154.69
544.071	159.69
544.285	153.69
544.498	166.69
544.712	166.69
544.925	161.69
545.139	162.69
545.352	160.69
545.566	163.69
545.779	155.69
545.993	167.69
546.206	159.69
546.42	164.69
546.633	167.69
546.847	157.69
547.06	171.69
547.274	168.69
547.487	184.69
547.7	175.69
547.914	186.69
548.127	168.69
548.34	155.69
548.554	156.69
548.767	156.69
548.98	157.69
549.193	151.69
549.407	147.69
549.62	158.69
549.833	150.69
550.046	156.69
550.259	158.69
550.473	146.69
550.686	153.69
550.899	152.69
551.112	148.69
551.325	122.69
551.538	123.69
551.751	122.69
551.964	108.69
552.177	133.69
552.39	135.69
552.603	151.69
552.816	163.69
553.029	145.69
553.242	160.69
553.455	147.69
553.667	145.69
553.88	160.69
554.093	159.69
554.306	159.69
554.519	144.69
554.732	144.69
554.944	147.69
555.157	139.69
555.37	135.69
555.583	147.69
555.795	145.69
556.008	146.69
556.221	144.69
556.433	129.69
556.646	141.69
556.859	135.69
557.071	140.69
557.284	137.69
557.496	134.69
557.709	135.69
557.921	148.69
558.134	139.69
558.346	153.69
558.559	133.69
558.771	143.69
558.984	139.69
559.196	129.69
559.409	133.69
559.621	106.69
559.833	107.69
560.046	138.69
560.258	134.69
560.47	139.69
560.683	137.69
560.895	123.69
561.107	128.69
561.32	138.69
561.532	113.69
561.744	136.69
561.956	137.69
562.168	119.69
562.381	128.69
562.593	131.69
562.805	127.69
563.017	135.69
563.229	127.69
563.441	124.69
563.653	131.69
563.865	129.69
564.077	125.69
564.289	136.69
564.501	118.69
564.713	131.69
564.925	134.69
565.137	127.69
565.349	128.69
565.561	121.69
565.773	126.69
565.985	127.69
566.197	113.69
566.408	115.69
566.62	119.69
566.832	116.69
567.044	109.69
567.255	139.69
567.467	109.69
567.679	110.69
567.891	108.69
568.102	103.69
568.314	100.69
568.526	102.69
568.737	110.69
568.949	92.69
569.161	95.69
569.372	88.69
569.584	88.69
569.795	95.69
570.007	84.69
570.218	92.69
570.43	98.69
570.641	101.69
570.853	104.69
571.064	104.69
571.276	103.69
571.487	116.69
571.698	115.69
571.91	102.69
572.121	108.69
572.333	95.69
572.544	100.69
572.755	93.69
572.966	110.69
573.178	88.69
573.389	84.69
573.6	84.69
573.811	79.69
574.023	88.69
574.234	75.69
574.445	92.69
574.656	95.69
574.867	84.69
575.078	91.69
575.289	91.69
575.501	100.69
575.712	89.69
575.923	84.69
576.134	89.69
576.345	91.69
576.556	95.69
576.767	86.69
576.978	104.69
577.188	108.69
577.399	103.69
577.61	93.69
577.821	88.69
578.032	98.69
578.243	92.69
578.454	93.69
578.665	83.69
578.875	84.69
579.086	96.69
579.297	90.69
579.508	106.69
579.718	93.69
579.929	93.69
580.14	94.69
580.35	88.69
580.561	86.69
580.772	85.69
580.982	88.69
581.193	92.69
581.403	96.69
581.614	92.69
581.825	102.69
582.035	95.69
582.246	82.69
582.456	85.69
582.667	88.69
582.877	86.69
583.087	88.69
583.298	91.69
583.508	92.69
583.719	88.69
583.929	87.69
584.139	73.69
584.35	91.69
584.56	92.69
584.77	94.69
584.981	89.69
585.191	83.69
585.401	79.69
585.611	98.69
585.821	99.69
586.032	86.69
586.242	86.69
586.452	78.69
586.662	82.69
586.872	80.69
587.082	91.69
587.292	79.69
587.502	88.69
587.713	76.69
587.923	98.69
588.133	88.69
588.343	81.69
588.553	78.69
588.762	93.69
588.972	94.69
589.182	83.69
589.392	80.69
589.602	84.69
589.812	86.69
590.022	82.69
590.232	108.69
590.441	86.69
590.651	83.69
590.861	77.69
591.071	68.69
591.281	80.69
591.49	83.69
591.7	93.69
591.91	92.69
592.119	88.69
592.329	97.69
592.539	93.69
592.748	90.69
592.958	96.69
593.167	96.69
593.377	88.69
593.587	93.69
593.796	93.69
594.006	84.69
594.215	91.69
594.424	91.69
594.634	99.69
594.843	75.69
595.053	106.69
595.262	106.69
595.472	90.69
595.681	80.69
595.89	102.69
596.1	75.69
596.309	97.69
596.518	99.69
596.727	85.69
596.937	98.69
597.146	85.69
597.355	97.69
597.564	97.69
597.774	83.69
597.983	93.69
598.192	88.69
598.401	106.69
598.61	100.69
598.819	103.69
599.028	95.69
599.237	100.69
599.446	105.69
599.655	105.69
599.864	88.69
600.073	103.69
600.282	102.69
600.491	99.69
600.7	99.69
600.909	98.69
601.118	91.69
601.327	90.69
601.536	107.69
601.745	104.69
601.953	97.69
602.162	108.69
602.371	117.69
602.58	95.69
602.789	106.69
602.997	112.69
603.206	110.69
603.415	102.69
603.623	104.69
603.832	124.69
604.041	115.69
604.249	100.69
604.458	108.69
604.666	96.69
604.875	109.69
605.084	109.69
605.292	110.69
605.501	103.69
605.709	113.69
605.918	103.69
606.126	110.69
606.334	99.69
606.543	104.69
606.751	99.69
606.96	127.69
607.168	105.69
607.376	89.69
607.585	109.69
607.793	105.69
608.001	117.69
608.21	116.69
608.418	110.69
608.626	109.69
608.834	120.69
609.043	111.69
609.251	124.69
609.459	109.69
609.667	104.69
609.875	123.69
610.083	106.69
610.291	117.69
610.499	113.69
610.707	119.69
610.916	125.69
611.124	111.69
611.332	109.69
611.54	122.69
611.748	132.69
611.955	116.69
612.163	121.69
612.371	99.69
612.579	117.69
612.787	108.69
612.995	125.69
613.203	110.69
613.411	113.69
613.618	100.69
613.826	110.69
614.034	108.69
614.242	106.69
614.449	111.69
614.657	119.69
614.865	101.69
615.072	111.69
615.28	115.69
615.488	115.69
615.695	110.69
615.903	103.69
616.111	107.69
616.318	115.69
616.526	125.69
616.733	116.69
616.941	103.69
617.148	118.69
617.356	117.69
617.563	92.69
617.771	100.69
617.978	107.69
618.185	118.69
618.393	120.69
618.6	97.69
618.807	94.69
619.015	116.69
619.222	113.69
619.429	95.69
619.637	107.69
619.844	100.69
620.051	119.69
620.258	121.69
620.466	114.69
620.673	94.69
620.88	99.69
621.087	123.69
621.294	112.69
621.501	115.69
621.708	102.69
621.915	104.69
622.122	108.69
622.329	108.69
622.536	99.69
622.743	91.69
622.95	104.69
623.157	108.69
623.364	111.69
623.571	125.69
623.778	107.69
623.985	119.69
624.192	110.69
624.399	107.69
624.606	109.69
624.812	122.69
625.019	110.69
625.226	110.69
625.433	106.69
625.639	96.69
625.846	99.69
626.053	95.69
626.259	90.69
626.466	121.69
626.673	96.69
626.879	87.69
627.086	102.69
627.293	112.69
627.499	102.69
627.706	118.69
627.912	115.69
628.119	112.69
628.325	119.69
628.532	94.69
628.738	107.69
628.945	115.69
629.151	110.69
629.357	108.69
629.564	108.69
629.77	104.69
629.976	92.69
630.183	95.69
630.389	103.69
630.595	92.69
630.802	112.69
631.008	107.69
631.214	102.69
631.42	132.69
631.627	98.69
631.833	100.69
632.039	124.69
632.245	115.69
632.451	109.69
632.657	86.69
632.863	91.69
633.069	106.69
633.275	99.69
633.481	106.69
633.688	86.69
633.893	107.69
634.099	94.69
634.305	104.69
634.511	108.69
634.717	115.69
634.923	100.69
635.129	99.69
635.335	106.69
635.541	98.69
635.747	121.69
635.952	103.69
636.158	108.69
636.364	92.69
636.57	120.69
636.775	97.69
636.981	90.69
637.187	106.69
637.392	93.69
637.598	108.69
637.804	78.69
638.009	92.69
638.215	115.69
638.421	102.69
638.626	106.69
638.832	99.69
639.037	103.69
639.243	100.69
639.448	103.69
639.654	120.69
639.859	92.69
640.065	116.69
640.27	104.69
640.475	112.69
640.681	102.69
640.886	93.69
641.091	123.69
641.297	107.69
641.502	96.69
641.707	88.69
641.913	105.69
642.118	92.69
642.323	111.69
642.528	95.69
642.733	87.69
642.939	85.69
643.144	101.69
643.349	106.69
643.554	103.69
643.759	99.69
643.964	109.69
644.169	113.69
644.374	98.69
644.579	108.69
644.784	88.69
644.989	108.69
645.194	93.69
645.399	112.69
645.604	106.69
645.809	102.69
646.014	105.69
646.219	102.69
646.423	100.69
646.628	100.69
646.833	94.69
647.038	101.69
647.243	95.69
647.447	87.69
647.652	113.69
647.857	87.69
648.062	108.69
648.266	105.69
648.471	94.69
648.676	104.69
648.88	106.69
649.085	92.69
649.289	92.69
649.494	104.69
649.698	113.69
649.903	93.69
650.107	85.69
650.312	95.69
650.516	72.69
650.721	96.69
650.925	87.69
651.13	95.69
651.334	95.69
651.539	91.69
651.743	90.69
651.947	101.69
652.152	81.69
652.356	94.69
652.56	81.69
652.764	98.69
652.969	107.69
653.173	94.69
653.377	97.69
653.581	101.69
653.785	109.69
653.99	95.69
654.194	94.69
654.398	91.69
654.602	97.69
654.806	97.69
655.01	88.69
655.214	85.69
655.418	87.69
655.622	99.69
655.826	88.69
656.03	85.69
656.234	99.69
656.438	84.69
656.642	96.69
656.846	85.69
657.049	95.69
657.253	93.69
657.457	92.69
657.661	88.69
657.865	91.69
658.068	96.69
658.272	79.69
658.476	94.69
658.68	100.69
658.883	103.69
659.087	94.69
659.291	89.69
659.494	82.69
659.698	92.69
659.901	90.69
660.105	101.69
660.309	91.69
660.512	78.69
660.716	93.69
660.919	81.69
661.123	86.69
661.326	83.69
661.53	81.69
661.733	80.69
661.936	91.69
662.14	78.69
662.343	80.69
662.546	88.69
662.75	88.69
662.953	80.69
663.156	82.69
663.36	86.69
663.563	90.69
663.766	79.69
663.969	67.69
664.173	95.69
664.376	89.69
664.579	83.69
664.782	83.69
664.985	97.69
665.188	96.69
665.391	97.69
665.594	74.69
665.797	69.69
666	103.69
666.203	80.69
666.406	94.69
666.609	81.69
666.812	89.69
667.015	81.69
667.218	79.69
667.421	70.69
667.624	69.69
667.827	84.69
668.03	87.69
668.232	81.69
668.435	86.69
668.638	85.69
668.841	70.69
669.043	78.69
669.246	92.69
669.449	86.69
669.651	84.69
669.854	91.69
670.057	84.69
670.259	74.69
670.462	83.69
670.665	84.69
670.867	79.69
671.07	81.69
671.272	73.69
671.475	95.69
671.677	85.69
671.88	85.69
672.082	94.69
672.284	76.69
672.487	92.69
672.689	73.69
672.892	70.69
