Data from Location1.07152019.Energy5.Lamp.07192019.3%Agarose_HRD10591_14-30-38-015.txt Node
Date: Fri Jul 19 14:30:38 EDT 2019
User: cochatt
Spectrometer: HR+D1059
Trigger mode: 1
Integration Time (sec): 1.000000E-1
Scans to average: 1
Electric dark correction enabled: true
Nonlinearity correction enabled: false
Boxcar width: 0
XAxis mode: Wavelengths
Number of Pixels in Spectrum: 2048
>>>>>Begin Spectral Data<<<<<
223.165	-0.94
223.4	-0.94
223.635	-0.94
223.869	-1.94
224.104	-23.94
224.338	-17.94
224.573	-17.94
224.808	-13.94
225.042	-2.94
225.277	-12.94
225.511	7.06
225.746	2.06
225.98	9.06
226.215	21.06
226.449	8.06
226.683	11.06
226.918	11.06
227.152	23.06
227.387	33.06
227.621	27.06
227.856	36.06
228.09	41.06
228.324	61.06
228.559	55.06
228.793	53.06
229.027	56.06
229.262	69.06
229.496	58.06
229.73	74.06
229.964	77.06
230.199	74.06
230.433	67.06
230.667	86.06
230.901	69.06
231.136	74.06
231.37	89.06
231.604	92.06
231.838	81.06
232.072	95.06
232.306	88.06
232.541	71.06
232.775	84.06
233.009	85.06
233.243	93.06
233.477	91.06
233.711	84.06
233.945	87.06
234.179	72.06
234.413	86.06
234.647	90.06
234.881	79.06
235.115	96.06
235.349	88.06
235.583	78.06
235.817	80.06
236.051	78.06
236.285	86.06
236.519	84.06
236.753	85.06
236.987	85.06
237.221	84.06
237.455	87.06
237.689	77.06
237.922	79.06
238.156	85.06
238.39	81.06
238.624	80.06
238.858	74.06
239.091	77.06
239.325	74.06
239.559	75.06
239.793	79.06
240.027	76.06
240.26	85.06
240.494	89.06
240.728	77.06
240.961	80.06
241.195	79.06
241.429	72.06
241.662	76.06
241.896	80.06
242.13	84.06
242.363	88.06
242.597	86.06
242.83	78.06
243.064	79.06
243.298	85.06
243.531	75.06
243.765	83.06
243.998	81.06
244.232	82.06
244.465	79.06
244.699	75.06
244.932	81.06
245.166	71.06
245.399	75.06
245.633	80.06
245.866	72.06
246.099	88.06
246.333	79.06
246.566	77.06
246.8	80.06
247.033	77.06
247.266	81.06
247.5	68.06
247.733	81.06
247.966	68.06
248.2	85.06
248.433	80.06
248.666	89.06
248.899	76.06
249.133	93.06
249.366	81.06
249.599	76.06
249.832	79.06
250.066	86.06
250.299	91.06
250.532	82.06
250.765	87.06
250.998	85.06
251.231	77.06
251.465	75.06
251.698	81.06
251.931	64.06
252.164	78.06
252.397	71.06
252.63	92.06
252.863	77.06
253.096	77.06
253.329	81.06
253.562	85.06
253.795	81.06
254.028	82.06
254.261	87.06
254.494	89.06
254.727	74.06
254.96	75.06
255.193	83.06
255.426	92.06
255.659	81.06
255.892	94.06
256.124	90.06
256.357	76.06
256.59	78.06
256.823	75.06
257.056	90.06
257.289	85.06
257.521	88.06
257.754	91.06
257.987	85.06
258.22	83.06
258.452	85.06
258.685	75.06
258.918	86.06
259.151	80.06
259.383	86.06
259.616	77.06
259.849	85.06
260.081	79.06
260.314	90.06
260.547	73.06
260.779	85.06
261.012	89.06
261.244	65.06
261.477	72.06
261.71	69.06
261.942	89.06
262.175	70.06
262.407	77.06
262.64	89.06
262.872	84.06
263.105	77.06
263.337	68.06
263.57	91.06
263.802	85.06
264.035	78.06
264.267	89.06
264.499	76.06
264.732	93.06
264.964	75.06
265.197	80.06
265.429	70.06
265.661	97.06
265.894	70.06
266.126	84.06
266.358	88.06
266.591	88.06
266.823	89.06
267.055	86.06
267.287	83.06
267.52	89.06
267.752	92.06
267.984	79.06
268.216	74.06
268.448	85.06
268.681	88.06
268.913	91.06
269.145	69.06
269.377	79.06
269.609	79.06
269.841	101.06
270.073	71.06
270.306	85.06
270.538	62.06
270.77	70.06
271.002	99.06
271.234	96.06
271.466	89.06
271.698	77.06
271.93	81.06
272.162	74.06
272.394	81.06
272.626	79.06
272.858	87.06
273.09	87.06
273.322	85.06
273.553	82.06
273.785	92.06
274.017	84.06
274.249	74.06
274.481	75.06
274.713	81.06
274.945	90.06
275.176	72.06
275.408	89.06
275.64	88.06
275.872	81.06
276.104	79.06
276.335	74.06
276.567	91.06
276.799	80.06
277.031	71.06
277.262	88.06
277.494	86.06
277.726	91.06
277.957	104.06
278.189	89.06
278.421	87.06
278.652	79.06
278.884	83.06
279.115	83.06
279.347	78.06
279.579	95.06
279.81	89.06
280.042	80.06
280.273	79.06
280.505	86.06
280.736	75.06
280.968	79.06
281.199	67.06
281.431	83.06
281.662	77.06
281.894	84.06
282.125	77.06
282.356	87.06
282.588	86.06
282.819	102.06
283.051	79.06
283.282	83.06
283.513	85.06
283.745	92.06
283.976	83.06
284.207	88.06
284.439	64.06
284.67	79.06
284.901	89.06
285.132	90.06
285.364	92.06
285.595	94.06
285.826	86.06
286.057	88.06
286.288	84.06
286.52	85.06
286.751	97.06
286.982	89.06
287.213	88.06
287.444	87.06
287.675	78.06
287.906	95.06
288.138	81.06
288.369	76.06
288.6	89.06
288.831	80.06
289.062	91.06
289.293	99.06
289.524	78.06
289.755	100.06
289.986	88.06
290.217	80.06
290.448	84.06
290.679	81.06
290.91	87.06
291.141	77.06
291.371	90.06
291.602	85.06
291.833	76.06
292.064	89.06
292.295	81.06
292.526	94.06
292.757	88.06
292.987	89.06
293.218	92.06
293.449	78.06
293.68	89.06
293.91	75.06
294.141	93.06
294.372	87.06
294.603	91.06
294.833	87.06
295.064	91.06
295.295	95.06
295.525	85.06
295.756	92.06
295.987	86.06
296.217	93.06
296.448	77.06
296.679	104.06
296.909	84.06
297.14	81.06
297.37	93.06
297.601	92.06
297.831	82.06
298.062	93.06
298.292	81.06
298.523	89.06
298.753	80.06
298.984	95.06
299.214	92.06
299.445	90.06
299.675	95.06
299.905	73.06
300.136	80.06
300.366	90.06
300.597	73.06
300.827	92.06
301.057	92.06
301.288	75.06
301.518	73.06
301.748	76.06
301.979	78.06
302.209	73.06
302.439	98.06
302.669	81.06
302.9	88.06
303.13	100.06
303.36	86.06
303.59	79.06
303.82	84.06
304.051	72.06
304.281	94.06
304.511	87.06
304.741	72.06
304.971	83.06
305.201	101.06
305.431	91.06
305.661	81.06
305.891	89.06
306.121	85.06
306.352	77.06
306.582	72.06
306.812	87.06
307.042	75.06
307.272	85.06
307.502	84.06
307.731	86.06
307.961	84.06
308.191	95.06
308.421	84.06
308.651	102.06
308.881	80.06
309.111	86.06
309.341	85.06
309.571	92.06
309.8	92.06
310.03	77.06
310.26	91.06
310.49	82.06
310.72	81.06
310.949	91.06
311.179	97.06
311.409	84.06
311.639	79.06
311.868	107.06
312.098	80.06
312.328	100.06
312.557	89.06
312.787	78.06
313.017	77.06
313.246	89.06
313.476	93.06
313.706	94.06
313.935	80.06
314.165	86.06
314.394	89.06
314.624	67.06
314.853	90.06
315.083	92.06
315.312	71.06
315.542	87.06
315.771	98.06
316.001	93.06
316.23	74.06
316.46	60.06
316.689	96.06
316.919	81.06
317.148	81.06
317.377	74.06
317.607	99.06
317.836	88.06
318.065	85.06
318.295	86.06
318.524	81.06
318.753	78.06
318.983	90.06
319.212	87.06
319.441	76.06
319.67	84.06
319.9	89.06
320.129	71.06
320.358	78.06
320.587	81.06
320.816	81.06
321.046	88.06
321.275	77.06
321.504	108.06
321.733	84.06
321.962	90.06
322.191	71.06
322.42	86.06
322.649	88.06
322.878	91.06
323.108	97.06
323.337	86.06
323.566	78.06
323.795	79.06
324.024	88.06
324.253	94.06
324.482	76.06
324.71	71.06
324.939	96.06
325.168	85.06
325.397	88.06
325.626	88.06
325.855	101.06
326.084	87.06
326.313	79.06
326.542	97.06
326.77	83.06
326.999	81.06
327.228	98.06
327.457	87.06
327.686	85.06
327.914	84.06
328.143	81.06
328.372	84.06
328.6	84.06
328.829	83.06
329.058	90.06
329.287	75.06
329.515	86.06
329.744	85.06
329.972	103.06
330.201	78.06
330.43	92.06
330.658	97.06
330.887	104.06
331.115	91.06
331.344	76.06
331.572	87.06
331.801	88.06
332.03	90.06
332.258	85.06
332.486	84.06
332.715	80.06
332.943	73.06
333.172	71.06
333.4	89.06
333.629	93.06
333.857	83.06
334.085	88.06
334.314	111.06
334.542	82.06
334.771	66.06
334.999	74.06
335.227	74.06
335.455	77.06
335.684	87.06
335.912	79.06
336.14	99.06
336.369	94.06
336.597	87.06
336.825	88.06
337.053	87.06
337.281	92.06
337.51	88.06
337.738	85.06
337.966	93.06
338.194	75.06
338.422	76.06
338.65	91.06
338.878	79.06
339.106	75.06
339.334	76.06
339.562	84.06
339.79	83.06
340.018	73.06
340.246	81.06
340.474	92.06
340.702	89.06
340.93	83.06
341.158	75.06
341.386	94.06
341.614	75.06
341.842	74.06
342.07	85.06
342.298	93.06
342.526	92.06
342.754	89.06
342.981	83.06
343.209	76.06
343.437	104.06
343.665	76.06
343.893	82.06
344.12	92.06
344.348	82.06
344.576	80.06
344.804	93.06
345.031	90.06
345.259	72.06
345.487	87.06
345.714	88.06
345.942	69.06
346.17	94.06
346.397	84.06
346.625	96.06
346.853	89.06
347.08	77.06
347.308	95.06
347.535	85.06
347.763	84.06
347.99	88.06
348.218	83.06
348.445	68.06
348.673	84.06
348.9	65.06
349.128	80.06
349.355	81.06
349.583	90.06
349.81	87.06
350.037	86.06
350.265	79.06
350.492	97.06
350.72	84.06
350.947	82.06
351.174	86.06
351.402	79.06
351.629	77.06
351.856	91.06
352.083	87.06
352.311	88.06
352.538	82.06
352.765	80.06
352.992	94.06
353.22	78.06
353.447	71.06
353.674	92.06
353.901	85.06
354.128	91.06
354.355	82.06
354.583	84.06
354.81	84.06
355.037	89.06
355.264	86.06
355.491	87.06
355.718	87.06
355.945	93.06
356.172	97.06
356.399	85.06
356.626	85.06
356.853	84.06
357.08	84.06
357.307	80.06
357.534	88.06
357.761	82.06
357.988	86.06
358.215	84.06
358.441	78.06
358.668	76.06
358.895	93.06
359.122	75.06
359.349	95.06
359.576	87.06
359.802	79.06
360.029	88.06
360.256	89.06
360.483	84.06
360.709	73.06
360.936	85.06
361.163	83.06
361.39	75.06
361.616	81.06
361.843	70.06
362.07	79.06
362.296	91.06
362.523	79.06
362.749	76.06
362.976	88.06
363.203	75.06
363.429	81.06
363.656	88.06
363.882	95.06
364.109	90.06
364.335	89.06
364.562	79.06
364.788	90.06
365.015	95.06
365.241	89.06
365.468	84.06
365.694	85.06
365.92	97.06
366.147	89.06
366.373	102.06
366.599	80.06
366.826	80.06
367.052	88.06
367.278	94.06
367.505	78.06
367.731	84.06
367.957	72.06
368.184	77.06
368.41	96.06
368.636	96.06
368.862	98.06
369.089	85.06
369.315	97.06
369.541	85.06
369.767	86.06
369.993	96.06
370.219	96.06
370.445	92.06
370.672	86.06
370.898	94.06
371.124	96.06
371.35	89.06
371.576	87.06
371.802	83.06
372.028	82.06
372.254	96.06
372.48	94.06
372.706	94.06
372.932	101.06
373.158	88.06
373.384	110.06
373.61	94.06
373.835	94.06
374.061	79.06
374.287	81.06
374.513	79.06
374.739	94.06
374.965	82.06
375.191	84.06
375.416	93.06
375.642	112.06
375.868	90.06
376.094	95.06
376.319	93.06
376.545	81.06
376.771	87.06
376.997	105.06
377.222	90.06
377.448	95.06
377.674	88.06
377.899	91.06
378.125	88.06
378.35	98.06
378.576	104.06
378.802	112.06
379.027	96.06
379.253	99.06
379.478	90.06
379.704	97.06
379.929	98.06
380.155	91.06
380.38	75.06
380.606	86.06
380.831	90.06
381.057	93.06
381.282	110.06
381.507	89.06
381.733	98.06
381.958	104.06
382.184	94.06
382.409	97.06
382.634	102.06
382.86	113.06
383.085	100.06
383.31	98.06
383.535	89.06
383.761	91.06
383.986	88.06
384.211	92.06
384.436	100.06
384.662	101.06
384.887	79.06
385.112	98.06
385.337	100.06
385.562	90.06
385.787	112.06
386.013	111.06
386.238	92.06
386.463	90.06
386.688	101.06
386.913	101.06
387.138	98.06
387.363	97.06
387.588	91.06
387.813	111.06
388.038	101.06
388.263	94.06
388.488	92.06
388.713	97.06
388.938	106.06
389.163	108.06
389.387	97.06
389.612	103.06
389.837	84.06
390.062	96.06
390.287	109.06
390.512	107.06
390.736	112.06
390.961	101.06
391.186	100.06
391.411	104.06
391.636	114.06
391.86	122.06
392.085	112.06
392.31	99.06
392.534	98.06
392.759	103.06
392.984	104.06
393.208	107.06
393.433	102.06
393.658	97.06
393.882	95.06
394.107	104.06
394.331	110.06
394.556	116.06
394.78	117.06
395.005	105.06
395.229	119.06
395.454	97.06
395.678	109.06
395.903	116.06
396.127	117.06
396.352	98.06
396.576	102.06
396.801	100.06
397.025	120.06
397.249	113.06
397.474	115.06
397.698	110.06
397.922	102.06
398.147	100.06
398.371	105.06
398.595	113.06
398.82	116.06
399.044	110.06
399.268	108.06
399.492	117.06
399.717	117.06
399.941	95.06
400.165	103.06
400.389	105.06
400.613	110.06
400.837	110.06
401.062	111.06
401.286	110.06
401.51	116.06
401.734	98.06
401.958	120.06
402.182	108.06
402.406	125.06
402.63	111.06
402.854	123.06
403.078	109.06
403.302	119.06
403.526	110.06
403.75	105.06
403.974	128.06
404.198	108.06
404.422	112.06
404.645	126.06
404.869	122.06
405.093	124.06
405.317	118.06
405.541	118.06
405.765	123.06
405.988	121.06
406.212	126.06
406.436	118.06
406.66	126.06
406.883	127.06
407.107	106.06
407.331	125.06
407.555	126.06
407.778	119.06
408.002	98.06
408.226	115.06
408.449	111.06
408.673	125.06
408.896	115.06
409.12	121.06
409.344	123.06
409.567	119.06
409.791	131.06
410.014	109.06
410.238	122.06
410.461	132.06
410.685	121.06
410.908	117.06
411.132	116.06
411.355	108.06
411.578	111.06
411.802	119.06
412.025	125.06
412.249	131.06
412.472	134.06
412.695	127.06
412.919	127.06
413.142	116.06
413.365	127.06
413.589	116.06
413.812	110.06
414.035	117.06
414.258	133.06
414.482	139.06
414.705	126.06
414.928	139.06
415.151	115.06
415.374	136.06
415.597	123.06
415.821	122.06
416.044	135.06
416.267	124.06
416.49	125.06
416.713	134.06
416.936	113.06
417.159	139.06
417.382	123.06
417.605	109.06
417.828	126.06
418.051	123.06
418.274	140.06
418.497	138.06
418.72	129.06
418.943	126.06
419.166	129.06
419.389	131.06
419.611	147.06
419.834	144.06
420.057	124.06
420.28	144.06
420.503	135.06
420.726	134.06
420.948	139.06
421.171	142.06
421.394	138.06
421.617	155.06
421.839	130.06
422.062	128.06
422.285	130.06
422.507	135.06
422.73	131.06
422.953	138.06
423.175	142.06
423.398	122.06
423.621	119.06
423.843	124.06
424.066	132.06
424.288	131.06
424.511	140.06
424.733	146.06
424.956	145.06
425.178	143.06
425.401	144.06
425.623	141.06
425.846	133.06
426.068	137.06
426.291	129.06
426.513	122.06
426.735	128.06
426.958	133.06
427.18	130.06
427.402	139.06
427.625	131.06
427.847	131.06
428.069	137.06
428.292	136.06
428.514	134.06
428.736	149.06
428.958	123.06
429.181	131.06
429.403	123.06
429.625	129.06
429.847	129.06
430.069	126.06
430.292	128.06
430.514	136.06
430.736	141.06
430.958	132.06
431.18	126.06
431.402	131.06
431.624	120.06
431.846	113.06
432.068	95.06
432.29	105.06
432.512	109.06
432.734	116.06
432.956	128.06
433.178	146.06
433.4	150.06
433.622	136.06
433.844	128.06
434.066	141.06
434.287	104.06
434.509	88.06
434.731	104.06
434.953	116.06
435.175	98.06
435.397	128.06
435.618	121.06
435.84	127.06
436.062	106.06
436.284	123.06
436.505	112.06
436.727	124.06
436.949	135.06
437.17	131.06
437.392	135.06
437.614	132.06
437.835	113.06
438.057	107.06
438.278	115.06
438.5	127.06
438.721	146.06
438.943	135.06
439.165	127.06
439.386	139.06
439.608	143.06
439.829	140.06
440.05	146.06
440.272	151.06
440.493	145.06
440.715	148.06
440.936	151.06
441.158	126.06
441.379	160.06
441.6	155.06
441.822	140.06
442.043	149.06
442.264	145.06
442.486	129.06
442.707	143.06
442.928	138.06
443.149	135.06
443.371	151.06
443.592	143.06
443.813	135.06
444.034	127.06
444.255	143.06
444.476	155.06
444.698	129.06
444.919	135.06
445.14	259.06
445.361	195.06
445.582	144.06
445.803	148.06
446.024	143.06
446.245	145.06
446.466	144.06
446.687	150.06
446.908	162.06
447.129	157.06
447.35	152.06
447.571	141.06
447.792	132.06
448.013	136.06
448.234	137.06
448.455	155.06
448.675	128.06
448.896	124.06
449.117	138.06
449.338	133.06
449.559	125.06
449.779	143.06
450	137.06
450.221	140.06
450.442	132.06
450.662	134.06
450.883	125.06
451.104	125.06
451.324	134.06
451.545	131.06
451.766	124.06
451.986	126.06
452.207	123.06
452.428	121.06
452.648	124.06
452.869	138.06
453.089	133.06
453.31	121.06
453.53	115.06
453.751	116.06
453.971	105.06
454.192	100.06
454.412	114.06
454.633	131.06
454.853	121.06
455.073	132.06
455.294	137.06
455.514	115.06
455.734	134.06
455.955	115.06
456.175	106.06
456.395	119.06
456.616	97.06
456.836	116.06
457.056	114.06
457.276	110.06
457.497	104.06
457.717	110.06
457.937	113.06
458.157	105.06
458.377	100.06
458.598	107.06
458.818	98.06
459.038	81.06
459.258	96.06
459.478	87.06
459.698	83.06
459.918	104.06
460.138	94.06
460.358	109.06
460.578	119.06
460.798	112.06
461.018	121.06
461.238	119.06
461.458	124.06
461.678	120.06
461.898	117.06
462.118	113.06
462.338	107.06
462.558	107.06
462.777	102.06
462.997	100.06
463.217	102.06
463.437	117.06
463.657	103.06
463.876	117.06
464.096	109.06
464.316	102.06
464.536	112.06
464.755	109.06
464.975	120.06
465.195	111.06
465.414	110.06
465.634	101.06
465.854	121.06
466.073	122.06
466.293	115.06
466.512	118.06
466.732	124.06
466.951	127.06
467.171	129.06
467.391	131.06
467.61	133.06
467.829	143.06
468.049	131.06
468.268	127.06
468.488	145.06
468.707	144.06
468.927	128.06
469.146	124.06
469.365	124.06
469.585	136.06
469.804	146.06
470.023	132.06
470.243	130.06
470.462	144.06
470.681	129.06
470.901	124.06
471.12	143.06
471.339	145.06
471.558	135.06
471.777	141.06
471.997	133.06
472.216	136.06
472.435	109.06
472.654	105.06
472.873	110.06
473.092	121.06
473.311	117.06
473.53	137.06
473.749	128.06
473.968	138.06
474.187	127.06
474.406	117.06
474.625	124.06
474.844	130.06
475.063	124.06
475.282	119.06
475.501	131.06
475.72	131.06
475.939	129.06
476.158	124.06
476.377	131.06
476.596	123.06
476.814	132.06
477.033	110.06
477.252	110.06
477.471	116.06
477.69	136.06
477.908	140.06
478.127	137.06
478.346	143.06
478.564	137.06
478.783	142.06
479.002	127.06
479.22	141.06
479.439	145.06
479.658	129.06
479.876	111.06
480.095	109.06
480.313	94.06
480.532	138.06
480.751	127.06
480.969	95.06
481.188	96.06
481.406	92.06
481.624	91.06
481.843	99.06
482.061	102.06
482.28	126.06
482.498	124.06
482.717	99.06
482.935	123.06
483.153	136.06
483.372	166.06
483.59	150.06
483.808	130.06
484.027	120.06
484.245	122.06
484.463	129.06
484.681	151.06
484.9	149.06
485.118	145.06
485.336	135.06
485.554	121.06
485.772	98.06
485.99	105.06
486.209	118.06
486.427	123.06
486.645	110.06
486.863	145.06
487.081	149.06
487.299	135.06
487.517	146.06
487.735	171.06
487.953	189.06
488.171	169.06
488.389	171.06
488.607	161.06
488.825	139.06
489.043	127.06
489.261	149.06
489.479	138.06
489.696	151.06
489.914	143.06
490.132	117.06
490.35	144.06
490.568	154.06
490.786	175.06
491.003	176.06
491.221	185.06
491.439	184.06
491.657	198.06
491.874	210.06
492.092	220.06
492.31	243.06
492.527	242.06
492.745	204.06
492.963	193.06
493.18	188.06
493.398	195.06
493.615	187.06
493.833	168.06
494.05	170.06
494.268	175.06
494.485	171.06
494.703	173.06
494.92	180.06
495.138	160.06
495.355	183.06
495.573	163.06
495.79	165.06
496.008	169.06
496.225	175.06
496.442	164.06
496.66	174.06
496.877	156.06
497.094	167.06
497.312	164.06
497.529	155.06
497.746	140.06
497.963	141.06
498.181	129.06
498.398	119.06
498.615	129.06
498.832	112.06
499.049	112.06
499.267	122.06
499.484	133.06
499.701	122.06
499.918	152.06
500.135	143.06
500.352	133.06
500.569	145.06
500.786	144.06
501.003	135.06
501.22	143.06
501.437	146.06
501.654	122.06
501.871	116.06
502.088	135.06
502.305	134.06
502.522	129.06
502.739	135.06
502.956	124.06
503.172	144.06
503.389	121.06
503.606	115.06
503.823	119.06
504.04	118.06
504.256	121.06
504.473	102.06
504.69	115.06
504.907	129.06
505.123	127.06
505.34	104.06
505.557	132.06
505.773	124.06
505.99	106.06
506.207	119.06
506.423	127.06
506.64	129.06
506.856	119.06
507.073	121.06
507.289	126.06
507.506	119.06
507.722	125.06
507.939	124.06
508.155	123.06
508.372	112.06
508.588	121.06
508.805	116.06
509.021	107.06
509.238	108.06
509.454	115.06
509.67	108.06
509.887	97.06
510.103	98.06
510.319	95.06
510.536	88.06
510.752	82.06
510.968	94.06
511.184	75.06
511.401	77.06
511.617	81.06
511.833	91.06
512.049	80.06
512.265	92.06
512.481	106.06
512.698	108.06
512.914	93.06
513.13	88.06
513.346	80.06
513.562	107.06
513.778	98.06
513.994	79.06
514.21	96.06
514.426	98.06
514.642	90.06
514.858	88.06
515.074	87.06
515.29	89.06
515.506	85.06
515.721	92.06
515.937	84.06
516.153	89.06
516.369	87.06
516.585	94.06
516.801	90.06
517.016	106.06
517.232	101.06
517.448	81.06
517.664	89.06
517.879	104.06
518.095	117.06
518.311	94.06
518.527	96.06
518.742	98.06
518.958	109.06
519.173	110.06
519.389	105.06
519.605	111.06
519.82	107.06
520.036	116.06
520.251	109.06
520.467	102.06
520.682	98.06
520.898	105.06
521.113	101.06
521.329	96.06
521.544	89.06
521.76	91.06
521.975	101.06
522.19	93.06
522.406	92.06
522.621	110.06
522.836	99.06
523.052	103.06
523.267	111.06
523.482	109.06
523.698	114.06
523.913	117.06
524.128	103.06
524.343	104.06
524.559	115.06
524.774	125.06
524.989	132.06
525.204	123.06
525.419	117.06
525.634	116.06
525.849	121.06
526.064	117.06
526.28	106.06
526.495	106.06
526.71	93.06
526.925	81.06
527.14	84.06
527.355	99.06
527.57	91.06
527.785	108.06
527.999	94.06
528.214	99.06
528.429	99.06
528.644	125.06
528.859	127.06
529.074	140.06
529.289	164.06
529.503	150.06
529.718	143.06
529.933	128.06
530.148	105.06
530.363	101.06
530.577	90.06
530.792	87.06
531.007	83.06
531.221	90.06
531.436	85.06
531.651	84.06
531.865	97.06
532.08	97.06
532.295	94.06
532.509	92.06
532.724	81.06
532.938	98.06
533.153	91.06
533.367	112.06
533.582	108.06
533.796	129.06
534.011	124.06
534.225	88.06
534.44	98.06
534.654	110.06
534.868	97.06
535.083	103.06
535.297	104.06
535.511	125.06
535.726	117.06
535.94	100.06
536.154	96.06
536.369	103.06
536.583	93.06
536.797	96.06
537.011	84.06
537.225	89.06
537.44	99.06
537.654	84.06
537.868	93.06
538.082	91.06
538.296	100.06
538.51	111.06
538.724	110.06
538.938	118.06
539.153	133.06
539.367	139.06
539.581	119.06
539.795	94.06
540.009	94.06
540.222	92.06
540.436	103.06
540.65	117.06
540.864	121.06
541.078	130.06
541.292	142.06
541.506	152.06
541.72	183.06
541.934	200.06
542.147	206.06
542.361	177.06
542.575	173.06
542.789	141.06
543.002	130.06
543.216	122.06
543.43	135.06
543.644	133.06
543.857	142.06
544.071	165.06
544.285	157.06
544.498	147.06
544.712	157.06
544.925	153.06
545.139	159.06
545.352	164.06
545.566	141.06
545.779	172.06
545.993	172.06
546.206	175.06
546.42	179.06
546.633	147.06
546.847	159.06
547.06	155.06
547.274	156.06
547.487	172.06
547.7	173.06
547.914	161.06
548.127	161.06
548.34	163.06
548.554	151.06
548.767	152.06
548.98	146.06
549.193	152.06
549.407	152.06
549.62	160.06
549.833	155.06
550.046	153.06
550.259	157.06
550.473	152.06
550.686	159.06
550.899	151.06
551.112	133.06
551.325	147.06
551.538	131.06
551.751	120.06
551.964	120.06
552.177	129.06
552.39	139.06
552.603	165.06
552.816	140.06
553.029	154.06
553.242	142.06
553.455	156.06
553.667	164.06
553.88	165.06
554.093	145.06
554.306	149.06
554.519	159.06
554.732	148.06
554.944	141.06
555.157	144.06
555.37	157.06
555.583	145.06
555.795	159.06
556.008	133.06
556.221	134.06
556.433	152.06
556.646	143.06
556.859	145.06
557.071	137.06
557.284	148.06
557.496	138.06
557.709	139.06
557.921	147.06
558.134	144.06
558.346	135.06
558.559	128.06
558.771	129.06
558.984	118.06
559.196	127.06
559.409	144.06
559.621	140.06
559.833	127.06
560.046	144.06
560.258	129.06
560.47	131.06
560.683	123.06
560.895	128.06
561.107	121.06
561.32	139.06
561.532	141.06
561.744	114.06
561.956	121.06
562.168	129.06
562.381	139.06
562.593	133.06
562.805	132.06
563.017	131.06
563.229	136.06
563.441	111.06
563.653	135.06
563.865	129.06
564.077	131.06
564.289	127.06
564.501	126.06
564.713	116.06
564.925	127.06
565.137	130.06
565.349	115.06
565.561	117.06
565.773	112.06
565.985	127.06
566.197	119.06
566.408	134.06
566.62	113.06
566.832	123.06
567.044	119.06
567.255	122.06
567.467	124.06
567.679	123.06
567.891	107.06
568.102	104.06
568.314	95.06
568.526	87.06
568.737	85.06
568.949	94.06
569.161	86.06
569.372	95.06
569.584	88.06
569.795	94.06
570.007	84.06
570.218	86.06
570.43	96.06
570.641	95.06
570.853	107.06
571.064	104.06
571.276	111.06
571.487	97.06
571.698	128.06
571.91	106.06
572.121	105.06
572.333	102.06
572.544	105.06
572.755	112.06
572.966	93.06
573.178	99.06
573.389	85.06
573.6	86.06
573.811	77.06
574.023	89.06
574.234	82.06
574.445	87.06
574.656	95.06
574.867	92.06
575.078	115.06
575.289	94.06
575.501	105.06
575.712	95.06
575.923	83.06
576.134	93.06
576.345	95.06
576.556	102.06
576.767	93.06
576.978	109.06
577.188	95.06
577.399	99.06
577.61	99.06
577.821	103.06
578.032	92.06
578.243	91.06
578.454	100.06
578.665	96.06
578.875	74.06
579.086	96.06
579.297	90.06
579.508	89.06
579.718	90.06
579.929	85.06
580.14	76.06
580.35	76.06
580.561	92.06
580.772	89.06
580.982	97.06
581.193	100.06
581.403	95.06
581.614	105.06
581.825	100.06
582.035	93.06
582.246	101.06
582.456	84.06
582.667	94.06
582.877	88.06
583.087	89.06
583.298	82.06
583.508	89.06
583.719	94.06
583.929	82.06
584.139	100.06
584.35	75.06
584.56	99.06
584.77	95.06
584.981	88.06
585.191	76.06
585.401	81.06
585.611	99.06
585.821	93.06
586.032	91.06
586.242	82.06
586.452	86.06
586.662	93.06
586.872	76.06
587.082	84.06
587.292	90.06
587.502	81.06
587.713	77.06
587.923	70.06
588.133	85.06
588.343	89.06
588.553	94.06
588.762	88.06
588.972	88.06
589.182	80.06
589.392	85.06
589.602	75.06
589.812	90.06
590.022	78.06
590.232	112.06
590.441	89.06
590.651	91.06
590.861	81.06
591.071	84.06
591.281	94.06
591.49	88.06
591.7	110.06
591.91	87.06
592.119	74.06
592.329	89.06
592.539	93.06
592.748	93.06
592.958	92.06
593.167	92.06
593.377	79.06
593.587	87.06
593.796	81.06
594.006	97.06
594.215	90.06
594.424	91.06
594.634	78.06
594.843	89.06
595.053	96.06
595.262	103.06
595.472	90.06
595.681	87.06
595.89	87.06
596.1	94.06
596.309	103.06
596.518	100.06
596.727	99.06
596.937	99.06
597.146	95.06
597.355	101.06
597.564	107.06
597.774	99.06
597.983	99.06
598.192	82.06
598.401	89.06
598.61	103.06
598.819	89.06
599.028	101.06
599.237	106.06
599.446	85.06
599.655	84.06
599.864	99.06
600.073	96.06
600.282	89.06
600.491	104.06
600.7	86.06
600.909	80.06
601.118	95.06
601.327	104.06
601.536	115.06
601.745	108.06
601.953	116.06
602.162	120.06
602.371	119.06
602.58	112.06
602.789	121.06
602.997	102.06
603.206	110.06
603.415	110.06
603.623	112.06
603.832	115.06
604.041	104.06
604.249	102.06
604.458	94.06
604.666	106.06
604.875	110.06
605.084	106.06
605.292	107.06
605.501	116.06
605.709	107.06
605.918	103.06
606.126	126.06
606.334	120.06
606.543	107.06
606.751	107.06
606.96	108.06
607.168	110.06
607.376	88.06
607.585	117.06
607.793	117.06
608.001	120.06
608.21	106.06
608.418	117.06
608.626	120.06
608.834	114.06
609.043	113.06
609.251	95.06
609.459	110.06
609.667	114.06
609.875	133.06
610.083	127.06
610.291	110.06
610.499	120.06
610.707	119.06
610.916	116.06
611.124	93.06
611.332	116.06
611.54	105.06
611.748	126.06
611.955	101.06
612.163	122.06
612.371	111.06
612.579	94.06
612.787	111.06
612.995	122.06
613.203	109.06
613.411	127.06
613.618	123.06
613.826	120.06
614.034	108.06
614.242	127.06
614.449	108.06
614.657	115.06
614.865	101.06
615.072	118.06
615.28	123.06
615.488	116.06
615.695	109.06
615.903	109.06
616.111	120.06
616.318	108.06
616.526	112.06
616.733	101.06
616.941	117.06
617.148	119.06
617.356	87.06
617.563	100.06
617.771	106.06
617.978	103.06
618.185	107.06
618.393	113.06
618.6	125.06
618.807	108.06
619.015	104.06
619.222	111.06
619.429	117.06
619.637	113.06
619.844	98.06
620.051	108.06
620.258	106.06
620.466	102.06
620.673	115.06
620.88	115.06
621.087	107.06
621.294	117.06
621.501	95.06
621.708	100.06
621.915	108.06
622.122	113.06
622.329	91.06
622.536	90.06
622.743	107.06
622.95	106.06
623.157	113.06
623.364	104.06
623.571	108.06
623.778	102.06
623.985	98.06
624.192	101.06
624.399	100.06
624.606	116.06
624.812	103.06
625.019	93.06
625.226	105.06
625.433	98.06
625.639	111.06
625.846	112.06
626.053	84.06
626.259	87.06
626.466	87.06
626.673	92.06
626.879	83.06
627.086	101.06
627.293	104.06
627.499	113.06
627.706	113.06
627.912	107.06
628.119	99.06
628.325	99.06
628.532	117.06
628.738	106.06
628.945	101.06
629.151	95.06
629.357	98.06
629.564	92.06
629.77	95.06
629.976	107.06
630.183	95.06
630.389	101.06
630.595	111.06
630.802	108.06
631.008	88.06
631.214	92.06
631.42	110.06
631.627	100.06
631.833	104.06
632.039	93.06
632.245	96.06
632.451	106.06
632.657	95.06
632.863	87.06
633.069	104.06
633.275	100.06
633.481	90.06
633.688	101.06
633.893	103.06
634.099	97.06
634.305	105.06
634.511	91.06
634.717	103.06
634.923	86.06
635.129	89.06
635.335	92.06
635.541	92.06
635.747	107.06
635.952	102.06
636.158	95.06
636.364	80.06
636.57	99.06
636.775	108.06
636.981	112.06
637.187	104.06
637.392	102.06
637.598	91.06
637.804	92.06
638.009	95.06
638.215	106.06
638.421	100.06
638.626	106.06
638.832	97.06
639.037	103.06
639.243	106.06
639.448	89.06
639.654	97.06
639.859	93.06
640.065	92.06
640.27	107.06
640.475	104.06
640.681	109.06
640.886	93.06
641.091	95.06
641.297	108.06
641.502	98.06
641.707	99.06
641.913	105.06
642.118	96.06
642.323	92.06
642.528	102.06
642.733	106.06
642.939	103.06
643.144	110.06
643.349	104.06
643.554	102.06
643.759	102.06
643.964	97.06
644.169	99.06
644.374	103.06
644.579	96.06
644.784	98.06
644.989	93.06
645.194	87.06
645.399	106.06
645.604	97.06
645.809	122.06
646.014	120.06
646.219	106.06
646.423	103.06
646.628	106.06
646.833	103.06
647.038	104.06
647.243	103.06
647.447	110.06
647.652	94.06
647.857	110.06
648.062	83.06
648.266	91.06
648.471	95.06
648.676	86.06
648.88	96.06
649.085	106.06
649.289	88.06
649.494	90.06
649.698	109.06
649.903	101.06
650.107	105.06
650.312	108.06
650.516	115.06
650.721	109.06
650.925	87.06
651.13	102.06
651.334	94.06
651.539	98.06
651.743	88.06
651.947	96.06
652.152	102.06
652.356	80.06
652.56	103.06
652.764	97.06
652.969	100.06
653.173	91.06
653.377	105.06
653.581	89.06
653.785	93.06
653.99	94.06
654.194	88.06
654.398	96.06
654.602	77.06
654.806	88.06
655.01	89.06
655.214	97.06
655.418	83.06
655.622	80.06
655.826	98.06
656.03	102.06
656.234	103.06
656.438	81.06
656.642	88.06
656.846	88.06
657.049	97.06
657.253	105.06
657.457	79.06
657.661	78.06
657.865	95.06
658.068	90.06
658.272	92.06
658.476	84.06
658.68	89.06
658.883	90.06
659.087	94.06
659.291	80.06
659.494	86.06
659.698	74.06
659.901	77.06
660.105	78.06
660.309	82.06
660.512	77.06
660.716	91.06
660.919	85.06
661.123	79.06
661.326	96.06
661.53	95.06
661.733	82.06
661.936	80.06
662.14	67.06
662.343	84.06
662.546	84.06
662.75	72.06
662.953	80.06
663.156	87.06
663.36	84.06
663.563	76.06
663.766	90.06
663.969	77.06
664.173	83.06
664.376	81.06
664.579	93.06
664.782	86.06
664.985	86.06
665.188	79.06
665.391	75.06
665.594	70.06
665.797	67.06
666	81.06
666.203	76.06
666.406	90.06
666.609	76.06
666.812	81.06
667.015	91.06
667.218	101.06
667.421	99.06
667.624	89.06
667.827	88.06
668.03	69.06
668.232	83.06
668.435	82.06
668.638	75.06
668.841	73.06
669.043	74.06
669.246	79.06
669.449	84.06
669.651	99.06
669.854	90.06
670.057	95.06
670.259	78.06
670.462	82.06
670.665	81.06
670.867	86.06
671.07	83.06
671.272	93.06
671.475	89.06
671.677	96.06
671.88	85.06
672.082	87.06
672.284	85.06
672.487	89.06
672.689	82.06
672.892	86.06
