Data from Location1.07152019.Energy5.Lamp.07192019.3%Agarose_HRD10591_14-32-38-016.txt Node
Date: Fri Jul 19 14:32:38 EDT 2019
User: cochatt
Spectrometer: HR+D1059
Trigger mode: 1
Integration Time (sec): 1.000000E-1
Scans to average: 1
Electric dark correction enabled: true
Nonlinearity correction enabled: false
Boxcar width: 0
XAxis mode: Wavelengths
Number of Pixels in Spectrum: 2048
>>>>>Begin Spectral Data<<<<<
223.165	-12.62
223.4	-12.62
223.635	-12.62
223.869	-32.62
224.104	-13.62
224.338	-9.62
224.573	-8.62
224.808	-3.62
225.042	-14.62
225.277	-2.62
225.511	5.38
225.746	0.38
225.98	-11.62
226.215	0.38
226.449	28.38
226.683	24.38
226.918	17.38
227.152	33.38
227.387	46.38
227.621	53.38
227.856	46.38
228.09	41.38
228.324	52.38
228.559	63.38
228.793	53.38
229.027	53.38
229.262	58.38
229.496	79.38
229.73	70.38
229.964	73.38
230.199	67.38
230.433	73.38
230.667	90.38
230.901	82.38
231.136	80.38
231.37	85.38
231.604	67.38
231.838	87.38
232.072	84.38
232.306	74.38
232.541	76.38
232.775	74.38
233.009	73.38
233.243	74.38
233.477	78.38
233.711	64.38
233.945	81.38
234.179	73.38
234.413	84.38
234.647	82.38
234.881	81.38
235.115	82.38
235.349	80.38
235.583	67.38
235.817	94.38
236.051	80.38
236.285	89.38
236.519	84.38
236.753	90.38
236.987	61.38
237.221	83.38
237.455	84.38
237.689	66.38
237.922	78.38
238.156	81.38
238.39	66.38
238.624	67.38
238.858	71.38
239.091	93.38
239.325	74.38
239.559	65.38
239.793	77.38
240.027	79.38
240.26	83.38
240.494	84.38
240.728	83.38
240.961	89.38
241.195	95.38
241.429	76.38
241.662	61.38
241.896	80.38
242.13	91.38
242.363	81.38
242.597	68.38
242.83	67.38
243.064	73.38
243.298	82.38
243.531	81.38
243.765	69.38
243.998	71.38
244.232	82.38
244.465	80.38
244.699	73.38
244.932	75.38
245.166	87.38
245.399	80.38
245.633	78.38
245.866	87.38
246.099	79.38
246.333	78.38
246.566	82.38
246.8	81.38
247.033	84.38
247.266	80.38
247.5	88.38
247.733	79.38
247.966	79.38
248.2	78.38
248.433	65.38
248.666	76.38
248.899	79.38
249.133	80.38
249.366	80.38
249.599	83.38
249.832	81.38
250.066	81.38
250.299	74.38
250.532	65.38
250.765	83.38
250.998	79.38
251.231	79.38
251.465	89.38
251.698	82.38
251.931	83.38
252.164	70.38
252.397	71.38
252.63	72.38
252.863	95.38
253.096	81.38
253.329	78.38
253.562	86.38
253.795	75.38
254.028	78.38
254.261	90.38
254.494	79.38
254.727	89.38
254.96	82.38
255.193	65.38
255.426	91.38
255.659	91.38
255.892	88.38
256.124	71.38
256.357	88.38
256.59	77.38
256.823	76.38
257.056	84.38
257.289	76.38
257.521	79.38
257.754	81.38
257.987	73.38
258.22	79.38
258.452	77.38
258.685	102.38
258.918	80.38
259.151	75.38
259.383	91.38
259.616	67.38
259.849	75.38
260.081	88.38
260.314	98.38
260.547	91.38
260.779	89.38
261.012	79.38
261.244	87.38
261.477	82.38
261.71	85.38
261.942	75.38
262.175	85.38
262.407	76.38
262.64	79.38
262.872	73.38
263.105	74.38
263.337	72.38
263.57	75.38
263.802	81.38
264.035	78.38
264.267	94.38
264.499	88.38
264.732	85.38
264.964	92.38
265.197	95.38
265.429	73.38
265.661	84.38
265.894	88.38
266.126	90.38
266.358	97.38
266.591	81.38
266.823	89.38
267.055	69.38
267.287	73.38
267.52	79.38
267.752	82.38
267.984	87.38
268.216	74.38
268.448	87.38
268.681	80.38
268.913	72.38
269.145	92.38
269.377	92.38
269.609	82.38
269.841	83.38
270.073	92.38
270.306	82.38
270.538	73.38
270.77	81.38
271.002	92.38
271.234	72.38
271.466	94.38
271.698	83.38
271.93	84.38
272.162	75.38
272.394	89.38
272.626	81.38
272.858	98.38
273.09	92.38
273.322	80.38
273.553	77.38
273.785	73.38
274.017	86.38
274.249	69.38
274.481	89.38
274.713	84.38
274.945	85.38
275.176	77.38
275.408	92.38
275.64	88.38
275.872	97.38
276.104	97.38
276.335	102.38
276.567	99.38
276.799	106.38
277.031	90.38
277.262	86.38
277.494	77.38
277.726	78.38
277.957	86.38
278.189	83.38
278.421	79.38
278.652	74.38
278.884	99.38
279.115	87.38
279.347	84.38
279.579	86.38
279.81	89.38
280.042	103.38
280.273	90.38
280.505	69.38
280.736	84.38
280.968	86.38
281.199	95.38
281.431	80.38
281.662	88.38
281.894	76.38
282.125	95.38
282.356	81.38
282.588	83.38
282.819	82.38
283.051	78.38
283.282	89.38
283.513	91.38
283.745	94.38
283.976	94.38
284.207	84.38
284.439	92.38
284.67	93.38
284.901	90.38
285.132	92.38
285.364	85.38
285.595	94.38
285.826	74.38
286.057	98.38
286.288	87.38
286.52	97.38
286.751	92.38
286.982	91.38
287.213	92.38
287.444	82.38
287.675	84.38
287.906	88.38
288.138	93.38
288.369	91.38
288.6	92.38
288.831	88.38
289.062	98.38
289.293	81.38
289.524	77.38
289.755	69.38
289.986	91.38
290.217	82.38
290.448	74.38
290.679	82.38
290.91	92.38
291.141	97.38
291.371	86.38
291.602	89.38
291.833	82.38
292.064	82.38
292.295	78.38
292.526	105.38
292.757	86.38
292.987	92.38
293.218	103.38
293.449	93.38
293.68	84.38
293.91	82.38
294.141	97.38
294.372	81.38
294.603	85.38
294.833	91.38
295.064	103.38
295.295	79.38
295.525	80.38
295.756	65.38
295.987	75.38
296.217	85.38
296.448	85.38
296.679	77.38
296.909	103.38
297.14	85.38
297.37	87.38
297.601	95.38
297.831	92.38
298.062	101.38
298.292	93.38
298.523	82.38
298.753	81.38
298.984	76.38
299.214	88.38
299.445	89.38
299.675	99.38
299.905	86.38
300.136	85.38
300.366	84.38
300.597	86.38
300.827	84.38
301.057	89.38
301.288	90.38
301.518	95.38
301.748	90.38
301.979	94.38
302.209	82.38
302.439	77.38
302.669	81.38
302.9	90.38
303.13	98.38
303.36	92.38
303.59	84.38
303.82	88.38
304.051	89.38
304.281	91.38
304.511	96.38
304.741	99.38
304.971	80.38
305.201	104.38
305.431	88.38
305.661	87.38
305.891	89.38
306.121	91.38
306.352	95.38
306.582	93.38
306.812	100.38
307.042	90.38
307.272	92.38
307.502	92.38
307.731	97.38
307.961	99.38
308.191	85.38
308.421	97.38
308.651	90.38
308.881	97.38
309.111	81.38
309.341	89.38
309.571	87.38
309.8	91.38
310.03	87.38
310.26	84.38
310.49	82.38
310.72	89.38
310.949	84.38
311.179	90.38
311.409	96.38
311.639	91.38
311.868	83.38
312.098	78.38
312.328	83.38
312.557	87.38
312.787	80.38
313.017	83.38
313.246	98.38
313.476	81.38
313.706	78.38
313.935	94.38
314.165	86.38
314.394	97.38
314.624	80.38
314.853	79.38
315.083	81.38
315.312	92.38
315.542	85.38
315.771	85.38
316.001	91.38
316.23	77.38
316.46	83.38
316.689	95.38
316.919	92.38
317.148	93.38
317.377	88.38
317.607	75.38
317.836	75.38
318.065	94.38
318.295	91.38
318.524	82.38
318.753	76.38
318.983	76.38
319.212	94.38
319.441	93.38
319.67	86.38
319.9	89.38
320.129	83.38
320.358	82.38
320.587	80.38
320.816	95.38
321.046	89.38
321.275	83.38
321.504	75.38
321.733	94.38
321.962	89.38
322.191	95.38
322.42	86.38
322.649	94.38
322.878	91.38
323.108	89.38
323.337	91.38
323.566	90.38
323.795	93.38
324.024	79.38
324.253	85.38
324.482	94.38
324.71	101.38
324.939	79.38
325.168	79.38
325.397	94.38
325.626	98.38
325.855	87.38
326.084	87.38
326.313	88.38
326.542	98.38
326.77	64.38
326.999	82.38
327.228	82.38
327.457	91.38
327.686	94.38
327.914	89.38
328.143	94.38
328.372	95.38
328.6	85.38
328.829	79.38
329.058	82.38
329.287	96.38
329.515	90.38
329.744	83.38
329.972	90.38
330.201	80.38
330.43	90.38
330.658	71.38
330.887	89.38
331.115	93.38
331.344	81.38
331.572	74.38
331.801	83.38
332.03	83.38
332.258	92.38
332.486	79.38
332.715	81.38
332.943	95.38
333.172	78.38
333.4	89.38
333.629	93.38
333.857	87.38
334.085	87.38
334.314	83.38
334.542	89.38
334.771	73.38
334.999	76.38
335.227	82.38
335.455	87.38
335.684	80.38
335.912	85.38
336.14	94.38
336.369	71.38
336.597	91.38
336.825	88.38
337.053	77.38
337.281	85.38
337.51	92.38
337.738	94.38
337.966	80.38
338.194	85.38
338.422	84.38
338.65	79.38
338.878	102.38
339.106	82.38
339.334	89.38
339.562	95.38
339.79	89.38
340.018	96.38
340.246	91.38
340.474	95.38
340.702	75.38
340.93	103.38
341.158	89.38
341.386	92.38
341.614	74.38
341.842	98.38
342.07	78.38
342.298	93.38
342.526	95.38
342.754	91.38
342.981	93.38
343.209	106.38
343.437	100.38
343.665	79.38
343.893	90.38
344.12	79.38
344.348	82.38
344.576	82.38
344.804	86.38
345.031	74.38
345.259	101.38
345.487	86.38
345.714	89.38
345.942	96.38
346.17	74.38
346.397	71.38
346.625	86.38
346.853	97.38
347.08	86.38
347.308	94.38
347.535	94.38
347.763	92.38
347.99	96.38
348.218	96.38
348.445	96.38
348.673	91.38
348.9	84.38
349.128	87.38
349.355	78.38
349.583	85.38
349.81	86.38
350.037	91.38
350.265	86.38
350.492	81.38
350.72	79.38
350.947	86.38
351.174	90.38
351.402	96.38
351.629	84.38
351.856	84.38
352.083	79.38
352.311	90.38
352.538	89.38
352.765	74.38
352.992	89.38
353.22	84.38
353.447	69.38
353.674	84.38
353.901	100.38
354.128	74.38
354.355	73.38
354.583	80.38
354.81	95.38
355.037	73.38
355.264	92.38
355.491	79.38
355.718	82.38
355.945	91.38
356.172	88.38
356.399	80.38
356.626	87.38
356.853	66.38
357.08	86.38
357.307	79.38
357.534	65.38
357.761	82.38
357.988	85.38
358.215	84.38
358.441	88.38
358.668	78.38
358.895	91.38
359.122	91.38
359.349	88.38
359.576	90.38
359.802	88.38
360.029	76.38
360.256	85.38
360.483	74.38
360.709	85.38
360.936	83.38
361.163	84.38
361.39	80.38
361.616	78.38
361.843	86.38
362.07	80.38
362.296	87.38
362.523	85.38
362.749	89.38
362.976	83.38
363.203	87.38
363.429	75.38
363.656	101.38
363.882	94.38
364.109	86.38
364.335	84.38
364.562	85.38
364.788	65.38
365.015	76.38
365.241	84.38
365.468	91.38
365.694	93.38
365.92	99.38
366.147	95.38
366.373	97.38
366.599	98.38
366.826	98.38
367.052	79.38
367.278	83.38
367.505	91.38
367.731	95.38
367.957	94.38
368.184	87.38
368.41	80.38
368.636	89.38
368.862	84.38
369.089	100.38
369.315	93.38
369.541	97.38
369.767	97.38
369.993	94.38
370.219	96.38
370.445	76.38
370.672	90.38
370.898	78.38
371.124	78.38
371.35	83.38
371.576	89.38
371.802	92.38
372.028	90.38
372.254	96.38
372.48	96.38
372.706	91.38
372.932	91.38
373.158	97.38
373.384	106.38
373.61	98.38
373.835	103.38
374.061	96.38
374.287	107.38
374.513	113.38
374.739	89.38
374.965	88.38
375.191	96.38
375.416	91.38
375.642	89.38
375.868	108.38
376.094	104.38
376.319	78.38
376.545	93.38
376.771	93.38
376.997	93.38
377.222	109.38
377.448	91.38
377.674	91.38
377.899	109.38
378.125	101.38
378.35	106.38
378.576	97.38
378.802	99.38
379.027	98.38
379.253	105.38
379.478	94.38
379.704	87.38
379.929	106.38
380.155	98.38
380.38	97.38
380.606	82.38
380.831	92.38
381.057	98.38
381.282	105.38
381.507	98.38
381.733	88.38
381.958	97.38
382.184	97.38
382.409	101.38
382.634	100.38
382.86	103.38
383.085	102.38
383.31	99.38
383.535	108.38
383.761	93.38
383.986	108.38
384.211	99.38
384.436	90.38
384.662	101.38
384.887	102.38
385.112	103.38
385.337	94.38
385.562	111.38
385.787	114.38
386.013	112.38
386.238	99.38
386.463	106.38
386.688	101.38
386.913	95.38
387.138	102.38
387.363	108.38
387.588	110.38
387.813	108.38
388.038	110.38
388.263	110.38
388.488	97.38
388.713	92.38
388.938	88.38
389.163	101.38
389.387	103.38
389.612	101.38
389.837	113.38
390.062	101.38
390.287	103.38
390.512	128.38
390.736	101.38
390.961	106.38
391.186	102.38
391.411	107.38
391.636	114.38
391.86	106.38
392.085	101.38
392.31	112.38
392.534	106.38
392.759	113.38
392.984	111.38
393.208	103.38
393.433	111.38
393.658	105.38
393.882	127.38
394.107	125.38
394.331	105.38
394.556	110.38
394.78	99.38
395.005	119.38
395.229	103.38
395.454	114.38
395.678	79.38
395.903	95.38
396.127	96.38
396.352	104.38
396.576	99.38
396.801	105.38
397.025	95.38
397.249	99.38
397.474	125.38
397.698	111.38
397.922	118.38
398.147	93.38
398.371	118.38
398.595	122.38
398.82	104.38
399.044	92.38
399.268	105.38
399.492	99.38
399.717	113.38
399.941	129.38
400.165	98.38
400.389	117.38
400.613	117.38
400.837	123.38
401.062	112.38
401.286	103.38
401.51	118.38
401.734	119.38
401.958	121.38
402.182	104.38
402.406	109.38
402.63	119.38
402.854	120.38
403.078	117.38
403.302	113.38
403.526	117.38
403.75	119.38
403.974	107.38
404.198	128.38
404.422	128.38
404.645	132.38
404.869	115.38
405.093	131.38
405.317	113.38
405.541	112.38
405.765	122.38
405.988	115.38
406.212	130.38
406.436	109.38
406.66	131.38
406.883	127.38
407.107	134.38
407.331	120.38
407.555	131.38
407.778	122.38
408.002	132.38
408.226	132.38
408.449	99.38
408.673	107.38
408.896	99.38
409.12	119.38
409.344	123.38
409.567	117.38
409.791	120.38
410.014	133.38
410.238	109.38
410.461	125.38
410.685	124.38
410.908	128.38
411.132	115.38
411.355	119.38
411.578	133.38
411.802	126.38
412.025	119.38
412.249	133.38
412.472	121.38
412.695	123.38
412.919	127.38
413.142	126.38
413.365	126.38
413.589	125.38
413.812	126.38
414.035	123.38
414.258	127.38
414.482	126.38
414.705	125.38
414.928	111.38
415.151	133.38
415.374	111.38
415.597	110.38
415.821	136.38
416.044	130.38
416.267	131.38
416.49	129.38
416.713	124.38
416.936	121.38
417.159	126.38
417.382	120.38
417.605	134.38
417.828	130.38
418.051	132.38
418.274	129.38
418.497	139.38
418.72	117.38
418.943	134.38
419.166	140.38
419.389	142.38
419.611	133.38
419.834	136.38
420.057	133.38
420.28	134.38
420.503	128.38
420.726	131.38
420.948	146.38
421.171	140.38
421.394	117.38
421.617	137.38
421.839	134.38
422.062	143.38
422.285	142.38
422.507	129.38
422.73	139.38
422.953	136.38
423.175	113.38
423.398	139.38
423.621	121.38
423.843	134.38
424.066	143.38
424.288	142.38
424.511	144.38
424.733	147.38
424.956	140.38
425.178	125.38
425.401	137.38
425.623	142.38
425.846	126.38
426.068	127.38
426.291	121.38
426.513	127.38
426.735	132.38
426.958	140.38
427.18	138.38
427.402	116.38
427.625	141.38
427.847	124.38
428.069	137.38
428.292	133.38
428.514	131.38
428.736	148.38
428.958	129.38
429.181	130.38
429.403	123.38
429.625	128.38
429.847	125.38
430.069	131.38
430.292	142.38
430.514	122.38
430.736	127.38
430.958	130.38
431.18	131.38
431.402	147.38
431.624	109.38
431.846	109.38
432.068	94.38
432.29	92.38
432.512	104.38
432.734	128.38
432.956	125.38
433.178	137.38
433.4	148.38
433.622	135.38
433.844	142.38
434.066	138.38
434.287	97.38
434.509	102.38
434.731	105.38
434.953	121.38
435.175	109.38
435.397	121.38
435.618	116.38
435.84	110.38
436.062	109.38
436.284	127.38
436.505	132.38
436.727	131.38
436.949	144.38
437.17	130.38
437.392	112.38
437.614	119.38
437.835	104.38
438.057	112.38
438.278	125.38
438.5	130.38
438.721	129.38
438.943	137.38
439.165	138.38
439.386	127.38
439.608	148.38
439.829	144.38
440.05	159.38
440.272	153.38
440.493	146.38
440.715	149.38
440.936	133.38
441.158	141.38
441.379	142.38
441.6	137.38
441.822	126.38
442.043	139.38
442.264	134.38
442.486	135.38
442.707	135.38
442.928	139.38
443.149	141.38
443.371	119.38
443.592	133.38
443.813	146.38
444.034	139.38
444.255	138.38
444.476	143.38
444.698	126.38
444.919	131.38
445.14	266.38
445.361	185.38
445.582	151.38
445.803	147.38
446.024	165.38
446.245	149.38
446.466	162.38
446.687	155.38
446.908	149.38
447.129	157.38
447.35	163.38
447.571	140.38
447.792	133.38
448.013	143.38
448.234	153.38
448.455	143.38
448.675	137.38
448.896	142.38
449.117	127.38
449.338	142.38
449.559	131.38
449.779	137.38
450	138.38
450.221	134.38
450.442	137.38
450.662	125.38
450.883	141.38
451.104	146.38
451.324	133.38
451.545	135.38
451.766	130.38
451.986	128.38
452.207	127.38
452.428	134.38
452.648	115.38
452.869	132.38
453.089	103.38
453.31	113.38
453.53	104.38
453.751	104.38
453.971	110.38
454.192	119.38
454.412	97.38
454.633	121.38
454.853	111.38
455.073	122.38
455.294	125.38
455.514	130.38
455.734	121.38
455.955	116.38
456.175	114.38
456.395	131.38
456.616	98.38
456.836	102.38
457.056	114.38
457.276	105.38
457.497	108.38
457.717	104.38
457.937	109.38
458.157	99.38
458.377	114.38
458.598	112.38
458.818	92.38
459.038	103.38
459.258	90.38
459.478	101.38
459.698	89.38
459.918	98.38
460.138	106.38
460.358	116.38
460.578	115.38
460.798	125.38
461.018	129.38
461.238	110.38
461.458	107.38
461.678	99.38
461.898	120.38
462.118	124.38
462.338	117.38
462.558	113.38
462.777	93.38
462.997	114.38
463.217	112.38
463.437	104.38
463.657	107.38
463.876	125.38
464.096	107.38
464.316	102.38
464.536	115.38
464.755	131.38
464.975	113.38
465.195	123.38
465.414	134.38
465.634	106.38
465.854	117.38
466.073	116.38
466.293	134.38
466.512	129.38
466.732	125.38
466.951	127.38
467.171	141.38
467.391	133.38
467.61	134.38
467.829	130.38
468.049	136.38
468.268	141.38
468.488	145.38
468.707	120.38
468.927	141.38
469.146	136.38
469.365	145.38
469.585	142.38
469.804	137.38
470.023	142.38
470.243	144.38
470.462	149.38
470.681	138.38
470.901	129.38
471.12	135.38
471.339	142.38
471.558	151.38
471.777	135.38
471.997	126.38
472.216	128.38
472.435	128.38
472.654	113.38
472.873	111.38
473.092	119.38
473.311	111.38
473.53	118.38
473.749	141.38
473.968	134.38
474.187	121.38
474.406	111.38
474.625	125.38
474.844	124.38
475.063	110.38
475.282	140.38
475.501	126.38
475.72	130.38
475.939	120.38
476.158	129.38
476.377	143.38
476.596	112.38
476.814	125.38
477.033	110.38
477.252	109.38
477.471	135.38
477.69	129.38
477.908	143.38
478.127	148.38
478.346	137.38
478.564	131.38
478.783	141.38
479.002	134.38
479.22	133.38
479.439	122.38
479.658	129.38
479.876	110.38
480.095	129.38
480.313	119.38
480.532	128.38
480.751	108.38
480.969	105.38
481.188	96.38
481.406	106.38
481.624	95.38
481.843	90.38
482.061	104.38
482.28	122.38
482.498	104.38
482.717	117.38
482.935	126.38
483.153	145.38
483.372	165.38
483.59	172.38
483.808	144.38
484.027	135.38
484.245	140.38
484.463	147.38
484.681	162.38
484.9	151.38
485.118	137.38
485.336	140.38
485.554	110.38
485.772	109.38
485.99	111.38
486.209	119.38
486.427	92.38
486.645	133.38
486.863	139.38
487.081	137.38
487.299	133.38
487.517	148.38
487.735	162.38
487.953	178.38
488.171	176.38
488.389	171.38
488.607	158.38
488.825	140.38
489.043	135.38
489.261	130.38
489.479	137.38
489.696	141.38
489.914	149.38
490.132	155.38
490.35	142.38
490.568	146.38
490.786	162.38
491.003	171.38
491.221	187.38
491.439	193.38
491.657	207.38
491.874	210.38
492.092	210.38
492.31	240.38
492.527	233.38
492.745	209.38
492.963	199.38
493.18	193.38
493.398	179.38
493.615	178.38
493.833	188.38
494.05	174.38
494.268	160.38
494.485	190.38
494.703	176.38
494.92	172.38
495.138	165.38
495.355	174.38
495.573	167.38
495.79	170.38
496.008	163.38
496.225	165.38
496.442	159.38
496.66	162.38
496.877	164.38
497.094	170.38
497.312	163.38
497.529	163.38
497.746	149.38
497.963	136.38
498.181	141.38
498.398	135.38
498.615	114.38
498.832	132.38
499.049	126.38
499.267	118.38
499.484	135.38
499.701	117.38
499.918	143.38
500.135	138.38
500.352	137.38
500.569	141.38
500.786	120.38
501.003	146.38
501.22	141.38
501.437	147.38
501.654	152.38
501.871	131.38
502.088	141.38
502.305	143.38
502.522	126.38
502.739	125.38
502.956	137.38
503.172	135.38
503.389	114.38
503.606	119.38
503.823	127.38
504.04	123.38
504.256	120.38
504.473	134.38
504.69	124.38
504.907	108.38
505.123	119.38
505.34	123.38
505.557	120.38
505.773	127.38
505.99	117.38
506.207	125.38
506.423	125.38
506.64	135.38
506.856	126.38
507.073	121.38
507.289	125.38
507.506	125.38
507.722	123.38
507.939	121.38
508.155	121.38
508.372	109.38
508.588	125.38
508.805	102.38
509.021	109.38
509.238	110.38
509.454	111.38
509.67	101.38
509.887	105.38
510.103	93.38
510.319	97.38
510.536	97.38
510.752	87.38
510.968	87.38
511.184	93.38
511.401	83.38
511.617	101.38
511.833	89.38
512.049	96.38
512.265	94.38
512.481	83.38
512.698	83.38
512.914	97.38
513.13	98.38
513.346	89.38
513.562	99.38
513.778	96.38
513.994	89.38
514.21	94.38
514.426	102.38
514.642	112.38
514.858	103.38
515.074	89.38
515.29	97.38
515.506	81.38
515.721	91.38
515.937	97.38
516.153	85.38
516.369	90.38
516.585	99.38
516.801	82.38
517.016	91.38
517.232	97.38
517.448	107.38
517.664	90.38
517.879	94.38
518.095	90.38
518.311	83.38
518.527	98.38
518.742	100.38
518.958	103.38
519.173	114.38
519.389	110.38
519.605	118.38
519.82	113.38
520.036	105.38
520.251	94.38
520.467	98.38
520.682	94.38
520.898	101.38
521.113	102.38
521.329	84.38
521.544	93.38
521.76	98.38
521.975	97.38
522.19	109.38
522.406	110.38
522.621	111.38
522.836	110.38
523.052	102.38
523.267	99.38
523.482	110.38
523.698	113.38
523.913	113.38
524.128	128.38
524.343	107.38
524.559	123.38
524.774	121.38
524.989	122.38
525.204	112.38
525.419	123.38
525.634	117.38
525.849	105.38
526.064	103.38
526.28	106.38
526.495	89.38
526.71	90.38
526.925	87.38
527.14	87.38
527.355	85.38
527.57	95.38
527.785	87.38
527.999	101.38
528.214	107.38
528.429	107.38
528.644	113.38
528.859	138.38
529.074	153.38
529.289	153.38
529.503	147.38
529.718	140.38
529.933	125.38
530.148	115.38
530.363	99.38
530.577	89.38
530.792	91.38
531.007	90.38
531.221	86.38
531.436	86.38
531.651	95.38
531.865	90.38
532.08	100.38
532.295	107.38
532.509	90.38
532.724	82.38
532.938	98.38
533.153	95.38
533.367	104.38
533.582	121.38
533.796	121.38
534.011	109.38
534.225	91.38
534.44	96.38
534.654	93.38
534.868	89.38
535.083	111.38
535.297	87.38
535.511	106.38
535.726	118.38
535.94	102.38
536.154	110.38
536.369	107.38
536.583	89.38
536.797	74.38
537.011	83.38
537.225	97.38
537.44	104.38
537.654	99.38
537.868	105.38
538.082	94.38
538.296	89.38
538.51	113.38
538.724	103.38
538.938	123.38
539.153	123.38
539.367	123.38
539.581	117.38
539.795	107.38
540.009	95.38
540.222	98.38
540.436	101.38
540.65	117.38
540.864	143.38
541.078	135.38
541.292	132.38
541.506	163.38
541.72	168.38
541.934	181.38
542.147	193.38
542.361	189.38
542.575	169.38
542.789	158.38
543.002	128.38
543.216	136.38
543.43	134.38
543.644	151.38
543.857	151.38
544.071	163.38
544.285	170.38
544.498	142.38
544.712	162.38
544.925	157.38
545.139	151.38
545.352	154.38
545.566	152.38
545.779	139.38
545.993	166.38
546.206	164.38
546.42	161.38
546.633	151.38
546.847	157.38
547.06	176.38
547.274	155.38
547.487	173.38
547.7	188.38
547.914	176.38
548.127	169.38
548.34	166.38
548.554	153.38
548.767	168.38
548.98	163.38
549.193	166.38
549.407	151.38
549.62	157.38
549.833	155.38
550.046	149.38
550.259	152.38
550.473	162.38
550.686	155.38
550.899	161.38
551.112	147.38
551.325	143.38
551.538	136.38
551.751	136.38
551.964	136.38
552.177	141.38
552.39	127.38
552.603	142.38
552.816	151.38
553.029	153.38
553.242	154.38
553.455	156.38
553.667	163.38
553.88	156.38
554.093	147.38
554.306	153.38
554.519	157.38
554.732	153.38
554.944	138.38
555.157	143.38
555.37	143.38
555.583	151.38
555.795	148.38
556.008	157.38
556.221	142.38
556.433	133.38
556.646	121.38
556.859	134.38
557.071	139.38
557.284	158.38
557.496	140.38
557.709	140.38
557.921	138.38
558.134	134.38
558.346	146.38
558.559	142.38
558.771	142.38
558.984	147.38
559.196	117.38
559.409	142.38
559.621	129.38
559.833	132.38
560.046	128.38
560.258	141.38
560.47	127.38
560.683	139.38
560.895	127.38
561.107	127.38
561.32	126.38
561.532	135.38
561.744	129.38
561.956	138.38
562.168	139.38
562.381	129.38
562.593	138.38
562.805	138.38
563.017	142.38
563.229	130.38
563.441	133.38
563.653	126.38
563.865	118.38
564.077	117.38
564.289	112.38
564.501	127.38
564.713	101.38
564.925	121.38
565.137	119.38
565.349	132.38
565.561	121.38
565.773	135.38
565.985	119.38
566.197	109.38
566.408	128.38
566.62	127.38
566.832	117.38
567.044	110.38
567.255	110.38
567.467	117.38
567.679	108.38
567.891	115.38
568.102	97.38
568.314	99.38
568.526	95.38
568.737	97.38
568.949	80.38
569.161	91.38
569.372	90.38
569.584	91.38
569.795	91.38
570.007	95.38
570.218	93.38
570.43	94.38
570.641	102.38
570.853	94.38
571.064	99.38
571.276	99.38
571.487	101.38
571.698	103.38
571.91	111.38
572.121	101.38
572.333	99.38
572.544	101.38
572.755	93.38
572.966	80.38
573.178	100.38
573.389	80.38
573.6	83.38
573.811	75.38
574.023	68.38
574.234	96.38
574.445	82.38
574.656	94.38
574.867	93.38
575.078	95.38
575.289	101.38
575.501	89.38
575.712	123.38
575.923	94.38
576.134	105.38
576.345	107.38
576.556	99.38
576.767	103.38
576.978	98.38
577.188	91.38
577.399	102.38
577.61	115.38
577.821	102.38
578.032	97.38
578.243	93.38
578.454	115.38
578.665	109.38
578.875	83.38
579.086	82.38
579.297	85.38
579.508	89.38
579.718	94.38
579.929	88.38
580.14	95.38
580.35	90.38
580.561	87.38
580.772	102.38
580.982	96.38
581.193	110.38
581.403	104.38
581.614	100.38
581.825	101.38
582.035	98.38
582.246	93.38
582.456	123.38
582.667	101.38
582.877	80.38
583.087	96.38
583.298	94.38
583.508	88.38
583.719	79.38
583.929	95.38
584.139	81.38
584.35	81.38
584.56	96.38
584.77	98.38
584.981	93.38
585.191	91.38
585.401	80.38
585.611	83.38
585.821	93.38
586.032	83.38
586.242	85.38
586.452	98.38
586.662	80.38
586.872	88.38
587.082	67.38
587.292	77.38
587.502	83.38
587.713	86.38
587.923	81.38
588.133	83.38
588.343	80.38
588.553	82.38
588.762	72.38
588.972	73.38
589.182	92.38
589.392	97.38
589.602	79.38
589.812	81.38
590.022	80.38
590.232	83.38
590.441	83.38
590.651	87.38
590.861	84.38
591.071	85.38
591.281	81.38
591.49	81.38
591.7	86.38
591.91	81.38
592.119	95.38
592.329	79.38
592.539	86.38
592.748	93.38
592.958	85.38
593.167	95.38
593.377	92.38
593.587	71.38
593.796	88.38
594.006	98.38
594.215	89.38
594.424	88.38
594.634	85.38
594.843	99.38
595.053	95.38
595.262	91.38
595.472	98.38
595.681	87.38
595.89	78.38
596.1	82.38
596.309	101.38
596.518	94.38
596.727	92.38
596.937	92.38
597.146	87.38
597.355	93.38
597.564	93.38
597.774	110.38
597.983	90.38
598.192	79.38
598.401	82.38
598.61	93.38
598.819	95.38
599.028	98.38
599.237	109.38
599.446	92.38
599.655	95.38
599.864	91.38
600.073	92.38
600.282	89.38
600.491	92.38
600.7	80.38
600.909	101.38
601.118	111.38
601.327	118.38
601.536	103.38
601.745	113.38
601.953	108.38
602.162	106.38
602.371	114.38
602.58	105.38
602.789	104.38
602.997	99.38
603.206	130.38
603.415	123.38
603.623	112.38
603.832	94.38
604.041	113.38
604.249	112.38
604.458	100.38
604.666	98.38
604.875	87.38
605.084	102.38
605.292	105.38
605.501	113.38
605.709	113.38
605.918	122.38
606.126	128.38
606.334	102.38
606.543	114.38
606.751	106.38
606.96	125.38
607.168	106.38
607.376	101.38
607.585	101.38
607.793	116.38
608.001	121.38
608.21	123.38
608.418	98.38
608.626	117.38
608.834	114.38
609.043	121.38
609.251	119.38
609.459	117.38
609.667	119.38
609.875	110.38
610.083	95.38
610.291	121.38
610.499	120.38
610.707	121.38
610.916	111.38
611.124	113.38
611.332	129.38
611.54	105.38
611.748	103.38
611.955	113.38
612.163	105.38
612.371	104.38
612.579	105.38
612.787	104.38
612.995	115.38
613.203	117.38
613.411	127.38
613.618	118.38
613.826	122.38
614.034	103.38
614.242	100.38
614.449	117.38
614.657	117.38
614.865	112.38
615.072	119.38
615.28	125.38
615.488	109.38
615.695	133.38
615.903	117.38
616.111	106.38
616.318	123.38
616.526	111.38
616.733	103.38
616.941	110.38
617.148	102.38
617.356	118.38
617.563	99.38
617.771	85.38
617.978	113.38
618.185	123.38
618.393	119.38
618.6	104.38
618.807	109.38
619.015	112.38
619.222	108.38
619.429	103.38
619.637	117.38
619.844	127.38
620.051	107.38
620.258	95.38
620.466	118.38
620.673	98.38
620.88	100.38
621.087	112.38
621.294	113.38
621.501	105.38
621.708	110.38
621.915	113.38
622.122	98.38
622.329	119.38
622.536	112.38
622.743	123.38
622.95	109.38
623.157	101.38
623.364	107.38
623.571	117.38
623.778	105.38
623.985	112.38
624.192	102.38
624.399	111.38
624.606	103.38
624.812	109.38
625.019	108.38
625.226	109.38
625.433	107.38
625.639	103.38
625.846	106.38
626.053	92.38
626.259	103.38
626.466	105.38
626.673	87.38
626.879	86.38
627.086	96.38
627.293	102.38
627.499	110.38
627.706	101.38
627.912	102.38
628.119	110.38
628.325	103.38
628.532	97.38
628.738	103.38
628.945	108.38
629.151	101.38
629.357	112.38
629.564	112.38
629.77	105.38
629.976	98.38
630.183	106.38
630.389	96.38
630.595	115.38
630.802	107.38
631.008	93.38
631.214	101.38
631.42	113.38
631.627	94.38
631.833	84.38
632.039	98.38
632.245	112.38
632.451	108.38
632.657	99.38
632.863	83.38
633.069	98.38
633.275	97.38
633.481	102.38
633.688	105.38
633.893	108.38
634.099	108.38
634.305	110.38
634.511	105.38
634.717	88.38
634.923	100.38
635.129	94.38
635.335	93.38
635.541	101.38
635.747	97.38
635.952	99.38
636.158	106.38
636.364	107.38
636.57	107.38
636.775	106.38
636.981	105.38
637.187	104.38
637.392	115.38
637.598	106.38
637.804	109.38
638.009	102.38
638.215	101.38
638.421	103.38
638.626	91.38
638.832	108.38
639.037	97.38
639.243	114.38
639.448	95.38
639.654	98.38
639.859	107.38
640.065	102.38
640.27	95.38
640.475	96.38
640.681	110.38
640.886	107.38
641.091	95.38
641.297	108.38
641.502	95.38
641.707	92.38
641.913	111.38
642.118	101.38
642.323	102.38
642.528	103.38
642.733	98.38
642.939	118.38
643.144	101.38
643.349	100.38
643.554	84.38
643.759	97.38
643.964	99.38
644.169	100.38
644.374	95.38
644.579	101.38
644.784	98.38
644.989	92.38
645.194	91.38
645.399	90.38
645.604	98.38
645.809	106.38
646.014	94.38
646.219	108.38
646.423	93.38
646.628	101.38
646.833	103.38
647.038	95.38
647.243	84.38
647.447	115.38
647.652	92.38
647.857	89.38
648.062	89.38
648.266	103.38
648.471	114.38
648.676	102.38
648.88	90.38
649.085	101.38
649.289	94.38
649.494	114.38
649.698	90.38
649.903	106.38
650.107	99.38
650.312	103.38
650.516	94.38
650.721	101.38
650.925	99.38
651.13	90.38
651.334	104.38
651.539	98.38
651.743	98.38
651.947	93.38
652.152	94.38
652.356	110.38
652.56	108.38
652.764	107.38
652.969	97.38
653.173	87.38
653.377	104.38
653.581	89.38
653.785	103.38
653.99	111.38
654.194	84.38
654.398	95.38
654.602	106.38
654.806	86.38
655.01	79.38
655.214	93.38
655.418	94.38
655.622	77.38
655.826	81.38
656.03	85.38
656.234	78.38
656.438	85.38
656.642	103.38
656.846	92.38
657.049	94.38
657.253	98.38
657.457	86.38
657.661	90.38
657.865	103.38
658.068	95.38
658.272	93.38
658.476	76.38
658.68	89.38
658.883	95.38
659.087	92.38
659.291	97.38
659.494	83.38
659.698	81.38
659.901	87.38
660.105	70.38
660.309	83.38
660.512	88.38
660.716	93.38
660.919	98.38
661.123	93.38
661.326	69.38
661.53	76.38
661.733	80.38
661.936	85.38
662.14	81.38
662.343	90.38
662.546	86.38
662.75	80.38
662.953	93.38
663.156	72.38
663.36	87.38
663.563	86.38
663.766	79.38
663.969	100.38
664.173	80.38
664.376	92.38
664.579	87.38
664.782	75.38
664.985	82.38
665.188	78.38
665.391	84.38
665.594	76.38
665.797	81.38
666	95.38
666.203	76.38
666.406	88.38
666.609	90.38
666.812	83.38
667.015	73.38
667.218	79.38
667.421	100.38
667.624	84.38
667.827	87.38
668.03	84.38
668.232	98.38
668.435	77.38
668.638	85.38
668.841	76.38
669.043	74.38
669.246	86.38
669.449	75.38
669.651	77.38
669.854	75.38
670.057	91.38
670.259	77.38
670.462	86.38
670.665	90.38
670.867	78.38
671.07	74.38
671.272	78.38
671.475	87.38
671.677	89.38
671.88	82.38
672.082	90.38
672.284	100.38
672.487	104.38
672.689	88.38
672.892	83.38
