Data from Location1.07152019.Energy5.Lamp.07192019.3%Agarose_HRD10591_14-33-09-015.txt Node
Date: Fri Jul 19 14:33:09 EDT 2019
User: cochatt
Spectrometer: HR+D1059
Trigger mode: 1
Integration Time (sec): 1.000000E-1
Scans to average: 1
Electric dark correction enabled: true
Nonlinearity correction enabled: false
Boxcar width: 0
XAxis mode: Wavelengths
Number of Pixels in Spectrum: 2048
>>>>>Begin Spectral Data<<<<<
223.165	-19.62
223.4	-19.62
223.635	-19.62
223.869	-16.62
224.104	-6.62
224.338	-3.62
224.573	-6.62
224.808	-7.62
225.042	-8.62
225.277	2.38
225.511	-10.62
225.746	-23.62
225.98	16.38
226.215	-1.62
226.449	18.38
226.683	13.38
226.918	33.38
227.152	21.38
227.387	45.38
227.621	41.38
227.856	32.38
228.09	59.38
228.324	54.38
228.559	50.38
228.793	68.38
229.027	52.38
229.262	71.38
229.496	73.38
229.73	69.38
229.964	72.38
230.199	82.38
230.433	81.38
230.667	69.38
230.901	74.38
231.136	81.38
231.37	82.38
231.604	75.38
231.838	80.38
232.072	82.38
232.306	86.38
232.541	78.38
232.775	92.38
233.009	83.38
233.243	77.38
233.477	90.38
233.711	92.38
233.945	89.38
234.179	89.38
234.413	87.38
234.647	80.38
234.881	80.38
235.115	89.38
235.349	87.38
235.583	73.38
235.817	82.38
236.051	74.38
236.285	76.38
236.519	84.38
236.753	92.38
236.987	81.38
237.221	75.38
237.455	73.38
237.689	94.38
237.922	74.38
238.156	77.38
238.39	78.38
238.624	84.38
238.858	86.38
239.091	82.38
239.325	86.38
239.559	62.38
239.793	72.38
240.027	83.38
240.26	80.38
240.494	85.38
240.728	81.38
240.961	85.38
241.195	70.38
241.429	93.38
241.662	86.38
241.896	71.38
242.13	86.38
242.363	92.38
242.597	64.38
242.83	80.38
243.064	77.38
243.298	85.38
243.531	77.38
243.765	95.38
243.998	76.38
244.232	75.38
244.465	60.38
244.699	78.38
244.932	83.38
245.166	87.38
245.399	79.38
245.633	76.38
245.866	90.38
246.099	90.38
246.333	80.38
246.566	68.38
246.8	81.38
247.033	69.38
247.266	82.38
247.5	88.38
247.733	69.38
247.966	71.38
248.2	85.38
248.433	73.38
248.666	84.38
248.899	92.38
249.133	72.38
249.366	75.38
249.599	82.38
249.832	81.38
250.066	76.38
250.299	89.38
250.532	70.38
250.765	82.38
250.998	94.38
251.231	89.38
251.465	72.38
251.698	101.38
251.931	84.38
252.164	87.38
252.397	72.38
252.63	74.38
252.863	73.38
253.096	73.38
253.329	82.38
253.562	82.38
253.795	77.38
254.028	84.38
254.261	86.38
254.494	95.38
254.727	100.38
254.96	105.38
255.193	91.38
255.426	79.38
255.659	84.38
255.892	86.38
256.124	77.38
256.357	93.38
256.59	89.38
256.823	96.38
257.056	75.38
257.289	79.38
257.521	90.38
257.754	74.38
257.987	78.38
258.22	80.38
258.452	83.38
258.685	75.38
258.918	86.38
259.151	86.38
259.383	88.38
259.616	86.38
259.849	88.38
260.081	101.38
260.314	86.38
260.547	88.38
260.779	85.38
261.012	92.38
261.244	83.38
261.477	77.38
261.71	64.38
261.942	73.38
262.175	97.38
262.407	72.38
262.64	76.38
262.872	71.38
263.105	82.38
263.337	81.38
263.57	79.38
263.802	94.38
264.035	84.38
264.267	94.38
264.499	88.38
264.732	72.38
264.964	86.38
265.197	75.38
265.429	90.38
265.661	89.38
265.894	85.38
266.126	91.38
266.358	82.38
266.591	86.38
266.823	81.38
267.055	91.38
267.287	90.38
267.52	77.38
267.752	84.38
267.984	86.38
268.216	85.38
268.448	77.38
268.681	79.38
268.913	68.38
269.145	92.38
269.377	85.38
269.609	90.38
269.841	86.38
270.073	90.38
270.306	80.38
270.538	79.38
270.77	79.38
271.002	83.38
271.234	85.38
271.466	74.38
271.698	76.38
271.93	93.38
272.162	80.38
272.394	83.38
272.626	96.38
272.858	97.38
273.09	96.38
273.322	90.38
273.553	80.38
273.785	68.38
274.017	87.38
274.249	101.38
274.481	101.38
274.713	85.38
274.945	81.38
275.176	81.38
275.408	96.38
275.64	80.38
275.872	95.38
276.104	99.38
276.335	95.38
276.567	103.38
276.799	76.38
277.031	88.38
277.262	92.38
277.494	82.38
277.726	80.38
277.957	86.38
278.189	83.38
278.421	91.38
278.652	94.38
278.884	97.38
279.115	85.38
279.347	80.38
279.579	88.38
279.81	86.38
280.042	86.38
280.273	94.38
280.505	95.38
280.736	76.38
280.968	88.38
281.199	89.38
281.431	86.38
281.662	84.38
281.894	81.38
282.125	93.38
282.356	97.38
282.588	84.38
282.819	78.38
283.051	96.38
283.282	90.38
283.513	94.38
283.745	91.38
283.976	94.38
284.207	92.38
284.439	82.38
284.67	83.38
284.901	72.38
285.132	90.38
285.364	83.38
285.595	100.38
285.826	86.38
286.057	91.38
286.288	86.38
286.52	84.38
286.751	60.38
286.982	82.38
287.213	102.38
287.444	87.38
287.675	85.38
287.906	81.38
288.138	84.38
288.369	86.38
288.6	91.38
288.831	76.38
289.062	88.38
289.293	74.38
289.524	89.38
289.755	85.38
289.986	77.38
290.217	89.38
290.448	77.38
290.679	93.38
290.91	96.38
291.141	89.38
291.371	101.38
291.602	87.38
291.833	81.38
292.064	80.38
292.295	87.38
292.526	91.38
292.757	90.38
292.987	91.38
293.218	76.38
293.449	81.38
293.68	92.38
293.91	79.38
294.141	72.38
294.372	92.38
294.603	88.38
294.833	83.38
295.064	88.38
295.295	90.38
295.525	85.38
295.756	88.38
295.987	97.38
296.217	78.38
296.448	85.38
296.679	90.38
296.909	93.38
297.14	96.38
297.37	93.38
297.601	82.38
297.831	86.38
298.062	92.38
298.292	103.38
298.523	83.38
298.753	78.38
298.984	94.38
299.214	73.38
299.445	91.38
299.675	86.38
299.905	82.38
300.136	79.38
300.366	85.38
300.597	97.38
300.827	87.38
301.057	102.38
301.288	82.38
301.518	86.38
301.748	94.38
301.979	94.38
302.209	87.38
302.439	77.38
302.669	90.38
302.9	98.38
303.13	86.38
303.36	91.38
303.59	80.38
303.82	93.38
304.051	86.38
304.281	94.38
304.511	96.38
304.741	90.38
304.971	74.38
305.201	79.38
305.431	78.38
305.661	96.38
305.891	93.38
306.121	89.38
306.352	86.38
306.582	89.38
306.812	83.38
307.042	88.38
307.272	92.38
307.502	79.38
307.731	88.38
307.961	82.38
308.191	83.38
308.421	93.38
308.651	89.38
308.881	95.38
309.111	66.38
309.341	76.38
309.571	86.38
309.8	83.38
310.03	90.38
310.26	95.38
310.49	82.38
310.72	84.38
310.949	89.38
311.179	81.38
311.409	82.38
311.639	75.38
311.868	97.38
312.098	86.38
312.328	95.38
312.557	94.38
312.787	96.38
313.017	80.38
313.246	92.38
313.476	88.38
313.706	66.38
313.935	91.38
314.165	83.38
314.394	85.38
314.624	90.38
314.853	90.38
315.083	86.38
315.312	93.38
315.542	82.38
315.771	86.38
316.001	86.38
316.23	90.38
316.46	84.38
316.689	85.38
316.919	86.38
317.148	96.38
317.377	86.38
317.607	86.38
317.836	83.38
318.065	78.38
318.295	106.38
318.524	86.38
318.753	93.38
318.983	91.38
319.212	78.38
319.441	79.38
319.67	101.38
319.9	81.38
320.129	78.38
320.358	79.38
320.587	94.38
320.816	81.38
321.046	91.38
321.275	90.38
321.504	90.38
321.733	95.38
321.962	90.38
322.191	75.38
322.42	95.38
322.649	84.38
322.878	87.38
323.108	92.38
323.337	90.38
323.566	77.38
323.795	93.38
324.024	91.38
324.253	93.38
324.482	80.38
324.71	81.38
324.939	102.38
325.168	77.38
325.397	89.38
325.626	92.38
325.855	86.38
326.084	90.38
326.313	89.38
326.542	88.38
326.77	98.38
326.999	84.38
327.228	84.38
327.457	82.38
327.686	89.38
327.914	103.38
328.143	98.38
328.372	91.38
328.6	93.38
328.829	81.38
329.058	82.38
329.287	89.38
329.515	78.38
329.744	84.38
329.972	82.38
330.201	88.38
330.43	84.38
330.658	88.38
330.887	83.38
331.115	95.38
331.344	83.38
331.572	82.38
331.801	94.38
332.03	78.38
332.258	95.38
332.486	85.38
332.715	84.38
332.943	84.38
333.172	83.38
333.4	79.38
333.629	98.38
333.857	82.38
334.085	84.38
334.314	86.38
334.542	93.38
334.771	94.38
334.999	89.38
335.227	89.38
335.455	92.38
335.684	93.38
335.912	73.38
336.14	83.38
336.369	83.38
336.597	89.38
336.825	91.38
337.053	77.38
337.281	83.38
337.51	86.38
337.738	78.38
337.966	79.38
338.194	96.38
338.422	91.38
338.65	101.38
338.878	92.38
339.106	88.38
339.334	97.38
339.562	86.38
339.79	94.38
340.018	78.38
340.246	82.38
340.474	83.38
340.702	67.38
340.93	100.38
341.158	85.38
341.386	105.38
341.614	80.38
341.842	79.38
342.07	90.38
342.298	92.38
342.526	89.38
342.754	89.38
342.981	86.38
343.209	75.38
343.437	88.38
343.665	85.38
343.893	78.38
344.12	97.38
344.348	92.38
344.576	80.38
344.804	93.38
345.031	82.38
345.259	83.38
345.487	87.38
345.714	85.38
345.942	90.38
346.17	84.38
346.397	96.38
346.625	89.38
346.853	78.38
347.08	81.38
347.308	93.38
347.535	91.38
347.763	86.38
347.99	85.38
348.218	93.38
348.445	94.38
348.673	94.38
348.9	80.38
349.128	91.38
349.355	81.38
349.583	80.38
349.81	78.38
350.037	94.38
350.265	78.38
350.492	80.38
350.72	94.38
350.947	90.38
351.174	100.38
351.402	87.38
351.629	86.38
351.856	80.38
352.083	95.38
352.311	87.38
352.538	78.38
352.765	100.38
352.992	100.38
353.22	89.38
353.447	91.38
353.674	89.38
353.901	89.38
354.128	103.38
354.355	83.38
354.583	74.38
354.81	86.38
355.037	82.38
355.264	79.38
355.491	83.38
355.718	79.38
355.945	90.38
356.172	85.38
356.399	85.38
356.626	76.38
356.853	90.38
357.08	82.38
357.307	94.38
357.534	85.38
357.761	85.38
357.988	84.38
358.215	80.38
358.441	78.38
358.668	78.38
358.895	88.38
359.122	84.38
359.349	71.38
359.576	83.38
359.802	76.38
360.029	87.38
360.256	80.38
360.483	86.38
360.709	80.38
360.936	105.38
361.163	89.38
361.39	86.38
361.616	81.38
361.843	105.38
362.07	89.38
362.296	87.38
362.523	86.38
362.749	89.38
362.976	77.38
363.203	81.38
363.429	91.38
363.656	86.38
363.882	98.38
364.109	90.38
364.335	82.38
364.562	95.38
364.788	93.38
365.015	85.38
365.241	86.38
365.468	96.38
365.694	78.38
365.92	83.38
366.147	85.38
366.373	92.38
366.599	86.38
366.826	85.38
367.052	95.38
367.278	97.38
367.505	86.38
367.731	93.38
367.957	87.38
368.184	76.38
368.41	82.38
368.636	100.38
368.862	95.38
369.089	81.38
369.315	99.38
369.541	94.38
369.767	101.38
369.993	90.38
370.219	92.38
370.445	93.38
370.672	73.38
370.898	74.38
371.124	87.38
371.35	93.38
371.576	79.38
371.802	92.38
372.028	86.38
372.254	109.38
372.48	90.38
372.706	107.38
372.932	91.38
373.158	80.38
373.384	94.38
373.61	105.38
373.835	89.38
374.061	97.38
374.287	89.38
374.513	96.38
374.739	102.38
374.965	89.38
375.191	86.38
375.416	100.38
375.642	97.38
375.868	90.38
376.094	87.38
376.319	93.38
376.545	94.38
376.771	77.38
376.997	106.38
377.222	84.38
377.448	96.38
377.674	104.38
377.899	99.38
378.125	103.38
378.35	98.38
378.576	108.38
378.802	102.38
379.027	96.38
379.253	81.38
379.478	94.38
379.704	90.38
379.929	97.38
380.155	108.38
380.38	99.38
380.606	92.38
380.831	97.38
381.057	102.38
381.282	95.38
381.507	102.38
381.733	88.38
381.958	105.38
382.184	101.38
382.409	101.38
382.634	104.38
382.86	93.38
383.085	92.38
383.31	96.38
383.535	92.38
383.761	116.38
383.986	117.38
384.211	118.38
384.436	103.38
384.662	96.38
384.887	102.38
385.112	103.38
385.337	112.38
385.562	96.38
385.787	101.38
386.013	106.38
386.238	90.38
386.463	105.38
386.688	99.38
386.913	96.38
387.138	100.38
387.363	106.38
387.588	97.38
387.813	96.38
388.038	95.38
388.263	93.38
388.488	96.38
388.713	97.38
388.938	93.38
389.163	104.38
389.387	110.38
389.612	98.38
389.837	95.38
390.062	102.38
390.287	102.38
390.512	90.38
390.736	98.38
390.961	105.38
391.186	98.38
391.411	119.38
391.636	98.38
391.86	105.38
392.085	109.38
392.31	122.38
392.534	88.38
392.759	106.38
392.984	111.38
393.208	124.38
393.433	105.38
393.658	105.38
393.882	96.38
394.107	108.38
394.331	90.38
394.556	111.38
394.78	105.38
395.005	109.38
395.229	110.38
395.454	112.38
395.678	113.38
395.903	113.38
396.127	100.38
396.352	93.38
396.576	131.38
396.801	106.38
397.025	113.38
397.249	99.38
397.474	116.38
397.698	122.38
397.922	117.38
398.147	98.38
398.371	111.38
398.595	136.38
398.82	114.38
399.044	116.38
399.268	90.38
399.492	106.38
399.717	106.38
399.941	122.38
400.165	105.38
400.389	105.38
400.613	111.38
400.837	108.38
401.062	97.38
401.286	107.38
401.51	112.38
401.734	109.38
401.958	106.38
402.182	117.38
402.406	119.38
402.63	116.38
402.854	120.38
403.078	117.38
403.302	121.38
403.526	119.38
403.75	112.38
403.974	104.38
404.198	118.38
404.422	132.38
404.645	119.38
404.869	110.38
405.093	115.38
405.317	125.38
405.541	110.38
405.765	111.38
405.988	127.38
406.212	144.38
406.436	119.38
406.66	125.38
406.883	132.38
407.107	115.38
407.331	112.38
407.555	140.38
407.778	103.38
408.002	112.38
408.226	112.38
408.449	117.38
408.673	124.38
408.896	119.38
409.12	126.38
409.344	127.38
409.567	122.38
409.791	129.38
410.014	123.38
410.238	118.38
410.461	125.38
410.685	121.38
410.908	125.38
411.132	120.38
411.355	119.38
411.578	128.38
411.802	139.38
412.025	111.38
412.249	119.38
412.472	119.38
412.695	118.38
412.919	128.38
413.142	138.38
413.365	129.38
413.589	118.38
413.812	119.38
414.035	136.38
414.258	128.38
414.482	123.38
414.705	128.38
414.928	128.38
415.151	129.38
415.374	115.38
415.597	125.38
415.821	113.38
416.044	127.38
416.267	147.38
416.49	131.38
416.713	122.38
416.936	120.38
417.159	131.38
417.382	120.38
417.605	131.38
417.828	135.38
418.051	125.38
418.274	124.38
418.497	138.38
418.72	138.38
418.943	125.38
419.166	124.38
419.389	145.38
419.611	130.38
419.834	115.38
420.057	137.38
420.28	133.38
420.503	123.38
420.726	136.38
420.948	128.38
421.171	118.38
421.394	133.38
421.617	135.38
421.839	140.38
422.062	145.38
422.285	120.38
422.507	134.38
422.73	128.38
422.953	136.38
423.175	138.38
423.398	121.38
423.621	115.38
423.843	131.38
424.066	137.38
424.288	134.38
424.511	128.38
424.733	128.38
424.956	127.38
425.178	150.38
425.401	153.38
425.623	124.38
425.846	134.38
426.068	129.38
426.291	118.38
426.513	132.38
426.735	132.38
426.958	138.38
427.18	136.38
427.402	134.38
427.625	140.38
427.847	125.38
428.069	132.38
428.292	126.38
428.514	127.38
428.736	130.38
428.958	136.38
429.181	135.38
429.403	126.38
429.625	123.38
429.847	121.38
430.069	124.38
430.292	133.38
430.514	130.38
430.736	132.38
430.958	133.38
431.18	119.38
431.402	132.38
431.624	130.38
431.846	117.38
432.068	91.38
432.29	86.38
432.512	114.38
432.734	117.38
432.956	131.38
433.178	134.38
433.4	137.38
433.622	138.38
433.844	141.38
434.066	116.38
434.287	104.38
434.509	84.38
434.731	107.38
434.953	118.38
435.175	134.38
435.397	147.38
435.618	135.38
435.84	119.38
436.062	120.38
436.284	130.38
436.505	149.38
436.727	143.38
436.949	134.38
437.17	129.38
437.392	121.38
437.614	129.38
437.835	121.38
438.057	111.38
438.278	107.38
438.5	125.38
438.721	117.38
438.943	118.38
439.165	127.38
439.386	144.38
439.608	150.38
439.829	137.38
440.05	146.38
440.272	156.38
440.493	132.38
440.715	126.38
440.936	152.38
441.158	146.38
441.379	151.38
441.6	146.38
441.822	143.38
442.043	148.38
442.264	147.38
442.486	141.38
442.707	126.38
442.928	148.38
443.149	129.38
443.371	142.38
443.592	130.38
443.813	128.38
444.034	131.38
444.255	139.38
444.476	161.38
444.698	137.38
444.919	154.38
445.14	229.38
445.361	188.38
445.582	148.38
445.803	141.38
446.024	152.38
446.245	155.38
446.466	148.38
446.687	159.38
446.908	160.38
447.129	174.38
447.35	149.38
447.571	138.38
447.792	140.38
448.013	129.38
448.234	148.38
448.455	120.38
448.675	153.38
448.896	134.38
449.117	127.38
449.338	149.38
449.559	138.38
449.779	130.38
450	128.38
450.221	137.38
450.442	131.38
450.662	124.38
450.883	132.38
451.104	130.38
451.324	125.38
451.545	125.38
451.766	132.38
451.986	130.38
452.207	146.38
452.428	120.38
452.648	139.38
452.869	130.38
453.089	127.38
453.31	114.38
453.53	110.38
453.751	95.38
453.971	106.38
454.192	104.38
454.412	107.38
454.633	118.38
454.853	119.38
455.073	117.38
455.294	119.38
455.514	129.38
455.734	127.38
455.955	103.38
456.175	114.38
456.395	104.38
456.616	107.38
456.836	118.38
457.056	109.38
457.276	100.38
457.497	103.38
457.717	110.38
457.937	116.38
458.157	104.38
458.377	100.38
458.598	97.38
458.818	93.38
459.038	88.38
459.258	86.38
459.478	89.38
459.698	95.38
459.918	100.38
460.138	121.38
460.358	105.38
460.578	118.38
460.798	112.38
461.018	104.38
461.238	101.38
461.458	102.38
461.678	116.38
461.898	120.38
462.118	126.38
462.338	116.38
462.558	112.38
462.777	113.38
462.997	109.38
463.217	117.38
463.437	106.38
463.657	110.38
463.876	114.38
464.096	106.38
464.316	110.38
464.536	105.38
464.755	107.38
464.975	106.38
465.195	92.38
465.414	108.38
465.634	116.38
465.854	123.38
466.073	123.38
466.293	129.38
466.512	124.38
466.732	130.38
466.951	124.38
467.171	128.38
467.391	145.38
467.61	146.38
467.829	129.38
468.049	146.38
468.268	140.38
468.488	146.38
468.707	154.38
468.927	132.38
469.146	138.38
469.365	139.38
469.585	141.38
469.804	136.38
470.023	132.38
470.243	141.38
470.462	153.38
470.681	142.38
470.901	134.38
471.12	150.38
471.339	137.38
471.558	132.38
471.777	142.38
471.997	128.38
472.216	127.38
472.435	118.38
472.654	106.38
472.873	108.38
473.092	123.38
473.311	124.38
473.53	116.38
473.749	140.38
473.968	120.38
474.187	118.38
474.406	117.38
474.625	133.38
474.844	126.38
475.063	141.38
475.282	128.38
475.501	123.38
475.72	124.38
475.939	133.38
476.158	127.38
476.377	138.38
476.596	114.38
476.814	122.38
477.033	113.38
477.252	124.38
477.471	136.38
477.69	128.38
477.908	136.38
478.127	134.38
478.346	136.38
478.564	137.38
478.783	134.38
479.002	140.38
479.22	138.38
479.439	144.38
479.658	125.38
479.876	112.38
480.095	109.38
480.313	116.38
480.532	129.38
480.751	110.38
480.969	93.38
481.188	104.38
481.406	98.38
481.624	96.38
481.843	86.38
482.061	105.38
482.28	121.38
482.498	122.38
482.717	102.38
482.935	134.38
483.153	138.38
483.372	158.38
483.59	136.38
483.808	137.38
484.027	140.38
484.245	133.38
484.463	136.38
484.681	162.38
484.9	160.38
485.118	151.38
485.336	131.38
485.554	116.38
485.772	104.38
485.99	107.38
486.209	115.38
486.427	113.38
486.645	123.38
486.863	142.38
487.081	153.38
487.299	124.38
487.517	140.38
487.735	159.38
487.953	180.38
488.171	182.38
488.389	174.38
488.607	151.38
488.825	146.38
489.043	132.38
489.261	136.38
489.479	136.38
489.696	137.38
489.914	142.38
490.132	153.38
490.35	164.38
490.568	165.38
490.786	161.38
491.003	195.38
491.221	185.38
491.439	181.38
491.657	184.38
491.874	192.38
492.092	238.38
492.31	238.38
492.527	229.38
492.745	205.38
492.963	187.38
493.18	196.38
493.398	185.38
493.615	167.38
493.833	172.38
494.05	160.38
494.268	174.38
494.485	169.38
494.703	167.38
494.92	178.38
495.138	159.38
495.355	174.38
495.573	146.38
495.79	173.38
496.008	174.38
496.225	180.38
496.442	163.38
496.66	167.38
496.877	152.38
497.094	154.38
497.312	159.38
497.529	153.38
497.746	128.38
497.963	136.38
498.181	121.38
498.398	123.38
498.615	106.38
498.832	118.38
499.049	118.38
499.267	129.38
499.484	128.38
499.701	144.38
499.918	132.38
500.135	148.38
500.352	138.38
500.569	148.38
500.786	145.38
501.003	135.38
501.22	141.38
501.437	138.38
501.654	132.38
501.871	130.38
502.088	144.38
502.305	136.38
502.522	130.38
502.739	128.38
502.956	127.38
503.172	114.38
503.389	125.38
503.606	118.38
503.823	120.38
504.04	103.38
504.256	110.38
504.473	122.38
504.69	114.38
504.907	114.38
505.123	119.38
505.34	132.38
505.557	132.38
505.773	124.38
505.99	122.38
506.207	112.38
506.423	128.38
506.64	120.38
506.856	118.38
507.073	116.38
507.289	125.38
507.506	128.38
507.722	124.38
507.939	128.38
508.155	124.38
508.372	124.38
508.588	127.38
508.805	121.38
509.021	113.38
509.238	134.38
509.454	92.38
509.67	92.38
509.887	127.38
510.103	102.38
510.319	97.38
510.536	102.38
510.752	95.38
510.968	92.38
511.184	90.38
511.401	82.38
511.617	82.38
511.833	94.38
512.049	90.38
512.265	86.38
512.481	97.38
512.698	97.38
512.914	94.38
513.13	104.38
513.346	100.38
513.562	103.38
513.778	94.38
513.994	94.38
514.21	98.38
514.426	93.38
514.642	89.38
514.858	82.38
515.074	85.38
515.29	88.38
515.506	108.38
515.721	92.38
515.937	109.38
516.153	87.38
516.369	87.38
516.585	75.38
516.801	93.38
517.016	99.38
517.232	93.38
517.448	93.38
517.664	92.38
517.879	97.38
518.095	102.38
518.311	100.38
518.527	93.38
518.742	90.38
518.958	104.38
519.173	106.38
519.389	103.38
519.605	105.38
519.82	113.38
520.036	120.38
520.251	97.38
520.467	111.38
520.682	98.38
520.898	98.38
521.113	97.38
521.329	90.38
521.544	93.38
521.76	90.38
521.975	106.38
522.19	98.38
522.406	90.38
522.621	109.38
522.836	108.38
523.052	96.38
523.267	88.38
523.482	97.38
523.698	106.38
523.913	121.38
524.128	125.38
524.343	112.38
524.559	110.38
524.774	107.38
524.989	132.38
525.204	114.38
525.419	107.38
525.634	107.38
525.849	101.38
526.064	118.38
526.28	106.38
526.495	103.38
526.71	90.38
526.925	90.38
527.14	68.38
527.355	95.38
527.57	95.38
527.785	98.38
527.999	80.38
528.214	111.38
528.429	120.38
528.644	119.38
528.859	117.38
529.074	146.38
529.289	161.38
529.503	150.38
529.718	130.38
529.933	132.38
530.148	120.38
530.363	101.38
530.577	100.38
530.792	96.38
531.007	88.38
531.221	87.38
531.436	87.38
531.651	73.38
531.865	93.38
532.08	86.38
532.295	91.38
532.509	90.38
532.724	85.38
532.938	90.38
533.153	93.38
533.367	128.38
533.582	119.38
533.796	122.38
534.011	108.38
534.225	102.38
534.44	92.38
534.654	88.38
534.868	98.38
535.083	95.38
535.297	103.38
535.511	105.38
535.726	111.38
535.94	96.38
536.154	80.38
536.369	96.38
536.583	92.38
536.797	89.38
537.011	94.38
537.225	81.38
537.44	84.38
537.654	101.38
537.868	95.38
538.082	99.38
538.296	89.38
538.51	109.38
538.724	119.38
538.938	111.38
539.153	121.38
539.367	120.38
539.581	114.38
539.795	111.38
540.009	102.38
540.222	92.38
540.436	110.38
540.65	102.38
540.864	119.38
541.078	144.38
541.292	145.38
541.506	166.38
541.72	164.38
541.934	186.38
542.147	200.38
542.361	193.38
542.575	168.38
542.789	162.38
543.002	137.38
543.216	120.38
543.43	125.38
543.644	139.38
543.857	144.38
544.071	154.38
544.285	154.38
544.498	152.38
544.712	152.38
544.925	160.38
545.139	160.38
545.352	176.38
545.566	161.38
545.779	156.38
545.993	159.38
546.206	161.38
546.42	154.38
546.633	156.38
546.847	166.38
547.06	160.38
547.274	169.38
547.487	173.38
547.7	153.38
547.914	176.38
548.127	170.38
548.34	161.38
548.554	147.38
548.767	170.38
548.98	182.38
549.193	150.38
549.407	152.38
549.62	169.38
549.833	162.38
550.046	160.38
550.259	150.38
550.473	148.38
550.686	146.38
550.899	129.38
551.112	158.38
551.325	149.38
551.538	142.38
551.751	131.38
551.964	115.38
552.177	123.38
552.39	141.38
552.603	142.38
552.816	156.38
553.029	147.38
553.242	168.38
553.455	160.38
553.667	154.38
553.88	150.38
554.093	156.38
554.306	142.38
554.519	132.38
554.732	134.38
554.944	168.38
555.157	151.38
555.37	158.38
555.583	148.38
555.795	136.38
556.008	134.38
556.221	137.38
556.433	145.38
556.646	140.38
556.859	136.38
557.071	139.38
557.284	140.38
557.496	145.38
557.709	140.38
557.921	141.38
558.134	152.38
558.346	137.38
558.559	128.38
558.771	139.38
558.984	125.38
559.196	126.38
559.409	128.38
559.621	125.38
559.833	127.38
560.046	128.38
560.258	135.38
560.47	120.38
560.683	110.38
560.895	140.38
561.107	118.38
561.32	122.38
561.532	134.38
561.744	126.38
561.956	144.38
562.168	135.38
562.381	148.38
562.593	128.38
562.805	126.38
563.017	122.38
563.229	112.38
563.441	116.38
563.653	122.38
563.865	117.38
564.077	121.38
564.289	113.38
564.501	139.38
564.713	129.38
564.925	133.38
565.137	122.38
565.349	116.38
565.561	117.38
565.773	136.38
565.985	130.38
566.197	120.38
566.408	128.38
566.62	128.38
566.832	112.38
567.044	136.38
567.255	126.38
567.467	110.38
567.679	112.38
567.891	116.38
568.102	96.38
568.314	102.38
568.526	107.38
568.737	83.38
568.949	79.38
569.161	80.38
569.372	77.38
569.584	83.38
569.795	98.38
570.007	103.38
570.218	102.38
570.43	88.38
570.641	96.38
570.853	110.38
571.064	96.38
571.276	113.38
571.487	118.38
571.698	108.38
571.91	101.38
572.121	108.38
572.333	99.38
572.544	94.38
572.755	101.38
572.966	103.38
573.178	96.38
573.389	105.38
573.6	90.38
573.811	87.38
574.023	81.38
574.234	81.38
574.445	89.38
574.656	103.38
574.867	107.38
575.078	106.38
575.289	100.38
575.501	90.38
575.712	101.38
575.923	92.38
576.134	104.38
576.345	87.38
576.556	101.38
576.767	103.38
576.978	113.38
577.188	102.38
577.399	94.38
577.61	98.38
577.821	98.38
578.032	95.38
578.243	83.38
578.454	96.38
578.665	90.38
578.875	71.38
579.086	76.38
579.297	100.38
579.508	89.38
579.718	87.38
579.929	86.38
580.14	78.38
580.35	82.38
580.561	88.38
580.772	87.38
580.982	94.38
581.193	87.38
581.403	85.38
581.614	96.38
581.825	105.38
582.035	82.38
582.246	106.38
582.456	76.38
582.667	90.38
582.877	93.38
583.087	89.38
583.298	95.38
583.508	97.38
583.719	81.38
583.929	87.38
584.139	76.38
584.35	92.38
584.56	85.38
584.77	84.38
584.981	81.38
585.191	96.38
585.401	84.38
585.611	78.38
585.821	85.38
586.032	87.38
586.242	94.38
586.452	85.38
586.662	80.38
586.872	87.38
587.082	84.38
587.292	93.38
587.502	104.38
587.713	91.38
587.923	75.38
588.133	89.38
588.343	83.38
588.553	85.38
588.762	81.38
588.972	88.38
589.182	80.38
589.392	103.38
589.602	84.38
589.812	68.38
590.022	100.38
590.232	73.38
590.441	95.38
590.651	87.38
590.861	78.38
591.071	77.38
591.281	98.38
591.49	87.38
591.7	90.38
591.91	101.38
592.119	81.38
592.329	72.38
592.539	90.38
592.748	84.38
592.958	82.38
593.167	79.38
593.377	86.38
593.587	93.38
593.796	98.38
594.006	91.38
594.215	100.38
594.424	104.38
594.634	88.38
594.843	101.38
595.053	89.38
595.262	105.38
595.472	93.38
595.681	92.38
595.89	88.38
596.1	91.38
596.309	101.38
596.518	105.38
596.727	98.38
596.937	98.38
597.146	105.38
597.355	89.38
597.564	95.38
597.774	96.38
597.983	83.38
598.192	91.38
598.401	86.38
598.61	89.38
598.819	92.38
599.028	99.38
599.237	95.38
599.446	101.38
599.655	92.38
599.864	101.38
600.073	106.38
600.282	91.38
600.491	86.38
600.7	105.38
600.909	111.38
601.118	104.38
601.327	120.38
601.536	112.38
601.745	104.38
601.953	108.38
602.162	103.38
602.371	104.38
602.58	110.38
602.789	100.38
602.997	118.38
603.206	119.38
603.415	109.38
603.623	111.38
603.832	119.38
604.041	113.38
604.249	92.38
604.458	90.38
604.666	97.38
604.875	96.38
605.084	114.38
605.292	101.38
605.501	99.38
605.709	123.38
605.918	108.38
606.126	120.38
606.334	104.38
606.543	127.38
606.751	117.38
606.96	103.38
607.168	109.38
607.376	108.38
607.585	81.38
607.793	93.38
608.001	115.38
608.21	109.38
608.418	99.38
608.626	108.38
608.834	102.38
609.043	123.38
609.251	116.38
609.459	119.38
609.667	116.38
609.875	104.38
610.083	112.38
610.291	119.38
610.499	111.38
610.707	110.38
610.916	110.38
611.124	119.38
611.332	109.38
611.54	114.38
611.748	116.38
611.955	136.38
612.163	114.38
612.371	111.38
612.579	112.38
612.787	116.38
612.995	126.38
613.203	117.38
613.411	117.38
613.618	116.38
613.826	108.38
614.034	109.38
614.242	119.38
614.449	118.38
614.657	121.38
614.865	111.38
615.072	114.38
615.28	114.38
615.488	107.38
615.695	110.38
615.903	106.38
616.111	110.38
616.318	108.38
616.526	118.38
616.733	100.38
616.941	113.38
617.148	112.38
617.356	101.38
617.563	100.38
617.771	105.38
617.978	111.38
618.185	111.38
618.393	108.38
618.6	94.38
618.807	118.38
619.015	105.38
619.222	111.38
619.429	120.38
619.637	107.38
619.844	100.38
620.051	111.38
620.258	111.38
620.466	96.38
620.673	100.38
620.88	113.38
621.087	110.38
621.294	107.38
621.501	98.38
621.708	101.38
621.915	108.38
622.122	120.38
622.329	99.38
622.536	110.38
622.743	117.38
622.95	123.38
623.157	121.38
623.364	110.38
623.571	94.38
623.778	96.38
623.985	128.38
624.192	105.38
624.399	124.38
624.606	112.38
624.812	124.38
625.019	101.38
625.226	126.38
625.433	126.38
625.639	120.38
625.846	101.38
626.053	91.38
626.259	104.38
626.466	110.38
626.673	102.38
626.879	96.38
627.086	100.38
627.293	98.38
627.499	99.38
627.706	108.38
627.912	99.38
628.119	118.38
628.325	119.38
628.532	96.38
628.738	108.38
628.945	103.38
629.151	103.38
629.357	105.38
629.564	102.38
629.77	103.38
629.976	121.38
630.183	92.38
630.389	106.38
630.595	119.38
630.802	98.38
631.008	106.38
631.214	105.38
631.42	101.38
631.627	98.38
631.833	95.38
632.039	88.38
632.245	105.38
632.451	95.38
632.657	107.38
632.863	105.38
633.069	108.38
633.275	107.38
633.481	106.38
633.688	107.38
633.893	117.38
634.099	105.38
634.305	98.38
634.511	99.38
634.717	110.38
634.923	108.38
635.129	96.38
635.335	103.38
635.541	103.38
635.747	90.38
635.952	104.38
636.158	90.38
636.364	96.38
636.57	98.38
636.775	114.38
636.981	104.38
637.187	94.38
637.392	94.38
637.598	93.38
637.804	101.38
638.009	105.38
638.215	106.38
638.421	103.38
638.626	116.38
638.832	112.38
639.037	100.38
639.243	118.38
639.448	110.38
639.654	114.38
639.859	103.38
640.065	105.38
640.27	108.38
640.475	107.38
640.681	87.38
640.886	86.38
641.091	87.38
641.297	104.38
641.502	98.38
641.707	98.38
641.913	108.38
642.118	80.38
642.323	99.38
642.528	114.38
642.733	99.38
642.939	111.38
643.144	109.38
643.349	107.38
643.554	104.38
643.759	92.38
643.964	108.38
644.169	108.38
644.374	108.38
644.579	95.38
644.784	89.38
644.989	110.38
645.194	111.38
645.399	103.38
645.604	109.38
645.809	117.38
646.014	100.38
646.219	116.38
646.423	96.38
646.628	100.38
646.833	103.38
647.038	105.38
647.243	115.38
647.447	118.38
647.652	89.38
647.857	92.38
648.062	105.38
648.266	102.38
648.471	103.38
648.676	98.38
648.88	84.38
649.085	103.38
649.289	96.38
649.494	107.38
649.698	96.38
649.903	100.38
650.107	114.38
650.312	97.38
650.516	99.38
650.721	97.38
650.925	99.38
651.13	107.38
651.334	92.38
651.539	87.38
651.743	100.38
651.947	85.38
652.152	95.38
652.356	101.38
652.56	106.38
652.764	107.38
652.969	94.38
653.173	89.38
653.377	96.38
653.581	92.38
653.785	91.38
653.99	95.38
654.194	95.38
654.398	79.38
654.602	95.38
654.806	95.38
655.01	95.38
655.214	93.38
655.418	95.38
655.622	91.38
655.826	97.38
656.03	86.38
656.234	82.38
656.438	92.38
656.642	87.38
656.846	85.38
657.049	98.38
657.253	83.38
657.457	97.38
657.661	87.38
657.865	81.38
658.068	87.38
658.272	82.38
658.476	85.38
658.68	76.38
658.883	89.38
659.087	96.38
659.291	77.38
659.494	85.38
659.698	81.38
659.901	91.38
660.105	92.38
660.309	86.38
660.512	94.38
660.716	97.38
660.919	90.38
661.123	89.38
661.326	110.38
661.53	102.38
661.733	88.38
661.936	74.38
662.14	82.38
662.343	70.38
662.546	81.38
662.75	89.38
662.953	80.38
663.156	84.38
663.36	77.38
663.563	84.38
663.766	87.38
663.969	97.38
664.173	72.38
664.376	88.38
664.579	75.38
664.782	102.38
664.985	85.38
665.188	81.38
665.391	93.38
665.594	92.38
665.797	78.38
666	97.38
666.203	86.38
666.406	76.38
666.609	76.38
666.812	84.38
667.015	66.38
667.218	89.38
667.421	77.38
667.624	82.38
667.827	82.38
668.03	81.38
668.232	87.38
668.435	84.38
668.638	83.38
668.841	82.38
669.043	85.38
669.246	83.38
669.449	93.38
669.651	97.38
669.854	79.38
670.057	79.38
670.259	75.38
670.462	74.38
670.665	81.38
670.867	96.38
671.07	87.38
671.272	92.38
671.475	83.38
671.677	95.38
671.88	82.38
672.082	93.38
672.284	90.38
672.487	78.38
672.689	91.38
672.892	83.38
