Data from Location1.07152019.Energy5.Lamp.07192019.3%Agarose_HRD10591_14-30-14-018.txt Node
Date: Fri Jul 19 14:30:14 EDT 2019
User: cochatt
Spectrometer: HR+D1059
Trigger mode: 1
Integration Time (sec): 1.000000E-1
Scans to average: 1
Electric dark correction enabled: true
Nonlinearity correction enabled: false
Boxcar width: 0
XAxis mode: Wavelengths
Number of Pixels in Spectrum: 2048
>>>>>Begin Spectral Data<<<<<
223.165	-14.25
223.4	-14.25
223.635	-14.25
223.869	-20.25
224.104	-25.25
224.338	-17.25
224.573	-25.25
224.808	-18.25
225.042	-13.25
225.277	5.75
225.511	7.75
225.746	13.75
225.98	8.75
226.215	6.75
226.449	25.75
226.683	25.75
226.918	20.75
227.152	18.75
227.387	32.75
227.621	50.75
227.856	38.75
228.09	50.75
228.324	41.75
228.559	49.75
228.793	46.75
229.027	52.75
229.262	66.75
229.496	81.75
229.73	64.75
229.964	77.75
230.199	74.75
230.433	81.75
230.667	70.75
230.901	83.75
231.136	84.75
231.37	89.75
231.604	94.75
231.838	75.75
232.072	77.75
232.306	97.75
232.541	101.75
232.775	86.75
233.009	82.75
233.243	77.75
233.477	87.75
233.711	90.75
233.945	91.75
234.179	78.75
234.413	84.75
234.647	72.75
234.881	92.75
235.115	79.75
235.349	82.75
235.583	88.75
235.817	79.75
236.051	80.75
236.285	82.75
236.519	95.75
236.753	95.75
236.987	75.75
237.221	82.75
237.455	82.75
237.689	79.75
237.922	77.75
238.156	73.75
238.39	92.75
238.624	88.75
238.858	75.75
239.091	80.75
239.325	69.75
239.559	81.75
239.793	76.75
240.027	86.75
240.26	85.75
240.494	62.75
240.728	71.75
240.961	65.75
241.195	73.75
241.429	78.75
241.662	84.75
241.896	73.75
242.13	84.75
242.363	78.75
242.597	80.75
242.83	74.75
243.064	73.75
243.298	84.75
243.531	64.75
243.765	77.75
243.998	80.75
244.232	96.75
244.465	73.75
244.699	83.75
244.932	79.75
245.166	75.75
245.399	88.75
245.633	89.75
245.866	82.75
246.099	77.75
246.333	73.75
246.566	80.75
246.8	75.75
247.033	73.75
247.266	71.75
247.5	71.75
247.733	82.75
247.966	93.75
248.2	82.75
248.433	86.75
248.666	84.75
248.899	88.75
249.133	96.75
249.366	80.75
249.599	94.75
249.832	83.75
250.066	77.75
250.299	77.75
250.532	89.75
250.765	80.75
250.998	72.75
251.231	78.75
251.465	80.75
251.698	75.75
251.931	85.75
252.164	80.75
252.397	84.75
252.63	84.75
252.863	93.75
253.096	78.75
253.329	84.75
253.562	79.75
253.795	72.75
254.028	70.75
254.261	88.75
254.494	80.75
254.727	88.75
254.96	81.75
255.193	71.75
255.426	88.75
255.659	84.75
255.892	80.75
256.124	85.75
256.357	84.75
256.59	66.75
256.823	76.75
257.056	77.75
257.289	71.75
257.521	83.75
257.754	81.75
257.987	77.75
258.22	98.75
258.452	82.75
258.685	76.75
258.918	76.75
259.151	91.75
259.383	81.75
259.616	77.75
259.849	81.75
260.081	73.75
260.314	83.75
260.547	77.75
260.779	90.75
261.012	88.75
261.244	68.75
261.477	87.75
261.71	81.75
261.942	79.75
262.175	72.75
262.407	78.75
262.64	90.75
262.872	99.75
263.105	103.75
263.337	87.75
263.57	102.75
263.802	77.75
264.035	88.75
264.267	94.75
264.499	89.75
264.732	70.75
264.964	66.75
265.197	92.75
265.429	76.75
265.661	84.75
265.894	76.75
266.126	86.75
266.358	81.75
266.591	91.75
266.823	80.75
267.055	81.75
267.287	77.75
267.52	93.75
267.752	80.75
267.984	89.75
268.216	82.75
268.448	77.75
268.681	71.75
268.913	88.75
269.145	75.75
269.377	78.75
269.609	86.75
269.841	74.75
270.073	92.75
270.306	78.75
270.538	86.75
270.77	88.75
271.002	67.75
271.234	77.75
271.466	91.75
271.698	92.75
271.93	77.75
272.162	89.75
272.394	87.75
272.626	82.75
272.858	78.75
273.09	81.75
273.322	78.75
273.553	88.75
273.785	94.75
274.017	98.75
274.249	77.75
274.481	82.75
274.713	88.75
274.945	72.75
275.176	75.75
275.408	82.75
275.64	83.75
275.872	92.75
276.104	85.75
276.335	73.75
276.567	65.75
276.799	87.75
277.031	86.75
277.262	95.75
277.494	89.75
277.726	88.75
277.957	92.75
278.189	112.75
278.421	87.75
278.652	81.75
278.884	89.75
279.115	81.75
279.347	71.75
279.579	92.75
279.81	86.75
280.042	97.75
280.273	82.75
280.505	89.75
280.736	78.75
280.968	86.75
281.199	90.75
281.431	82.75
281.662	91.75
281.894	86.75
282.125	86.75
282.356	82.75
282.588	78.75
282.819	86.75
283.051	80.75
283.282	81.75
283.513	96.75
283.745	69.75
283.976	84.75
284.207	95.75
284.439	76.75
284.67	92.75
284.901	84.75
285.132	89.75
285.364	81.75
285.595	87.75
285.826	84.75
286.057	88.75
286.288	96.75
286.52	81.75
286.751	90.75
286.982	82.75
287.213	76.75
287.444	80.75
287.675	85.75
287.906	76.75
288.138	79.75
288.369	87.75
288.6	85.75
288.831	88.75
289.062	75.75
289.293	82.75
289.524	93.75
289.755	75.75
289.986	85.75
290.217	88.75
290.448	78.75
290.679	97.75
290.91	96.75
291.141	86.75
291.371	89.75
291.602	82.75
291.833	77.75
292.064	100.75
292.295	82.75
292.526	80.75
292.757	85.75
292.987	100.75
293.218	86.75
293.449	80.75
293.68	84.75
293.91	74.75
294.141	105.75
294.372	87.75
294.603	81.75
294.833	84.75
295.064	78.75
295.295	84.75
295.525	96.75
295.756	85.75
295.987	75.75
296.217	81.75
296.448	85.75
296.679	80.75
296.909	98.75
297.14	85.75
297.37	92.75
297.601	98.75
297.831	73.75
298.062	85.75
298.292	86.75
298.523	78.75
298.753	89.75
298.984	94.75
299.214	82.75
299.445	89.75
299.675	107.75
299.905	88.75
300.136	90.75
300.366	93.75
300.597	86.75
300.827	93.75
301.057	87.75
301.288	90.75
301.518	91.75
301.748	93.75
301.979	89.75
302.209	82.75
302.439	88.75
302.669	97.75
302.9	89.75
303.13	96.75
303.36	103.75
303.59	77.75
303.82	82.75
304.051	110.75
304.281	85.75
304.511	87.75
304.741	92.75
304.971	84.75
305.201	92.75
305.431	91.75
305.661	96.75
305.891	90.75
306.121	85.75
306.352	86.75
306.582	78.75
306.812	75.75
307.042	82.75
307.272	75.75
307.502	79.75
307.731	86.75
307.961	85.75
308.191	93.75
308.421	86.75
308.651	77.75
308.881	88.75
309.111	91.75
309.341	90.75
309.571	86.75
309.8	81.75
310.03	100.75
310.26	92.75
310.49	79.75
310.72	84.75
310.949	94.75
311.179	94.75
311.409	87.75
311.639	86.75
311.868	86.75
312.098	90.75
312.328	89.75
312.557	91.75
312.787	91.75
313.017	94.75
313.246	82.75
313.476	81.75
313.706	82.75
313.935	76.75
314.165	76.75
314.394	78.75
314.624	81.75
314.853	92.75
315.083	83.75
315.312	92.75
315.542	84.75
315.771	86.75
316.001	94.75
316.23	86.75
316.46	88.75
316.689	89.75
316.919	82.75
317.148	100.75
317.377	100.75
317.607	107.75
317.836	74.75
318.065	72.75
318.295	85.75
318.524	88.75
318.753	82.75
318.983	93.75
319.212	68.75
319.441	86.75
319.67	102.75
319.9	82.75
320.129	81.75
320.358	90.75
320.587	79.75
320.816	78.75
321.046	89.75
321.275	86.75
321.504	80.75
321.733	78.75
321.962	84.75
322.191	87.75
322.42	99.75
322.649	85.75
322.878	71.75
323.108	89.75
323.337	83.75
323.566	83.75
323.795	88.75
324.024	81.75
324.253	79.75
324.482	92.75
324.71	88.75
324.939	97.75
325.168	84.75
325.397	72.75
325.626	80.75
325.855	84.75
326.084	84.75
326.313	86.75
326.542	86.75
326.77	99.75
326.999	90.75
327.228	88.75
327.457	87.75
327.686	103.75
327.914	88.75
328.143	88.75
328.372	95.75
328.6	102.75
328.829	96.75
329.058	81.75
329.287	80.75
329.515	82.75
329.744	86.75
329.972	81.75
330.201	91.75
330.43	91.75
330.658	82.75
330.887	90.75
331.115	92.75
331.344	88.75
331.572	98.75
331.801	86.75
332.03	98.75
332.258	87.75
332.486	92.75
332.715	88.75
332.943	97.75
333.172	106.75
333.4	81.75
333.629	86.75
333.857	90.75
334.085	80.75
334.314	84.75
334.542	76.75
334.771	80.75
334.999	85.75
335.227	89.75
335.455	102.75
335.684	88.75
335.912	78.75
336.14	84.75
336.369	82.75
336.597	82.75
336.825	103.75
337.053	81.75
337.281	78.75
337.51	66.75
337.738	92.75
337.966	88.75
338.194	87.75
338.422	94.75
338.65	71.75
338.878	87.75
339.106	89.75
339.334	88.75
339.562	89.75
339.79	99.75
340.018	86.75
340.246	83.75
340.474	87.75
340.702	93.75
340.93	96.75
341.158	90.75
341.386	82.75
341.614	76.75
341.842	99.75
342.07	85.75
342.298	78.75
342.526	89.75
342.754	95.75
342.981	82.75
343.209	72.75
343.437	84.75
343.665	91.75
343.893	86.75
344.12	94.75
344.348	80.75
344.576	93.75
344.804	86.75
345.031	80.75
345.259	78.75
345.487	86.75
345.714	86.75
345.942	93.75
346.17	85.75
346.397	74.75
346.625	80.75
346.853	80.75
347.08	83.75
347.308	100.75
347.535	82.75
347.763	79.75
347.99	85.75
348.218	75.75
348.445	83.75
348.673	106.75
348.9	90.75
349.128	86.75
349.355	86.75
349.583	91.75
349.81	88.75
350.037	89.75
350.265	78.75
350.492	81.75
350.72	87.75
350.947	80.75
351.174	92.75
351.402	78.75
351.629	92.75
351.856	84.75
352.083	83.75
352.311	86.75
352.538	81.75
352.765	76.75
352.992	84.75
353.22	84.75
353.447	92.75
353.674	91.75
353.901	105.75
354.128	93.75
354.355	84.75
354.583	85.75
354.81	87.75
355.037	86.75
355.264	86.75
355.491	76.75
355.718	77.75
355.945	95.75
356.172	75.75
356.399	84.75
356.626	78.75
356.853	78.75
357.08	87.75
357.307	100.75
357.534	97.75
357.761	96.75
357.988	88.75
358.215	81.75
358.441	88.75
358.668	93.75
358.895	95.75
359.122	77.75
359.349	93.75
359.576	68.75
359.802	86.75
360.029	86.75
360.256	85.75
360.483	89.75
360.709	94.75
360.936	94.75
361.163	89.75
361.39	88.75
361.616	85.75
361.843	88.75
362.07	73.75
362.296	87.75
362.523	91.75
362.749	87.75
362.976	99.75
363.203	71.75
363.429	81.75
363.656	82.75
363.882	88.75
364.109	87.75
364.335	92.75
364.562	78.75
364.788	79.75
365.015	89.75
365.241	80.75
365.468	92.75
365.694	89.75
365.92	85.75
366.147	92.75
366.373	97.75
366.599	101.75
366.826	87.75
367.052	88.75
367.278	74.75
367.505	93.75
367.731	92.75
367.957	81.75
368.184	83.75
368.41	71.75
368.636	76.75
368.862	88.75
369.089	92.75
369.315	94.75
369.541	97.75
369.767	81.75
369.993	95.75
370.219	97.75
370.445	98.75
370.672	78.75
370.898	93.75
371.124	91.75
371.35	92.75
371.576	94.75
371.802	91.75
372.028	87.75
372.254	97.75
372.48	90.75
372.706	78.75
372.932	93.75
373.158	81.75
373.384	100.75
373.61	91.75
373.835	98.75
374.061	90.75
374.287	93.75
374.513	80.75
374.739	96.75
374.965	90.75
375.191	72.75
375.416	99.75
375.642	95.75
375.868	105.75
376.094	103.75
376.319	87.75
376.545	90.75
376.771	92.75
376.997	97.75
377.222	98.75
377.448	101.75
377.674	90.75
377.899	87.75
378.125	95.75
378.35	91.75
378.576	85.75
378.802	89.75
379.027	93.75
379.253	106.75
379.478	90.75
379.704	92.75
379.929	95.75
380.155	90.75
380.38	97.75
380.606	109.75
380.831	89.75
381.057	101.75
381.282	101.75
381.507	100.75
381.733	109.75
381.958	93.75
382.184	98.75
382.409	106.75
382.634	105.75
382.86	109.75
383.085	105.75
383.31	103.75
383.535	102.75
383.761	94.75
383.986	92.75
384.211	100.75
384.436	99.75
384.662	106.75
384.887	103.75
385.112	93.75
385.337	97.75
385.562	103.75
385.787	104.75
386.013	116.75
386.238	108.75
386.463	88.75
386.688	113.75
386.913	102.75
387.138	108.75
387.363	111.75
387.588	115.75
387.813	103.75
388.038	100.75
388.263	98.75
388.488	91.75
388.713	104.75
388.938	109.75
389.163	116.75
389.387	120.75
389.612	119.75
389.837	108.75
390.062	94.75
390.287	97.75
390.512	94.75
390.736	112.75
390.961	83.75
391.186	93.75
391.411	100.75
391.636	109.75
391.86	110.75
392.085	107.75
392.31	109.75
392.534	107.75
392.759	119.75
392.984	110.75
393.208	90.75
393.433	98.75
393.658	106.75
393.882	109.75
394.107	86.75
394.331	102.75
394.556	107.75
394.78	119.75
395.005	96.75
395.229	103.75
395.454	105.75
395.678	93.75
395.903	110.75
396.127	108.75
396.352	113.75
396.576	102.75
396.801	121.75
397.025	106.75
397.249	108.75
397.474	101.75
397.698	106.75
397.922	125.75
398.147	102.75
398.371	100.75
398.595	128.75
398.82	124.75
399.044	107.75
399.268	104.75
399.492	120.75
399.717	107.75
399.941	110.75
400.165	102.75
400.389	106.75
400.613	109.75
400.837	120.75
401.062	126.75
401.286	124.75
401.51	127.75
401.734	95.75
401.958	114.75
402.182	110.75
402.406	112.75
402.63	109.75
402.854	116.75
403.078	113.75
403.302	114.75
403.526	118.75
403.75	109.75
403.974	116.75
404.198	102.75
404.422	122.75
404.645	124.75
404.869	107.75
405.093	118.75
405.317	117.75
405.541	122.75
405.765	125.75
405.988	130.75
406.212	111.75
406.436	118.75
406.66	111.75
406.883	116.75
407.107	124.75
407.331	132.75
407.555	120.75
407.778	116.75
408.002	118.75
408.226	119.75
408.449	116.75
408.673	129.75
408.896	119.75
409.12	116.75
409.344	118.75
409.567	124.75
409.791	119.75
410.014	133.75
410.238	117.75
410.461	117.75
410.685	130.75
410.908	118.75
411.132	129.75
411.355	122.75
411.578	122.75
411.802	125.75
412.025	116.75
412.249	113.75
412.472	105.75
412.695	119.75
412.919	120.75
413.142	121.75
413.365	124.75
413.589	107.75
413.812	112.75
414.035	116.75
414.258	117.75
414.482	121.75
414.705	120.75
414.928	117.75
415.151	122.75
415.374	125.75
415.597	119.75
415.821	121.75
416.044	128.75
416.267	130.75
416.49	118.75
416.713	124.75
416.936	131.75
417.159	130.75
417.382	125.75
417.605	129.75
417.828	122.75
418.051	120.75
418.274	138.75
418.497	127.75
418.72	122.75
418.943	129.75
419.166	127.75
419.389	142.75
419.611	123.75
419.834	128.75
420.057	134.75
420.28	120.75
420.503	136.75
420.726	140.75
420.948	126.75
421.171	130.75
421.394	133.75
421.617	143.75
421.839	141.75
422.062	138.75
422.285	136.75
422.507	143.75
422.73	148.75
422.953	130.75
423.175	120.75
423.398	142.75
423.621	129.75
423.843	127.75
424.066	132.75
424.288	140.75
424.511	157.75
424.733	129.75
424.956	146.75
425.178	142.75
425.401	136.75
425.623	145.75
425.846	131.75
426.068	130.75
426.291	128.75
426.513	109.75
426.735	138.75
426.958	136.75
427.18	135.75
427.402	132.75
427.625	137.75
427.847	132.75
428.069	134.75
428.292	139.75
428.514	132.75
428.736	119.75
428.958	144.75
429.181	140.75
429.403	128.75
429.625	107.75
429.847	138.75
430.069	133.75
430.292	124.75
430.514	129.75
430.736	137.75
430.958	113.75
431.18	120.75
431.402	134.75
431.624	127.75
431.846	117.75
432.068	94.75
432.29	98.75
432.512	119.75
432.734	109.75
432.956	136.75
433.178	136.75
433.4	140.75
433.622	136.75
433.844	142.75
434.066	117.75
434.287	116.75
434.509	116.75
434.731	105.75
434.953	120.75
435.175	126.75
435.397	129.75
435.618	129.75
435.84	113.75
436.062	125.75
436.284	122.75
436.505	142.75
436.727	134.75
436.949	132.75
437.17	121.75
437.392	116.75
437.614	121.75
437.835	124.75
438.057	107.75
438.278	108.75
438.5	121.75
438.721	124.75
438.943	148.75
439.165	130.75
439.386	130.75
439.608	151.75
439.829	132.75
440.05	152.75
440.272	140.75
440.493	141.75
440.715	135.75
440.936	149.75
441.158	128.75
441.379	136.75
441.6	146.75
441.822	136.75
442.043	135.75
442.264	142.75
442.486	145.75
442.707	143.75
442.928	143.75
443.149	132.75
443.371	149.75
443.592	136.75
443.813	124.75
444.034	129.75
444.255	129.75
444.476	129.75
444.698	149.75
444.919	146.75
445.14	276.75
445.361	202.75
445.582	158.75
445.803	147.75
446.024	144.75
446.245	150.75
446.466	148.75
446.687	146.75
446.908	152.75
447.129	172.75
447.35	161.75
447.571	154.75
447.792	159.75
448.013	125.75
448.234	153.75
448.455	141.75
448.675	158.75
448.896	145.75
449.117	138.75
449.338	135.75
449.559	144.75
449.779	139.75
450	130.75
450.221	142.75
450.442	135.75
450.662	127.75
450.883	153.75
451.104	132.75
451.324	128.75
451.545	127.75
451.766	122.75
451.986	131.75
452.207	130.75
452.428	127.75
452.648	129.75
452.869	134.75
453.089	118.75
453.31	105.75
453.53	101.75
453.751	106.75
453.971	96.75
454.192	90.75
454.412	101.75
454.633	128.75
454.853	127.75
455.073	143.75
455.294	122.75
455.514	121.75
455.734	114.75
455.955	120.75
456.175	113.75
456.395	113.75
456.616	98.75
456.836	119.75
457.056	103.75
457.276	92.75
457.497	107.75
457.717	104.75
457.937	102.75
458.157	116.75
458.377	118.75
458.598	94.75
458.818	93.75
459.038	101.75
459.258	88.75
459.478	89.75
459.698	93.75
459.918	94.75
460.138	113.75
460.358	119.75
460.578	117.75
460.798	109.75
461.018	108.75
461.238	111.75
461.458	122.75
461.678	111.75
461.898	114.75
462.118	120.75
462.338	113.75
462.558	101.75
462.777	111.75
462.997	112.75
463.217	101.75
463.437	120.75
463.657	100.75
463.876	114.75
464.096	105.75
464.316	105.75
464.536	107.75
464.755	127.75
464.975	108.75
465.195	116.75
465.414	113.75
465.634	111.75
465.854	123.75
466.073	130.75
466.293	129.75
466.512	125.75
466.732	122.75
466.951	132.75
467.171	134.75
467.391	125.75
467.61	140.75
467.829	145.75
468.049	127.75
468.268	133.75
468.488	128.75
468.707	143.75
468.927	138.75
469.146	137.75
469.365	141.75
469.585	141.75
469.804	143.75
470.023	142.75
470.243	141.75
470.462	153.75
470.681	142.75
470.901	145.75
471.12	145.75
471.339	147.75
471.558	133.75
471.777	145.75
471.997	126.75
472.216	147.75
472.435	110.75
472.654	97.75
472.873	106.75
473.092	115.75
473.311	128.75
473.53	114.75
473.749	137.75
473.968	132.75
474.187	134.75
474.406	108.75
474.625	128.75
474.844	121.75
475.063	118.75
475.282	128.75
475.501	110.75
475.72	128.75
475.939	136.75
476.158	138.75
476.377	114.75
476.596	120.75
476.814	113.75
477.033	118.75
477.252	113.75
477.471	123.75
477.69	134.75
477.908	131.75
478.127	135.75
478.346	132.75
478.564	128.75
478.783	126.75
479.002	134.75
479.22	137.75
479.439	148.75
479.658	126.75
479.876	121.75
480.095	113.75
480.313	125.75
480.532	129.75
480.751	111.75
480.969	112.75
481.188	88.75
481.406	99.75
481.624	81.75
481.843	87.75
482.061	90.75
482.28	115.75
482.498	117.75
482.717	116.75
482.935	109.75
483.153	146.75
483.372	159.75
483.59	162.75
483.808	141.75
484.027	134.75
484.245	137.75
484.463	158.75
484.681	162.75
484.9	140.75
485.118	138.75
485.336	138.75
485.554	103.75
485.772	98.75
485.99	94.75
486.209	119.75
486.427	124.75
486.645	122.75
486.863	138.75
487.081	128.75
487.299	139.75
487.517	145.75
487.735	175.75
487.953	185.75
488.171	188.75
488.389	188.75
488.607	168.75
488.825	143.75
489.043	127.75
489.261	146.75
489.479	140.75
489.696	146.75
489.914	136.75
490.132	136.75
490.35	153.75
490.568	178.75
490.786	160.75
491.003	174.75
491.221	181.75
491.439	180.75
491.657	189.75
491.874	208.75
492.092	216.75
492.31	253.75
492.527	247.75
492.745	210.75
492.963	190.75
493.18	187.75
493.398	186.75
493.615	177.75
493.833	180.75
494.05	182.75
494.268	180.75
494.485	174.75
494.703	168.75
494.92	181.75
495.138	180.75
495.355	170.75
495.573	167.75
495.79	146.75
496.008	166.75
496.225	158.75
496.442	161.75
496.66	159.75
496.877	165.75
497.094	169.75
497.312	144.75
497.529	158.75
497.746	142.75
497.963	139.75
498.181	127.75
498.398	109.75
498.615	125.75
498.832	127.75
499.049	117.75
499.267	123.75
499.484	128.75
499.701	139.75
499.918	121.75
500.135	142.75
500.352	150.75
500.569	154.75
500.786	143.75
501.003	138.75
501.22	145.75
501.437	162.75
501.654	153.75
501.871	125.75
502.088	136.75
502.305	129.75
502.522	134.75
502.739	129.75
502.956	131.75
503.172	129.75
503.389	123.75
503.606	128.75
503.823	120.75
504.04	105.75
504.256	120.75
504.473	127.75
504.69	117.75
504.907	119.75
505.123	122.75
505.34	120.75
505.557	104.75
505.773	109.75
505.99	126.75
506.207	125.75
506.423	116.75
506.64	136.75
506.856	118.75
507.073	125.75
507.289	118.75
507.506	103.75
507.722	110.75
507.939	107.75
508.155	113.75
508.372	120.75
508.588	111.75
508.805	98.75
509.021	111.75
509.238	111.75
509.454	109.75
509.67	124.75
509.887	104.75
510.103	108.75
510.319	100.75
510.536	94.75
510.752	81.75
510.968	88.75
511.184	84.75
511.401	90.75
511.617	98.75
511.833	94.75
512.049	94.75
512.265	103.75
512.481	83.75
512.698	95.75
512.914	111.75
513.13	87.75
513.346	81.75
513.562	88.75
513.778	98.75
513.994	82.75
514.21	83.75
514.426	92.75
514.642	87.75
514.858	90.75
515.074	89.75
515.29	105.75
515.506	91.75
515.721	84.75
515.937	91.75
516.153	93.75
516.369	87.75
516.585	89.75
516.801	92.75
517.016	104.75
517.232	88.75
517.448	109.75
517.664	95.75
517.879	101.75
518.095	122.75
518.311	100.75
518.527	102.75
518.742	109.75
518.958	91.75
519.173	111.75
519.389	106.75
519.605	120.75
519.82	104.75
520.036	113.75
520.251	109.75
520.467	97.75
520.682	107.75
520.898	109.75
521.113	93.75
521.329	103.75
521.544	94.75
521.76	87.75
521.975	109.75
522.19	100.75
522.406	87.75
522.621	109.75
522.836	105.75
523.052	110.75
523.267	110.75
523.482	99.75
523.698	107.75
523.913	123.75
524.128	126.75
524.343	122.75
524.559	121.75
524.774	120.75
524.989	122.75
525.204	128.75
525.419	111.75
525.634	120.75
525.849	118.75
526.064	107.75
526.28	116.75
526.495	100.75
526.71	95.75
526.925	101.75
527.14	96.75
527.355	92.75
527.57	93.75
527.785	100.75
527.999	74.75
528.214	112.75
528.429	117.75
528.644	124.75
528.859	130.75
529.074	150.75
529.289	172.75
529.503	166.75
529.718	137.75
529.933	111.75
530.148	108.75
530.363	93.75
530.577	91.75
530.792	99.75
531.007	80.75
531.221	74.75
531.436	94.75
531.651	82.75
531.865	95.75
532.08	83.75
532.295	91.75
532.509	93.75
532.724	75.75
532.938	91.75
533.153	99.75
533.367	120.75
533.582	118.75
533.796	132.75
534.011	118.75
534.225	93.75
534.44	81.75
534.654	81.75
534.868	104.75
535.083	102.75
535.297	104.75
535.511	108.75
535.726	101.75
535.94	100.75
536.154	110.75
536.369	88.75
536.583	79.75
536.797	88.75
537.011	86.75
537.225	97.75
537.44	96.75
537.654	83.75
537.868	99.75
538.082	94.75
538.296	102.75
538.51	102.75
538.724	121.75
538.938	139.75
539.153	112.75
539.367	130.75
539.581	118.75
539.795	104.75
540.009	112.75
540.222	110.75
540.436	104.75
540.65	120.75
540.864	124.75
541.078	128.75
541.292	141.75
541.506	164.75
541.72	179.75
541.934	184.75
542.147	200.75
542.361	171.75
542.575	162.75
542.789	144.75
543.002	135.75
543.216	128.75
543.43	122.75
543.644	149.75
543.857	152.75
544.071	164.75
544.285	170.75
544.498	167.75
544.712	149.75
544.925	160.75
545.139	143.75
545.352	163.75
545.566	158.75
545.779	168.75
545.993	144.75
546.206	157.75
546.42	173.75
546.633	171.75
546.847	170.75
547.06	168.75
547.274	168.75
547.487	185.75
547.7	173.75
547.914	178.75
548.127	164.75
548.34	163.75
548.554	144.75
548.767	156.75
548.98	150.75
549.193	153.75
549.407	146.75
549.62	150.75
549.833	154.75
550.046	149.75
550.259	155.75
550.473	142.75
550.686	157.75
550.899	165.75
551.112	164.75
551.325	120.75
551.538	128.75
551.751	122.75
551.964	134.75
552.177	132.75
552.39	132.75
552.603	130.75
552.816	146.75
553.029	149.75
553.242	152.75
553.455	160.75
553.667	157.75
553.88	154.75
554.093	149.75
554.306	154.75
554.519	151.75
554.732	144.75
554.944	154.75
555.157	156.75
555.37	142.75
555.583	139.75
555.795	151.75
556.008	138.75
556.221	155.75
556.433	132.75
556.646	149.75
556.859	129.75
557.071	151.75
557.284	133.75
557.496	132.75
557.709	142.75
557.921	162.75
558.134	147.75
558.346	152.75
558.559	123.75
558.771	116.75
558.984	128.75
559.196	133.75
559.409	128.75
559.621	138.75
559.833	122.75
560.046	139.75
560.258	121.75
560.47	136.75
560.683	132.75
560.895	126.75
561.107	122.75
561.32	136.75
561.532	133.75
561.744	134.75
561.956	132.75
562.168	120.75
562.381	141.75
562.593	126.75
562.805	129.75
563.017	128.75
563.229	122.75
563.441	136.75
563.653	113.75
563.865	116.75
564.077	122.75
564.289	121.75
564.501	122.75
564.713	118.75
564.925	124.75
565.137	124.75
565.349	121.75
565.561	124.75
565.773	128.75
565.985	124.75
566.197	116.75
566.408	111.75
566.62	127.75
566.832	124.75
567.044	125.75
567.255	111.75
567.467	102.75
567.679	102.75
567.891	108.75
568.102	106.75
568.314	102.75
568.526	97.75
568.737	101.75
568.949	99.75
569.161	89.75
569.372	88.75
569.584	84.75
569.795	93.75
570.007	107.75
570.218	78.75
570.43	91.75
570.641	83.75
570.853	95.75
571.064	108.75
571.276	109.75
571.487	97.75
571.698	106.75
571.91	111.75
572.121	96.75
572.333	89.75
572.544	92.75
572.755	102.75
572.966	82.75
573.178	97.75
573.389	82.75
573.6	86.75
573.811	93.75
574.023	80.75
574.234	93.75
574.445	89.75
574.656	97.75
574.867	102.75
575.078	106.75
575.289	95.75
575.501	103.75
575.712	105.75
575.923	94.75
576.134	98.75
576.345	89.75
576.556	97.75
576.767	102.75
576.978	97.75
577.188	98.75
577.399	94.75
577.61	90.75
577.821	102.75
578.032	102.75
578.243	106.75
578.454	79.75
578.665	90.75
578.875	102.75
579.086	93.75
579.297	91.75
579.508	95.75
579.718	96.75
579.929	91.75
580.14	100.75
580.35	87.75
580.561	94.75
580.772	97.75
580.982	107.75
581.193	101.75
581.403	109.75
581.614	102.75
581.825	81.75
582.035	100.75
582.246	83.75
582.456	108.75
582.667	90.75
582.877	77.75
583.087	85.75
583.298	94.75
583.508	94.75
583.719	87.75
583.929	97.75
584.139	79.75
584.35	83.75
584.56	82.75
584.77	90.75
584.981	91.75
585.191	92.75
585.401	81.75
585.611	97.75
585.821	93.75
586.032	83.75
586.242	80.75
586.452	81.75
586.662	88.75
586.872	87.75
587.082	84.75
587.292	91.75
587.502	87.75
587.713	92.75
587.923	81.75
588.133	111.75
588.343	93.75
588.553	101.75
588.762	92.75
588.972	98.75
589.182	93.75
589.392	85.75
589.602	85.75
589.812	92.75
590.022	90.75
590.232	93.75
590.441	80.75
590.651	88.75
590.861	87.75
591.071	99.75
591.281	89.75
591.49	80.75
591.7	87.75
591.91	110.75
592.119	98.75
592.329	82.75
592.539	89.75
592.748	92.75
592.958	88.75
593.167	86.75
593.377	81.75
593.587	92.75
593.796	74.75
594.006	92.75
594.215	92.75
594.424	103.75
594.634	86.75
594.843	85.75
595.053	86.75
595.262	106.75
595.472	102.75
595.681	102.75
595.89	97.75
596.1	96.75
596.309	94.75
596.518	96.75
596.727	105.75
596.937	104.75
597.146	95.75
597.355	104.75
597.564	112.75
597.774	86.75
597.983	93.75
598.192	77.75
598.401	77.75
598.61	90.75
598.819	93.75
599.028	89.75
599.237	107.75
599.446	102.75
599.655	95.75
599.864	97.75
600.073	98.75
600.282	87.75
600.491	86.75
600.7	108.75
600.909	105.75
601.118	111.75
601.327	108.75
601.536	97.75
601.745	121.75
601.953	119.75
602.162	106.75
602.371	108.75
602.58	111.75
602.789	119.75
602.997	108.75
603.206	110.75
603.415	114.75
603.623	103.75
603.832	110.75
604.041	102.75
604.249	93.75
604.458	95.75
604.666	105.75
604.875	93.75
605.084	103.75
605.292	114.75
605.501	126.75
605.709	114.75
605.918	112.75
606.126	118.75
606.334	116.75
606.543	120.75
606.751	111.75
606.96	104.75
607.168	105.75
607.376	110.75
607.585	108.75
607.793	113.75
608.001	110.75
608.21	107.75
608.418	107.75
608.626	117.75
608.834	125.75
609.043	113.75
609.251	123.75
609.459	118.75
609.667	120.75
609.875	117.75
610.083	123.75
610.291	112.75
610.499	117.75
610.707	105.75
610.916	113.75
611.124	124.75
611.332	113.75
611.54	112.75
611.748	134.75
611.955	124.75
612.163	100.75
612.371	125.75
612.579	102.75
612.787	107.75
612.995	126.75
613.203	130.75
613.411	113.75
613.618	120.75
613.826	119.75
614.034	100.75
614.242	120.75
614.449	116.75
614.657	114.75
614.865	121.75
615.072	118.75
615.28	121.75
615.488	109.75
615.695	129.75
615.903	122.75
616.111	107.75
616.318	126.75
616.526	104.75
616.733	126.75
616.941	102.75
617.148	117.75
617.356	122.75
617.563	107.75
617.771	100.75
617.978	113.75
618.185	109.75
618.393	119.75
618.6	116.75
618.807	121.75
619.015	105.75
619.222	109.75
619.429	107.75
619.637	112.75
619.844	111.75
620.051	95.75
620.258	96.75
620.466	108.75
620.673	104.75
620.88	111.75
621.087	102.75
621.294	103.75
621.501	113.75
621.708	108.75
621.915	101.75
622.122	110.75
622.329	93.75
622.536	116.75
622.743	110.75
622.95	118.75
623.157	116.75
623.364	123.75
623.571	112.75
623.778	114.75
623.985	118.75
624.192	96.75
624.399	106.75
624.606	111.75
624.812	124.75
625.019	120.75
625.226	110.75
625.433	102.75
625.639	123.75
625.846	112.75
626.053	85.75
626.259	82.75
626.466	92.75
626.673	93.75
626.879	87.75
627.086	106.75
627.293	96.75
627.499	95.75
627.706	103.75
627.912	108.75
628.119	96.75
628.325	95.75
628.532	97.75
628.738	112.75
628.945	107.75
629.151	113.75
629.357	111.75
629.564	117.75
629.77	118.75
629.976	101.75
630.183	94.75
630.389	100.75
630.595	118.75
630.802	116.75
631.008	100.75
631.214	112.75
631.42	106.75
631.627	102.75
631.833	82.75
632.039	101.75
632.245	106.75
632.451	93.75
632.657	104.75
632.863	100.75
633.069	99.75
633.275	108.75
633.481	110.75
633.688	100.75
633.893	108.75
634.099	103.75
634.305	113.75
634.511	107.75
634.717	102.75
634.923	99.75
635.129	95.75
635.335	94.75
635.541	92.75
635.747	94.75
635.952	94.75
636.158	90.75
636.364	113.75
636.57	93.75
636.775	101.75
636.981	101.75
637.187	109.75
637.392	112.75
637.598	109.75
637.804	117.75
638.009	100.75
638.215	101.75
638.421	91.75
638.626	110.75
638.832	109.75
639.037	109.75
639.243	89.75
639.448	101.75
639.654	88.75
639.859	106.75
640.065	111.75
640.27	102.75
640.475	103.75
640.681	106.75
640.886	101.75
641.091	100.75
641.297	97.75
641.502	90.75
641.707	110.75
641.913	110.75
642.118	117.75
642.323	91.75
642.528	104.75
642.733	104.75
642.939	104.75
643.144	100.75
643.349	101.75
643.554	91.75
643.759	98.75
643.964	100.75
644.169	101.75
644.374	116.75
644.579	119.75
644.784	97.75
644.989	90.75
645.194	103.75
645.399	81.75
645.604	100.75
645.809	104.75
646.014	104.75
646.219	96.75
646.423	87.75
646.628	94.75
646.833	100.75
647.038	107.75
647.243	117.75
647.447	108.75
647.652	116.75
647.857	110.75
648.062	101.75
648.266	102.75
648.471	99.75
648.676	97.75
648.88	95.75
649.085	100.75
649.289	87.75
649.494	97.75
649.698	100.75
649.903	102.75
650.107	107.75
650.312	107.75
650.516	89.75
650.721	99.75
650.925	99.75
651.13	95.75
651.334	102.75
651.539	96.75
651.743	86.75
651.947	90.75
652.152	94.75
652.356	98.75
652.56	98.75
652.764	105.75
652.969	102.75
653.173	93.75
653.377	93.75
653.581	98.75
653.785	97.75
653.99	91.75
654.194	94.75
654.398	106.75
654.602	80.75
654.806	81.75
655.01	70.75
655.214	89.75
655.418	88.75
655.622	96.75
655.826	102.75
656.03	93.75
656.234	105.75
656.438	83.75
656.642	94.75
656.846	89.75
657.049	80.75
657.253	84.75
657.457	78.75
657.661	84.75
657.865	79.75
658.068	88.75
658.272	104.75
658.476	96.75
658.68	90.75
658.883	82.75
659.087	77.75
659.291	95.75
659.494	94.75
659.698	94.75
659.901	102.75
660.105	76.75
660.309	88.75
660.512	80.75
660.716	82.75
660.919	87.75
661.123	76.75
661.326	89.75
661.53	94.75
661.733	84.75
661.936	79.75
662.14	79.75
662.343	80.75
662.546	81.75
662.75	101.75
662.953	82.75
663.156	79.75
663.36	77.75
663.563	89.75
663.766	82.75
663.969	90.75
664.173	93.75
664.376	88.75
664.579	100.75
664.782	64.75
664.985	72.75
665.188	82.75
665.391	87.75
665.594	76.75
665.797	80.75
666	77.75
666.203	89.75
666.406	96.75
666.609	88.75
666.812	76.75
667.015	80.75
667.218	95.75
667.421	86.75
667.624	77.75
667.827	87.75
668.03	91.75
668.232	80.75
668.435	87.75
668.638	81.75
668.841	91.75
669.043	82.75
669.246	82.75
669.449	86.75
669.651	80.75
669.854	83.75
670.057	83.75
670.259	71.75
670.462	73.75
670.665	73.75
670.867	82.75
671.07	77.75
671.272	81.75
671.475	107.75
671.677	81.75
671.88	75.75
672.082	74.75
672.284	91.75
672.487	93.75
672.689	97.75
672.892	68.75
