Data from Location1.07152019.Energy5.Lamp.07192019.3%Agarose_HRD10591_14-33-00-016.txt Node
Date: Fri Jul 19 14:33:00 EDT 2019
User: cochatt
Spectrometer: HR+D1059
Trigger mode: 1
Integration Time (sec): 1.000000E-1
Scans to average: 1
Electric dark correction enabled: true
Nonlinearity correction enabled: false
Boxcar width: 0
XAxis mode: Wavelengths
Number of Pixels in Spectrum: 2048
>>>>>Begin Spectral Data<<<<<
223.165	-12.62
223.4	-12.62
223.635	-12.62
223.869	-13.62
224.104	-22.62
224.338	-25.62
224.573	-26.62
224.808	-16.62
225.042	1.38
225.277	-5.62
225.511	8.38
225.746	8.38
225.98	15.38
226.215	1.38
226.449	13.38
226.683	8.38
226.918	33.38
227.152	33.38
227.387	27.38
227.621	47.38
227.856	32.38
228.09	41.38
228.324	55.38
228.559	66.38
228.793	43.38
229.027	50.38
229.262	51.38
229.496	79.38
229.73	61.38
229.964	66.38
230.199	77.38
230.433	72.38
230.667	82.38
230.901	75.38
231.136	72.38
231.37	81.38
231.604	73.38
231.838	80.38
232.072	62.38
232.306	94.38
232.541	76.38
232.775	74.38
233.009	75.38
233.243	68.38
233.477	65.38
233.711	89.38
233.945	80.38
234.179	76.38
234.413	74.38
234.647	75.38
234.881	82.38
235.115	67.38
235.349	86.38
235.583	83.38
235.817	73.38
236.051	75.38
236.285	69.38
236.519	75.38
236.753	79.38
236.987	85.38
237.221	69.38
237.455	79.38
237.689	68.38
237.922	72.38
238.156	77.38
238.39	70.38
238.624	70.38
238.858	75.38
239.091	82.38
239.325	77.38
239.559	78.38
239.793	77.38
240.027	63.38
240.26	61.38
240.494	88.38
240.728	77.38
240.961	69.38
241.195	79.38
241.429	62.38
241.662	82.38
241.896	84.38
242.13	85.38
242.363	85.38
242.597	67.38
242.83	79.38
243.064	69.38
243.298	62.38
243.531	70.38
243.765	85.38
243.998	76.38
244.232	86.38
244.465	79.38
244.699	74.38
244.932	78.38
245.166	84.38
245.399	78.38
245.633	77.38
245.866	96.38
246.099	80.38
246.333	80.38
246.566	69.38
246.8	71.38
247.033	86.38
247.266	86.38
247.5	82.38
247.733	70.38
247.966	77.38
248.2	71.38
248.433	93.38
248.666	90.38
248.899	73.38
249.133	76.38
249.366	79.38
249.599	87.38
249.832	82.38
250.066	81.38
250.299	93.38
250.532	91.38
250.765	83.38
250.998	71.38
251.231	73.38
251.465	80.38
251.698	87.38
251.931	84.38
252.164	74.38
252.397	77.38
252.63	80.38
252.863	67.38
253.096	79.38
253.329	80.38
253.562	89.38
253.795	91.38
254.028	69.38
254.261	78.38
254.494	74.38
254.727	83.38
254.96	80.38
255.193	79.38
255.426	79.38
255.659	83.38
255.892	87.38
256.124	68.38
256.357	86.38
256.59	74.38
256.823	82.38
257.056	94.38
257.289	69.38
257.521	78.38
257.754	67.38
257.987	84.38
258.22	56.38
258.452	78.38
258.685	80.38
258.918	68.38
259.151	89.38
259.383	89.38
259.616	79.38
259.849	71.38
260.081	89.38
260.314	78.38
260.547	82.38
260.779	82.38
261.012	87.38
261.244	98.38
261.477	82.38
261.71	93.38
261.942	90.38
262.175	87.38
262.407	84.38
262.64	78.38
262.872	74.38
263.105	79.38
263.337	70.38
263.57	68.38
263.802	74.38
264.035	98.38
264.267	74.38
264.499	79.38
264.732	77.38
264.964	74.38
265.197	77.38
265.429	66.38
265.661	77.38
265.894	73.38
266.126	77.38
266.358	82.38
266.591	74.38
266.823	87.38
267.055	61.38
267.287	81.38
267.52	94.38
267.752	81.38
267.984	83.38
268.216	72.38
268.448	89.38
268.681	84.38
268.913	82.38
269.145	81.38
269.377	86.38
269.609	69.38
269.841	61.38
270.073	80.38
270.306	89.38
270.538	87.38
270.77	84.38
271.002	87.38
271.234	80.38
271.466	81.38
271.698	84.38
271.93	69.38
272.162	88.38
272.394	78.38
272.626	84.38
272.858	71.38
273.09	85.38
273.322	80.38
273.553	74.38
273.785	75.38
274.017	99.38
274.249	79.38
274.481	68.38
274.713	65.38
274.945	83.38
275.176	74.38
275.408	86.38
275.64	68.38
275.872	80.38
276.104	73.38
276.335	88.38
276.567	86.38
276.799	88.38
277.031	98.38
277.262	82.38
277.494	78.38
277.726	79.38
277.957	74.38
278.189	68.38
278.421	85.38
278.652	85.38
278.884	91.38
279.115	94.38
279.347	78.38
279.579	76.38
279.81	91.38
280.042	71.38
280.273	68.38
280.505	89.38
280.736	91.38
280.968	82.38
281.199	77.38
281.431	84.38
281.662	75.38
281.894	85.38
282.125	84.38
282.356	75.38
282.588	82.38
282.819	90.38
283.051	81.38
283.282	78.38
283.513	84.38
283.745	79.38
283.976	86.38
284.207	84.38
284.439	89.38
284.67	80.38
284.901	77.38
285.132	73.38
285.364	76.38
285.595	88.38
285.826	77.38
286.057	72.38
286.288	78.38
286.52	85.38
286.751	77.38
286.982	83.38
287.213	92.38
287.444	88.38
287.675	83.38
287.906	75.38
288.138	67.38
288.369	76.38
288.6	99.38
288.831	79.38
289.062	92.38
289.293	82.38
289.524	85.38
289.755	89.38
289.986	75.38
290.217	80.38
290.448	74.38
290.679	64.38
290.91	89.38
291.141	73.38
291.371	80.38
291.602	81.38
291.833	69.38
292.064	74.38
292.295	75.38
292.526	78.38
292.757	76.38
292.987	91.38
293.218	82.38
293.449	92.38
293.68	76.38
293.91	81.38
294.141	82.38
294.372	78.38
294.603	84.38
294.833	87.38
295.064	87.38
295.295	77.38
295.525	96.38
295.756	64.38
295.987	76.38
296.217	75.38
296.448	91.38
296.679	82.38
296.909	88.38
297.14	74.38
297.37	88.38
297.601	84.38
297.831	73.38
298.062	77.38
298.292	89.38
298.523	73.38
298.753	78.38
298.984	92.38
299.214	90.38
299.445	84.38
299.675	96.38
299.905	61.38
300.136	74.38
300.366	71.38
300.597	74.38
300.827	88.38
301.057	101.38
301.288	95.38
301.518	77.38
301.748	82.38
301.979	82.38
302.209	91.38
302.439	85.38
302.669	87.38
302.9	89.38
303.13	73.38
303.36	82.38
303.59	76.38
303.82	87.38
304.051	84.38
304.281	84.38
304.511	81.38
304.741	80.38
304.971	69.38
305.201	85.38
305.431	83.38
305.661	93.38
305.891	84.38
306.121	77.38
306.352	71.38
306.582	73.38
306.812	82.38
307.042	93.38
307.272	87.38
307.502	87.38
307.731	89.38
307.961	98.38
308.191	87.38
308.421	91.38
308.651	72.38
308.881	65.38
309.111	91.38
309.341	92.38
309.571	76.38
309.8	73.38
310.03	81.38
310.26	74.38
310.49	72.38
310.72	94.38
310.949	97.38
311.179	81.38
311.409	81.38
311.639	89.38
311.868	83.38
312.098	86.38
312.328	87.38
312.557	83.38
312.787	86.38
313.017	73.38
313.246	79.38
313.476	83.38
313.706	93.38
313.935	88.38
314.165	93.38
314.394	87.38
314.624	88.38
314.853	82.38
315.083	86.38
315.312	69.38
315.542	91.38
315.771	85.38
316.001	76.38
316.23	90.38
316.46	87.38
316.689	79.38
316.919	94.38
317.148	82.38
317.377	87.38
317.607	98.38
317.836	84.38
318.065	71.38
318.295	87.38
318.524	86.38
318.753	78.38
318.983	90.38
319.212	100.38
319.441	82.38
319.67	82.38
319.9	78.38
320.129	92.38
320.358	89.38
320.587	92.38
320.816	88.38
321.046	80.38
321.275	100.38
321.504	85.38
321.733	82.38
321.962	91.38
322.191	81.38
322.42	78.38
322.649	94.38
322.878	87.38
323.108	84.38
323.337	87.38
323.566	93.38
323.795	93.38
324.024	100.38
324.253	84.38
324.482	73.38
324.71	76.38
324.939	78.38
325.168	81.38
325.397	94.38
325.626	81.38
325.855	93.38
326.084	77.38
326.313	75.38
326.542	89.38
326.77	94.38
326.999	95.38
327.228	79.38
327.457	80.38
327.686	86.38
327.914	82.38
328.143	76.38
328.372	92.38
328.6	93.38
328.829	79.38
329.058	74.38
329.287	69.38
329.515	91.38
329.744	88.38
329.972	72.38
330.201	86.38
330.43	84.38
330.658	85.38
330.887	85.38
331.115	79.38
331.344	75.38
331.572	83.38
331.801	70.38
332.03	63.38
332.258	80.38
332.486	89.38
332.715	84.38
332.943	84.38
333.172	88.38
333.4	73.38
333.629	80.38
333.857	103.38
334.085	54.38
334.314	82.38
334.542	83.38
334.771	91.38
334.999	89.38
335.227	82.38
335.455	79.38
335.684	97.38
335.912	85.38
336.14	84.38
336.369	72.38
336.597	91.38
336.825	88.38
337.053	96.38
337.281	90.38
337.51	87.38
337.738	75.38
337.966	76.38
338.194	81.38
338.422	91.38
338.65	83.38
338.878	96.38
339.106	74.38
339.334	88.38
339.562	74.38
339.79	91.38
340.018	63.38
340.246	73.38
340.474	67.38
340.702	91.38
340.93	72.38
341.158	82.38
341.386	76.38
341.614	71.38
341.842	73.38
342.07	84.38
342.298	90.38
342.526	81.38
342.754	86.38
342.981	92.38
343.209	74.38
343.437	88.38
343.665	76.38
343.893	77.38
344.12	84.38
344.348	99.38
344.576	86.38
344.804	85.38
345.031	77.38
345.259	90.38
345.487	80.38
345.714	88.38
345.942	101.38
346.17	81.38
346.397	78.38
346.625	82.38
346.853	67.38
347.08	76.38
347.308	85.38
347.535	80.38
347.763	72.38
347.99	86.38
348.218	76.38
348.445	79.38
348.673	65.38
348.9	88.38
349.128	81.38
349.355	68.38
349.583	86.38
349.81	100.38
350.037	80.38
350.265	88.38
350.492	79.38
350.72	96.38
350.947	80.38
351.174	81.38
351.402	98.38
351.629	84.38
351.856	88.38
352.083	100.38
352.311	89.38
352.538	80.38
352.765	91.38
352.992	93.38
353.22	96.38
353.447	82.38
353.674	73.38
353.901	99.38
354.128	95.38
354.355	88.38
354.583	80.38
354.81	83.38
355.037	65.38
355.264	70.38
355.491	95.38
355.718	85.38
355.945	85.38
356.172	85.38
356.399	71.38
356.626	75.38
356.853	97.38
357.08	84.38
357.307	79.38
357.534	92.38
357.761	82.38
357.988	97.38
358.215	85.38
358.441	78.38
358.668	79.38
358.895	80.38
359.122	74.38
359.349	72.38
359.576	77.38
359.802	80.38
360.029	66.38
360.256	84.38
360.483	79.38
360.709	74.38
360.936	80.38
361.163	87.38
361.39	78.38
361.616	78.38
361.843	92.38
362.07	86.38
362.296	76.38
362.523	78.38
362.749	82.38
362.976	84.38
363.203	92.38
363.429	71.38
363.656	83.38
363.882	76.38
364.109	97.38
364.335	77.38
364.562	90.38
364.788	74.38
365.015	77.38
365.241	85.38
365.468	86.38
365.694	82.38
365.92	95.38
366.147	86.38
366.373	76.38
366.599	78.38
366.826	88.38
367.052	84.38
367.278	83.38
367.505	84.38
367.731	96.38
367.957	83.38
368.184	91.38
368.41	79.38
368.636	83.38
368.862	85.38
369.089	88.38
369.315	83.38
369.541	84.38
369.767	97.38
369.993	81.38
370.219	85.38
370.445	91.38
370.672	84.38
370.898	100.38
371.124	93.38
371.35	80.38
371.576	92.38
371.802	88.38
372.028	86.38
372.254	96.38
372.48	91.38
372.706	81.38
372.932	101.38
373.158	93.38
373.384	75.38
373.61	88.38
373.835	95.38
374.061	88.38
374.287	94.38
374.513	87.38
374.739	97.38
374.965	93.38
375.191	92.38
375.416	90.38
375.642	96.38
375.868	99.38
376.094	87.38
376.319	95.38
376.545	96.38
376.771	89.38
376.997	94.38
377.222	100.38
377.448	77.38
377.674	94.38
377.899	81.38
378.125	91.38
378.35	92.38
378.576	89.38
378.802	91.38
379.027	94.38
379.253	90.38
379.478	89.38
379.704	92.38
379.929	90.38
380.155	95.38
380.38	88.38
380.606	99.38
380.831	92.38
381.057	88.38
381.282	95.38
381.507	92.38
381.733	89.38
381.958	108.38
382.184	99.38
382.409	102.38
382.634	94.38
382.86	99.38
383.085	95.38
383.31	78.38
383.535	90.38
383.761	90.38
383.986	91.38
384.211	105.38
384.436	86.38
384.662	87.38
384.887	84.38
385.112	92.38
385.337	93.38
385.562	102.38
385.787	92.38
386.013	100.38
386.238	77.38
386.463	103.38
386.688	104.38
386.913	91.38
387.138	101.38
387.363	89.38
387.588	108.38
387.813	106.38
388.038	96.38
388.263	90.38
388.488	98.38
388.713	101.38
388.938	96.38
389.163	88.38
389.387	108.38
389.612	90.38
389.837	108.38
390.062	110.38
390.287	91.38
390.512	102.38
390.736	96.38
390.961	112.38
391.186	97.38
391.411	109.38
391.636	115.38
391.86	104.38
392.085	112.38
392.31	106.38
392.534	101.38
392.759	97.38
392.984	110.38
393.208	104.38
393.433	99.38
393.658	96.38
393.882	89.38
394.107	90.38
394.331	98.38
394.556	114.38
394.78	115.38
395.005	110.38
395.229	109.38
395.454	124.38
395.678	118.38
395.903	117.38
396.127	119.38
396.352	96.38
396.576	97.38
396.801	121.38
397.025	107.38
397.249	106.38
397.474	105.38
397.698	105.38
397.922	108.38
398.147	105.38
398.371	112.38
398.595	104.38
398.82	124.38
399.044	100.38
399.268	113.38
399.492	116.38
399.717	99.38
399.941	105.38
400.165	102.38
400.389	118.38
400.613	114.38
400.837	97.38
401.062	104.38
401.286	109.38
401.51	112.38
401.734	106.38
401.958	117.38
402.182	122.38
402.406	132.38
402.63	106.38
402.854	112.38
403.078	104.38
403.302	113.38
403.526	114.38
403.75	106.38
403.974	116.38
404.198	118.38
404.422	117.38
404.645	106.38
404.869	107.38
405.093	120.38
405.317	102.38
405.541	112.38
405.765	123.38
405.988	127.38
406.212	124.38
406.436	121.38
406.66	118.38
406.883	125.38
407.107	116.38
407.331	112.38
407.555	117.38
407.778	122.38
408.002	117.38
408.226	121.38
408.449	109.38
408.673	128.38
408.896	126.38
409.12	109.38
409.344	111.38
409.567	128.38
409.791	108.38
410.014	112.38
410.238	122.38
410.461	135.38
410.685	100.38
410.908	121.38
411.132	108.38
411.355	122.38
411.578	126.38
411.802	114.38
412.025	117.38
412.249	117.38
412.472	105.38
412.695	119.38
412.919	116.38
413.142	120.38
413.365	122.38
413.589	118.38
413.812	111.38
414.035	126.38
414.258	126.38
414.482	122.38
414.705	130.38
414.928	108.38
415.151	118.38
415.374	129.38
415.597	112.38
415.821	116.38
416.044	140.38
416.267	110.38
416.49	124.38
416.713	109.38
416.936	124.38
417.159	116.38
417.382	133.38
417.605	126.38
417.828	132.38
418.051	135.38
418.274	138.38
418.497	120.38
418.72	128.38
418.943	135.38
419.166	125.38
419.389	132.38
419.611	136.38
419.834	136.38
420.057	147.38
420.28	126.38
420.503	122.38
420.726	141.38
420.948	132.38
421.171	138.38
421.394	136.38
421.617	142.38
421.839	148.38
422.062	146.38
422.285	123.38
422.507	126.38
422.73	128.38
422.953	116.38
423.175	130.38
423.398	112.38
423.621	117.38
423.843	125.38
424.066	131.38
424.288	131.38
424.511	139.38
424.733	141.38
424.956	130.38
425.178	125.38
425.401	128.38
425.623	139.38
425.846	134.38
426.068	121.38
426.291	110.38
426.513	114.38
426.735	148.38
426.958	128.38
427.18	124.38
427.402	128.38
427.625	125.38
427.847	122.38
428.069	125.38
428.292	128.38
428.514	138.38
428.736	132.38
428.958	130.38
429.181	138.38
429.403	124.38
429.625	132.38
429.847	118.38
430.069	123.38
430.292	132.38
430.514	124.38
430.736	130.38
430.958	130.38
431.18	114.38
431.402	126.38
431.624	112.38
431.846	109.38
432.068	90.38
432.29	90.38
432.512	102.38
432.734	130.38
432.956	130.38
433.178	136.38
433.4	151.38
433.622	145.38
433.844	126.38
434.066	121.38
434.287	114.38
434.509	92.38
434.731	94.38
434.953	117.38
435.175	127.38
435.397	136.38
435.618	128.38
435.84	113.38
436.062	116.38
436.284	120.38
436.505	131.38
436.727	124.38
436.949	129.38
437.17	127.38
437.392	125.38
437.614	112.38
437.835	107.38
438.057	105.38
438.278	121.38
438.5	121.38
438.721	114.38
438.943	130.38
439.165	129.38
439.386	137.38
439.608	137.38
439.829	138.38
440.05	133.38
440.272	152.38
440.493	152.38
440.715	138.38
440.936	131.38
441.158	134.38
441.379	132.38
441.6	154.38
441.822	156.38
442.043	129.38
442.264	148.38
442.486	135.38
442.707	136.38
442.928	126.38
443.149	140.38
443.371	143.38
443.592	132.38
443.813	129.38
444.034	128.38
444.255	132.38
444.476	129.38
444.698	132.38
444.919	135.38
445.14	217.38
445.361	168.38
445.582	154.38
445.803	148.38
446.024	147.38
446.245	147.38
446.466	160.38
446.687	151.38
446.908	153.38
447.129	148.38
447.35	155.38
447.571	137.38
447.792	127.38
448.013	151.38
448.234	135.38
448.455	136.38
448.675	136.38
448.896	138.38
449.117	121.38
449.338	126.38
449.559	126.38
449.779	136.38
450	149.38
450.221	121.38
450.442	112.38
450.662	130.38
450.883	128.38
451.104	117.38
451.324	117.38
451.545	129.38
451.766	129.38
451.986	122.38
452.207	116.38
452.428	122.38
452.648	119.38
452.869	120.38
453.089	129.38
453.31	118.38
453.53	115.38
453.751	92.38
453.971	101.38
454.192	101.38
454.412	111.38
454.633	124.38
454.853	113.38
455.073	108.38
455.294	114.38
455.514	126.38
455.734	115.38
455.955	109.38
456.175	119.38
456.395	95.38
456.616	102.38
456.836	105.38
457.056	125.38
457.276	108.38
457.497	114.38
457.717	102.38
457.937	105.38
458.157	102.38
458.377	85.38
458.598	100.38
458.818	106.38
459.038	84.38
459.258	93.38
459.478	101.38
459.698	93.38
459.918	108.38
460.138	98.38
460.358	117.38
460.578	100.38
460.798	119.38
461.018	116.38
461.238	102.38
461.458	97.38
461.678	113.38
461.898	108.38
462.118	103.38
462.338	95.38
462.558	116.38
462.777	98.38
462.997	112.38
463.217	112.38
463.437	104.38
463.657	117.38
463.876	115.38
464.096	94.38
464.316	103.38
464.536	128.38
464.755	119.38
464.975	119.38
465.195	121.38
465.414	117.38
465.634	121.38
465.854	119.38
466.073	116.38
466.293	140.38
466.512	125.38
466.732	131.38
466.951	119.38
467.171	130.38
467.391	138.38
467.61	121.38
467.829	138.38
468.049	126.38
468.268	136.38
468.488	125.38
468.707	132.38
468.927	136.38
469.146	134.38
469.365	138.38
469.585	140.38
469.804	150.38
470.023	153.38
470.243	153.38
470.462	148.38
470.681	145.38
470.901	152.38
471.12	138.38
471.339	134.38
471.558	154.38
471.777	145.38
471.997	127.38
472.216	134.38
472.435	123.38
472.654	110.38
472.873	110.38
473.092	110.38
473.311	120.38
473.53	129.38
473.749	109.38
473.968	91.38
474.187	107.38
474.406	97.38
474.625	123.38
474.844	122.38
475.063	122.38
475.282	110.38
475.501	119.38
475.72	105.38
475.939	124.38
476.158	139.38
476.377	124.38
476.596	131.38
476.814	126.38
477.033	103.38
477.252	106.38
477.471	128.38
477.69	128.38
477.908	133.38
478.127	139.38
478.346	129.38
478.564	116.38
478.783	136.38
479.002	137.38
479.22	133.38
479.439	127.38
479.658	126.38
479.876	109.38
480.095	108.38
480.313	100.38
480.532	102.38
480.751	104.38
480.969	104.38
481.188	79.38
481.406	93.38
481.624	76.38
481.843	92.38
482.061	92.38
482.28	105.38
482.498	116.38
482.717	113.38
482.935	123.38
483.153	132.38
483.372	140.38
483.59	136.38
483.808	129.38
484.027	125.38
484.245	140.38
484.463	162.38
484.681	164.38
484.9	150.38
485.118	127.38
485.336	120.38
485.554	118.38
485.772	100.38
485.99	102.38
486.209	98.38
486.427	107.38
486.645	119.38
486.863	140.38
487.081	141.38
487.299	130.38
487.517	133.38
487.735	184.38
487.953	178.38
488.171	174.38
488.389	154.38
488.607	160.38
488.825	123.38
489.043	110.38
489.261	142.38
489.479	143.38
489.696	138.38
489.914	136.38
490.132	150.38
490.35	154.38
490.568	156.38
490.786	160.38
491.003	181.38
491.221	165.38
491.439	178.38
491.657	189.38
491.874	191.38
492.092	227.38
492.31	232.38
492.527	232.38
492.745	203.38
492.963	188.38
493.18	182.38
493.398	181.38
493.615	194.38
493.833	178.38
494.05	171.38
494.268	172.38
494.485	173.38
494.703	162.38
494.92	174.38
495.138	154.38
495.355	163.38
495.573	167.38
495.79	170.38
496.008	182.38
496.225	155.38
496.442	151.38
496.66	171.38
496.877	148.38
497.094	153.38
497.312	163.38
497.529	160.38
497.746	145.38
497.963	130.38
498.181	126.38
498.398	137.38
498.615	126.38
498.832	123.38
499.049	115.38
499.267	110.38
499.484	133.38
499.701	143.38
499.918	136.38
500.135	142.38
500.352	132.38
500.569	149.38
500.786	151.38
501.003	150.38
501.22	134.38
501.437	139.38
501.654	120.38
501.871	132.38
502.088	125.38
502.305	123.38
502.522	135.38
502.739	122.38
502.956	122.38
503.172	104.38
503.389	114.38
503.606	120.38
503.823	124.38
504.04	115.38
504.256	107.38
504.473	105.38
504.69	123.38
504.907	127.38
505.123	122.38
505.34	120.38
505.557	126.38
505.773	113.38
505.99	117.38
506.207	126.38
506.423	107.38
506.64	120.38
506.856	136.38
507.073	123.38
507.289	109.38
507.506	119.38
507.722	112.38
507.939	125.38
508.155	104.38
508.372	108.38
508.588	119.38
508.805	104.38
509.021	106.38
509.238	117.38
509.454	108.38
509.67	103.38
509.887	113.38
510.103	110.38
510.319	94.38
510.536	88.38
510.752	82.38
510.968	89.38
511.184	82.38
511.401	85.38
511.617	88.38
511.833	76.38
512.049	85.38
512.265	85.38
512.481	85.38
512.698	96.38
512.914	82.38
513.13	85.38
513.346	80.38
513.562	90.38
513.778	94.38
513.994	101.38
514.21	100.38
514.426	98.38
514.642	100.38
514.858	86.38
515.074	77.38
515.29	84.38
515.506	96.38
515.721	94.38
515.937	98.38
516.153	108.38
516.369	74.38
516.585	91.38
516.801	92.38
517.016	86.38
517.232	86.38
517.448	88.38
517.664	94.38
517.879	92.38
518.095	91.38
518.311	84.38
518.527	91.38
518.742	86.38
518.958	96.38
519.173	92.38
519.389	103.38
519.605	114.38
519.82	108.38
520.036	102.38
520.251	97.38
520.467	99.38
520.682	88.38
520.898	91.38
521.113	92.38
521.329	88.38
521.544	89.38
521.76	98.38
521.975	92.38
522.19	102.38
522.406	96.38
522.621	100.38
522.836	89.38
523.052	93.38
523.267	100.38
523.482	103.38
523.698	87.38
523.913	117.38
524.128	120.38
524.343	111.38
524.559	115.38
524.774	125.38
524.989	131.38
525.204	123.38
525.419	120.38
525.634	108.38
525.849	118.38
526.064	103.38
526.28	100.38
526.495	97.38
526.71	77.38
526.925	70.38
527.14	88.38
527.355	82.38
527.57	86.38
527.785	91.38
527.999	87.38
528.214	101.38
528.429	107.38
528.644	125.38
528.859	123.38
529.074	155.38
529.289	164.38
529.503	146.38
529.718	137.38
529.933	129.38
530.148	97.38
530.363	98.38
530.577	97.38
530.792	76.38
531.007	79.38
531.221	83.38
531.436	82.38
531.651	84.38
531.865	83.38
532.08	89.38
532.295	99.38
532.509	98.38
532.724	88.38
532.938	92.38
533.153	104.38
533.367	120.38
533.582	122.38
533.796	110.38
534.011	113.38
534.225	98.38
534.44	88.38
534.654	98.38
534.868	93.38
535.083	102.38
535.297	97.38
535.511	97.38
535.726	122.38
535.94	107.38
536.154	95.38
536.369	91.38
536.583	93.38
536.797	91.38
537.011	89.38
537.225	87.38
537.44	86.38
537.654	90.38
537.868	94.38
538.082	90.38
538.296	73.38
538.51	90.38
538.724	110.38
538.938	130.38
539.153	117.38
539.367	132.38
539.581	132.38
539.795	121.38
540.009	100.38
540.222	93.38
540.436	106.38
540.65	105.38
540.864	121.38
541.078	131.38
541.292	150.38
541.506	149.38
541.72	173.38
541.934	173.38
542.147	190.38
542.361	196.38
542.575	164.38
542.789	146.38
543.002	127.38
543.216	126.38
543.43	118.38
543.644	126.38
543.857	148.38
544.071	151.38
544.285	154.38
544.498	173.38
544.712	124.38
544.925	155.38
545.139	151.38
545.352	164.38
545.566	174.38
545.779	150.38
545.993	137.38
546.206	170.38
546.42	183.38
546.633	146.38
546.847	164.38
547.06	154.38
547.274	154.38
547.487	170.38
547.7	170.38
547.914	164.38
548.127	169.38
548.34	164.38
548.554	156.38
548.767	158.38
548.98	141.38
549.193	147.38
549.407	145.38
549.62	154.38
549.833	137.38
550.046	164.38
550.259	156.38
550.473	151.38
550.686	148.38
550.899	150.38
551.112	147.38
551.325	138.38
551.538	139.38
551.751	130.38
551.964	116.38
552.177	120.38
552.39	141.38
552.603	148.38
552.816	144.38
553.029	148.38
553.242	163.38
553.455	156.38
553.667	155.38
553.88	145.38
554.093	153.38
554.306	133.38
554.519	148.38
554.732	156.38
554.944	141.38
555.157	132.38
555.37	144.38
555.583	146.38
555.795	131.38
556.008	139.38
556.221	132.38
556.433	134.38
556.646	138.38
556.859	122.38
557.071	129.38
557.284	136.38
557.496	124.38
557.709	153.38
557.921	122.38
558.134	140.38
558.346	125.38
558.559	134.38
558.771	136.38
558.984	128.38
559.196	130.38
559.409	137.38
559.621	122.38
559.833	125.38
560.046	128.38
560.258	122.38
560.47	132.38
560.683	150.38
560.895	130.38
561.107	118.38
561.32	122.38
561.532	132.38
561.744	131.38
561.956	135.38
562.168	132.38
562.381	116.38
562.593	118.38
562.805	127.38
563.017	128.38
563.229	128.38
563.441	128.38
563.653	116.38
563.865	111.38
564.077	120.38
564.289	122.38
564.501	131.38
564.713	121.38
564.925	119.38
565.137	106.38
565.349	120.38
565.561	128.38
565.773	123.38
565.985	117.38
566.197	119.38
566.408	121.38
566.62	129.38
566.832	132.38
567.044	105.38
567.255	112.38
567.467	107.38
567.679	112.38
567.891	89.38
568.102	94.38
568.314	99.38
568.526	94.38
568.737	91.38
568.949	84.38
569.161	82.38
569.372	74.38
569.584	78.38
569.795	86.38
570.007	82.38
570.218	77.38
570.43	78.38
570.641	87.38
570.853	100.38
571.064	93.38
571.276	101.38
571.487	114.38
571.698	104.38
571.91	110.38
572.121	112.38
572.333	109.38
572.544	108.38
572.755	96.38
572.966	82.38
573.178	80.38
573.389	78.38
573.6	87.38
573.811	83.38
574.023	75.38
574.234	75.38
574.445	78.38
574.656	94.38
574.867	97.38
575.078	90.38
575.289	87.38
575.501	94.38
575.712	90.38
575.923	104.38
576.134	98.38
576.345	96.38
576.556	89.38
576.767	105.38
576.978	114.38
577.188	94.38
577.399	84.38
577.61	88.38
577.821	114.38
578.032	95.38
578.243	104.38
578.454	93.38
578.665	82.38
578.875	77.38
579.086	98.38
579.297	85.38
579.508	93.38
579.718	95.38
579.929	100.38
580.14	89.38
580.35	82.38
580.561	93.38
580.772	94.38
580.982	89.38
581.193	85.38
581.403	93.38
581.614	83.38
581.825	90.38
582.035	92.38
582.246	77.38
582.456	72.38
582.667	96.38
582.877	85.38
583.087	91.38
583.298	83.38
583.508	90.38
583.719	82.38
583.929	104.38
584.139	78.38
584.35	82.38
584.56	78.38
584.77	83.38
584.981	66.38
585.191	75.38
585.401	90.38
585.611	98.38
585.821	87.38
586.032	86.38
586.242	64.38
586.452	82.38
586.662	79.38
586.872	75.38
587.082	89.38
587.292	84.38
587.502	91.38
587.713	91.38
587.923	89.38
588.133	86.38
588.343	89.38
588.553	84.38
588.762	81.38
588.972	82.38
589.182	79.38
589.392	87.38
589.602	82.38
589.812	81.38
590.022	93.38
590.232	85.38
590.441	81.38
590.651	87.38
590.861	61.38
591.071	85.38
591.281	86.38
591.49	77.38
591.7	70.38
591.91	89.38
592.119	91.38
592.329	99.38
592.539	97.38
592.748	72.38
592.958	82.38
593.167	68.38
593.377	84.38
593.587	98.38
593.796	76.38
594.006	76.38
594.215	84.38
594.424	82.38
594.634	94.38
594.843	109.38
595.053	92.38
595.262	99.38
595.472	87.38
595.681	75.38
595.89	82.38
596.1	76.38
596.309	90.38
596.518	104.38
596.727	100.38
596.937	79.38
597.146	98.38
597.355	96.38
597.564	99.38
597.774	100.38
597.983	79.38
598.192	74.38
598.401	81.38
598.61	96.38
598.819	82.38
599.028	103.38
599.237	99.38
599.446	80.38
599.655	92.38
599.864	93.38
600.073	83.38
600.282	92.38
600.491	84.38
600.7	98.38
600.909	90.38
601.118	107.38
601.327	113.38
601.536	124.38
601.745	98.38
601.953	110.38
602.162	109.38
602.371	111.38
602.58	108.38
602.789	99.38
602.997	97.38
603.206	108.38
603.415	118.38
603.623	112.38
603.832	112.38
604.041	96.38
604.249	75.38
604.458	98.38
604.666	96.38
604.875	104.38
605.084	97.38
605.292	94.38
605.501	112.38
605.709	108.38
605.918	122.38
606.126	114.38
606.334	114.38
606.543	101.38
606.751	113.38
606.96	112.38
607.168	105.38
607.376	111.38
607.585	94.38
607.793	101.38
608.001	116.38
608.21	108.38
608.418	122.38
608.626	108.38
608.834	112.38
609.043	128.38
609.251	125.38
609.459	105.38
609.667	116.38
609.875	118.38
610.083	112.38
610.291	129.38
610.499	126.38
610.707	106.38
610.916	118.38
611.124	103.38
611.332	103.38
611.54	102.38
611.748	110.38
611.955	108.38
612.163	108.38
612.371	119.38
612.579	118.38
612.787	101.38
612.995	118.38
613.203	118.38
613.411	93.38
613.618	106.38
613.826	121.38
614.034	99.38
614.242	105.38
614.449	107.38
614.657	110.38
614.865	115.38
615.072	121.38
615.28	112.38
615.488	108.38
615.695	94.38
615.903	117.38
616.111	107.38
616.318	115.38
616.526	106.38
616.733	101.38
616.941	115.38
617.148	117.38
617.356	110.38
617.563	98.38
617.771	89.38
617.978	96.38
618.185	103.38
618.393	102.38
618.6	105.38
618.807	109.38
619.015	116.38
619.222	112.38
619.429	100.38
619.637	100.38
619.844	98.38
620.051	89.38
620.258	98.38
620.466	102.38
620.673	123.38
620.88	98.38
621.087	91.38
621.294	110.38
621.501	92.38
621.708	102.38
621.915	92.38
622.122	105.38
622.329	109.38
622.536	121.38
622.743	108.38
622.95	106.38
623.157	107.38
623.364	118.38
623.571	116.38
623.778	110.38
623.985	107.38
624.192	115.38
624.399	110.38
624.606	101.38
624.812	103.38
625.019	107.38
625.226	106.38
625.433	103.38
625.639	95.38
625.846	107.38
626.053	104.38
626.259	98.38
626.466	99.38
626.673	90.38
626.879	82.38
627.086	93.38
627.293	96.38
627.499	107.38
627.706	95.38
627.912	102.38
628.119	104.38
628.325	126.38
628.532	101.38
628.738	117.38
628.945	112.38
629.151	85.38
629.357	93.38
629.564	104.38
629.77	109.38
629.976	96.38
630.183	87.38
630.389	99.38
630.595	112.38
630.802	108.38
631.008	105.38
631.214	104.38
631.42	91.38
631.627	120.38
631.833	89.38
632.039	110.38
632.245	99.38
632.451	86.38
632.657	92.38
632.863	109.38
633.069	97.38
633.275	120.38
633.481	105.38
633.688	92.38
633.893	107.38
634.099	100.38
634.305	93.38
634.511	102.38
634.717	103.38
634.923	85.38
635.129	97.38
635.335	85.38
635.541	90.38
635.747	102.38
635.952	86.38
636.158	92.38
636.364	97.38
636.57	105.38
636.775	98.38
636.981	102.38
637.187	100.38
637.392	92.38
637.598	112.38
637.804	105.38
638.009	93.38
638.215	93.38
638.421	84.38
638.626	90.38
638.832	93.38
639.037	86.38
639.243	97.38
639.448	108.38
639.654	109.38
639.859	99.38
640.065	89.38
640.27	103.38
640.475	82.38
640.681	100.38
640.886	109.38
641.091	98.38
641.297	103.38
641.502	96.38
641.707	86.38
641.913	98.38
642.118	99.38
642.323	103.38
642.528	101.38
642.733	105.38
642.939	90.38
643.144	94.38
643.349	93.38
643.554	115.38
643.759	112.38
643.964	107.38
644.169	101.38
644.374	103.38
644.579	104.38
644.784	97.38
644.989	100.38
645.194	96.38
645.399	82.38
645.604	96.38
645.809	98.38
646.014	84.38
646.219	93.38
646.423	102.38
646.628	91.38
646.833	107.38
647.038	93.38
647.243	93.38
647.447	90.38
647.652	90.38
647.857	95.38
648.062	100.38
648.266	74.38
648.471	94.38
648.676	98.38
648.88	96.38
649.085	82.38
649.289	93.38
649.494	98.38
649.698	96.38
649.903	98.38
650.107	96.38
650.312	101.38
650.516	86.38
650.721	103.38
650.925	105.38
651.13	99.38
651.334	93.38
651.539	94.38
651.743	102.38
651.947	96.38
652.152	96.38
652.356	101.38
652.56	71.38
652.764	86.38
652.969	90.38
653.173	84.38
653.377	85.38
653.581	90.38
653.785	96.38
653.99	81.38
654.194	101.38
654.398	117.38
654.602	92.38
654.806	99.38
655.01	94.38
655.214	88.38
655.418	96.38
655.622	91.38
655.826	82.38
656.03	74.38
656.234	94.38
656.438	81.38
656.642	87.38
656.846	76.38
657.049	87.38
657.253	78.38
657.457	90.38
657.661	90.38
657.865	88.38
658.068	81.38
658.272	93.38
658.476	81.38
658.68	82.38
658.883	89.38
659.087	86.38
659.291	71.38
659.494	90.38
659.698	71.38
659.901	83.38
660.105	92.38
660.309	74.38
660.512	78.38
660.716	79.38
660.919	82.38
661.123	81.38
661.326	73.38
661.53	76.38
661.733	90.38
661.936	90.38
662.14	91.38
662.343	81.38
662.546	66.38
662.75	70.38
662.953	77.38
663.156	90.38
663.36	78.38
663.563	90.38
663.766	91.38
663.969	90.38
664.173	81.38
664.376	77.38
664.579	77.38
664.782	77.38
664.985	82.38
665.188	70.38
665.391	76.38
665.594	90.38
665.797	72.38
666	63.38
666.203	89.38
666.406	75.38
666.609	78.38
666.812	76.38
667.015	83.38
667.218	90.38
667.421	90.38
667.624	83.38
667.827	73.38
668.03	91.38
668.232	83.38
668.435	84.38
668.638	67.38
668.841	78.38
669.043	85.38
669.246	83.38
669.449	97.38
669.651	76.38
669.854	77.38
670.057	70.38
670.259	68.38
670.462	81.38
670.665	76.38
670.867	86.38
671.07	75.38
671.272	82.38
671.475	97.38
671.677	75.38
671.88	71.38
672.082	88.38
672.284	84.38
672.487	75.38
672.689	81.38
672.892	67.38
