Data from Location1.07152019.Energy5.Lamp.07192019.3%Agarose_HRD10591_14-31-42-016.txt Node
Date: Fri Jul 19 14:31:42 EDT 2019
User: cochatt
Spectrometer: HR+D1059
Trigger mode: 1
Integration Time (sec): 1.000000E-1
Scans to average: 1
Electric dark correction enabled: true
Nonlinearity correction enabled: false
Boxcar width: 0
XAxis mode: Wavelengths
Number of Pixels in Spectrum: 2048
>>>>>Begin Spectral Data<<<<<
223.165	-25.19
223.4	-25.19
223.635	-25.19
223.869	-18.19
224.104	-10.19
224.338	-12.19
224.573	-2.19
224.808	-11.19
225.042	-23.19
225.277	3.81
225.511	-5.19
225.746	11.81
225.98	12.81
226.215	-0.19
226.449	11.81
226.683	22.81
226.918	21.81
227.152	22.81
227.387	50.81
227.621	27.81
227.856	36.81
228.09	49.81
228.324	48.81
228.559	53.81
228.793	57.81
229.027	65.81
229.262	64.81
229.496	72.81
229.73	69.81
229.964	87.81
230.199	72.81
230.433	70.81
230.667	82.81
230.901	75.81
231.136	90.81
231.37	78.81
231.604	83.81
231.838	89.81
232.072	73.81
232.306	79.81
232.541	72.81
232.775	87.81
233.009	84.81
233.243	75.81
233.477	81.81
233.711	93.81
233.945	89.81
234.179	74.81
234.413	84.81
234.647	67.81
234.881	78.81
235.115	74.81
235.349	78.81
235.583	66.81
235.817	81.81
236.051	78.81
236.285	76.81
236.519	75.81
236.753	88.81
236.987	94.81
237.221	83.81
237.455	81.81
237.689	72.81
237.922	74.81
238.156	70.81
238.39	82.81
238.624	73.81
238.858	68.81
239.091	84.81
239.325	75.81
239.559	85.81
239.793	92.81
240.027	92.81
240.26	85.81
240.494	83.81
240.728	62.81
240.961	77.81
241.195	87.81
241.429	72.81
241.662	63.81
241.896	72.81
242.13	84.81
242.363	77.81
242.597	83.81
242.83	73.81
243.064	76.81
243.298	86.81
243.531	74.81
243.765	87.81
243.998	93.81
244.232	93.81
244.465	83.81
244.699	75.81
244.932	93.81
245.166	82.81
245.399	91.81
245.633	75.81
245.866	77.81
246.099	69.81
246.333	84.81
246.566	85.81
246.8	77.81
247.033	78.81
247.266	61.81
247.5	90.81
247.733	76.81
247.966	74.81
248.2	77.81
248.433	82.81
248.666	71.81
248.899	74.81
249.133	82.81
249.366	73.81
249.599	77.81
249.832	70.81
250.066	77.81
250.299	77.81
250.532	79.81
250.765	81.81
250.998	73.81
251.231	72.81
251.465	71.81
251.698	79.81
251.931	72.81
252.164	82.81
252.397	83.81
252.63	89.81
252.863	89.81
253.096	85.81
253.329	75.81
253.562	74.81
253.795	65.81
254.028	85.81
254.261	84.81
254.494	86.81
254.727	84.81
254.96	82.81
255.193	62.81
255.426	81.81
255.659	75.81
255.892	85.81
256.124	85.81
256.357	73.81
256.59	72.81
256.823	93.81
257.056	77.81
257.289	68.81
257.521	82.81
257.754	75.81
257.987	76.81
258.22	93.81
258.452	85.81
258.685	83.81
258.918	92.81
259.151	77.81
259.383	72.81
259.616	92.81
259.849	80.81
260.081	74.81
260.314	67.81
260.547	78.81
260.779	76.81
261.012	88.81
261.244	77.81
261.477	80.81
261.71	88.81
261.942	74.81
262.175	78.81
262.407	70.81
262.64	88.81
262.872	100.81
263.105	79.81
263.337	87.81
263.57	86.81
263.802	74.81
264.035	73.81
264.267	70.81
264.499	75.81
264.732	73.81
264.964	80.81
265.197	81.81
265.429	84.81
265.661	81.81
265.894	79.81
266.126	85.81
266.358	77.81
266.591	78.81
266.823	89.81
267.055	97.81
267.287	79.81
267.52	71.81
267.752	100.81
267.984	71.81
268.216	77.81
268.448	88.81
268.681	84.81
268.913	85.81
269.145	78.81
269.377	82.81
269.609	76.81
269.841	82.81
270.073	83.81
270.306	65.81
270.538	78.81
270.77	74.81
271.002	84.81
271.234	94.81
271.466	85.81
271.698	79.81
271.93	77.81
272.162	87.81
272.394	87.81
272.626	99.81
272.858	90.81
273.09	72.81
273.322	80.81
273.553	82.81
273.785	77.81
274.017	87.81
274.249	66.81
274.481	83.81
274.713	78.81
274.945	73.81
275.176	91.81
275.408	92.81
275.64	82.81
275.872	75.81
276.104	79.81
276.335	86.81
276.567	73.81
276.799	88.81
277.031	89.81
277.262	70.81
277.494	82.81
277.726	81.81
277.957	70.81
278.189	72.81
278.421	87.81
278.652	93.81
278.884	100.81
279.115	87.81
279.347	88.81
279.579	89.81
279.81	78.81
280.042	74.81
280.273	87.81
280.505	87.81
280.736	73.81
280.968	85.81
281.199	89.81
281.431	88.81
281.662	83.81
281.894	84.81
282.125	79.81
282.356	77.81
282.588	87.81
282.819	88.81
283.051	69.81
283.282	88.81
283.513	86.81
283.745	100.81
283.976	88.81
284.207	87.81
284.439	84.81
284.67	82.81
284.901	105.81
285.132	80.81
285.364	80.81
285.595	83.81
285.826	79.81
286.057	75.81
286.288	90.81
286.52	74.81
286.751	88.81
286.982	88.81
287.213	88.81
287.444	75.81
287.675	91.81
287.906	87.81
288.138	85.81
288.369	82.81
288.6	75.81
288.831	78.81
289.062	85.81
289.293	85.81
289.524	88.81
289.755	92.81
289.986	76.81
290.217	83.81
290.448	78.81
290.679	81.81
290.91	95.81
291.141	92.81
291.371	97.81
291.602	92.81
291.833	72.81
292.064	71.81
292.295	81.81
292.526	86.81
292.757	93.81
292.987	90.81
293.218	95.81
293.449	86.81
293.68	90.81
293.91	84.81
294.141	92.81
294.372	87.81
294.603	85.81
294.833	74.81
295.064	75.81
295.295	93.81
295.525	100.81
295.756	83.81
295.987	91.81
296.217	88.81
296.448	92.81
296.679	86.81
296.909	94.81
297.14	89.81
297.37	89.81
297.601	85.81
297.831	95.81
298.062	86.81
298.292	82.81
298.523	83.81
298.753	76.81
298.984	80.81
299.214	68.81
299.445	86.81
299.675	83.81
299.905	91.81
300.136	82.81
300.366	66.81
300.597	73.81
300.827	90.81
301.057	79.81
301.288	100.81
301.518	84.81
301.748	88.81
301.979	97.81
302.209	101.81
302.439	80.81
302.669	94.81
302.9	87.81
303.13	90.81
303.36	74.81
303.59	77.81
303.82	71.81
304.051	87.81
304.281	91.81
304.511	94.81
304.741	85.81
304.971	82.81
305.201	85.81
305.431	98.81
305.661	90.81
305.891	94.81
306.121	78.81
306.352	77.81
306.582	89.81
306.812	90.81
307.042	74.81
307.272	90.81
307.502	86.81
307.731	94.81
307.961	88.81
308.191	79.81
308.421	81.81
308.651	101.81
308.881	99.81
309.111	74.81
309.341	75.81
309.571	71.81
309.8	83.81
310.03	83.81
310.26	88.81
310.49	76.81
310.72	78.81
310.949	87.81
311.179	85.81
311.409	88.81
311.639	73.81
311.868	101.81
312.098	91.81
312.328	69.81
312.557	94.81
312.787	105.81
313.017	83.81
313.246	71.81
313.476	84.81
313.706	85.81
313.935	88.81
314.165	86.81
314.394	77.81
314.624	85.81
314.853	83.81
315.083	86.81
315.312	90.81
315.542	80.81
315.771	71.81
316.001	69.81
316.23	71.81
316.46	82.81
316.689	101.81
316.919	84.81
317.148	89.81
317.377	90.81
317.607	79.81
317.836	100.81
318.065	86.81
318.295	97.81
318.524	90.81
318.753	90.81
318.983	88.81
319.212	80.81
319.441	81.81
319.67	77.81
319.9	84.81
320.129	86.81
320.358	76.81
320.587	81.81
320.816	81.81
321.046	82.81
321.275	94.81
321.504	80.81
321.733	72.81
321.962	101.81
322.191	104.81
322.42	88.81
322.649	91.81
322.878	95.81
323.108	89.81
323.337	94.81
323.566	84.81
323.795	88.81
324.024	79.81
324.253	86.81
324.482	86.81
324.71	86.81
324.939	75.81
325.168	73.81
325.397	83.81
325.626	82.81
325.855	83.81
326.084	79.81
326.313	91.81
326.542	78.81
326.77	97.81
326.999	93.81
327.228	101.81
327.457	87.81
327.686	87.81
327.914	80.81
328.143	74.81
328.372	86.81
328.6	76.81
328.829	87.81
329.058	89.81
329.287	82.81
329.515	84.81
329.744	85.81
329.972	68.81
330.201	84.81
330.43	92.81
330.658	87.81
330.887	91.81
331.115	81.81
331.344	80.81
331.572	76.81
331.801	92.81
332.03	87.81
332.258	97.81
332.486	76.81
332.715	75.81
332.943	71.81
333.172	71.81
333.4	85.81
333.629	90.81
333.857	83.81
334.085	92.81
334.314	83.81
334.542	87.81
334.771	82.81
334.999	83.81
335.227	92.81
335.455	82.81
335.684	87.81
335.912	84.81
336.14	65.81
336.369	80.81
336.597	94.81
336.825	80.81
337.053	85.81
337.281	81.81
337.51	79.81
337.738	93.81
337.966	79.81
338.194	86.81
338.422	100.81
338.65	79.81
338.878	86.81
339.106	85.81
339.334	83.81
339.562	74.81
339.79	78.81
340.018	82.81
340.246	85.81
340.474	71.81
340.702	78.81
340.93	83.81
341.158	83.81
341.386	99.81
341.614	81.81
341.842	79.81
342.07	81.81
342.298	86.81
342.526	85.81
342.754	77.81
342.981	83.81
343.209	97.81
343.437	97.81
343.665	86.81
343.893	93.81
344.12	75.81
344.348	100.81
344.576	91.81
344.804	91.81
345.031	86.81
345.259	83.81
345.487	97.81
345.714	87.81
345.942	79.81
346.17	98.81
346.397	92.81
346.625	85.81
346.853	92.81
347.08	78.81
347.308	81.81
347.535	82.81
347.763	93.81
347.99	82.81
348.218	90.81
348.445	78.81
348.673	76.81
348.9	90.81
349.128	93.81
349.355	93.81
349.583	84.81
349.81	77.81
350.037	93.81
350.265	84.81
350.492	94.81
350.72	79.81
350.947	81.81
351.174	83.81
351.402	81.81
351.629	90.81
351.856	89.81
352.083	85.81
352.311	80.81
352.538	72.81
352.765	71.81
352.992	84.81
353.22	91.81
353.447	92.81
353.674	83.81
353.901	83.81
354.128	80.81
354.355	80.81
354.583	84.81
354.81	82.81
355.037	79.81
355.264	94.81
355.491	85.81
355.718	94.81
355.945	92.81
356.172	91.81
356.399	86.81
356.626	93.81
356.853	91.81
357.08	83.81
357.307	101.81
357.534	68.81
357.761	83.81
357.988	87.81
358.215	85.81
358.441	71.81
358.668	77.81
358.895	77.81
359.122	84.81
359.349	86.81
359.576	92.81
359.802	89.81
360.029	65.81
360.256	87.81
360.483	79.81
360.709	78.81
360.936	73.81
361.163	78.81
361.39	75.81
361.616	77.81
361.843	77.81
362.07	94.81
362.296	85.81
362.523	84.81
362.749	77.81
362.976	85.81
363.203	91.81
363.429	98.81
363.656	74.81
363.882	73.81
364.109	78.81
364.335	83.81
364.562	72.81
364.788	76.81
365.015	98.81
365.241	93.81
365.468	78.81
365.694	82.81
365.92	87.81
366.147	97.81
366.373	77.81
366.599	82.81
366.826	78.81
367.052	86.81
367.278	94.81
367.505	96.81
367.731	89.81
367.957	83.81
368.184	87.81
368.41	88.81
368.636	77.81
368.862	88.81
369.089	98.81
369.315	90.81
369.541	97.81
369.767	96.81
369.993	91.81
370.219	88.81
370.445	63.81
370.672	83.81
370.898	87.81
371.124	95.81
371.35	96.81
371.576	86.81
371.802	91.81
372.028	78.81
372.254	85.81
372.48	98.81
372.706	89.81
372.932	88.81
373.158	94.81
373.384	96.81
373.61	101.81
373.835	73.81
374.061	98.81
374.287	93.81
374.513	90.81
374.739	86.81
374.965	77.81
375.191	97.81
375.416	92.81
375.642	100.81
375.868	99.81
376.094	96.81
376.319	98.81
376.545	91.81
376.771	89.81
376.997	89.81
377.222	98.81
377.448	86.81
377.674	90.81
377.899	94.81
378.125	94.81
378.35	82.81
378.576	100.81
378.802	89.81
379.027	93.81
379.253	91.81
379.478	92.81
379.704	83.81
379.929	89.81
380.155	83.81
380.38	106.81
380.606	93.81
380.831	99.81
381.057	91.81
381.282	101.81
381.507	115.81
381.733	108.81
381.958	96.81
382.184	92.81
382.409	96.81
382.634	97.81
382.86	94.81
383.085	91.81
383.31	90.81
383.535	92.81
383.761	91.81
383.986	95.81
384.211	97.81
384.436	113.81
384.662	91.81
384.887	95.81
385.112	83.81
385.337	105.81
385.562	91.81
385.787	103.81
386.013	105.81
386.238	98.81
386.463	112.81
386.688	92.81
386.913	104.81
387.138	82.81
387.363	113.81
387.588	102.81
387.813	113.81
388.038	89.81
388.263	105.81
388.488	95.81
388.713	97.81
388.938	99.81
389.163	101.81
389.387	89.81
389.612	89.81
389.837	98.81
390.062	100.81
390.287	109.81
390.512	110.81
390.736	100.81
390.961	104.81
391.186	107.81
391.411	101.81
391.636	111.81
391.86	100.81
392.085	110.81
392.31	105.81
392.534	92.81
392.759	124.81
392.984	115.81
393.208	117.81
393.433	101.81
393.658	97.81
393.882	106.81
394.107	109.81
394.331	102.81
394.556	96.81
394.78	101.81
395.005	102.81
395.229	92.81
395.454	107.81
395.678	109.81
395.903	116.81
396.127	96.81
396.352	114.81
396.576	100.81
396.801	111.81
397.025	112.81
397.249	102.81
397.474	115.81
397.698	103.81
397.922	101.81
398.147	113.81
398.371	105.81
398.595	117.81
398.82	100.81
399.044	113.81
399.268	105.81
399.492	117.81
399.717	118.81
399.941	117.81
400.165	126.81
400.389	117.81
400.613	109.81
400.837	108.81
401.062	125.81
401.286	97.81
401.51	123.81
401.734	108.81
401.958	103.81
402.182	106.81
402.406	111.81
402.63	108.81
402.854	99.81
403.078	112.81
403.302	98.81
403.526	105.81
403.75	117.81
403.974	97.81
404.198	99.81
404.422	107.81
404.645	109.81
404.869	117.81
405.093	108.81
405.317	113.81
405.541	103.81
405.765	122.81
405.988	116.81
406.212	121.81
406.436	115.81
406.66	110.81
406.883	110.81
407.107	118.81
407.331	99.81
407.555	108.81
407.778	116.81
408.002	116.81
408.226	114.81
408.449	123.81
408.673	110.81
408.896	116.81
409.12	125.81
409.344	114.81
409.567	96.81
409.791	115.81
410.014	121.81
410.238	120.81
410.461	119.81
410.685	102.81
410.908	122.81
411.132	133.81
411.355	117.81
411.578	123.81
411.802	100.81
412.025	109.81
412.249	129.81
412.472	126.81
412.695	123.81
412.919	109.81
413.142	135.81
413.365	122.81
413.589	126.81
413.812	126.81
414.035	117.81
414.258	107.81
414.482	119.81
414.705	122.81
414.928	108.81
415.151	98.81
415.374	123.81
415.597	125.81
415.821	131.81
416.044	133.81
416.267	121.81
416.49	140.81
416.713	129.81
416.936	121.81
417.159	121.81
417.382	124.81
417.605	127.81
417.828	123.81
418.051	136.81
418.274	115.81
418.497	140.81
418.72	109.81
418.943	135.81
419.166	137.81
419.389	115.81
419.611	119.81
419.834	134.81
420.057	130.81
420.28	138.81
420.503	139.81
420.726	122.81
420.948	124.81
421.171	131.81
421.394	142.81
421.617	137.81
421.839	126.81
422.062	124.81
422.285	145.81
422.507	117.81
422.73	132.81
422.953	132.81
423.175	120.81
423.398	114.81
423.621	127.81
423.843	113.81
424.066	118.81
424.288	142.81
424.511	142.81
424.733	144.81
424.956	137.81
425.178	142.81
425.401	132.81
425.623	124.81
425.846	135.81
426.068	126.81
426.291	129.81
426.513	121.81
426.735	113.81
426.958	126.81
427.18	122.81
427.402	139.81
427.625	124.81
427.847	124.81
428.069	125.81
428.292	138.81
428.514	112.81
428.736	115.81
428.958	129.81
429.181	131.81
429.403	136.81
429.625	124.81
429.847	127.81
430.069	127.81
430.292	131.81
430.514	122.81
430.736	138.81
430.958	107.81
431.18	123.81
431.402	117.81
431.624	105.81
431.846	112.81
432.068	105.81
432.29	113.81
432.512	115.81
432.734	118.81
432.956	125.81
433.178	142.81
433.4	141.81
433.622	146.81
433.844	127.81
434.066	124.81
434.287	113.81
434.509	100.81
434.731	94.81
434.953	133.81
435.175	123.81
435.397	117.81
435.618	118.81
435.84	116.81
436.062	103.81
436.284	115.81
436.505	123.81
436.727	134.81
436.949	131.81
437.17	125.81
437.392	125.81
437.614	125.81
437.835	123.81
438.057	118.81
438.278	109.81
438.5	113.81
438.721	112.81
438.943	141.81
439.165	131.81
439.386	137.81
439.608	145.81
439.829	129.81
440.05	147.81
440.272	130.81
440.493	148.81
440.715	141.81
440.936	143.81
441.158	132.81
441.379	143.81
441.6	151.81
441.822	150.81
442.043	135.81
442.264	139.81
442.486	129.81
442.707	128.81
442.928	148.81
443.149	138.81
443.371	143.81
443.592	138.81
443.813	147.81
444.034	138.81
444.255	138.81
444.476	127.81
444.698	146.81
444.919	125.81
445.14	279.81
445.361	205.81
445.582	150.81
445.803	138.81
446.024	139.81
446.245	141.81
446.466	167.81
446.687	149.81
446.908	148.81
447.129	159.81
447.35	166.81
447.571	143.81
447.792	145.81
448.013	133.81
448.234	139.81
448.455	139.81
448.675	136.81
448.896	146.81
449.117	140.81
449.338	132.81
449.559	132.81
449.779	135.81
450	124.81
450.221	129.81
450.442	141.81
450.662	122.81
450.883	129.81
451.104	130.81
451.324	130.81
451.545	129.81
451.766	137.81
451.986	127.81
452.207	131.81
452.428	142.81
452.648	121.81
452.869	125.81
453.089	120.81
453.31	112.81
453.53	109.81
453.751	94.81
453.971	114.81
454.192	105.81
454.412	99.81
454.633	116.81
454.853	133.81
455.073	92.81
455.294	105.81
455.514	102.81
455.734	117.81
455.955	115.81
456.175	123.81
456.395	119.81
456.616	103.81
456.836	116.81
457.056	122.81
457.276	109.81
457.497	117.81
457.717	102.81
457.937	108.81
458.157	99.81
458.377	104.81
458.598	107.81
458.818	105.81
459.038	85.81
459.258	85.81
459.478	90.81
459.698	99.81
459.918	99.81
460.138	98.81
460.358	102.81
460.578	127.81
460.798	105.81
461.018	109.81
461.238	116.81
461.458	115.81
461.678	120.81
461.898	117.81
462.118	121.81
462.338	108.81
462.558	125.81
462.777	124.81
462.997	119.81
463.217	127.81
463.437	103.81
463.657	99.81
463.876	80.81
464.096	103.81
464.316	124.81
464.536	124.81
464.755	114.81
464.975	115.81
465.195	109.81
465.414	110.81
465.634	106.81
465.854	119.81
466.073	101.81
466.293	113.81
466.512	115.81
466.732	125.81
466.951	119.81
467.171	139.81
467.391	129.81
467.61	124.81
467.829	122.81
468.049	131.81
468.268	141.81
468.488	131.81
468.707	141.81
468.927	126.81
469.146	131.81
469.365	135.81
469.585	132.81
469.804	129.81
470.023	144.81
470.243	151.81
470.462	157.81
470.681	133.81
470.901	140.81
471.12	135.81
471.339	165.81
471.558	123.81
471.777	138.81
471.997	119.81
472.216	125.81
472.435	104.81
472.654	95.81
472.873	105.81
473.092	115.81
473.311	107.81
473.53	128.81
473.749	122.81
473.968	130.81
474.187	108.81
474.406	120.81
474.625	103.81
474.844	132.81
475.063	141.81
475.282	114.81
475.501	116.81
475.72	127.81
475.939	134.81
476.158	134.81
476.377	114.81
476.596	117.81
476.814	116.81
477.033	114.81
477.252	107.81
477.471	133.81
477.69	125.81
477.908	137.81
478.127	141.81
478.346	152.81
478.564	139.81
478.783	130.81
479.002	128.81
479.22	126.81
479.439	124.81
479.658	121.81
479.876	109.81
480.095	127.81
480.313	111.81
480.532	113.81
480.751	108.81
480.969	103.81
481.188	100.81
481.406	86.81
481.624	88.81
481.843	85.81
482.061	108.81
482.28	107.81
482.498	119.81
482.717	107.81
482.935	120.81
483.153	138.81
483.372	152.81
483.59	134.81
483.808	122.81
484.027	125.81
484.245	124.81
484.463	130.81
484.681	155.81
484.9	141.81
485.118	129.81
485.336	124.81
485.554	115.81
485.772	90.81
485.99	108.81
486.209	94.81
486.427	114.81
486.645	105.81
486.863	125.81
487.081	144.81
487.299	141.81
487.517	137.81
487.735	169.81
487.953	192.81
488.171	190.81
488.389	181.81
488.607	159.81
488.825	137.81
489.043	111.81
489.261	130.81
489.479	132.81
489.696	137.81
489.914	124.81
490.132	133.81
490.35	146.81
490.568	162.81
490.786	167.81
491.003	181.81
491.221	185.81
491.439	194.81
491.657	210.81
491.874	172.81
492.092	212.81
492.31	234.81
492.527	226.81
492.745	206.81
492.963	181.81
493.18	190.81
493.398	173.81
493.615	172.81
493.833	182.81
494.05	181.81
494.268	182.81
494.485	185.81
494.703	167.81
494.92	164.81
495.138	164.81
495.355	154.81
495.573	169.81
495.79	172.81
496.008	178.81
496.225	183.81
496.442	162.81
496.66	178.81
496.877	173.81
497.094	149.81
497.312	159.81
497.529	161.81
497.746	128.81
497.963	133.81
498.181	125.81
498.398	118.81
498.615	126.81
498.832	116.81
499.049	123.81
499.267	131.81
499.484	108.81
499.701	142.81
499.918	129.81
500.135	137.81
500.352	148.81
500.569	139.81
500.786	131.81
501.003	158.81
501.22	145.81
501.437	126.81
501.654	143.81
501.871	146.81
502.088	137.81
502.305	128.81
502.522	119.81
502.739	107.81
502.956	123.81
503.172	128.81
503.389	123.81
503.606	119.81
503.823	114.81
504.04	118.81
504.256	126.81
504.473	120.81
504.69	117.81
504.907	122.81
505.123	129.81
505.34	125.81
505.557	125.81
505.773	124.81
505.99	119.81
506.207	127.81
506.423	117.81
506.64	119.81
506.856	139.81
507.073	124.81
507.289	122.81
507.506	131.81
507.722	128.81
507.939	124.81
508.155	118.81
508.372	103.81
508.588	103.81
508.805	109.81
509.021	99.81
509.238	110.81
509.454	94.81
509.67	105.81
509.887	99.81
510.103	94.81
510.319	89.81
510.536	109.81
510.752	80.81
510.968	97.81
511.184	92.81
511.401	85.81
511.617	100.81
511.833	78.81
512.049	100.81
512.265	93.81
512.481	91.81
512.698	89.81
512.914	95.81
513.13	93.81
513.346	94.81
513.562	83.81
513.778	73.81
513.994	73.81
514.21	100.81
514.426	104.81
514.642	98.81
514.858	91.81
515.074	82.81
515.29	86.81
515.506	90.81
515.721	80.81
515.937	90.81
516.153	86.81
516.369	91.81
516.585	85.81
516.801	82.81
517.016	89.81
517.232	76.81
517.448	86.81
517.664	95.81
517.879	97.81
518.095	100.81
518.311	89.81
518.527	79.81
518.742	94.81
518.958	99.81
519.173	107.81
519.389	118.81
519.605	111.81
519.82	115.81
520.036	104.81
520.251	98.81
520.467	102.81
520.682	94.81
520.898	93.81
521.113	105.81
521.329	96.81
521.544	94.81
521.76	89.81
521.975	85.81
522.19	106.81
522.406	96.81
522.621	113.81
522.836	104.81
523.052	106.81
523.267	115.81
523.482	104.81
523.698	129.81
523.913	105.81
524.128	110.81
524.343	108.81
524.559	109.81
524.774	107.81
524.989	122.81
525.204	119.81
525.419	118.81
525.634	102.81
525.849	111.81
526.064	104.81
526.28	95.81
526.495	90.81
526.71	79.81
526.925	71.81
527.14	83.81
527.355	88.81
527.57	86.81
527.785	101.81
527.999	77.81
528.214	102.81
528.429	97.81
528.644	125.81
528.859	140.81
529.074	136.81
529.289	149.81
529.503	143.81
529.718	141.81
529.933	104.81
530.148	121.81
530.363	103.81
530.577	89.81
530.792	85.81
531.007	83.81
531.221	96.81
531.436	82.81
531.651	76.81
531.865	83.81
532.08	83.81
532.295	78.81
532.509	71.81
532.724	77.81
532.938	73.81
533.153	96.81
533.367	109.81
533.582	117.81
533.796	105.81
534.011	124.81
534.225	99.81
534.44	86.81
534.654	98.81
534.868	92.81
535.083	96.81
535.297	90.81
535.511	94.81
535.726	108.81
535.94	105.81
536.154	91.81
536.369	99.81
536.583	81.81
536.797	80.81
537.011	77.81
537.225	83.81
537.44	103.81
537.654	87.81
537.868	84.81
538.082	97.81
538.296	98.81
538.51	100.81
538.724	116.81
538.938	133.81
539.153	125.81
539.367	135.81
539.581	108.81
539.795	99.81
540.009	93.81
540.222	114.81
540.436	96.81
540.65	122.81
540.864	121.81
541.078	121.81
541.292	149.81
541.506	147.81
541.72	176.81
541.934	191.81
542.147	193.81
542.361	178.81
542.575	155.81
542.789	158.81
543.002	130.81
543.216	143.81
543.43	134.81
543.644	115.81
543.857	139.81
544.071	169.81
544.285	163.81
544.498	172.81
544.712	157.81
544.925	150.81
545.139	161.81
545.352	161.81
545.566	144.81
545.779	156.81
545.993	166.81
546.206	143.81
546.42	168.81
546.633	155.81
546.847	164.81
547.06	166.81
547.274	157.81
547.487	172.81
547.7	186.81
547.914	169.81
548.127	161.81
548.34	159.81
548.554	158.81
548.767	158.81
548.98	154.81
549.193	167.81
549.407	154.81
549.62	133.81
549.833	139.81
550.046	142.81
550.259	155.81
550.473	153.81
550.686	155.81
550.899	140.81
551.112	138.81
551.325	153.81
551.538	131.81
551.751	117.81
551.964	121.81
552.177	118.81
552.39	132.81
552.603	138.81
552.816	154.81
553.029	172.81
553.242	145.81
553.455	163.81
553.667	151.81
553.88	143.81
554.093	143.81
554.306	134.81
554.519	140.81
554.732	146.81
554.944	151.81
555.157	138.81
555.37	127.81
555.583	126.81
555.795	133.81
556.008	141.81
556.221	133.81
556.433	146.81
556.646	131.81
556.859	126.81
557.071	125.81
557.284	147.81
557.496	127.81
557.709	119.81
557.921	134.81
558.134	127.81
558.346	130.81
558.559	151.81
558.771	120.81
558.984	133.81
559.196	133.81
559.409	139.81
559.621	131.81
559.833	126.81
560.046	114.81
560.258	130.81
560.47	144.81
560.683	122.81
560.895	123.81
561.107	121.81
561.32	123.81
561.532	123.81
561.744	125.81
561.956	124.81
562.168	114.81
562.381	124.81
562.593	124.81
562.805	140.81
563.017	123.81
563.229	119.81
563.441	122.81
563.653	124.81
563.865	120.81
564.077	117.81
564.289	100.81
564.501	131.81
564.713	133.81
564.925	124.81
565.137	123.81
565.349	122.81
565.561	121.81
565.773	117.81
565.985	113.81
566.197	106.81
566.408	109.81
566.62	102.81
566.832	121.81
567.044	118.81
567.255	118.81
567.467	110.81
567.679	95.81
567.891	100.81
568.102	101.81
568.314	95.81
568.526	97.81
568.737	93.81
568.949	98.81
569.161	91.81
569.372	81.81
569.584	78.81
569.795	74.81
570.007	89.81
570.218	84.81
570.43	93.81
570.641	87.81
570.853	97.81
571.064	98.81
571.276	91.81
571.487	101.81
571.698	108.81
571.91	114.81
572.121	103.81
572.333	92.81
572.544	106.81
572.755	93.81
572.966	92.81
573.178	89.81
573.389	90.81
573.6	85.81
573.811	89.81
574.023	86.81
574.234	91.81
574.445	99.81
574.656	92.81
574.867	95.81
575.078	86.81
575.289	96.81
575.501	105.81
575.712	103.81
575.923	92.81
576.134	103.81
576.345	92.81
576.556	87.81
576.767	94.81
576.978	100.81
577.188	106.81
577.399	90.81
577.61	88.81
577.821	87.81
578.032	102.81
578.243	87.81
578.454	105.81
578.665	97.81
578.875	67.81
579.086	95.81
579.297	73.81
579.508	96.81
579.718	80.81
579.929	91.81
580.14	88.81
580.35	90.81
580.561	94.81
580.772	94.81
580.982	91.81
581.193	82.81
581.403	87.81
581.614	80.81
581.825	90.81
582.035	87.81
582.246	94.81
582.456	80.81
582.667	87.81
582.877	92.81
583.087	101.81
583.298	86.81
583.508	100.81
583.719	93.81
583.929	98.81
584.139	85.81
584.35	84.81
584.56	88.81
584.77	85.81
584.981	89.81
585.191	82.81
585.401	76.81
585.611	91.81
585.821	95.81
586.032	78.81
586.242	76.81
586.452	85.81
586.662	88.81
586.872	85.81
587.082	83.81
587.292	61.81
587.502	83.81
587.713	88.81
587.923	86.81
588.133	81.81
588.343	87.81
588.553	80.81
588.762	89.81
588.972	86.81
589.182	83.81
589.392	80.81
589.602	77.81
589.812	86.81
590.022	100.81
590.232	78.81
590.441	86.81
590.651	87.81
590.861	76.81
591.071	82.81
591.281	95.81
591.49	79.81
591.7	105.81
591.91	96.81
592.119	81.81
592.329	91.81
592.539	84.81
592.748	85.81
592.958	100.81
593.167	81.81
593.377	94.81
593.587	90.81
593.796	83.81
594.006	84.81
594.215	84.81
594.424	90.81
594.634	81.81
594.843	86.81
595.053	98.81
595.262	84.81
595.472	84.81
595.681	84.81
595.89	98.81
596.1	79.81
596.309	90.81
596.518	91.81
596.727	105.81
596.937	83.81
597.146	93.81
597.355	101.81
597.564	99.81
597.774	93.81
597.983	93.81
598.192	105.81
598.401	90.81
598.61	86.81
598.819	81.81
599.028	100.81
599.237	88.81
599.446	94.81
599.655	94.81
599.864	94.81
600.073	102.81
600.282	85.81
600.491	89.81
600.7	84.81
600.909	111.81
601.118	90.81
601.327	103.81
601.536	101.81
601.745	100.81
601.953	114.81
602.162	119.81
602.371	103.81
602.58	101.81
602.789	102.81
602.997	87.81
603.206	101.81
603.415	112.81
603.623	103.81
603.832	106.81
604.041	116.81
604.249	107.81
604.458	95.81
604.666	101.81
604.875	96.81
605.084	95.81
605.292	106.81
605.501	116.81
605.709	127.81
605.918	94.81
606.126	117.81
606.334	115.81
606.543	108.81
606.751	106.81
606.96	119.81
607.168	110.81
607.376	96.81
607.585	117.81
607.793	105.81
608.001	115.81
608.21	125.81
608.418	113.81
608.626	117.81
608.834	127.81
609.043	114.81
609.251	117.81
609.459	121.81
609.667	120.81
609.875	120.81
610.083	106.81
610.291	106.81
610.499	119.81
610.707	108.81
610.916	109.81
611.124	134.81
611.332	126.81
611.54	117.81
611.748	106.81
611.955	115.81
612.163	108.81
612.371	121.81
612.579	117.81
612.787	102.81
612.995	116.81
613.203	95.81
613.411	118.81
613.618	111.81
613.826	106.81
614.034	108.81
614.242	109.81
614.449	103.81
614.657	117.81
614.865	118.81
615.072	87.81
615.28	113.81
615.488	113.81
615.695	113.81
615.903	104.81
616.111	105.81
616.318	116.81
616.526	109.81
616.733	103.81
616.941	122.81
617.148	109.81
617.356	103.81
617.563	115.81
617.771	107.81
617.978	123.81
618.185	93.81
618.393	99.81
618.6	119.81
618.807	109.81
619.015	115.81
619.222	113.81
619.429	117.81
619.637	100.81
619.844	120.81
620.051	92.81
620.258	99.81
620.466	107.81
620.673	109.81
620.88	110.81
621.087	98.81
621.294	98.81
621.501	105.81
621.708	112.81
621.915	107.81
622.122	98.81
622.329	109.81
622.536	101.81
622.743	113.81
622.95	111.81
623.157	106.81
623.364	101.81
623.571	114.81
623.778	101.81
623.985	104.81
624.192	112.81
624.399	101.81
624.606	109.81
624.812	91.81
625.019	100.81
625.226	116.81
625.433	115.81
625.639	105.81
625.846	101.81
626.053	99.81
626.259	85.81
626.466	90.81
626.673	102.81
626.879	93.81
627.086	98.81
627.293	105.81
627.499	102.81
627.706	99.81
627.912	108.81
628.119	103.81
628.325	107.81
628.532	105.81
628.738	102.81
628.945	85.81
629.151	104.81
629.357	102.81
629.564	97.81
629.77	105.81
629.976	107.81
630.183	92.81
630.389	100.81
630.595	104.81
630.802	111.81
631.008	107.81
631.214	98.81
631.42	84.81
631.627	92.81
631.833	109.81
632.039	111.81
632.245	90.81
632.451	113.81
632.657	99.81
632.863	91.81
633.069	103.81
633.275	98.81
633.481	100.81
633.688	104.81
633.893	93.81
634.099	101.81
634.305	91.81
634.511	104.81
634.717	113.81
634.923	94.81
635.129	93.81
635.335	88.81
635.541	86.81
635.747	97.81
635.952	92.81
636.158	92.81
636.364	98.81
636.57	96.81
636.775	93.81
636.981	100.81
637.187	97.81
637.392	106.81
637.598	116.81
637.804	112.81
638.009	114.81
638.215	99.81
638.421	102.81
638.626	100.81
638.832	103.81
639.037	97.81
639.243	94.81
639.448	103.81
639.654	96.81
639.859	94.81
640.065	109.81
640.27	88.81
640.475	104.81
640.681	102.81
640.886	97.81
641.091	108.81
641.297	98.81
641.502	90.81
641.707	92.81
641.913	105.81
642.118	101.81
642.323	99.81
642.528	108.81
642.733	89.81
642.939	97.81
643.144	107.81
643.349	107.81
643.554	98.81
643.759	105.81
643.964	100.81
644.169	99.81
644.374	87.81
644.579	98.81
644.784	88.81
644.989	103.81
645.194	93.81
645.399	108.81
645.604	93.81
645.809	100.81
646.014	94.81
646.219	100.81
646.423	105.81
646.628	89.81
646.833	98.81
647.038	100.81
647.243	103.81
647.447	97.81
647.652	104.81
647.857	90.81
648.062	101.81
648.266	110.81
648.471	100.81
648.676	106.81
648.88	113.81
649.085	96.81
649.289	81.81
649.494	85.81
649.698	93.81
649.903	98.81
650.107	99.81
650.312	102.81
650.516	97.81
650.721	73.81
650.925	96.81
651.13	87.81
651.334	86.81
651.539	102.81
651.743	100.81
651.947	96.81
652.152	109.81
652.356	84.81
652.56	88.81
652.764	95.81
652.969	103.81
653.173	100.81
653.377	101.81
653.581	91.81
653.785	94.81
653.99	97.81
654.194	88.81
654.398	84.81
654.602	79.81
654.806	101.81
655.01	93.81
655.214	83.81
655.418	95.81
655.622	90.81
655.826	87.81
656.03	105.81
656.234	90.81
656.438	87.81
656.642	91.81
656.846	94.81
657.049	86.81
657.253	90.81
657.457	89.81
657.661	86.81
657.865	97.81
658.068	84.81
658.272	96.81
658.476	87.81
658.68	88.81
658.883	77.81
659.087	70.81
659.291	99.81
659.494	83.81
659.698	74.81
659.901	83.81
660.105	86.81
660.309	74.81
660.512	86.81
660.716	74.81
660.919	78.81
661.123	95.81
661.326	88.81
661.53	104.81
661.733	92.81
661.936	75.81
662.14	73.81
662.343	82.81
662.546	73.81
662.75	91.81
662.953	99.81
663.156	85.81
663.36	93.81
663.563	77.81
663.766	83.81
663.969	82.81
664.173	100.81
664.376	86.81
664.579	76.81
664.782	74.81
664.985	70.81
665.188	86.81
665.391	69.81
665.594	91.81
665.797	98.81
666	88.81
666.203	82.81
666.406	78.81
666.609	74.81
666.812	75.81
667.015	84.81
667.218	98.81
667.421	75.81
667.624	77.81
667.827	72.81
668.03	76.81
668.232	67.81
668.435	81.81
668.638	77.81
668.841	77.81
669.043	76.81
669.246	78.81
669.449	74.81
669.651	82.81
669.854	68.81
670.057	79.81
670.259	86.81
670.462	81.81
670.665	78.81
670.867	83.81
671.07	78.81
671.272	75.81
671.475	78.81
671.677	78.81
671.88	79.81
672.082	77.81
672.284	93.81
672.487	79.81
672.689	87.81
672.892	84.81
