Data from Location1.07152019.Energy5.Lamp.07192019.3%Agarose_HRD10591_14-30-32-015.txt Node
Date: Fri Jul 19 14:30:32 EDT 2019
User: cochatt
Spectrometer: HR+D1059
Trigger mode: 1
Integration Time (sec): 1.000000E-1
Scans to average: 1
Electric dark correction enabled: true
Nonlinearity correction enabled: false
Boxcar width: 0
XAxis mode: Wavelengths
Number of Pixels in Spectrum: 2048
>>>>>Begin Spectral Data<<<<<
223.165	-16.94
223.4	-16.94
223.635	-16.94
223.869	-9.94
224.104	-10.94
224.338	-22.94
224.573	-14.94
224.808	-20.94
225.042	-9.94
225.277	-2.94
225.511	-1.94
225.746	10.06
225.98	14.06
226.215	7.06
226.449	9.06
226.683	28.06
226.918	17.06
227.152	26.06
227.387	42.06
227.621	46.06
227.856	40.06
228.09	48.06
228.324	59.06
228.559	46.06
228.793	51.06
229.027	59.06
229.262	65.06
229.496	57.06
229.73	72.06
229.964	59.06
230.199	59.06
230.433	71.06
230.667	78.06
230.901	85.06
231.136	83.06
231.37	85.06
231.604	80.06
231.838	72.06
232.072	94.06
232.306	79.06
232.541	71.06
232.775	74.06
233.009	81.06
233.243	83.06
233.477	74.06
233.711	88.06
233.945	87.06
234.179	89.06
234.413	93.06
234.647	78.06
234.881	88.06
235.115	80.06
235.349	81.06
235.583	81.06
235.817	77.06
236.051	81.06
236.285	74.06
236.519	84.06
236.753	92.06
236.987	78.06
237.221	73.06
237.455	70.06
237.689	77.06
237.922	85.06
238.156	69.06
238.39	61.06
238.624	88.06
238.858	75.06
239.091	70.06
239.325	81.06
239.559	91.06
239.793	78.06
240.027	71.06
240.26	80.06
240.494	73.06
240.728	88.06
240.961	80.06
241.195	77.06
241.429	79.06
241.662	73.06
241.896	68.06
242.13	71.06
242.363	82.06
242.597	72.06
242.83	72.06
243.064	71.06
243.298	79.06
243.531	81.06
243.765	80.06
243.998	93.06
244.232	106.06
244.465	80.06
244.699	67.06
244.932	75.06
245.166	78.06
245.399	80.06
245.633	87.06
245.866	84.06
246.099	76.06
246.333	94.06
246.566	78.06
246.8	80.06
247.033	76.06
247.266	76.06
247.5	85.06
247.733	82.06
247.966	60.06
248.2	86.06
248.433	84.06
248.666	80.06
248.899	71.06
249.133	67.06
249.366	70.06
249.599	91.06
249.832	64.06
250.066	93.06
250.299	78.06
250.532	91.06
250.765	73.06
250.998	85.06
251.231	78.06
251.465	73.06
251.698	76.06
251.931	75.06
252.164	88.06
252.397	82.06
252.63	83.06
252.863	78.06
253.096	82.06
253.329	76.06
253.562	90.06
253.795	78.06
254.028	78.06
254.261	92.06
254.494	82.06
254.727	68.06
254.96	83.06
255.193	72.06
255.426	80.06
255.659	99.06
255.892	91.06
256.124	84.06
256.357	91.06
256.59	74.06
256.823	79.06
257.056	74.06
257.289	73.06
257.521	82.06
257.754	88.06
257.987	71.06
258.22	84.06
258.452	83.06
258.685	84.06
258.918	77.06
259.151	79.06
259.383	81.06
259.616	90.06
259.849	89.06
260.081	84.06
260.314	100.06
260.547	82.06
260.779	77.06
261.012	80.06
261.244	91.06
261.477	96.06
261.71	79.06
261.942	77.06
262.175	80.06
262.407	87.06
262.64	85.06
262.872	81.06
263.105	71.06
263.337	82.06
263.57	86.06
263.802	83.06
264.035	79.06
264.267	78.06
264.499	75.06
264.732	93.06
264.964	77.06
265.197	87.06
265.429	87.06
265.661	79.06
265.894	76.06
266.126	75.06
266.358	77.06
266.591	79.06
266.823	82.06
267.055	72.06
267.287	100.06
267.52	100.06
267.752	90.06
267.984	79.06
268.216	83.06
268.448	86.06
268.681	89.06
268.913	90.06
269.145	79.06
269.377	83.06
269.609	81.06
269.841	82.06
270.073	74.06
270.306	92.06
270.538	81.06
270.77	78.06
271.002	81.06
271.234	80.06
271.466	95.06
271.698	87.06
271.93	90.06
272.162	78.06
272.394	83.06
272.626	83.06
272.858	93.06
273.09	92.06
273.322	78.06
273.553	88.06
273.785	94.06
274.017	71.06
274.249	99.06
274.481	95.06
274.713	78.06
274.945	81.06
275.176	92.06
275.408	76.06
275.64	86.06
275.872	85.06
276.104	88.06
276.335	84.06
276.567	72.06
276.799	71.06
277.031	91.06
277.262	80.06
277.494	89.06
277.726	96.06
277.957	71.06
278.189	83.06
278.421	89.06
278.652	87.06
278.884	81.06
279.115	84.06
279.347	78.06
279.579	80.06
279.81	85.06
280.042	87.06
280.273	91.06
280.505	79.06
280.736	77.06
280.968	78.06
281.199	88.06
281.431	97.06
281.662	91.06
281.894	76.06
282.125	84.06
282.356	85.06
282.588	86.06
282.819	84.06
283.051	81.06
283.282	76.06
283.513	90.06
283.745	89.06
283.976	92.06
284.207	88.06
284.439	95.06
284.67	91.06
284.901	78.06
285.132	79.06
285.364	78.06
285.595	106.06
285.826	100.06
286.057	76.06
286.288	75.06
286.52	78.06
286.751	77.06
286.982	72.06
287.213	92.06
287.444	94.06
287.675	76.06
287.906	83.06
288.138	82.06
288.369	81.06
288.6	97.06
288.831	87.06
289.062	83.06
289.293	78.06
289.524	89.06
289.755	94.06
289.986	92.06
290.217	76.06
290.448	96.06
290.679	78.06
290.91	87.06
291.141	80.06
291.371	64.06
291.602	84.06
291.833	93.06
292.064	91.06
292.295	92.06
292.526	76.06
292.757	85.06
292.987	98.06
293.218	83.06
293.449	82.06
293.68	85.06
293.91	86.06
294.141	91.06
294.372	95.06
294.603	101.06
294.833	85.06
295.064	80.06
295.295	83.06
295.525	83.06
295.756	75.06
295.987	93.06
296.217	78.06
296.448	93.06
296.679	85.06
296.909	85.06
297.14	87.06
297.37	85.06
297.601	84.06
297.831	90.06
298.062	78.06
298.292	89.06
298.523	87.06
298.753	85.06
298.984	81.06
299.214	85.06
299.445	75.06
299.675	95.06
299.905	87.06
300.136	87.06
300.366	86.06
300.597	84.06
300.827	80.06
301.057	89.06
301.288	91.06
301.518	94.06
301.748	93.06
301.979	88.06
302.209	95.06
302.439	89.06
302.669	96.06
302.9	90.06
303.13	90.06
303.36	82.06
303.59	97.06
303.82	84.06
304.051	88.06
304.281	85.06
304.511	89.06
304.741	81.06
304.971	82.06
305.201	77.06
305.431	89.06
305.661	69.06
305.891	92.06
306.121	88.06
306.352	92.06
306.582	88.06
306.812	84.06
307.042	92.06
307.272	98.06
307.502	86.06
307.731	61.06
307.961	82.06
308.191	88.06
308.421	87.06
308.651	80.06
308.881	87.06
309.111	85.06
309.341	83.06
309.571	82.06
309.8	72.06
310.03	93.06
310.26	84.06
310.49	88.06
310.72	106.06
310.949	86.06
311.179	81.06
311.409	75.06
311.639	82.06
311.868	102.06
312.098	84.06
312.328	78.06
312.557	92.06
312.787	88.06
313.017	84.06
313.246	87.06
313.476	79.06
313.706	87.06
313.935	86.06
314.165	90.06
314.394	70.06
314.624	79.06
314.853	76.06
315.083	80.06
315.312	90.06
315.542	83.06
315.771	83.06
316.001	87.06
316.23	87.06
316.46	91.06
316.689	90.06
316.919	97.06
317.148	87.06
317.377	90.06
317.607	79.06
317.836	80.06
318.065	86.06
318.295	80.06
318.524	96.06
318.753	89.06
318.983	84.06
319.212	93.06
319.441	90.06
319.67	89.06
319.9	83.06
320.129	85.06
320.358	77.06
320.587	89.06
320.816	80.06
321.046	78.06
321.275	86.06
321.504	78.06
321.733	90.06
321.962	75.06
322.191	79.06
322.42	93.06
322.649	105.06
322.878	96.06
323.108	95.06
323.337	73.06
323.566	76.06
323.795	91.06
324.024	93.06
324.253	87.06
324.482	76.06
324.71	79.06
324.939	84.06
325.168	96.06
325.397	93.06
325.626	96.06
325.855	84.06
326.084	95.06
326.313	81.06
326.542	78.06
326.77	85.06
326.999	91.06
327.228	91.06
327.457	87.06
327.686	74.06
327.914	92.06
328.143	92.06
328.372	88.06
328.6	92.06
328.829	79.06
329.058	81.06
329.287	89.06
329.515	95.06
329.744	91.06
329.972	94.06
330.201	78.06
330.43	93.06
330.658	73.06
330.887	102.06
331.115	76.06
331.344	88.06
331.572	70.06
331.801	78.06
332.03	78.06
332.258	77.06
332.486	92.06
332.715	87.06
332.943	80.06
333.172	96.06
333.4	81.06
333.629	82.06
333.857	78.06
334.085	88.06
334.314	87.06
334.542	81.06
334.771	105.06
334.999	88.06
335.227	81.06
335.455	91.06
335.684	87.06
335.912	92.06
336.14	79.06
336.369	85.06
336.597	78.06
336.825	86.06
337.053	77.06
337.281	88.06
337.51	84.06
337.738	93.06
337.966	108.06
338.194	100.06
338.422	81.06
338.65	87.06
338.878	80.06
339.106	71.06
339.334	79.06
339.562	89.06
339.79	75.06
340.018	91.06
340.246	82.06
340.474	91.06
340.702	78.06
340.93	72.06
341.158	81.06
341.386	88.06
341.614	74.06
341.842	59.06
342.07	75.06
342.298	86.06
342.526	84.06
342.754	101.06
342.981	81.06
343.209	88.06
343.437	90.06
343.665	93.06
343.893	86.06
344.12	91.06
344.348	74.06
344.576	78.06
344.804	80.06
345.031	92.06
345.259	102.06
345.487	88.06
345.714	81.06
345.942	91.06
346.17	76.06
346.397	91.06
346.625	87.06
346.853	100.06
347.08	83.06
347.308	75.06
347.535	73.06
347.763	78.06
347.99	91.06
348.218	76.06
348.445	79.06
348.673	88.06
348.9	84.06
349.128	76.06
349.355	86.06
349.583	90.06
349.81	80.06
350.037	84.06
350.265	87.06
350.492	76.06
350.72	78.06
350.947	78.06
351.174	84.06
351.402	88.06
351.629	93.06
351.856	90.06
352.083	94.06
352.311	85.06
352.538	80.06
352.765	79.06
352.992	88.06
353.22	81.06
353.447	89.06
353.674	85.06
353.901	90.06
354.128	91.06
354.355	79.06
354.583	89.06
354.81	82.06
355.037	64.06
355.264	77.06
355.491	92.06
355.718	77.06
355.945	87.06
356.172	96.06
356.399	83.06
356.626	78.06
356.853	84.06
357.08	80.06
357.307	84.06
357.534	94.06
357.761	90.06
357.988	78.06
358.215	65.06
358.441	82.06
358.668	81.06
358.895	85.06
359.122	94.06
359.349	73.06
359.576	89.06
359.802	91.06
360.029	83.06
360.256	81.06
360.483	87.06
360.709	86.06
360.936	73.06
361.163	88.06
361.39	88.06
361.616	70.06
361.843	83.06
362.07	94.06
362.296	93.06
362.523	97.06
362.749	80.06
362.976	69.06
363.203	94.06
363.429	92.06
363.656	95.06
363.882	75.06
364.109	84.06
364.335	70.06
364.562	91.06
364.788	80.06
365.015	78.06
365.241	95.06
365.468	85.06
365.694	71.06
365.92	84.06
366.147	92.06
366.373	90.06
366.599	88.06
366.826	82.06
367.052	95.06
367.278	83.06
367.505	89.06
367.731	68.06
367.957	81.06
368.184	91.06
368.41	77.06
368.636	95.06
368.862	82.06
369.089	81.06
369.315	90.06
369.541	85.06
369.767	81.06
369.993	104.06
370.219	100.06
370.445	95.06
370.672	89.06
370.898	92.06
371.124	86.06
371.35	89.06
371.576	91.06
371.802	87.06
372.028	113.06
372.254	98.06
372.48	95.06
372.706	94.06
372.932	91.06
373.158	81.06
373.384	98.06
373.61	98.06
373.835	104.06
374.061	82.06
374.287	92.06
374.513	93.06
374.739	105.06
374.965	97.06
375.191	107.06
375.416	99.06
375.642	95.06
375.868	104.06
376.094	95.06
376.319	91.06
376.545	78.06
376.771	73.06
376.997	79.06
377.222	97.06
377.448	88.06
377.674	91.06
377.899	101.06
378.125	84.06
378.35	91.06
378.576	86.06
378.802	87.06
379.027	96.06
379.253	94.06
379.478	108.06
379.704	99.06
379.929	100.06
380.155	97.06
380.38	93.06
380.606	101.06
380.831	84.06
381.057	92.06
381.282	104.06
381.507	79.06
381.733	101.06
381.958	99.06
382.184	96.06
382.409	106.06
382.634	92.06
382.86	92.06
383.085	99.06
383.31	102.06
383.535	94.06
383.761	92.06
383.986	107.06
384.211	98.06
384.436	97.06
384.662	97.06
384.887	91.06
385.112	107.06
385.337	96.06
385.562	106.06
385.787	90.06
386.013	103.06
386.238	94.06
386.463	86.06
386.688	88.06
386.913	94.06
387.138	95.06
387.363	82.06
387.588	81.06
387.813	103.06
388.038	103.06
388.263	109.06
388.488	88.06
388.713	96.06
388.938	88.06
389.163	98.06
389.387	111.06
389.612	107.06
389.837	103.06
390.062	91.06
390.287	104.06
390.512	93.06
390.736	98.06
390.961	101.06
391.186	107.06
391.411	97.06
391.636	92.06
391.86	100.06
392.085	101.06
392.31	103.06
392.534	111.06
392.759	106.06
392.984	112.06
393.208	103.06
393.433	106.06
393.658	109.06
393.882	103.06
394.107	93.06
394.331	112.06
394.556	108.06
394.78	91.06
395.005	99.06
395.229	98.06
395.454	106.06
395.678	103.06
395.903	110.06
396.127	113.06
396.352	101.06
396.576	116.06
396.801	86.06
397.025	101.06
397.249	112.06
397.474	101.06
397.698	115.06
397.922	97.06
398.147	117.06
398.371	108.06
398.595	111.06
398.82	118.06
399.044	110.06
399.268	99.06
399.492	105.06
399.717	122.06
399.941	120.06
400.165	110.06
400.389	113.06
400.613	115.06
400.837	119.06
401.062	107.06
401.286	125.06
401.51	112.06
401.734	104.06
401.958	110.06
402.182	98.06
402.406	107.06
402.63	118.06
402.854	107.06
403.078	116.06
403.302	112.06
403.526	115.06
403.75	126.06
403.974	123.06
404.198	116.06
404.422	117.06
404.645	110.06
404.869	122.06
405.093	125.06
405.317	124.06
405.541	112.06
405.765	95.06
405.988	121.06
406.212	124.06
406.436	121.06
406.66	124.06
406.883	116.06
407.107	112.06
407.331	112.06
407.555	122.06
407.778	122.06
408.002	116.06
408.226	112.06
408.449	113.06
408.673	124.06
408.896	107.06
409.12	120.06
409.344	125.06
409.567	120.06
409.791	120.06
410.014	127.06
410.238	143.06
410.461	119.06
410.685	125.06
410.908	108.06
411.132	126.06
411.355	112.06
411.578	116.06
411.802	107.06
412.025	113.06
412.249	113.06
412.472	100.06
412.695	118.06
412.919	131.06
413.142	109.06
413.365	120.06
413.589	117.06
413.812	115.06
414.035	128.06
414.258	118.06
414.482	127.06
414.705	113.06
414.928	129.06
415.151	115.06
415.374	107.06
415.597	129.06
415.821	132.06
416.044	127.06
416.267	127.06
416.49	129.06
416.713	125.06
416.936	121.06
417.159	116.06
417.382	121.06
417.605	128.06
417.828	134.06
418.051	129.06
418.274	129.06
418.497	123.06
418.72	140.06
418.943	152.06
419.166	135.06
419.389	135.06
419.611	129.06
419.834	144.06
420.057	127.06
420.28	126.06
420.503	136.06
420.726	118.06
420.948	125.06
421.171	145.06
421.394	133.06
421.617	127.06
421.839	126.06
422.062	141.06
422.285	126.06
422.507	138.06
422.73	129.06
422.953	120.06
423.175	114.06
423.398	141.06
423.621	130.06
423.843	121.06
424.066	129.06
424.288	143.06
424.511	129.06
424.733	153.06
424.956	145.06
425.178	133.06
425.401	143.06
425.623	140.06
425.846	135.06
426.068	130.06
426.291	135.06
426.513	121.06
426.735	128.06
426.958	134.06
427.18	131.06
427.402	139.06
427.625	146.06
427.847	127.06
428.069	127.06
428.292	139.06
428.514	129.06
428.736	127.06
428.958	129.06
429.181	131.06
429.403	127.06
429.625	135.06
429.847	136.06
430.069	130.06
430.292	131.06
430.514	126.06
430.736	117.06
430.958	144.06
431.18	124.06
431.402	134.06
431.624	109.06
431.846	108.06
432.068	90.06
432.29	93.06
432.512	96.06
432.734	117.06
432.956	126.06
433.178	142.06
433.4	143.06
433.622	132.06
433.844	131.06
434.066	117.06
434.287	108.06
434.509	108.06
434.731	104.06
434.953	116.06
435.175	118.06
435.397	123.06
435.618	125.06
435.84	118.06
436.062	121.06
436.284	119.06
436.505	129.06
436.727	122.06
436.949	130.06
437.17	127.06
437.392	120.06
437.614	126.06
437.835	108.06
438.057	113.06
438.278	121.06
438.5	127.06
438.721	124.06
438.943	141.06
439.165	134.06
439.386	126.06
439.608	140.06
439.829	137.06
440.05	142.06
440.272	149.06
440.493	144.06
440.715	145.06
440.936	153.06
441.158	147.06
441.379	142.06
441.6	135.06
441.822	151.06
442.043	136.06
442.264	132.06
442.486	123.06
442.707	123.06
442.928	140.06
443.149	143.06
443.371	133.06
443.592	141.06
443.813	120.06
444.034	131.06
444.255	127.06
444.476	134.06
444.698	142.06
444.919	143.06
445.14	266.06
445.361	209.06
445.582	145.06
445.803	149.06
446.024	148.06
446.245	142.06
446.466	147.06
446.687	135.06
446.908	143.06
447.129	160.06
447.35	163.06
447.571	146.06
447.792	141.06
448.013	133.06
448.234	151.06
448.455	146.06
448.675	144.06
448.896	141.06
449.117	125.06
449.338	131.06
449.559	137.06
449.779	143.06
450	124.06
450.221	131.06
450.442	133.06
450.662	120.06
450.883	143.06
451.104	135.06
451.324	128.06
451.545	143.06
451.766	127.06
451.986	128.06
452.207	124.06
452.428	136.06
452.648	120.06
452.869	116.06
453.089	113.06
453.31	112.06
453.53	121.06
453.751	115.06
453.971	115.06
454.192	113.06
454.412	119.06
454.633	123.06
454.853	120.06
455.073	105.06
455.294	109.06
455.514	127.06
455.734	128.06
455.955	115.06
456.175	113.06
456.395	95.06
456.616	118.06
456.836	96.06
457.056	116.06
457.276	100.06
457.497	97.06
457.717	112.06
457.937	107.06
458.157	109.06
458.377	116.06
458.598	94.06
458.818	91.06
459.038	87.06
459.258	89.06
459.478	91.06
459.698	93.06
459.918	97.06
460.138	105.06
460.358	102.06
460.578	129.06
460.798	120.06
461.018	109.06
461.238	127.06
461.458	126.06
461.678	109.06
461.898	107.06
462.118	124.06
462.338	115.06
462.558	111.06
462.777	106.06
462.997	115.06
463.217	106.06
463.437	107.06
463.657	121.06
463.876	101.06
464.096	104.06
464.316	111.06
464.536	119.06
464.755	117.06
464.975	117.06
465.195	120.06
465.414	116.06
465.634	97.06
465.854	112.06
466.073	121.06
466.293	129.06
466.512	134.06
466.732	120.06
466.951	146.06
467.171	132.06
467.391	127.06
467.61	134.06
467.829	118.06
468.049	134.06
468.268	134.06
468.488	129.06
468.707	133.06
468.927	118.06
469.146	137.06
469.365	151.06
469.585	123.06
469.804	130.06
470.023	149.06
470.243	127.06
470.462	133.06
470.681	141.06
470.901	142.06
471.12	134.06
471.339	132.06
471.558	140.06
471.777	128.06
471.997	137.06
472.216	134.06
472.435	116.06
472.654	118.06
472.873	111.06
473.092	123.06
473.311	119.06
473.53	127.06
473.749	122.06
473.968	121.06
474.187	106.06
474.406	123.06
474.625	122.06
474.844	132.06
475.063	120.06
475.282	119.06
475.501	117.06
475.72	127.06
475.939	128.06
476.158	141.06
476.377	143.06
476.596	110.06
476.814	112.06
477.033	97.06
477.252	123.06
477.471	110.06
477.69	125.06
477.908	143.06
478.127	149.06
478.346	125.06
478.564	123.06
478.783	142.06
479.002	137.06
479.22	139.06
479.439	157.06
479.658	116.06
479.876	118.06
480.095	100.06
480.313	126.06
480.532	115.06
480.751	96.06
480.969	99.06
481.188	95.06
481.406	84.06
481.624	93.06
481.843	84.06
482.061	90.06
482.28	104.06
482.498	111.06
482.717	104.06
482.935	111.06
483.153	142.06
483.372	157.06
483.59	145.06
483.808	130.06
484.027	131.06
484.245	127.06
484.463	156.06
484.681	164.06
484.9	148.06
485.118	137.06
485.336	119.06
485.554	103.06
485.772	78.06
485.99	104.06
486.209	104.06
486.427	124.06
486.645	122.06
486.863	127.06
487.081	130.06
487.299	128.06
487.517	144.06
487.735	175.06
487.953	183.06
488.171	182.06
488.389	169.06
488.607	156.06
488.825	144.06
489.043	124.06
489.261	111.06
489.479	142.06
489.696	129.06
489.914	133.06
490.132	142.06
490.35	159.06
490.568	148.06
490.786	172.06
491.003	189.06
491.221	187.06
491.439	167.06
491.657	179.06
491.874	181.06
492.092	219.06
492.31	240.06
492.527	226.06
492.745	199.06
492.963	177.06
493.18	192.06
493.398	180.06
493.615	179.06
493.833	156.06
494.05	166.06
494.268	183.06
494.485	171.06
494.703	170.06
494.92	167.06
495.138	174.06
495.355	162.06
495.573	177.06
495.79	165.06
496.008	175.06
496.225	167.06
496.442	171.06
496.66	175.06
496.877	151.06
497.094	168.06
497.312	172.06
497.529	148.06
497.746	148.06
497.963	135.06
498.181	131.06
498.398	115.06
498.615	110.06
498.832	120.06
499.049	121.06
499.267	131.06
499.484	129.06
499.701	127.06
499.918	136.06
500.135	129.06
500.352	163.06
500.569	149.06
500.786	138.06
501.003	134.06
501.22	141.06
501.437	144.06
501.654	136.06
501.871	131.06
502.088	146.06
502.305	138.06
502.522	149.06
502.739	135.06
502.956	132.06
503.172	128.06
503.389	117.06
503.606	118.06
503.823	118.06
504.04	118.06
504.256	124.06
504.473	128.06
504.69	121.06
504.907	129.06
505.123	133.06
505.34	126.06
505.557	120.06
505.773	133.06
505.99	121.06
506.207	125.06
506.423	110.06
506.64	100.06
506.856	120.06
507.073	117.06
507.289	127.06
507.506	132.06
507.722	114.06
507.939	116.06
508.155	116.06
508.372	119.06
508.588	101.06
508.805	112.06
509.021	97.06
509.238	102.06
509.454	103.06
509.67	109.06
509.887	106.06
510.103	102.06
510.319	88.06
510.536	92.06
510.752	70.06
510.968	99.06
511.184	75.06
511.401	79.06
511.617	81.06
511.833	77.06
512.049	101.06
512.265	98.06
512.481	101.06
512.698	108.06
512.914	93.06
513.13	108.06
513.346	89.06
513.562	91.06
513.778	93.06
513.994	105.06
514.21	90.06
514.426	80.06
514.642	96.06
514.858	106.06
515.074	97.06
515.29	81.06
515.506	97.06
515.721	88.06
515.937	90.06
516.153	99.06
516.369	86.06
516.585	85.06
516.801	105.06
517.016	100.06
517.232	77.06
517.448	96.06
517.664	90.06
517.879	111.06
518.095	105.06
518.311	88.06
518.527	93.06
518.742	89.06
518.958	95.06
519.173	117.06
519.389	129.06
519.605	114.06
519.82	109.06
520.036	99.06
520.251	109.06
520.467	104.06
520.682	107.06
520.898	98.06
521.113	89.06
521.329	97.06
521.544	90.06
521.76	95.06
521.975	105.06
522.19	94.06
522.406	97.06
522.621	113.06
522.836	93.06
523.052	111.06
523.267	117.06
523.482	95.06
523.698	127.06
523.913	121.06
524.128	118.06
524.343	111.06
524.559	127.06
524.774	133.06
524.989	107.06
525.204	119.06
525.419	105.06
525.634	129.06
525.849	103.06
526.064	116.06
526.28	109.06
526.495	100.06
526.71	91.06
526.925	100.06
527.14	92.06
527.355	80.06
527.57	86.06
527.785	86.06
527.999	98.06
528.214	108.06
528.429	115.06
528.644	121.06
528.859	141.06
529.074	152.06
529.289	171.06
529.503	144.06
529.718	141.06
529.933	126.06
530.148	95.06
530.363	98.06
530.577	93.06
530.792	81.06
531.007	102.06
531.221	85.06
531.436	102.06
531.651	97.06
531.865	83.06
532.08	82.06
532.295	98.06
532.509	88.06
532.724	91.06
532.938	91.06
533.153	107.06
533.367	102.06
533.582	105.06
533.796	126.06
534.011	121.06
534.225	107.06
534.44	106.06
534.654	103.06
534.868	101.06
535.083	94.06
535.297	94.06
535.511	109.06
535.726	112.06
535.94	124.06
536.154	98.06
536.369	95.06
536.583	73.06
536.797	80.06
537.011	85.06
537.225	99.06
537.44	81.06
537.654	92.06
537.868	79.06
538.082	90.06
538.296	104.06
538.51	99.06
538.724	116.06
538.938	115.06
539.153	129.06
539.367	119.06
539.581	112.06
539.795	95.06
540.009	92.06
540.222	109.06
540.436	104.06
540.65	118.06
540.864	116.06
541.078	155.06
541.292	167.06
541.506	168.06
541.72	186.06
541.934	187.06
542.147	192.06
542.361	185.06
542.575	149.06
542.789	148.06
543.002	126.06
543.216	132.06
543.43	116.06
543.644	132.06
543.857	135.06
544.071	155.06
544.285	158.06
544.498	164.06
544.712	153.06
544.925	131.06
545.139	168.06
545.352	165.06
545.566	138.06
545.779	150.06
545.993	162.06
546.206	182.06
546.42	168.06
546.633	152.06
546.847	150.06
547.06	160.06
547.274	166.06
547.487	170.06
547.7	182.06
547.914	162.06
548.127	174.06
548.34	155.06
548.554	164.06
548.767	155.06
548.98	162.06
549.193	154.06
549.407	153.06
549.62	153.06
549.833	159.06
550.046	161.06
550.259	156.06
550.473	141.06
550.686	158.06
550.899	148.06
551.112	152.06
551.325	147.06
551.538	136.06
551.751	131.06
551.964	127.06
552.177	128.06
552.39	147.06
552.603	138.06
552.816	157.06
553.029	140.06
553.242	166.06
553.455	152.06
553.667	160.06
553.88	155.06
554.093	148.06
554.306	151.06
554.519	139.06
554.732	143.06
554.944	144.06
555.157	155.06
555.37	142.06
555.583	142.06
555.795	153.06
556.008	137.06
556.221	129.06
556.433	143.06
556.646	137.06
556.859	131.06
557.071	141.06
557.284	146.06
557.496	128.06
557.709	129.06
557.921	134.06
558.134	146.06
558.346	141.06
558.559	129.06
558.771	142.06
558.984	137.06
559.196	140.06
559.409	145.06
559.621	115.06
559.833	121.06
560.046	135.06
560.258	140.06
560.47	134.06
560.683	124.06
560.895	135.06
561.107	126.06
561.32	140.06
561.532	127.06
561.744	131.06
561.956	115.06
562.168	137.06
562.381	122.06
562.593	131.06
562.805	123.06
563.017	128.06
563.229	137.06
563.441	119.06
563.653	131.06
563.865	131.06
564.077	116.06
564.289	125.06
564.501	117.06
564.713	143.06
564.925	129.06
565.137	126.06
565.349	125.06
565.561	107.06
565.773	97.06
565.985	108.06
566.197	121.06
566.408	97.06
566.62	111.06
566.832	99.06
567.044	128.06
567.255	117.06
567.467	103.06
567.679	111.06
567.891	113.06
568.102	97.06
568.314	96.06
568.526	97.06
568.737	99.06
568.949	94.06
569.161	85.06
569.372	71.06
569.584	96.06
569.795	98.06
570.007	93.06
570.218	88.06
570.43	94.06
570.641	81.06
570.853	94.06
571.064	99.06
571.276	107.06
571.487	124.06
571.698	103.06
571.91	115.06
572.121	99.06
572.333	107.06
572.544	105.06
572.755	91.06
572.966	97.06
573.178	87.06
573.389	93.06
573.6	102.06
573.811	91.06
574.023	108.06
574.234	88.06
574.445	84.06
574.656	85.06
574.867	88.06
575.078	99.06
575.289	105.06
575.501	95.06
575.712	94.06
575.923	95.06
576.134	95.06
576.345	95.06
576.556	107.06
576.767	97.06
576.978	107.06
577.188	104.06
577.399	104.06
577.61	93.06
577.821	92.06
578.032	98.06
578.243	100.06
578.454	88.06
578.665	81.06
578.875	73.06
579.086	89.06
579.297	80.06
579.508	94.06
579.718	91.06
579.929	89.06
580.14	96.06
580.35	77.06
580.561	72.06
580.772	97.06
580.982	94.06
581.193	90.06
581.403	90.06
581.614	89.06
581.825	110.06
582.035	87.06
582.246	84.06
582.456	95.06
582.667	87.06
582.877	84.06
583.087	93.06
583.298	82.06
583.508	89.06
583.719	84.06
583.929	81.06
584.139	86.06
584.35	94.06
584.56	90.06
584.77	97.06
584.981	74.06
585.191	96.06
585.401	93.06
585.611	82.06
585.821	69.06
586.032	87.06
586.242	77.06
586.452	76.06
586.662	77.06
586.872	77.06
587.082	68.06
587.292	105.06
587.502	73.06
587.713	76.06
587.923	93.06
588.133	73.06
588.343	104.06
588.553	94.06
588.762	103.06
588.972	79.06
589.182	93.06
589.392	85.06
589.602	93.06
589.812	102.06
590.022	92.06
590.232	75.06
590.441	85.06
590.651	85.06
590.861	90.06
591.071	76.06
591.281	85.06
591.49	78.06
591.7	78.06
591.91	74.06
592.119	88.06
592.329	88.06
592.539	104.06
592.748	96.06
592.958	87.06
593.167	95.06
593.377	92.06
593.587	88.06
593.796	87.06
594.006	89.06
594.215	79.06
594.424	104.06
594.634	91.06
594.843	94.06
595.053	106.06
595.262	90.06
595.472	88.06
595.681	87.06
595.89	97.06
596.1	79.06
596.309	97.06
596.518	97.06
596.727	93.06
596.937	92.06
597.146	89.06
597.355	118.06
597.564	92.06
597.774	96.06
597.983	97.06
598.192	86.06
598.401	85.06
598.61	97.06
598.819	77.06
599.028	89.06
599.237	88.06
599.446	99.06
599.655	93.06
599.864	84.06
600.073	98.06
600.282	94.06
600.491	83.06
600.7	95.06
600.909	104.06
601.118	102.06
601.327	102.06
601.536	116.06
601.745	109.06
601.953	111.06
602.162	122.06
602.371	105.06
602.58	106.06
602.789	107.06
602.997	99.06
603.206	108.06
603.415	120.06
603.623	119.06
603.832	122.06
604.041	101.06
604.249	110.06
604.458	105.06
604.666	86.06
604.875	108.06
605.084	92.06
605.292	110.06
605.501	108.06
605.709	110.06
605.918	116.06
606.126	109.06
606.334	120.06
606.543	108.06
606.751	110.06
606.96	115.06
607.168	111.06
607.376	99.06
607.585	111.06
607.793	123.06
608.001	104.06
608.21	114.06
608.418	104.06
608.626	123.06
608.834	133.06
609.043	108.06
609.251	109.06
609.459	118.06
609.667	116.06
609.875	111.06
610.083	123.06
610.291	111.06
610.499	96.06
610.707	121.06
610.916	127.06
611.124	109.06
611.332	108.06
611.54	109.06
611.748	112.06
611.955	96.06
612.163	125.06
612.371	129.06
612.579	111.06
612.787	115.06
612.995	109.06
613.203	108.06
613.411	105.06
613.618	115.06
613.826	92.06
614.034	114.06
614.242	104.06
614.449	115.06
614.657	111.06
614.865	112.06
615.072	95.06
615.28	104.06
615.488	107.06
615.695	111.06
615.903	99.06
616.111	110.06
616.318	100.06
616.526	119.06
616.733	112.06
616.941	110.06
617.148	123.06
617.356	108.06
617.563	104.06
617.771	121.06
617.978	110.06
618.185	117.06
618.393	106.06
618.6	101.06
618.807	115.06
619.015	107.06
619.222	117.06
619.429	118.06
619.637	123.06
619.844	83.06
620.051	110.06
620.258	107.06
620.466	113.06
620.673	115.06
620.88	108.06
621.087	110.06
621.294	115.06
621.501	118.06
621.708	100.06
621.915	102.06
622.122	124.06
622.329	107.06
622.536	105.06
622.743	95.06
622.95	112.06
623.157	101.06
623.364	108.06
623.571	113.06
623.778	119.06
623.985	89.06
624.192	100.06
624.399	115.06
624.606	102.06
624.812	104.06
625.019	116.06
625.226	105.06
625.433	109.06
625.639	99.06
625.846	87.06
626.053	84.06
626.259	97.06
626.466	94.06
626.673	82.06
626.879	102.06
627.086	93.06
627.293	99.06
627.499	113.06
627.706	118.06
627.912	104.06
628.119	104.06
628.325	99.06
628.532	109.06
628.738	103.06
628.945	108.06
629.151	105.06
629.357	108.06
629.564	110.06
629.77	104.06
629.976	100.06
630.183	100.06
630.389	95.06
630.595	106.06
630.802	109.06
631.008	122.06
631.214	115.06
631.42	127.06
631.627	106.06
631.833	87.06
632.039	93.06
632.245	95.06
632.451	99.06
632.657	94.06
632.863	99.06
633.069	105.06
633.275	122.06
633.481	110.06
633.688	101.06
633.893	112.06
634.099	90.06
634.305	95.06
634.511	112.06
634.717	107.06
634.923	97.06
635.129	100.06
635.335	107.06
635.541	91.06
635.747	88.06
635.952	116.06
636.158	116.06
636.364	114.06
636.57	99.06
636.775	98.06
636.981	97.06
637.187	121.06
637.392	92.06
637.598	110.06
637.804	99.06
638.009	112.06
638.215	93.06
638.421	105.06
638.626	104.06
638.832	107.06
639.037	109.06
639.243	102.06
639.448	97.06
639.654	98.06
639.859	92.06
640.065	98.06
640.27	104.06
640.475	85.06
640.681	94.06
640.886	104.06
641.091	100.06
641.297	102.06
641.502	109.06
641.707	110.06
641.913	104.06
642.118	85.06
642.323	103.06
642.528	101.06
642.733	111.06
642.939	108.06
643.144	96.06
643.349	100.06
643.554	99.06
643.759	103.06
643.964	95.06
644.169	110.06
644.374	89.06
644.579	90.06
644.784	96.06
644.989	81.06
645.194	95.06
645.399	101.06
645.604	108.06
645.809	98.06
646.014	104.06
646.219	92.06
646.423	84.06
646.628	101.06
646.833	103.06
647.038	96.06
647.243	105.06
647.447	93.06
647.652	119.06
647.857	97.06
648.062	105.06
648.266	99.06
648.471	86.06
648.676	89.06
648.88	103.06
649.085	111.06
649.289	95.06
649.494	102.06
649.698	98.06
649.903	100.06
650.107	100.06
650.312	88.06
650.516	95.06
650.721	95.06
650.925	99.06
651.13	95.06
651.334	95.06
651.539	94.06
651.743	91.06
651.947	105.06
652.152	94.06
652.356	86.06
652.56	93.06
652.764	90.06
652.969	101.06
653.173	101.06
653.377	90.06
653.581	88.06
653.785	86.06
653.99	82.06
654.194	88.06
654.398	89.06
654.602	95.06
654.806	97.06
655.01	102.06
655.214	77.06
655.418	81.06
655.622	88.06
655.826	88.06
656.03	87.06
656.234	82.06
656.438	83.06
656.642	85.06
656.846	93.06
657.049	95.06
657.253	82.06
657.457	89.06
657.661	99.06
657.865	84.06
658.068	89.06
658.272	83.06
658.476	95.06
658.68	84.06
658.883	80.06
659.087	88.06
659.291	92.06
659.494	87.06
659.698	75.06
659.901	69.06
660.105	84.06
660.309	82.06
660.512	71.06
660.716	82.06
660.919	82.06
661.123	91.06
661.326	101.06
661.53	94.06
661.733	79.06
661.936	89.06
662.14	84.06
662.343	89.06
662.546	80.06
662.75	79.06
662.953	77.06
663.156	91.06
663.36	89.06
663.563	81.06
663.766	80.06
663.969	82.06
664.173	95.06
664.376	69.06
664.579	101.06
664.782	85.06
664.985	80.06
665.188	80.06
665.391	78.06
665.594	94.06
665.797	80.06
666	79.06
666.203	77.06
666.406	86.06
666.609	82.06
666.812	78.06
667.015	73.06
667.218	92.06
667.421	88.06
667.624	75.06
667.827	87.06
668.03	101.06
668.232	89.06
668.435	74.06
668.638	77.06
668.841	85.06
669.043	93.06
669.246	94.06
669.449	85.06
669.651	83.06
669.854	95.06
670.057	91.06
670.259	72.06
670.462	82.06
670.665	63.06
670.867	84.06
671.07	79.06
671.272	73.06
671.475	80.06
671.677	91.06
671.88	81.06
672.082	73.06
672.284	83.06
672.487	90.06
672.689	76.06
672.892	91.06
