Data from Location1.07152019.Energy5.Lamp.07192019.3%Agarose_HRD10591_14-32-04-015.txt Node
Date: Fri Jul 19 14:32:04 EDT 2019
User: cochatt
Spectrometer: HR+D1059
Trigger mode: 1
Integration Time (sec): 1.000000E-1
Scans to average: 1
Electric dark correction enabled: true
Nonlinearity correction enabled: false
Boxcar width: 0
XAxis mode: Wavelengths
Number of Pixels in Spectrum: 2048
>>>>>Begin Spectral Data<<<<<
223.165	-23.94
223.4	-23.94
223.635	-23.94
223.869	-22.94
224.104	-7.94
224.338	-17.94
224.573	-6.94
224.808	-3.94
225.042	-5.94
225.277	-2.94
225.511	-4.94
225.746	2.06
225.98	7.06
226.215	18.06
226.449	5.06
226.683	18.06
226.918	26.06
227.152	21.06
227.387	32.06
227.621	46.06
227.856	41.06
228.09	44.06
228.324	37.06
228.559	66.06
228.793	61.06
229.027	58.06
229.262	84.06
229.496	70.06
229.73	76.06
229.964	74.06
230.199	81.06
230.433	84.06
230.667	71.06
230.901	52.06
231.136	66.06
231.37	73.06
231.604	86.06
231.838	78.06
232.072	74.06
232.306	79.06
232.541	82.06
232.775	69.06
233.009	80.06
233.243	68.06
233.477	74.06
233.711	93.06
233.945	85.06
234.179	77.06
234.413	84.06
234.647	81.06
234.881	82.06
235.115	78.06
235.349	82.06
235.583	76.06
235.817	71.06
236.051	86.06
236.285	73.06
236.519	67.06
236.753	88.06
236.987	82.06
237.221	73.06
237.455	81.06
237.689	69.06
237.922	81.06
238.156	77.06
238.39	81.06
238.624	79.06
238.858	80.06
239.091	66.06
239.325	69.06
239.559	87.06
239.793	76.06
240.027	81.06
240.26	78.06
240.494	64.06
240.728	75.06
240.961	80.06
241.195	61.06
241.429	71.06
241.662	79.06
241.896	75.06
242.13	76.06
242.363	66.06
242.597	77.06
242.83	74.06
243.064	81.06
243.298	84.06
243.531	84.06
243.765	75.06
243.998	78.06
244.232	72.06
244.465	75.06
244.699	73.06
244.932	78.06
245.166	68.06
245.399	58.06
245.633	89.06
245.866	84.06
246.099	74.06
246.333	87.06
246.566	76.06
246.8	63.06
247.033	73.06
247.266	67.06
247.5	77.06
247.733	89.06
247.966	74.06
248.2	68.06
248.433	65.06
248.666	86.06
248.899	77.06
249.133	91.06
249.366	82.06
249.599	68.06
249.832	81.06
250.066	84.06
250.299	78.06
250.532	75.06
250.765	84.06
250.998	92.06
251.231	70.06
251.465	75.06
251.698	75.06
251.931	73.06
252.164	79.06
252.397	83.06
252.63	69.06
252.863	69.06
253.096	72.06
253.329	75.06
253.562	79.06
253.795	70.06
254.028	80.06
254.261	87.06
254.494	93.06
254.727	75.06
254.96	80.06
255.193	68.06
255.426	79.06
255.659	74.06
255.892	69.06
256.124	68.06
256.357	83.06
256.59	81.06
256.823	81.06
257.056	73.06
257.289	76.06
257.521	78.06
257.754	74.06
257.987	72.06
258.22	83.06
258.452	63.06
258.685	81.06
258.918	74.06
259.151	69.06
259.383	85.06
259.616	72.06
259.849	69.06
260.081	78.06
260.314	88.06
260.547	68.06
260.779	83.06
261.012	68.06
261.244	71.06
261.477	67.06
261.71	82.06
261.942	79.06
262.175	77.06
262.407	86.06
262.64	77.06
262.872	81.06
263.105	88.06
263.337	81.06
263.57	72.06
263.802	96.06
264.035	86.06
264.267	76.06
264.499	84.06
264.732	81.06
264.964	81.06
265.197	93.06
265.429	91.06
265.661	70.06
265.894	65.06
266.126	85.06
266.358	76.06
266.591	75.06
266.823	72.06
267.055	84.06
267.287	80.06
267.52	82.06
267.752	85.06
267.984	84.06
268.216	81.06
268.448	97.06
268.681	85.06
268.913	86.06
269.145	94.06
269.377	85.06
269.609	90.06
269.841	90.06
270.073	95.06
270.306	71.06
270.538	77.06
270.77	63.06
271.002	73.06
271.234	78.06
271.466	72.06
271.698	90.06
271.93	81.06
272.162	80.06
272.394	77.06
272.626	73.06
272.858	91.06
273.09	88.06
273.322	71.06
273.553	86.06
273.785	77.06
274.017	76.06
274.249	78.06
274.481	85.06
274.713	76.06
274.945	82.06
275.176	77.06
275.408	85.06
275.64	79.06
275.872	77.06
276.104	72.06
276.335	78.06
276.567	83.06
276.799	74.06
277.031	82.06
277.262	85.06
277.494	76.06
277.726	88.06
277.957	80.06
278.189	85.06
278.421	67.06
278.652	77.06
278.884	91.06
279.115	76.06
279.347	83.06
279.579	86.06
279.81	77.06
280.042	80.06
280.273	90.06
280.505	80.06
280.736	71.06
280.968	86.06
281.199	85.06
281.431	70.06
281.662	82.06
281.894	77.06
282.125	78.06
282.356	73.06
282.588	81.06
282.819	81.06
283.051	73.06
283.282	96.06
283.513	97.06
283.745	78.06
283.976	69.06
284.207	78.06
284.439	71.06
284.67	82.06
284.901	83.06
285.132	83.06
285.364	87.06
285.595	81.06
285.826	74.06
286.057	87.06
286.288	89.06
286.52	96.06
286.751	77.06
286.982	81.06
287.213	94.06
287.444	78.06
287.675	83.06
287.906	106.06
288.138	81.06
288.369	79.06
288.6	76.06
288.831	72.06
289.062	79.06
289.293	70.06
289.524	71.06
289.755	79.06
289.986	84.06
290.217	93.06
290.448	93.06
290.679	79.06
290.91	88.06
291.141	79.06
291.371	78.06
291.602	80.06
291.833	73.06
292.064	81.06
292.295	85.06
292.526	75.06
292.757	88.06
292.987	78.06
293.218	85.06
293.449	79.06
293.68	77.06
293.91	79.06
294.141	100.06
294.372	75.06
294.603	78.06
294.833	78.06
295.064	79.06
295.295	90.06
295.525	84.06
295.756	83.06
295.987	81.06
296.217	78.06
296.448	91.06
296.679	81.06
296.909	76.06
297.14	91.06
297.37	81.06
297.601	75.06
297.831	77.06
298.062	90.06
298.292	80.06
298.523	93.06
298.753	90.06
298.984	76.06
299.214	76.06
299.445	85.06
299.675	82.06
299.905	76.06
300.136	82.06
300.366	75.06
300.597	84.06
300.827	93.06
301.057	96.06
301.288	88.06
301.518	83.06
301.748	78.06
301.979	74.06
302.209	81.06
302.439	68.06
302.669	78.06
302.9	96.06
303.13	77.06
303.36	88.06
303.59	90.06
303.82	70.06
304.051	91.06
304.281	89.06
304.511	69.06
304.741	78.06
304.971	81.06
305.201	82.06
305.431	92.06
305.661	85.06
305.891	82.06
306.121	89.06
306.352	85.06
306.582	85.06
306.812	90.06
307.042	72.06
307.272	93.06
307.502	82.06
307.731	88.06
307.961	87.06
308.191	78.06
308.421	80.06
308.651	85.06
308.881	73.06
309.111	74.06
309.341	81.06
309.571	84.06
309.8	77.06
310.03	79.06
310.26	81.06
310.49	81.06
310.72	69.06
310.949	76.06
311.179	89.06
311.409	82.06
311.639	78.06
311.868	76.06
312.098	80.06
312.328	98.06
312.557	82.06
312.787	84.06
313.017	90.06
313.246	96.06
313.476	81.06
313.706	83.06
313.935	82.06
314.165	97.06
314.394	82.06
314.624	91.06
314.853	87.06
315.083	94.06
315.312	91.06
315.542	76.06
315.771	90.06
316.001	91.06
316.23	89.06
316.46	82.06
316.689	86.06
316.919	77.06
317.148	76.06
317.377	87.06
317.607	91.06
317.836	86.06
318.065	82.06
318.295	84.06
318.524	79.06
318.753	61.06
318.983	84.06
319.212	74.06
319.441	69.06
319.67	80.06
319.9	82.06
320.129	93.06
320.358	78.06
320.587	94.06
320.816	90.06
321.046	75.06
321.275	96.06
321.504	73.06
321.733	80.06
321.962	91.06
322.191	91.06
322.42	64.06
322.649	72.06
322.878	88.06
323.108	74.06
323.337	87.06
323.566	77.06
323.795	79.06
324.024	78.06
324.253	90.06
324.482	73.06
324.71	87.06
324.939	66.06
325.168	86.06
325.397	89.06
325.626	75.06
325.855	89.06
326.084	80.06
326.313	87.06
326.542	67.06
326.77	89.06
326.999	86.06
327.228	81.06
327.457	88.06
327.686	80.06
327.914	85.06
328.143	81.06
328.372	92.06
328.6	77.06
328.829	78.06
329.058	85.06
329.287	90.06
329.515	88.06
329.744	84.06
329.972	83.06
330.201	93.06
330.43	79.06
330.658	98.06
330.887	92.06
331.115	93.06
331.344	71.06
331.572	85.06
331.801	86.06
332.03	90.06
332.258	88.06
332.486	85.06
332.715	102.06
332.943	86.06
333.172	77.06
333.4	84.06
333.629	81.06
333.857	75.06
334.085	77.06
334.314	77.06
334.542	85.06
334.771	94.06
334.999	90.06
335.227	76.06
335.455	90.06
335.684	78.06
335.912	75.06
336.14	77.06
336.369	83.06
336.597	91.06
336.825	91.06
337.053	89.06
337.281	79.06
337.51	80.06
337.738	87.06
337.966	66.06
338.194	78.06
338.422	81.06
338.65	84.06
338.878	76.06
339.106	83.06
339.334	82.06
339.562	80.06
339.79	83.06
340.018	82.06
340.246	78.06
340.474	79.06
340.702	87.06
340.93	69.06
341.158	93.06
341.386	68.06
341.614	76.06
341.842	81.06
342.07	86.06
342.298	85.06
342.526	87.06
342.754	84.06
342.981	91.06
343.209	80.06
343.437	78.06
343.665	83.06
343.893	83.06
344.12	85.06
344.348	76.06
344.576	77.06
344.804	92.06
345.031	88.06
345.259	81.06
345.487	92.06
345.714	81.06
345.942	84.06
346.17	94.06
346.397	91.06
346.625	81.06
346.853	81.06
347.08	76.06
347.308	73.06
347.535	76.06
347.763	68.06
347.99	88.06
348.218	100.06
348.445	75.06
348.673	95.06
348.9	82.06
349.128	78.06
349.355	84.06
349.583	82.06
349.81	73.06
350.037	83.06
350.265	78.06
350.492	82.06
350.72	94.06
350.947	75.06
351.174	88.06
351.402	89.06
351.629	82.06
351.856	75.06
352.083	76.06
352.311	71.06
352.538	77.06
352.765	75.06
352.992	91.06
353.22	90.06
353.447	86.06
353.674	91.06
353.901	78.06
354.128	88.06
354.355	80.06
354.583	92.06
354.81	96.06
355.037	72.06
355.264	82.06
355.491	87.06
355.718	85.06
355.945	91.06
356.172	89.06
356.399	72.06
356.626	82.06
356.853	94.06
357.08	83.06
357.307	78.06
357.534	76.06
357.761	78.06
357.988	88.06
358.215	78.06
358.441	84.06
358.668	72.06
358.895	68.06
359.122	73.06
359.349	74.06
359.576	84.06
359.802	91.06
360.029	90.06
360.256	95.06
360.483	83.06
360.709	62.06
360.936	82.06
361.163	92.06
361.39	73.06
361.616	77.06
361.843	68.06
362.07	90.06
362.296	79.06
362.523	83.06
362.749	78.06
362.976	76.06
363.203	75.06
363.429	85.06
363.656	73.06
363.882	82.06
364.109	69.06
364.335	87.06
364.562	82.06
364.788	78.06
365.015	87.06
365.241	99.06
365.468	70.06
365.694	71.06
365.92	78.06
366.147	74.06
366.373	89.06
366.599	85.06
366.826	80.06
367.052	79.06
367.278	83.06
367.505	97.06
367.731	85.06
367.957	91.06
368.184	85.06
368.41	82.06
368.636	83.06
368.862	104.06
369.089	93.06
369.315	89.06
369.541	98.06
369.767	82.06
369.993	81.06
370.219	82.06
370.445	92.06
370.672	67.06
370.898	93.06
371.124	92.06
371.35	94.06
371.576	97.06
371.802	84.06
372.028	68.06
372.254	98.06
372.48	89.06
372.706	84.06
372.932	74.06
373.158	81.06
373.384	86.06
373.61	98.06
373.835	96.06
374.061	87.06
374.287	98.06
374.513	80.06
374.739	90.06
374.965	98.06
375.191	76.06
375.416	94.06
375.642	104.06
375.868	100.06
376.094	86.06
376.319	98.06
376.545	101.06
376.771	90.06
376.997	89.06
377.222	92.06
377.448	84.06
377.674	92.06
377.899	92.06
378.125	93.06
378.35	76.06
378.576	100.06
378.802	91.06
379.027	91.06
379.253	84.06
379.478	95.06
379.704	99.06
379.929	88.06
380.155	80.06
380.38	92.06
380.606	100.06
380.831	97.06
381.057	105.06
381.282	89.06
381.507	94.06
381.733	101.06
381.958	97.06
382.184	96.06
382.409	102.06
382.634	109.06
382.86	91.06
383.085	97.06
383.31	101.06
383.535	100.06
383.761	102.06
383.986	105.06
384.211	103.06
384.436	106.06
384.662	100.06
384.887	103.06
385.112	86.06
385.337	96.06
385.562	90.06
385.787	94.06
386.013	109.06
386.238	105.06
386.463	99.06
386.688	95.06
386.913	94.06
387.138	104.06
387.363	94.06
387.588	114.06
387.813	106.06
388.038	106.06
388.263	108.06
388.488	105.06
388.713	83.06
388.938	88.06
389.163	101.06
389.387	97.06
389.612	94.06
389.837	91.06
390.062	100.06
390.287	97.06
390.512	104.06
390.736	105.06
390.961	92.06
391.186	108.06
391.411	103.06
391.636	112.06
391.86	94.06
392.085	105.06
392.31	105.06
392.534	100.06
392.759	108.06
392.984	110.06
393.208	98.06
393.433	98.06
393.658	107.06
393.882	86.06
394.107	105.06
394.331	110.06
394.556	99.06
394.78	101.06
395.005	97.06
395.229	118.06
395.454	117.06
395.678	96.06
395.903	108.06
396.127	106.06
396.352	105.06
396.576	113.06
396.801	99.06
397.025	113.06
397.249	103.06
397.474	116.06
397.698	113.06
397.922	101.06
398.147	101.06
398.371	97.06
398.595	107.06
398.82	105.06
399.044	110.06
399.268	107.06
399.492	100.06
399.717	116.06
399.941	109.06
400.165	119.06
400.389	102.06
400.613	109.06
400.837	92.06
401.062	112.06
401.286	105.06
401.51	98.06
401.734	106.06
401.958	106.06
402.182	109.06
402.406	113.06
402.63	112.06
402.854	106.06
403.078	101.06
403.302	110.06
403.526	98.06
403.75	110.06
403.974	118.06
404.198	113.06
404.422	116.06
404.645	120.06
404.869	122.06
405.093	126.06
405.317	99.06
405.541	101.06
405.765	113.06
405.988	97.06
406.212	114.06
406.436	101.06
406.66	122.06
406.883	110.06
407.107	113.06
407.331	119.06
407.555	116.06
407.778	131.06
408.002	105.06
408.226	124.06
408.449	119.06
408.673	124.06
408.896	122.06
409.12	107.06
409.344	114.06
409.567	124.06
409.791	110.06
410.014	122.06
410.238	120.06
410.461	120.06
410.685	96.06
410.908	106.06
411.132	106.06
411.355	112.06
411.578	118.06
411.802	112.06
412.025	99.06
412.249	116.06
412.472	103.06
412.695	112.06
412.919	108.06
413.142	131.06
413.365	116.06
413.589	120.06
413.812	125.06
414.035	128.06
414.258	125.06
414.482	127.06
414.705	134.06
414.928	107.06
415.151	115.06
415.374	128.06
415.597	107.06
415.821	116.06
416.044	113.06
416.267	132.06
416.49	128.06
416.713	136.06
416.936	108.06
417.159	118.06
417.382	112.06
417.605	128.06
417.828	138.06
418.051	131.06
418.274	129.06
418.497	120.06
418.72	131.06
418.943	122.06
419.166	142.06
419.389	143.06
419.611	134.06
419.834	135.06
420.057	127.06
420.28	138.06
420.503	142.06
420.726	114.06
420.948	121.06
421.171	117.06
421.394	125.06
421.617	148.06
421.839	141.06
422.062	131.06
422.285	120.06
422.507	125.06
422.73	134.06
422.953	138.06
423.175	133.06
423.398	109.06
423.621	116.06
423.843	132.06
424.066	144.06
424.288	132.06
424.511	139.06
424.733	142.06
424.956	134.06
425.178	143.06
425.401	142.06
425.623	136.06
425.846	133.06
426.068	146.06
426.291	136.06
426.513	126.06
426.735	125.06
426.958	138.06
427.18	124.06
427.402	134.06
427.625	129.06
427.847	135.06
428.069	112.06
428.292	125.06
428.514	131.06
428.736	134.06
428.958	132.06
429.181	118.06
429.403	135.06
429.625	116.06
429.847	126.06
430.069	125.06
430.292	120.06
430.514	128.06
430.736	132.06
430.958	119.06
431.18	106.06
431.402	112.06
431.624	109.06
431.846	101.06
432.068	98.06
432.29	99.06
432.512	109.06
432.734	109.06
432.956	122.06
433.178	130.06
433.4	143.06
433.622	122.06
433.844	125.06
434.066	130.06
434.287	118.06
434.509	83.06
434.731	88.06
434.953	101.06
435.175	113.06
435.397	125.06
435.618	118.06
435.84	105.06
436.062	118.06
436.284	123.06
436.505	124.06
436.727	118.06
436.949	126.06
437.17	129.06
437.392	126.06
437.614	122.06
437.835	110.06
438.057	114.06
438.278	104.06
438.5	118.06
438.721	123.06
438.943	126.06
439.165	130.06
439.386	132.06
439.608	149.06
439.829	141.06
440.05	144.06
440.272	150.06
440.493	139.06
440.715	126.06
440.936	129.06
441.158	130.06
441.379	148.06
441.6	141.06
441.822	131.06
442.043	137.06
442.264	136.06
442.486	134.06
442.707	129.06
442.928	130.06
443.149	130.06
443.371	142.06
443.592	131.06
443.813	141.06
444.034	130.06
444.255	143.06
444.476	136.06
444.698	142.06
444.919	137.06
445.14	260.06
445.361	195.06
445.582	152.06
445.803	140.06
446.024	146.06
446.245	149.06
446.466	150.06
446.687	156.06
446.908	151.06
447.129	151.06
447.35	158.06
447.571	134.06
447.792	137.06
448.013	151.06
448.234	130.06
448.455	141.06
448.675	136.06
448.896	124.06
449.117	157.06
449.338	127.06
449.559	128.06
449.779	137.06
450	138.06
450.221	133.06
450.442	134.06
450.662	144.06
450.883	134.06
451.104	121.06
451.324	118.06
451.545	133.06
451.766	121.06
451.986	119.06
452.207	117.06
452.428	126.06
452.648	119.06
452.869	121.06
453.089	105.06
453.31	105.06
453.53	115.06
453.751	112.06
453.971	114.06
454.192	103.06
454.412	101.06
454.633	116.06
454.853	120.06
455.073	105.06
455.294	110.06
455.514	116.06
455.734	118.06
455.955	104.06
456.175	102.06
456.395	99.06
456.616	103.06
456.836	120.06
457.056	112.06
457.276	103.06
457.497	102.06
457.717	101.06
457.937	113.06
458.157	109.06
458.377	84.06
458.598	100.06
458.818	88.06
459.038	77.06
459.258	81.06
459.478	80.06
459.698	89.06
459.918	103.06
460.138	111.06
460.358	102.06
460.578	122.06
460.798	109.06
461.018	120.06
461.238	111.06
461.458	104.06
461.678	110.06
461.898	99.06
462.118	103.06
462.338	86.06
462.558	97.06
462.777	106.06
462.997	101.06
463.217	97.06
463.437	98.06
463.657	113.06
463.876	107.06
464.096	120.06
464.316	104.06
464.536	109.06
464.755	105.06
464.975	128.06
465.195	115.06
465.414	111.06
465.634	104.06
465.854	124.06
466.073	121.06
466.293	120.06
466.512	110.06
466.732	145.06
466.951	119.06
467.171	132.06
467.391	129.06
467.61	134.06
467.829	125.06
468.049	132.06
468.268	120.06
468.488	128.06
468.707	125.06
468.927	127.06
469.146	136.06
469.365	129.06
469.585	127.06
469.804	138.06
470.023	147.06
470.243	145.06
470.462	149.06
470.681	138.06
470.901	132.06
471.12	130.06
471.339	135.06
471.558	123.06
471.777	135.06
471.997	129.06
472.216	121.06
472.435	121.06
472.654	105.06
472.873	117.06
473.092	116.06
473.311	122.06
473.53	128.06
473.749	131.06
473.968	122.06
474.187	126.06
474.406	110.06
474.625	132.06
474.844	121.06
475.063	113.06
475.282	106.06
475.501	122.06
475.72	123.06
475.939	131.06
476.158	138.06
476.377	132.06
476.596	121.06
476.814	116.06
477.033	113.06
477.252	126.06
477.471	119.06
477.69	133.06
477.908	124.06
478.127	140.06
478.346	135.06
478.564	128.06
478.783	131.06
479.002	124.06
479.22	140.06
479.439	132.06
479.658	125.06
479.876	110.06
480.095	109.06
480.313	99.06
480.532	110.06
480.751	108.06
480.969	92.06
481.188	82.06
481.406	95.06
481.624	100.06
481.843	78.06
482.061	92.06
482.28	105.06
482.498	113.06
482.717	103.06
482.935	118.06
483.153	146.06
483.372	157.06
483.59	155.06
483.808	139.06
484.027	124.06
484.245	133.06
484.463	134.06
484.681	137.06
484.9	136.06
485.118	156.06
485.336	118.06
485.554	108.06
485.772	102.06
485.99	102.06
486.209	114.06
486.427	112.06
486.645	104.06
486.863	126.06
487.081	131.06
487.299	130.06
487.517	130.06
487.735	162.06
487.953	166.06
488.171	177.06
488.389	159.06
488.607	160.06
488.825	153.06
489.043	126.06
489.261	124.06
489.479	138.06
489.696	137.06
489.914	158.06
490.132	150.06
490.35	141.06
490.568	144.06
490.786	146.06
491.003	147.06
491.221	161.06
491.439	172.06
491.657	190.06
491.874	205.06
492.092	206.06
492.31	247.06
492.527	221.06
492.745	195.06
492.963	178.06
493.18	174.06
493.398	162.06
493.615	165.06
493.833	181.06
494.05	165.06
494.268	171.06
494.485	179.06
494.703	180.06
494.92	142.06
495.138	161.06
495.355	159.06
495.573	161.06
495.79	163.06
496.008	156.06
496.225	158.06
496.442	153.06
496.66	161.06
496.877	156.06
497.094	165.06
497.312	150.06
497.529	156.06
497.746	143.06
497.963	140.06
498.181	128.06
498.398	127.06
498.615	114.06
498.832	121.06
499.049	123.06
499.267	116.06
499.484	122.06
499.701	114.06
499.918	129.06
500.135	145.06
500.352	132.06
500.569	129.06
500.786	149.06
501.003	133.06
501.22	119.06
501.437	124.06
501.654	133.06
501.871	132.06
502.088	119.06
502.305	128.06
502.522	128.06
502.739	127.06
502.956	139.06
503.172	125.06
503.389	121.06
503.606	116.06
503.823	120.06
504.04	125.06
504.256	121.06
504.473	114.06
504.69	124.06
504.907	113.06
505.123	109.06
505.34	122.06
505.557	128.06
505.773	131.06
505.99	117.06
506.207	120.06
506.423	111.06
506.64	117.06
506.856	115.06
507.073	98.06
507.289	116.06
507.506	113.06
507.722	110.06
507.939	102.06
508.155	122.06
508.372	116.06
508.588	123.06
508.805	117.06
509.021	98.06
509.238	96.06
509.454	100.06
509.67	104.06
509.887	113.06
510.103	85.06
510.319	89.06
510.536	103.06
510.752	94.06
510.968	90.06
511.184	78.06
511.401	79.06
511.617	88.06
511.833	82.06
512.049	78.06
512.265	100.06
512.481	93.06
512.698	81.06
512.914	87.06
513.13	77.06
513.346	86.06
513.562	87.06
513.778	85.06
513.994	86.06
514.21	85.06
514.426	96.06
514.642	85.06
514.858	80.06
515.074	89.06
515.29	102.06
515.506	93.06
515.721	86.06
515.937	84.06
516.153	86.06
516.369	85.06
516.585	90.06
516.801	87.06
517.016	78.06
517.232	95.06
517.448	93.06
517.664	99.06
517.879	76.06
518.095	93.06
518.311	82.06
518.527	78.06
518.742	95.06
518.958	104.06
519.173	119.06
519.389	98.06
519.605	94.06
519.82	111.06
520.036	108.06
520.251	106.06
520.467	93.06
520.682	103.06
520.898	90.06
521.113	84.06
521.329	85.06
521.544	97.06
521.76	91.06
521.975	101.06
522.19	102.06
522.406	97.06
522.621	97.06
522.836	86.06
523.052	108.06
523.267	107.06
523.482	104.06
523.698	95.06
523.913	108.06
524.128	116.06
524.343	98.06
524.559	118.06
524.774	127.06
524.989	118.06
525.204	116.06
525.419	109.06
525.634	109.06
525.849	100.06
526.064	96.06
526.28	99.06
526.495	85.06
526.71	85.06
526.925	59.06
527.14	69.06
527.355	85.06
527.57	79.06
527.785	93.06
527.999	93.06
528.214	97.06
528.429	94.06
528.644	125.06
528.859	117.06
529.074	134.06
529.289	152.06
529.503	156.06
529.718	138.06
529.933	127.06
530.148	119.06
530.363	109.06
530.577	85.06
530.792	77.06
531.007	79.06
531.221	89.06
531.436	86.06
531.651	89.06
531.865	89.06
532.08	88.06
532.295	90.06
532.509	92.06
532.724	84.06
532.938	88.06
533.153	102.06
533.367	124.06
533.582	102.06
533.796	104.06
534.011	118.06
534.225	91.06
534.44	83.06
534.654	86.06
534.868	110.06
535.083	105.06
535.297	113.06
535.511	90.06
535.726	104.06
535.94	99.06
536.154	93.06
536.369	92.06
536.583	83.06
536.797	99.06
537.011	91.06
537.225	98.06
537.44	82.06
537.654	96.06
537.868	99.06
538.082	98.06
538.296	93.06
538.51	90.06
538.724	123.06
538.938	110.06
539.153	126.06
539.367	109.06
539.581	109.06
539.795	100.06
540.009	97.06
540.222	98.06
540.436	119.06
540.65	112.06
540.864	109.06
541.078	132.06
541.292	151.06
541.506	152.06
541.72	160.06
541.934	184.06
542.147	195.06
542.361	161.06
542.575	155.06
542.789	146.06
543.002	136.06
543.216	146.06
543.43	134.06
543.644	138.06
543.857	136.06
544.071	156.06
544.285	140.06
544.498	154.06
544.712	146.06
544.925	148.06
545.139	143.06
545.352	160.06
545.566	150.06
545.779	157.06
545.993	157.06
546.206	151.06
546.42	160.06
546.633	164.06
546.847	156.06
547.06	157.06
547.274	148.06
547.487	184.06
547.7	168.06
547.914	147.06
548.127	146.06
548.34	152.06
548.554	141.06
548.767	154.06
548.98	161.06
549.193	150.06
549.407	156.06
549.62	163.06
549.833	158.06
550.046	140.06
550.259	143.06
550.473	134.06
550.686	153.06
550.899	136.06
551.112	142.06
551.325	136.06
551.538	123.06
551.751	126.06
551.964	116.06
552.177	120.06
552.39	134.06
552.603	136.06
552.816	153.06
553.029	147.06
553.242	156.06
553.455	142.06
553.667	145.06
553.88	148.06
554.093	154.06
554.306	146.06
554.519	140.06
554.732	136.06
554.944	136.06
555.157	146.06
555.37	138.06
555.583	139.06
555.795	125.06
556.008	127.06
556.221	125.06
556.433	147.06
556.646	126.06
556.859	130.06
557.071	141.06
557.284	142.06
557.496	133.06
557.709	125.06
557.921	137.06
558.134	134.06
558.346	134.06
558.559	147.06
558.771	146.06
558.984	121.06
559.196	133.06
559.409	125.06
559.621	127.06
559.833	119.06
560.046	128.06
560.258	125.06
560.47	129.06
560.683	126.06
560.895	120.06
561.107	144.06
561.32	137.06
561.532	125.06
561.744	146.06
561.956	121.06
562.168	126.06
562.381	128.06
562.593	131.06
562.805	108.06
563.017	129.06
563.229	98.06
563.441	128.06
563.653	121.06
563.865	98.06
564.077	117.06
564.289	114.06
564.501	118.06
564.713	99.06
564.925	121.06
565.137	106.06
565.349	98.06
565.561	114.06
565.773	111.06
565.985	117.06
566.197	109.06
566.408	107.06
566.62	124.06
566.832	125.06
567.044	123.06
567.255	113.06
567.467	108.06
567.679	116.06
567.891	107.06
568.102	97.06
568.314	89.06
568.526	98.06
568.737	85.06
568.949	84.06
569.161	88.06
569.372	68.06
569.584	83.06
569.795	87.06
570.007	84.06
570.218	85.06
570.43	68.06
570.641	84.06
570.853	96.06
571.064	100.06
571.276	87.06
571.487	113.06
571.698	99.06
571.91	105.06
572.121	108.06
572.333	105.06
572.544	104.06
572.755	98.06
572.966	88.06
573.178	89.06
573.389	82.06
573.6	74.06
573.811	81.06
574.023	91.06
574.234	84.06
574.445	102.06
574.656	92.06
574.867	99.06
575.078	94.06
575.289	97.06
575.501	106.06
575.712	109.06
575.923	91.06
576.134	81.06
576.345	97.06
576.556	103.06
576.767	102.06
576.978	91.06
577.188	97.06
577.399	101.06
577.61	86.06
577.821	91.06
578.032	86.06
578.243	86.06
578.454	81.06
578.665	97.06
578.875	88.06
579.086	80.06
579.297	87.06
579.508	84.06
579.718	92.06
579.929	97.06
580.14	82.06
580.35	76.06
580.561	85.06
580.772	87.06
580.982	91.06
581.193	100.06
581.403	80.06
581.614	86.06
581.825	98.06
582.035	102.06
582.246	105.06
582.456	96.06
582.667	83.06
582.877	94.06
583.087	98.06
583.298	94.06
583.508	83.06
583.719	85.06
583.929	94.06
584.139	94.06
584.35	90.06
584.56	93.06
584.77	81.06
584.981	78.06
585.191	87.06
585.401	76.06
585.611	96.06
585.821	90.06
586.032	78.06
586.242	70.06
586.452	91.06
586.662	90.06
586.872	80.06
587.082	68.06
587.292	78.06
587.502	87.06
587.713	86.06
587.923	93.06
588.133	78.06
588.343	89.06
588.553	86.06
588.762	76.06
588.972	81.06
589.182	90.06
589.392	75.06
589.602	88.06
589.812	90.06
590.022	77.06
590.232	80.06
590.441	82.06
590.651	87.06
590.861	87.06
591.071	74.06
591.281	92.06
591.49	73.06
591.7	84.06
591.91	89.06
592.119	82.06
592.329	82.06
592.539	93.06
592.748	90.06
592.958	86.06
593.167	84.06
593.377	91.06
593.587	79.06
593.796	83.06
594.006	77.06
594.215	92.06
594.424	85.06
594.634	79.06
594.843	85.06
595.053	84.06
595.262	84.06
595.472	103.06
595.681	101.06
595.89	87.06
596.1	79.06
596.309	89.06
596.518	85.06
596.727	92.06
596.937	94.06
597.146	114.06
597.355	86.06
597.564	112.06
597.774	88.06
597.983	87.06
598.192	87.06
598.401	93.06
598.61	89.06
598.819	83.06
599.028	93.06
599.237	93.06
599.446	84.06
599.655	100.06
599.864	94.06
600.073	87.06
600.282	93.06
600.491	90.06
600.7	88.06
600.909	112.06
601.118	99.06
601.327	98.06
601.536	118.06
601.745	99.06
601.953	114.06
602.162	114.06
602.371	106.06
602.58	97.06
602.789	103.06
602.997	100.06
603.206	106.06
603.415	106.06
603.623	105.06
603.832	109.06
604.041	112.06
604.249	102.06
604.458	91.06
604.666	96.06
604.875	81.06
605.084	95.06
605.292	96.06
605.501	102.06
605.709	114.06
605.918	101.06
606.126	105.06
606.334	113.06
606.543	122.06
606.751	117.06
606.96	98.06
607.168	108.06
607.376	116.06
607.585	114.06
607.793	103.06
608.001	102.06
608.21	115.06
608.418	119.06
608.626	103.06
608.834	107.06
609.043	114.06
609.251	128.06
609.459	107.06
609.667	100.06
609.875	102.06
610.083	114.06
610.291	120.06
610.499	118.06
610.707	105.06
610.916	118.06
611.124	114.06
611.332	94.06
611.54	103.06
611.748	103.06
611.955	117.06
612.163	112.06
612.371	112.06
612.579	115.06
612.787	110.06
612.995	115.06
613.203	108.06
613.411	114.06
613.618	108.06
613.826	105.06
614.034	120.06
614.242	108.06
614.449	114.06
614.657	102.06
614.865	108.06
615.072	109.06
615.28	118.06
615.488	115.06
615.695	105.06
615.903	124.06
616.111	105.06
616.318	105.06
616.526	104.06
616.733	120.06
616.941	116.06
617.148	103.06
617.356	104.06
617.563	106.06
617.771	106.06
617.978	98.06
618.185	122.06
618.393	109.06
618.6	102.06
618.807	118.06
619.015	108.06
619.222	104.06
619.429	93.06
619.637	100.06
619.844	94.06
620.051	97.06
620.258	101.06
620.466	99.06
620.673	107.06
620.88	100.06
621.087	106.06
621.294	112.06
621.501	103.06
621.708	92.06
621.915	109.06
622.122	107.06
622.329	115.06
622.536	114.06
622.743	104.06
622.95	120.06
623.157	116.06
623.364	112.06
623.571	112.06
623.778	118.06
623.985	98.06
624.192	114.06
624.399	101.06
624.606	107.06
624.812	111.06
625.019	93.06
625.226	110.06
625.433	100.06
625.639	100.06
625.846	119.06
626.053	94.06
626.259	112.06
626.466	91.06
626.673	85.06
626.879	93.06
627.086	93.06
627.293	102.06
627.499	91.06
627.706	100.06
627.912	117.06
628.119	98.06
628.325	99.06
628.532	94.06
628.738	88.06
628.945	109.06
629.151	107.06
629.357	106.06
629.564	111.06
629.77	94.06
629.976	115.06
630.183	98.06
630.389	104.06
630.595	104.06
630.802	103.06
631.008	94.06
631.214	103.06
631.42	103.06
631.627	101.06
631.833	85.06
632.039	94.06
632.245	94.06
632.451	101.06
632.657	102.06
632.863	97.06
633.069	90.06
633.275	106.06
633.481	98.06
633.688	103.06
633.893	90.06
634.099	101.06
634.305	91.06
634.511	99.06
634.717	103.06
634.923	93.06
635.129	101.06
635.335	100.06
635.541	84.06
635.747	103.06
635.952	104.06
636.158	97.06
636.364	113.06
636.57	119.06
636.775	88.06
636.981	93.06
637.187	105.06
637.392	91.06
637.598	100.06
637.804	106.06
638.009	96.06
638.215	83.06
638.421	99.06
638.626	107.06
638.832	100.06
639.037	108.06
639.243	95.06
639.448	99.06
639.654	108.06
639.859	105.06
640.065	98.06
640.27	113.06
640.475	91.06
640.681	113.06
640.886	101.06
641.091	88.06
641.297	98.06
641.502	113.06
641.707	102.06
641.913	97.06
642.118	98.06
642.323	102.06
642.528	106.06
642.733	92.06
642.939	96.06
643.144	93.06
643.349	94.06
643.554	96.06
643.759	86.06
643.964	105.06
644.169	112.06
644.374	90.06
644.579	94.06
644.784	90.06
644.989	104.06
645.194	109.06
645.399	96.06
645.604	91.06
645.809	78.06
646.014	100.06
646.219	109.06
646.423	108.06
646.628	90.06
646.833	99.06
647.038	100.06
647.243	101.06
647.447	93.06
647.652	87.06
647.857	101.06
648.062	84.06
648.266	87.06
648.471	89.06
648.676	101.06
648.88	98.06
649.085	91.06
649.289	87.06
649.494	97.06
649.698	109.06
649.903	97.06
650.107	86.06
650.312	84.06
650.516	95.06
650.721	102.06
650.925	93.06
651.13	107.06
651.334	113.06
651.539	87.06
651.743	88.06
651.947	102.06
652.152	90.06
652.356	92.06
652.56	79.06
652.764	92.06
652.969	99.06
653.173	104.06
653.377	99.06
653.581	103.06
653.785	91.06
653.99	95.06
654.194	89.06
654.398	76.06
654.602	80.06
654.806	95.06
655.01	84.06
655.214	90.06
655.418	79.06
655.622	97.06
655.826	73.06
656.03	81.06
656.234	81.06
656.438	92.06
656.642	96.06
656.846	86.06
657.049	86.06
657.253	84.06
657.457	71.06
657.661	82.06
657.865	82.06
658.068	96.06
658.272	96.06
658.476	87.06
658.68	87.06
658.883	82.06
659.087	71.06
659.291	64.06
659.494	85.06
659.698	79.06
659.901	84.06
660.105	82.06
660.309	88.06
660.512	89.06
660.716	86.06
660.919	84.06
661.123	102.06
661.326	96.06
661.53	88.06
661.733	88.06
661.936	74.06
662.14	77.06
662.343	85.06
662.546	80.06
662.75	70.06
662.953	68.06
663.156	82.06
663.36	90.06
663.563	83.06
663.766	88.06
663.969	78.06
664.173	92.06
664.376	74.06
664.579	81.06
664.782	85.06
664.985	81.06
665.188	100.06
665.391	80.06
665.594	77.06
665.797	87.06
666	85.06
666.203	95.06
666.406	87.06
666.609	79.06
666.812	84.06
667.015	81.06
667.218	90.06
667.421	88.06
667.624	89.06
667.827	95.06
668.03	69.06
668.232	78.06
668.435	80.06
668.638	72.06
668.841	78.06
669.043	91.06
669.246	83.06
669.449	77.06
669.651	99.06
669.854	82.06
670.057	82.06
670.259	83.06
670.462	82.06
670.665	82.06
670.867	87.06
671.07	82.06
671.272	76.06
671.475	84.06
671.677	88.06
671.88	95.06
672.082	69.06
672.284	76.06
672.487	79.06
672.689	84.06
672.892	91.06
