Data from Location1.07152019.Energy5.Lamp.07192019.3%Agarose_HRD10591_14-30-42-015.txt Node
Date: Fri Jul 19 14:30:42 EDT 2019
User: cochatt
Spectrometer: HR+D1059
Trigger mode: 1
Integration Time (sec): 1.000000E-1
Scans to average: 1
Electric dark correction enabled: true
Nonlinearity correction enabled: false
Boxcar width: 0
XAxis mode: Wavelengths
Number of Pixels in Spectrum: 2048
>>>>>Begin Spectral Data<<<<<
223.165	-13.31
223.4	-13.31
223.635	-13.31
223.869	-8.31
224.104	-14.31
224.338	-28.31
224.573	-16.31
224.808	-9.31
225.042	-16.31
225.277	0.69
225.511	-10.31
225.746	3.69
225.98	20.69
226.215	10.69
226.449	7.69
226.683	13.69
226.918	33.69
227.152	25.69
227.387	23.69
227.621	35.69
227.856	38.69
228.09	44.69
228.324	50.69
228.559	58.69
228.793	61.69
229.027	61.69
229.262	52.69
229.496	61.69
229.73	62.69
229.964	63.69
230.199	54.69
230.433	76.69
230.667	71.69
230.901	76.69
231.136	85.69
231.37	82.69
231.604	72.69
231.838	75.69
232.072	71.69
232.306	83.69
232.541	89.69
232.775	70.69
233.009	86.69
233.243	79.69
233.477	85.69
233.711	80.69
233.945	80.69
234.179	62.69
234.413	83.69
234.647	84.69
234.881	85.69
235.115	83.69
235.349	72.69
235.583	78.69
235.817	81.69
236.051	69.69
236.285	74.69
236.519	83.69
236.753	70.69
236.987	91.69
237.221	81.69
237.455	76.69
237.689	79.69
237.922	74.69
238.156	85.69
238.39	72.69
238.624	78.69
238.858	72.69
239.091	68.69
239.325	70.69
239.559	82.69
239.793	80.69
240.027	67.69
240.26	73.69
240.494	77.69
240.728	59.69
240.961	69.69
241.195	88.69
241.429	74.69
241.662	83.69
241.896	63.69
242.13	75.69
242.363	83.69
242.597	67.69
242.83	78.69
243.064	66.69
243.298	83.69
243.531	72.69
243.765	76.69
243.998	78.69
244.232	79.69
244.465	77.69
244.699	67.69
244.932	75.69
245.166	85.69
245.399	73.69
245.633	79.69
245.866	81.69
246.099	74.69
246.333	80.69
246.566	74.69
246.8	76.69
247.033	82.69
247.266	82.69
247.5	75.69
247.733	68.69
247.966	70.69
248.2	81.69
248.433	100.69
248.666	77.69
248.899	89.69
249.133	66.69
249.366	75.69
249.599	76.69
249.832	89.69
250.066	78.69
250.299	88.69
250.532	79.69
250.765	68.69
250.998	75.69
251.231	80.69
251.465	83.69
251.698	88.69
251.931	76.69
252.164	83.69
252.397	77.69
252.63	83.69
252.863	81.69
253.096	93.69
253.329	65.69
253.562	76.69
253.795	85.69
254.028	80.69
254.261	76.69
254.494	79.69
254.727	71.69
254.96	73.69
255.193	89.69
255.426	72.69
255.659	87.69
255.892	83.69
256.124	73.69
256.357	81.69
256.59	96.69
256.823	77.69
257.056	81.69
257.289	72.69
257.521	87.69
257.754	89.69
257.987	65.69
258.22	95.69
258.452	68.69
258.685	78.69
258.918	83.69
259.151	76.69
259.383	76.69
259.616	91.69
259.849	75.69
260.081	74.69
260.314	92.69
260.547	84.69
260.779	80.69
261.012	69.69
261.244	74.69
261.477	68.69
261.71	82.69
261.942	72.69
262.175	76.69
262.407	83.69
262.64	68.69
262.872	79.69
263.105	77.69
263.337	99.69
263.57	79.69
263.802	80.69
264.035	73.69
264.267	80.69
264.499	73.69
264.732	81.69
264.964	85.69
265.197	82.69
265.429	80.69
265.661	87.69
265.894	101.69
266.126	77.69
266.358	92.69
266.591	81.69
266.823	83.69
267.055	89.69
267.287	76.69
267.52	81.69
267.752	82.69
267.984	68.69
268.216	80.69
268.448	86.69
268.681	84.69
268.913	86.69
269.145	75.69
269.377	85.69
269.609	75.69
269.841	85.69
270.073	78.69
270.306	102.69
270.538	78.69
270.77	88.69
271.002	76.69
271.234	92.69
271.466	85.69
271.698	81.69
271.93	81.69
272.162	75.69
272.394	75.69
272.626	77.69
272.858	90.69
273.09	84.69
273.322	84.69
273.553	84.69
273.785	93.69
274.017	77.69
274.249	77.69
274.481	84.69
274.713	90.69
274.945	80.69
275.176	77.69
275.408	92.69
275.64	90.69
275.872	82.69
276.104	69.69
276.335	79.69
276.567	73.69
276.799	88.69
277.031	92.69
277.262	89.69
277.494	78.69
277.726	87.69
277.957	73.69
278.189	71.69
278.421	82.69
278.652	96.69
278.884	79.69
279.115	86.69
279.347	87.69
279.579	92.69
279.81	76.69
280.042	71.69
280.273	79.69
280.505	76.69
280.736	96.69
280.968	91.69
281.199	84.69
281.431	92.69
281.662	83.69
281.894	96.69
282.125	73.69
282.356	84.69
282.588	88.69
282.819	86.69
283.051	92.69
283.282	81.69
283.513	78.69
283.745	89.69
283.976	68.69
284.207	91.69
284.439	75.69
284.67	80.69
284.901	88.69
285.132	87.69
285.364	75.69
285.595	96.69
285.826	86.69
286.057	78.69
286.288	76.69
286.52	82.69
286.751	85.69
286.982	82.69
287.213	76.69
287.444	75.69
287.675	77.69
287.906	92.69
288.138	76.69
288.369	83.69
288.6	79.69
288.831	73.69
289.062	83.69
289.293	74.69
289.524	92.69
289.755	87.69
289.986	95.69
290.217	78.69
290.448	72.69
290.679	76.69
290.91	83.69
291.141	81.69
291.371	90.69
291.602	83.69
291.833	74.69
292.064	80.69
292.295	85.69
292.526	78.69
292.757	78.69
292.987	94.69
293.218	89.69
293.449	77.69
293.68	82.69
293.91	90.69
294.141	92.69
294.372	97.69
294.603	83.69
294.833	97.69
295.064	90.69
295.295	83.69
295.525	81.69
295.756	83.69
295.987	67.69
296.217	88.69
296.448	74.69
296.679	84.69
296.909	75.69
297.14	72.69
297.37	66.69
297.601	93.69
297.831	85.69
298.062	80.69
298.292	81.69
298.523	91.69
298.753	80.69
298.984	91.69
299.214	95.69
299.445	87.69
299.675	83.69
299.905	73.69
300.136	72.69
300.366	90.69
300.597	75.69
300.827	89.69
301.057	82.69
301.288	90.69
301.518	104.69
301.748	99.69
301.979	86.69
302.209	85.69
302.439	69.69
302.669	72.69
302.9	85.69
303.13	86.69
303.36	82.69
303.59	85.69
303.82	74.69
304.051	81.69
304.281	87.69
304.511	86.69
304.741	82.69
304.971	80.69
305.201	66.69
305.431	100.69
305.661	99.69
305.891	85.69
306.121	79.69
306.352	85.69
306.582	90.69
306.812	76.69
307.042	78.69
307.272	92.69
307.502	90.69
307.731	92.69
307.961	85.69
308.191	84.69
308.421	65.69
308.651	73.69
308.881	76.69
309.111	73.69
309.341	86.69
309.571	84.69
309.8	89.69
310.03	89.69
310.26	84.69
310.49	72.69
310.72	73.69
310.949	82.69
311.179	92.69
311.409	78.69
311.639	92.69
311.868	81.69
312.098	80.69
312.328	77.69
312.557	90.69
312.787	98.69
313.017	90.69
313.246	74.69
313.476	84.69
313.706	80.69
313.935	83.69
314.165	85.69
314.394	82.69
314.624	77.69
314.853	86.69
315.083	87.69
315.312	96.69
315.542	90.69
315.771	90.69
316.001	89.69
316.23	78.69
316.46	83.69
316.689	75.69
316.919	80.69
317.148	84.69
317.377	72.69
317.607	100.69
317.836	85.69
318.065	100.69
318.295	84.69
318.524	69.69
318.753	76.69
318.983	84.69
319.212	85.69
319.441	85.69
319.67	87.69
319.9	90.69
320.129	90.69
320.358	87.69
320.587	69.69
320.816	84.69
321.046	73.69
321.275	80.69
321.504	87.69
321.733	76.69
321.962	80.69
322.191	73.69
322.42	79.69
322.649	90.69
322.878	88.69
323.108	85.69
323.337	92.69
323.566	82.69
323.795	78.69
324.024	82.69
324.253	92.69
324.482	85.69
324.71	83.69
324.939	89.69
325.168	86.69
325.397	100.69
325.626	84.69
325.855	73.69
326.084	82.69
326.313	77.69
326.542	85.69
326.77	87.69
326.999	77.69
327.228	89.69
327.457	95.69
327.686	70.69
327.914	87.69
328.143	93.69
328.372	86.69
328.6	83.69
328.829	80.69
329.058	74.69
329.287	80.69
329.515	75.69
329.744	87.69
329.972	82.69
330.201	83.69
330.43	70.69
330.658	75.69
330.887	91.69
331.115	75.69
331.344	79.69
331.572	84.69
331.801	82.69
332.03	74.69
332.258	90.69
332.486	75.69
332.715	70.69
332.943	76.69
333.172	92.69
333.4	83.69
333.629	81.69
333.857	72.69
334.085	81.69
334.314	91.69
334.542	86.69
334.771	85.69
334.999	86.69
335.227	87.69
335.455	82.69
335.684	67.69
335.912	88.69
336.14	77.69
336.369	85.69
336.597	70.69
336.825	83.69
337.053	76.69
337.281	87.69
337.51	65.69
337.738	81.69
337.966	78.69
338.194	70.69
338.422	86.69
338.65	71.69
338.878	75.69
339.106	77.69
339.334	85.69
339.562	84.69
339.79	67.69
340.018	87.69
340.246	79.69
340.474	87.69
340.702	75.69
340.93	82.69
341.158	77.69
341.386	92.69
341.614	88.69
341.842	69.69
342.07	75.69
342.298	92.69
342.526	88.69
342.754	88.69
342.981	87.69
343.209	83.69
343.437	81.69
343.665	86.69
343.893	86.69
344.12	94.69
344.348	85.69
344.576	60.69
344.804	72.69
345.031	100.69
345.259	79.69
345.487	96.69
345.714	89.69
345.942	76.69
346.17	95.69
346.397	75.69
346.625	84.69
346.853	81.69
347.08	88.69
347.308	97.69
347.535	85.69
347.763	89.69
347.99	83.69
348.218	85.69
348.445	85.69
348.673	80.69
348.9	75.69
349.128	99.69
349.355	87.69
349.583	94.69
349.81	80.69
350.037	88.69
350.265	72.69
350.492	89.69
350.72	82.69
350.947	84.69
351.174	75.69
351.402	83.69
351.629	77.69
351.856	91.69
352.083	90.69
352.311	85.69
352.538	74.69
352.765	76.69
352.992	86.69
353.22	82.69
353.447	69.69
353.674	90.69
353.901	75.69
354.128	73.69
354.355	92.69
354.583	64.69
354.81	68.69
355.037	84.69
355.264	80.69
355.491	59.69
355.718	91.69
355.945	73.69
356.172	90.69
356.399	82.69
356.626	69.69
356.853	79.69
357.08	94.69
357.307	86.69
357.534	79.69
357.761	92.69
357.988	82.69
358.215	79.69
358.441	72.69
358.668	71.69
358.895	80.69
359.122	79.69
359.349	74.69
359.576	72.69
359.802	77.69
360.029	71.69
360.256	76.69
360.483	79.69
360.709	71.69
360.936	90.69
361.163	75.69
361.39	76.69
361.616	70.69
361.843	82.69
362.07	72.69
362.296	84.69
362.523	73.69
362.749	85.69
362.976	84.69
363.203	85.69
363.429	83.69
363.656	83.69
363.882	76.69
364.109	82.69
364.335	78.69
364.562	79.69
364.788	79.69
365.015	69.69
365.241	69.69
365.468	77.69
365.694	75.69
365.92	80.69
366.147	73.69
366.373	95.69
366.599	87.69
366.826	99.69
367.052	85.69
367.278	79.69
367.505	95.69
367.731	95.69
367.957	82.69
368.184	85.69
368.41	100.69
368.636	79.69
368.862	89.69
369.089	89.69
369.315	84.69
369.541	93.69
369.767	77.69
369.993	93.69
370.219	89.69
370.445	102.69
370.672	89.69
370.898	77.69
371.124	88.69
371.35	103.69
371.576	86.69
371.802	95.69
372.028	92.69
372.254	80.69
372.48	94.69
372.706	83.69
372.932	81.69
373.158	88.69
373.384	69.69
373.61	85.69
373.835	88.69
374.061	105.69
374.287	91.69
374.513	85.69
374.739	98.69
374.965	85.69
375.191	93.69
375.416	94.69
375.642	95.69
375.868	100.69
376.094	93.69
376.319	95.69
376.545	84.69
376.771	84.69
376.997	84.69
377.222	70.69
377.448	86.69
377.674	85.69
377.899	89.69
378.125	87.69
378.35	93.69
378.576	76.69
378.802	93.69
379.027	92.69
379.253	101.69
379.478	86.69
379.704	85.69
379.929	79.69
380.155	86.69
380.38	83.69
380.606	83.69
380.831	89.69
381.057	96.69
381.282	104.69
381.507	88.69
381.733	88.69
381.958	100.69
382.184	88.69
382.409	92.69
382.634	102.69
382.86	86.69
383.085	94.69
383.31	100.69
383.535	77.69
383.761	79.69
383.986	103.69
384.211	86.69
384.436	78.69
384.662	87.69
384.887	98.69
385.112	89.69
385.337	86.69
385.562	101.69
385.787	104.69
386.013	111.69
386.238	84.69
386.463	94.69
386.688	88.69
386.913	100.69
387.138	97.69
387.363	95.69
387.588	111.69
387.813	109.69
388.038	89.69
388.263	84.69
388.488	91.69
388.713	93.69
388.938	96.69
389.163	92.69
389.387	105.69
389.612	85.69
389.837	109.69
390.062	100.69
390.287	103.69
390.512	95.69
390.736	78.69
390.961	90.69
391.186	88.69
391.411	84.69
391.636	85.69
391.86	95.69
392.085	106.69
392.31	86.69
392.534	97.69
392.759	90.69
392.984	106.69
393.208	115.69
393.433	95.69
393.658	117.69
393.882	98.69
394.107	102.69
394.331	114.69
394.556	95.69
394.78	100.69
395.005	112.69
395.229	97.69
395.454	118.69
395.678	96.69
395.903	107.69
396.127	99.69
396.352	90.69
396.576	99.69
396.801	89.69
397.025	112.69
397.249	102.69
397.474	111.69
397.698	89.69
397.922	96.69
398.147	108.69
398.371	113.69
398.595	91.69
398.82	108.69
399.044	103.69
399.268	111.69
399.492	114.69
399.717	108.69
399.941	94.69
400.165	97.69
400.389	113.69
400.613	101.69
400.837	93.69
401.062	120.69
401.286	103.69
401.51	115.69
401.734	87.69
401.958	102.69
402.182	95.69
402.406	117.69
402.63	102.69
402.854	104.69
403.078	96.69
403.302	106.69
403.526	114.69
403.75	105.69
403.974	106.69
404.198	113.69
404.422	107.69
404.645	114.69
404.869	107.69
405.093	112.69
405.317	104.69
405.541	121.69
405.765	113.69
405.988	119.69
406.212	117.69
406.436	123.69
406.66	125.69
406.883	105.69
407.107	117.69
407.331	108.69
407.555	119.69
407.778	129.69
408.002	115.69
408.226	123.69
408.449	113.69
408.673	121.69
408.896	120.69
409.12	123.69
409.344	121.69
409.567	115.69
409.791	103.69
410.014	112.69
410.238	121.69
410.461	127.69
410.685	119.69
410.908	121.69
411.132	116.69
411.355	141.69
411.578	121.69
411.802	98.69
412.025	122.69
412.249	116.69
412.472	112.69
412.695	113.69
412.919	121.69
413.142	127.69
413.365	119.69
413.589	125.69
413.812	104.69
414.035	129.69
414.258	125.69
414.482	121.69
414.705	135.69
414.928	117.69
415.151	105.69
415.374	125.69
415.597	108.69
415.821	122.69
416.044	125.69
416.267	130.69
416.49	123.69
416.713	124.69
416.936	111.69
417.159	111.69
417.382	121.69
417.605	125.69
417.828	123.69
418.051	127.69
418.274	120.69
418.497	129.69
418.72	112.69
418.943	117.69
419.166	137.69
419.389	131.69
419.611	121.69
419.834	139.69
420.057	135.69
420.28	144.69
420.503	145.69
420.726	124.69
420.948	113.69
421.171	106.69
421.394	137.69
421.617	140.69
421.839	137.69
422.062	134.69
422.285	127.69
422.507	118.69
422.73	119.69
422.953	123.69
423.175	118.69
423.398	120.69
423.621	126.69
423.843	130.69
424.066	132.69
424.288	127.69
424.511	150.69
424.733	142.69
424.956	128.69
425.178	123.69
425.401	124.69
425.623	109.69
425.846	122.69
426.068	136.69
426.291	112.69
426.513	124.69
426.735	121.69
426.958	132.69
427.18	129.69
427.402	125.69
427.625	118.69
427.847	135.69
428.069	139.69
428.292	129.69
428.514	125.69
428.736	122.69
428.958	129.69
429.181	127.69
429.403	128.69
429.625	126.69
429.847	122.69
430.069	127.69
430.292	136.69
430.514	125.69
430.736	125.69
430.958	135.69
431.18	127.69
431.402	133.69
431.624	115.69
431.846	96.69
432.068	102.69
432.29	97.69
432.512	100.69
432.734	113.69
432.956	123.69
433.178	116.69
433.4	136.69
433.622	123.69
433.844	117.69
434.066	120.69
434.287	86.69
434.509	84.69
434.731	97.69
434.953	103.69
435.175	121.69
435.397	117.69
435.618	116.69
435.84	113.69
436.062	108.69
436.284	120.69
436.505	133.69
436.727	119.69
436.949	115.69
437.17	127.69
437.392	120.69
437.614	117.69
437.835	118.69
438.057	112.69
438.278	123.69
438.5	131.69
438.721	136.69
438.943	126.69
439.165	146.69
439.386	135.69
439.608	147.69
439.829	152.69
440.05	129.69
440.272	130.69
440.493	129.69
440.715	139.69
440.936	127.69
441.158	147.69
441.379	127.69
441.6	160.69
441.822	155.69
442.043	140.69
442.264	125.69
442.486	133.69
442.707	124.69
442.928	148.69
443.149	148.69
443.371	141.69
443.592	128.69
443.813	135.69
444.034	143.69
444.255	139.69
444.476	142.69
444.698	136.69
444.919	139.69
445.14	261.69
445.361	203.69
445.582	162.69
445.803	141.69
446.024	132.69
446.245	138.69
446.466	155.69
446.687	147.69
446.908	163.69
447.129	154.69
447.35	166.69
447.571	136.69
447.792	143.69
448.013	146.69
448.234	141.69
448.455	149.69
448.675	135.69
448.896	133.69
449.117	139.69
449.338	139.69
449.559	147.69
449.779	133.69
450	124.69
450.221	123.69
450.442	133.69
450.662	142.69
450.883	133.69
451.104	126.69
451.324	136.69
451.545	121.69
451.766	127.69
451.986	136.69
452.207	125.69
452.428	125.69
452.648	132.69
452.869	120.69
453.089	120.69
453.31	109.69
453.53	103.69
453.751	104.69
453.971	98.69
454.192	104.69
454.412	100.69
454.633	105.69
454.853	131.69
455.073	133.69
455.294	120.69
455.514	118.69
455.734	122.69
455.955	114.69
456.175	107.69
456.395	111.69
456.616	101.69
456.836	113.69
457.056	105.69
457.276	99.69
457.497	99.69
457.717	104.69
457.937	103.69
458.157	114.69
458.377	116.69
458.598	93.69
458.818	87.69
459.038	96.69
459.258	79.69
459.478	79.69
459.698	96.69
459.918	100.69
460.138	91.69
460.358	115.69
460.578	123.69
460.798	130.69
461.018	116.69
461.238	123.69
461.458	116.69
461.678	121.69
461.898	117.69
462.118	119.69
462.338	117.69
462.558	106.69
462.777	104.69
462.997	123.69
463.217	106.69
463.437	109.69
463.657	116.69
463.876	129.69
464.096	96.69
464.316	104.69
464.536	101.69
464.755	115.69
464.975	107.69
465.195	119.69
465.414	108.69
465.634	116.69
465.854	104.69
466.073	113.69
466.293	116.69
466.512	131.69
466.732	133.69
466.951	119.69
467.171	134.69
467.391	131.69
467.61	137.69
467.829	137.69
468.049	138.69
468.268	151.69
468.488	121.69
468.707	123.69
468.927	127.69
469.146	125.69
469.365	135.69
469.585	135.69
469.804	153.69
470.023	134.69
470.243	128.69
470.462	131.69
470.681	137.69
470.901	139.69
471.12	139.69
471.339	124.69
471.558	127.69
471.777	116.69
471.997	132.69
472.216	119.69
472.435	111.69
472.654	102.69
472.873	90.69
473.092	108.69
473.311	122.69
473.53	125.69
473.749	114.69
473.968	136.69
474.187	115.69
474.406	120.69
474.625	121.69
474.844	131.69
475.063	124.69
475.282	121.69
475.501	120.69
475.72	113.69
475.939	129.69
476.158	135.69
476.377	139.69
476.596	122.69
476.814	111.69
477.033	115.69
477.252	100.69
477.471	121.69
477.69	133.69
477.908	130.69
478.127	148.69
478.346	130.69
478.564	140.69
478.783	144.69
479.002	138.69
479.22	135.69
479.439	116.69
479.658	111.69
479.876	108.69
480.095	106.69
480.313	117.69
480.532	92.69
480.751	114.69
480.969	106.69
481.188	87.69
481.406	91.69
481.624	95.69
481.843	75.69
482.061	92.69
482.28	112.69
482.498	113.69
482.717	102.69
482.935	114.69
483.153	142.69
483.372	154.69
483.59	153.69
483.808	131.69
484.027	142.69
484.245	135.69
484.463	157.69
484.681	142.69
484.9	146.69
485.118	135.69
485.336	139.69
485.554	109.69
485.772	107.69
485.99	104.69
486.209	106.69
486.427	93.69
486.645	119.69
486.863	125.69
487.081	133.69
487.299	125.69
487.517	141.69
487.735	159.69
487.953	187.69
488.171	180.69
488.389	161.69
488.607	149.69
488.825	147.69
489.043	139.69
489.261	120.69
489.479	138.69
489.696	139.69
489.914	148.69
490.132	142.69
490.35	157.69
490.568	141.69
490.786	168.69
491.003	165.69
491.221	170.69
491.439	170.69
491.657	184.69
491.874	195.69
492.092	215.69
492.31	222.69
492.527	212.69
492.745	200.69
492.963	175.69
493.18	191.69
493.398	180.69
493.615	166.69
493.833	164.69
494.05	162.69
494.268	164.69
494.485	158.69
494.703	196.69
494.92	164.69
495.138	183.69
495.355	169.69
495.573	167.69
495.79	162.69
496.008	148.69
496.225	142.69
496.442	152.69
496.66	165.69
496.877	155.69
497.094	167.69
497.312	155.69
497.529	169.69
497.746	153.69
497.963	140.69
498.181	123.69
498.398	124.69
498.615	130.69
498.832	111.69
499.049	129.69
499.267	119.69
499.484	134.69
499.701	139.69
499.918	121.69
500.135	135.69
500.352	133.69
500.569	128.69
500.786	155.69
501.003	139.69
501.22	142.69
501.437	122.69
501.654	130.69
501.871	125.69
502.088	133.69
502.305	136.69
502.522	131.69
502.739	145.69
502.956	130.69
503.172	127.69
503.389	126.69
503.606	124.69
503.823	107.69
504.04	119.69
504.256	105.69
504.473	131.69
504.69	104.69
504.907	109.69
505.123	121.69
505.34	127.69
505.557	125.69
505.773	113.69
505.99	108.69
506.207	113.69
506.423	119.69
506.64	114.69
506.856	118.69
507.073	130.69
507.289	120.69
507.506	107.69
507.722	116.69
507.939	121.69
508.155	120.69
508.372	123.69
508.588	115.69
508.805	113.69
509.021	98.69
509.238	111.69
509.454	105.69
509.67	98.69
509.887	98.69
510.103	89.69
510.319	87.69
510.536	92.69
510.752	87.69
510.968	84.69
511.184	84.69
511.401	77.69
511.617	89.69
511.833	76.69
512.049	84.69
512.265	95.69
512.481	92.69
512.698	98.69
512.914	91.69
513.13	88.69
513.346	97.69
513.562	87.69
513.778	95.69
513.994	95.69
514.21	87.69
514.426	76.69
514.642	96.69
514.858	83.69
515.074	81.69
515.29	83.69
515.506	98.69
515.721	89.69
515.937	109.69
516.153	106.69
516.369	83.69
516.585	91.69
516.801	81.69
517.016	87.69
517.232	100.69
517.448	88.69
517.664	94.69
517.879	94.69
518.095	92.69
518.311	100.69
518.527	95.69
518.742	94.69
518.958	95.69
519.173	99.69
519.389	108.69
519.605	114.69
519.82	104.69
520.036	106.69
520.251	106.69
520.467	99.69
520.682	89.69
520.898	84.69
521.113	83.69
521.329	86.69
521.544	93.69
521.76	87.69
521.975	87.69
522.19	80.69
522.406	77.69
522.621	107.69
522.836	102.69
523.052	98.69
523.267	108.69
523.482	120.69
523.698	114.69
523.913	113.69
524.128	104.69
524.343	120.69
524.559	106.69
524.774	108.69
524.989	118.69
525.204	131.69
525.419	116.69
525.634	102.69
525.849	119.69
526.064	99.69
526.28	109.69
526.495	82.69
526.71	79.69
526.925	102.69
527.14	76.69
527.355	95.69
527.57	83.69
527.785	88.69
527.999	89.69
528.214	106.69
528.429	123.69
528.644	116.69
528.859	129.69
529.074	145.69
529.289	163.69
529.503	162.69
529.718	128.69
529.933	129.69
530.148	106.69
530.363	82.69
530.577	86.69
530.792	86.69
531.007	80.69
531.221	66.69
531.436	78.69
531.651	93.69
531.865	90.69
532.08	78.69
532.295	90.69
532.509	73.69
532.724	79.69
532.938	83.69
533.153	102.69
533.367	123.69
533.582	111.69
533.796	102.69
534.011	102.69
534.225	103.69
534.44	96.69
534.654	88.69
534.868	89.69
535.083	102.69
535.297	87.69
535.511	93.69
535.726	105.69
535.94	96.69
536.154	98.69
536.369	93.69
536.583	94.69
536.797	100.69
537.011	81.69
537.225	83.69
537.44	88.69
537.654	93.69
537.868	100.69
538.082	99.69
538.296	93.69
538.51	112.69
538.724	112.69
538.938	124.69
539.153	130.69
539.367	119.69
539.581	123.69
539.795	116.69
540.009	95.69
540.222	87.69
540.436	97.69
540.65	124.69
540.864	131.69
541.078	122.69
541.292	143.69
541.506	143.69
541.72	173.69
541.934	194.69
542.147	201.69
542.361	183.69
542.575	168.69
542.789	151.69
543.002	135.69
543.216	125.69
543.43	123.69
543.644	120.69
543.857	136.69
544.071	138.69
544.285	149.69
544.498	152.69
544.712	154.69
544.925	142.69
545.139	155.69
545.352	164.69
545.566	153.69
545.779	149.69
545.993	180.69
546.206	177.69
546.42	149.69
546.633	169.69
546.847	162.69
547.06	152.69
547.274	156.69
547.487	163.69
547.7	194.69
547.914	169.69
548.127	155.69
548.34	160.69
548.554	149.69
548.767	155.69
548.98	152.69
549.193	154.69
549.407	145.69
549.62	152.69
549.833	145.69
550.046	145.69
550.259	135.69
550.473	140.69
550.686	158.69
550.899	154.69
551.112	144.69
551.325	135.69
551.538	129.69
551.751	120.69
551.964	115.69
552.177	137.69
552.39	131.69
552.603	136.69
552.816	153.69
553.029	135.69
553.242	167.69
553.455	158.69
553.667	159.69
553.88	144.69
554.093	130.69
554.306	150.69
554.519	143.69
554.732	142.69
554.944	137.69
555.157	132.69
555.37	142.69
555.583	143.69
555.795	123.69
556.008	123.69
556.221	136.69
556.433	137.69
556.646	138.69
556.859	141.69
557.071	117.69
557.284	136.69
557.496	127.69
557.709	127.69
557.921	149.69
558.134	142.69
558.346	140.69
558.559	135.69
558.771	136.69
558.984	138.69
559.196	143.69
559.409	122.69
559.621	109.69
559.833	120.69
560.046	129.69
560.258	120.69
560.47	129.69
560.683	128.69
560.895	118.69
561.107	141.69
561.32	130.69
561.532	121.69
561.744	125.69
561.956	132.69
562.168	129.69
562.381	126.69
562.593	117.69
562.805	131.69
563.017	131.69
563.229	112.69
563.441	129.69
563.653	117.69
563.865	112.69
564.077	125.69
564.289	133.69
564.501	127.69
564.713	118.69
564.925	117.69
565.137	112.69
565.349	129.69
565.561	107.69
565.773	102.69
565.985	117.69
566.197	113.69
566.408	125.69
566.62	120.69
566.832	112.69
567.044	122.69
567.255	122.69
567.467	115.69
567.679	120.69
567.891	101.69
568.102	97.69
568.314	97.69
568.526	90.69
568.737	90.69
568.949	90.69
569.161	83.69
569.372	73.69
569.584	85.69
569.795	85.69
570.007	84.69
570.218	96.69
570.43	96.69
570.641	99.69
570.853	91.69
571.064	107.69
571.276	105.69
571.487	99.69
571.698	92.69
571.91	90.69
572.121	90.69
572.333	99.69
572.544	85.69
572.755	103.69
572.966	96.69
573.178	82.69
573.389	78.69
573.6	69.69
573.811	76.69
574.023	87.69
574.234	75.69
574.445	81.69
574.656	84.69
574.867	103.69
575.078	81.69
575.289	90.69
575.501	100.69
575.712	77.69
575.923	82.69
576.134	102.69
576.345	81.69
576.556	88.69
576.767	87.69
576.978	94.69
577.188	102.69
577.399	79.69
577.61	78.69
577.821	85.69
578.032	100.69
578.243	77.69
578.454	95.69
578.665	89.69
578.875	88.69
579.086	82.69
579.297	77.69
579.508	73.69
579.718	89.69
579.929	109.69
580.14	77.69
580.35	79.69
580.561	79.69
580.772	89.69
580.982	103.69
581.193	97.69
581.403	104.69
581.614	93.69
581.825	95.69
582.035	96.69
582.246	94.69
582.456	88.69
582.667	95.69
582.877	84.69
583.087	87.69
583.298	93.69
583.508	81.69
583.719	85.69
583.929	78.69
584.139	81.69
584.35	75.69
584.56	91.69
584.77	97.69
584.981	93.69
585.191	76.69
585.401	87.69
585.611	96.69
585.821	76.69
586.032	77.69
586.242	75.69
586.452	89.69
586.662	93.69
586.872	92.69
587.082	73.69
587.292	71.69
587.502	89.69
587.713	93.69
587.923	86.69
588.133	82.69
588.343	85.69
588.553	75.69
588.762	83.69
588.972	77.69
589.182	94.69
589.392	68.69
589.602	89.69
589.812	80.69
590.022	81.69
590.232	89.69
590.441	92.69
590.651	88.69
590.861	83.69
591.071	91.69
591.281	78.69
591.49	83.69
591.7	88.69
591.91	86.69
592.119	89.69
592.329	81.69
592.539	91.69
592.748	77.69
592.958	62.69
593.167	81.69
593.377	69.69
593.587	84.69
593.796	92.69
594.006	86.69
594.215	91.69
594.424	85.69
594.634	91.69
594.843	98.69
595.053	98.69
595.262	90.69
595.472	87.69
595.681	82.69
595.89	81.69
596.1	92.69
596.309	90.69
596.518	104.69
596.727	92.69
596.937	93.69
597.146	86.69
597.355	85.69
597.564	99.69
597.774	92.69
597.983	101.69
598.192	91.69
598.401	92.69
598.61	95.69
598.819	87.69
599.028	91.69
599.237	105.69
599.446	87.69
599.655	98.69
599.864	89.69
600.073	95.69
600.282	100.69
600.491	90.69
600.7	91.69
600.909	83.69
601.118	85.69
601.327	99.69
601.536	90.69
601.745	106.69
601.953	97.69
602.162	90.69
602.371	109.69
602.58	103.69
602.789	97.69
602.997	111.69
603.206	102.69
603.415	107.69
603.623	101.69
603.832	109.69
604.041	103.69
604.249	114.69
604.458	87.69
604.666	94.69
604.875	96.69
605.084	93.69
605.292	108.69
605.501	120.69
605.709	123.69
605.918	117.69
606.126	121.69
606.334	104.69
606.543	113.69
606.751	106.69
606.96	100.69
607.168	104.69
607.376	87.69
607.585	113.69
607.793	107.69
608.001	103.69
608.21	106.69
608.418	106.69
608.626	109.69
608.834	124.69
609.043	113.69
609.251	101.69
609.459	107.69
609.667	112.69
609.875	110.69
610.083	119.69
610.291	112.69
610.499	109.69
610.707	105.69
610.916	125.69
611.124	106.69
611.332	111.69
611.54	122.69
611.748	115.69
611.955	111.69
612.163	112.69
612.371	116.69
612.579	113.69
612.787	99.69
612.995	102.69
613.203	127.69
613.411	111.69
613.618	99.69
613.826	118.69
614.034	105.69
614.242	105.69
614.449	105.69
614.657	110.69
614.865	122.69
615.072	117.69
615.28	106.69
615.488	102.69
615.695	103.69
615.903	105.69
616.111	108.69
616.318	110.69
616.526	116.69
616.733	108.69
616.941	110.69
617.148	110.69
617.356	106.69
617.563	98.69
617.771	98.69
617.978	105.69
618.185	116.69
618.393	115.69
618.6	102.69
618.807	103.69
619.015	117.69
619.222	110.69
619.429	103.69
619.637	107.69
619.844	100.69
620.051	94.69
620.258	118.69
620.466	112.69
620.673	103.69
620.88	99.69
621.087	98.69
621.294	105.69
621.501	92.69
621.708	108.69
621.915	101.69
622.122	106.69
622.329	120.69
622.536	101.69
622.743	105.69
622.95	107.69
623.157	92.69
623.364	101.69
623.571	115.69
623.778	106.69
623.985	103.69
624.192	111.69
624.399	94.69
624.606	111.69
624.812	97.69
625.019	110.69
625.226	96.69
625.433	99.69
625.639	88.69
625.846	93.69
626.053	88.69
626.259	87.69
626.466	97.69
626.673	102.69
626.879	80.69
627.086	97.69
627.293	98.69
627.499	99.69
627.706	100.69
627.912	118.69
628.119	96.69
628.325	102.69
628.532	123.69
628.738	103.69
628.945	111.69
629.151	105.69
629.357	100.69
629.564	108.69
629.77	109.69
629.976	96.69
630.183	90.69
630.389	96.69
630.595	100.69
630.802	102.69
631.008	103.69
631.214	98.69
631.42	104.69
631.627	107.69
631.833	95.69
632.039	98.69
632.245	103.69
632.451	95.69
632.657	102.69
632.863	96.69
633.069	90.69
633.275	94.69
633.481	96.69
633.688	103.69
633.893	97.69
634.099	79.69
634.305	99.69
634.511	106.69
634.717	79.69
634.923	94.69
635.129	93.69
635.335	93.69
635.541	101.69
635.747	94.69
635.952	101.69
636.158	113.69
636.364	102.69
636.57	91.69
636.775	92.69
636.981	97.69
637.187	108.69
637.392	103.69
637.598	104.69
637.804	110.69
638.009	91.69
638.215	100.69
638.421	91.69
638.626	84.69
638.832	93.69
639.037	108.69
639.243	87.69
639.448	91.69
639.654	112.69
639.859	114.69
640.065	95.69
640.27	103.69
640.475	99.69
640.681	91.69
640.886	91.69
641.091	102.69
641.297	107.69
641.502	102.69
641.707	92.69
641.913	102.69
642.118	100.69
642.323	92.69
642.528	101.69
642.733	99.69
642.939	95.69
643.144	104.69
643.349	119.69
643.554	104.69
643.759	111.69
643.964	89.69
644.169	97.69
644.374	90.69
644.579	91.69
644.784	97.69
644.989	95.69
645.194	97.69
645.399	108.69
645.604	99.69
645.809	92.69
646.014	103.69
646.219	98.69
646.423	99.69
646.628	106.69
646.833	102.69
647.038	90.69
647.243	85.69
647.447	104.69
647.652	90.69
647.857	99.69
648.062	85.69
648.266	104.69
648.471	104.69
648.676	95.69
648.88	101.69
649.085	101.69
649.289	82.69
649.494	90.69
649.698	97.69
649.903	87.69
650.107	102.69
650.312	93.69
650.516	83.69
650.721	84.69
650.925	95.69
651.13	99.69
651.334	95.69
651.539	95.69
651.743	92.69
651.947	95.69
652.152	95.69
652.356	98.69
652.56	84.69
652.764	85.69
652.969	92.69
653.173	97.69
653.377	104.69
653.581	95.69
653.785	90.69
653.99	87.69
654.194	91.69
654.398	91.69
654.602	94.69
654.806	97.69
655.01	93.69
655.214	88.69
655.418	103.69
655.622	85.69
655.826	85.69
656.03	76.69
656.234	99.69
656.438	92.69
656.642	92.69
656.846	75.69
657.049	94.69
657.253	105.69
657.457	85.69
657.661	75.69
657.865	88.69
658.068	91.69
658.272	83.69
658.476	80.69
658.68	87.69
658.883	77.69
659.087	77.69
659.291	84.69
659.494	85.69
659.698	83.69
659.901	71.69
660.105	83.69
660.309	81.69
660.512	80.69
660.716	81.69
660.919	82.69
661.123	84.69
661.326	91.69
661.53	97.69
661.733	84.69
661.936	74.69
662.14	90.69
662.343	79.69
662.546	87.69
662.75	77.69
662.953	88.69
663.156	74.69
663.36	83.69
663.563	64.69
663.766	81.69
663.969	85.69
664.173	92.69
664.376	73.69
664.579	87.69
664.782	63.69
664.985	78.69
665.188	84.69
665.391	84.69
665.594	89.69
665.797	72.69
666	86.69
666.203	87.69
666.406	73.69
666.609	79.69
666.812	90.69
667.015	84.69
667.218	87.69
667.421	88.69
667.624	80.69
667.827	83.69
668.03	88.69
668.232	92.69
668.435	81.69
668.638	78.69
668.841	90.69
669.043	81.69
669.246	87.69
669.449	86.69
669.651	89.69
669.854	87.69
670.057	75.69
670.259	77.69
670.462	87.69
670.665	75.69
670.867	64.69
671.07	82.69
671.272	81.69
671.475	75.69
671.677	88.69
671.88	87.69
672.082	78.69
672.284	72.69
672.487	70.69
672.689	82.69
672.892	73.69
