Data from Location1.07152019.Energy5.Lamp.07192019.3%Agarose_HRD10591_14-32-46-016.txt Node
Date: Fri Jul 19 14:32:46 EDT 2019
User: cochatt
Spectrometer: HR+D1059
Trigger mode: 1
Integration Time (sec): 1.000000E-1
Scans to average: 1
Electric dark correction enabled: true
Nonlinearity correction enabled: false
Boxcar width: 0
XAxis mode: Wavelengths
Number of Pixels in Spectrum: 2048
>>>>>Begin Spectral Data<<<<<
223.165	-25.31
223.4	-25.31
223.635	-25.31
223.869	-14.31
224.104	-18.31
224.338	-16.31
224.573	-5.31
224.808	-23.31
225.042	-4.31
225.277	-4.31
225.511	0.69
225.746	5.69
225.98	2.69
226.215	-0.31
226.449	20.69
226.683	7.69
226.918	40.69
227.152	33.69
227.387	31.69
227.621	19.69
227.856	37.69
228.09	36.69
228.324	52.69
228.559	58.69
228.793	54.69
229.027	52.69
229.262	59.69
229.496	68.69
229.73	57.69
229.964	67.69
230.199	51.69
230.433	70.69
230.667	65.69
230.901	90.69
231.136	78.69
231.37	77.69
231.604	67.69
231.838	72.69
232.072	88.69
232.306	80.69
232.541	81.69
232.775	86.69
233.009	74.69
233.243	65.69
233.477	75.69
233.711	84.69
233.945	70.69
234.179	69.69
234.413	82.69
234.647	73.69
234.881	74.69
235.115	69.69
235.349	73.69
235.583	81.69
235.817	74.69
236.051	83.69
236.285	70.69
236.519	89.69
236.753	75.69
236.987	69.69
237.221	66.69
237.455	79.69
237.689	76.69
237.922	67.69
238.156	76.69
238.39	72.69
238.624	71.69
238.858	73.69
239.091	71.69
239.325	68.69
239.559	69.69
239.793	83.69
240.027	76.69
240.26	68.69
240.494	84.69
240.728	85.69
240.961	64.69
241.195	74.69
241.429	78.69
241.662	65.69
241.896	83.69
242.13	71.69
242.363	65.69
242.597	68.69
242.83	75.69
243.064	70.69
243.298	69.69
243.531	66.69
243.765	75.69
243.998	80.69
244.232	69.69
244.465	74.69
244.699	81.69
244.932	73.69
245.166	75.69
245.399	73.69
245.633	85.69
245.866	74.69
246.099	59.69
246.333	68.69
246.566	80.69
246.8	83.69
247.033	87.69
247.266	68.69
247.5	88.69
247.733	71.69
247.966	72.69
248.2	79.69
248.433	69.69
248.666	72.69
248.899	75.69
249.133	85.69
249.366	81.69
249.599	77.69
249.832	71.69
250.066	77.69
250.299	67.69
250.532	76.69
250.765	78.69
250.998	67.69
251.231	83.69
251.465	70.69
251.698	79.69
251.931	77.69
252.164	81.69
252.397	83.69
252.63	74.69
252.863	85.69
253.096	77.69
253.329	70.69
253.562	75.69
253.795	75.69
254.028	73.69
254.261	77.69
254.494	73.69
254.727	71.69
254.96	93.69
255.193	84.69
255.426	80.69
255.659	82.69
255.892	79.69
256.124	81.69
256.357	94.69
256.59	83.69
256.823	71.69
257.056	73.69
257.289	69.69
257.521	83.69
257.754	77.69
257.987	76.69
258.22	82.69
258.452	71.69
258.685	72.69
258.918	65.69
259.151	76.69
259.383	74.69
259.616	83.69
259.849	75.69
260.081	79.69
260.314	65.69
260.547	67.69
260.779	81.69
261.012	67.69
261.244	84.69
261.477	93.69
261.71	78.69
261.942	81.69
262.175	84.69
262.407	73.69
262.64	92.69
262.872	73.69
263.105	80.69
263.337	91.69
263.57	80.69
263.802	85.69
264.035	80.69
264.267	77.69
264.499	77.69
264.732	80.69
264.964	68.69
265.197	77.69
265.429	81.69
265.661	83.69
265.894	66.69
266.126	73.69
266.358	74.69
266.591	74.69
266.823	55.69
267.055	67.69
267.287	80.69
267.52	72.69
267.752	81.69
267.984	75.69
268.216	73.69
268.448	85.69
268.681	96.69
268.913	90.69
269.145	78.69
269.377	66.69
269.609	62.69
269.841	70.69
270.073	77.69
270.306	82.69
270.538	66.69
270.77	95.69
271.002	72.69
271.234	87.69
271.466	93.69
271.698	74.69
271.93	88.69
272.162	89.69
272.394	78.69
272.626	71.69
272.858	84.69
273.09	80.69
273.322	77.69
273.553	77.69
273.785	71.69
274.017	66.69
274.249	90.69
274.481	81.69
274.713	65.69
274.945	75.69
275.176	78.69
275.408	81.69
275.64	89.69
275.872	76.69
276.104	91.69
276.335	69.69
276.567	86.69
276.799	74.69
277.031	73.69
277.262	80.69
277.494	70.69
277.726	83.69
277.957	84.69
278.189	77.69
278.421	73.69
278.652	80.69
278.884	78.69
279.115	83.69
279.347	79.69
279.579	80.69
279.81	90.69
280.042	84.69
280.273	96.69
280.505	77.69
280.736	95.69
280.968	67.69
281.199	81.69
281.431	82.69
281.662	98.69
281.894	74.69
282.125	80.69
282.356	69.69
282.588	83.69
282.819	64.69
283.051	80.69
283.282	77.69
283.513	87.69
283.745	76.69
283.976	73.69
284.207	83.69
284.439	73.69
284.67	77.69
284.901	73.69
285.132	75.69
285.364	76.69
285.595	78.69
285.826	79.69
286.057	69.69
286.288	70.69
286.52	81.69
286.751	75.69
286.982	79.69
287.213	79.69
287.444	74.69
287.675	87.69
287.906	70.69
288.138	72.69
288.369	74.69
288.6	77.69
288.831	84.69
289.062	65.69
289.293	68.69
289.524	77.69
289.755	77.69
289.986	86.69
290.217	75.69
290.448	90.69
290.679	83.69
290.91	87.69
291.141	87.69
291.371	85.69
291.602	97.69
291.833	91.69
292.064	87.69
292.295	76.69
292.526	93.69
292.757	77.69
292.987	70.69
293.218	87.69
293.449	88.69
293.68	81.69
293.91	89.69
294.141	80.69
294.372	72.69
294.603	83.69
294.833	76.69
295.064	78.69
295.295	73.69
295.525	72.69
295.756	69.69
295.987	89.69
296.217	87.69
296.448	80.69
296.679	96.69
296.909	91.69
297.14	69.69
297.37	78.69
297.601	93.69
297.831	80.69
298.062	77.69
298.292	76.69
298.523	81.69
298.753	87.69
298.984	81.69
299.214	79.69
299.445	84.69
299.675	79.69
299.905	67.69
300.136	72.69
300.366	84.69
300.597	87.69
300.827	80.69
301.057	71.69
301.288	74.69
301.518	92.69
301.748	88.69
301.979	89.69
302.209	87.69
302.439	71.69
302.669	82.69
302.9	90.69
303.13	94.69
303.36	76.69
303.59	83.69
303.82	83.69
304.051	81.69
304.281	83.69
304.511	85.69
304.741	73.69
304.971	81.69
305.201	76.69
305.431	75.69
305.661	81.69
305.891	90.69
306.121	83.69
306.352	94.69
306.582	71.69
306.812	76.69
307.042	88.69
307.272	70.69
307.502	69.69
307.731	98.69
307.961	73.69
308.191	81.69
308.421	81.69
308.651	86.69
308.881	80.69
309.111	74.69
309.341	69.69
309.571	71.69
309.8	83.69
310.03	79.69
310.26	83.69
310.49	74.69
310.72	88.69
310.949	88.69
311.179	101.69
311.409	89.69
311.639	84.69
311.868	89.69
312.098	95.69
312.328	82.69
312.557	80.69
312.787	75.69
313.017	93.69
313.246	84.69
313.476	84.69
313.706	76.69
313.935	82.69
314.165	95.69
314.394	78.69
314.624	78.69
314.853	99.69
315.083	89.69
315.312	65.69
315.542	81.69
315.771	82.69
316.001	89.69
316.23	83.69
316.46	78.69
316.689	80.69
316.919	75.69
317.148	94.69
317.377	85.69
317.607	106.69
317.836	77.69
318.065	96.69
318.295	80.69
318.524	94.69
318.753	93.69
318.983	95.69
319.212	80.69
319.441	82.69
319.67	88.69
319.9	91.69
320.129	96.69
320.358	73.69
320.587	75.69
320.816	78.69
321.046	82.69
321.275	86.69
321.504	97.69
321.733	82.69
321.962	70.69
322.191	97.69
322.42	80.69
322.649	70.69
322.878	74.69
323.108	91.69
323.337	74.69
323.566	93.69
323.795	80.69
324.024	74.69
324.253	77.69
324.482	77.69
324.71	70.69
324.939	95.69
325.168	83.69
325.397	89.69
325.626	88.69
325.855	82.69
326.084	77.69
326.313	79.69
326.542	88.69
326.77	80.69
326.999	76.69
327.228	74.69
327.457	75.69
327.686	79.69
327.914	76.69
328.143	89.69
328.372	76.69
328.6	81.69
328.829	71.69
329.058	92.69
329.287	79.69
329.515	87.69
329.744	84.69
329.972	84.69
330.201	92.69
330.43	102.69
330.658	89.69
330.887	70.69
331.115	66.69
331.344	83.69
331.572	68.69
331.801	86.69
332.03	75.69
332.258	83.69
332.486	70.69
332.715	83.69
332.943	83.69
333.172	78.69
333.4	83.69
333.629	92.69
333.857	73.69
334.085	85.69
334.314	85.69
334.542	77.69
334.771	76.69
334.999	82.69
335.227	67.69
335.455	80.69
335.684	92.69
335.912	74.69
336.14	81.69
336.369	72.69
336.597	75.69
336.825	72.69
337.053	76.69
337.281	83.69
337.51	77.69
337.738	89.69
337.966	78.69
338.194	83.69
338.422	88.69
338.65	90.69
338.878	75.69
339.106	89.69
339.334	90.69
339.562	76.69
339.79	84.69
340.018	90.69
340.246	70.69
340.474	75.69
340.702	80.69
340.93	83.69
341.158	79.69
341.386	78.69
341.614	82.69
341.842	80.69
342.07	74.69
342.298	83.69
342.526	74.69
342.754	79.69
342.981	82.69
343.209	83.69
343.437	86.69
343.665	95.69
343.893	102.69
344.12	71.69
344.348	76.69
344.576	77.69
344.804	67.69
345.031	82.69
345.259	81.69
345.487	79.69
345.714	84.69
345.942	86.69
346.17	81.69
346.397	77.69
346.625	85.69
346.853	83.69
347.08	83.69
347.308	78.69
347.535	82.69
347.763	74.69
347.99	82.69
348.218	69.69
348.445	87.69
348.673	87.69
348.9	83.69
349.128	83.69
349.355	76.69
349.583	92.69
349.81	75.69
350.037	76.69
350.265	82.69
350.492	74.69
350.72	77.69
350.947	82.69
351.174	75.69
351.402	73.69
351.629	75.69
351.856	77.69
352.083	90.69
352.311	82.69
352.538	84.69
352.765	83.69
352.992	84.69
353.22	82.69
353.447	81.69
353.674	87.69
353.901	73.69
354.128	88.69
354.355	83.69
354.583	83.69
354.81	77.69
355.037	87.69
355.264	85.69
355.491	84.69
355.718	84.69
355.945	94.69
356.172	73.69
356.399	77.69
356.626	87.69
356.853	79.69
357.08	98.69
357.307	77.69
357.534	88.69
357.761	90.69
357.988	92.69
358.215	79.69
358.441	85.69
358.668	85.69
358.895	103.69
359.122	83.69
359.349	71.69
359.576	81.69
359.802	84.69
360.029	85.69
360.256	81.69
360.483	67.69
360.709	87.69
360.936	89.69
361.163	90.69
361.39	95.69
361.616	93.69
361.843	89.69
362.07	91.69
362.296	81.69
362.523	77.69
362.749	64.69
362.976	67.69
363.203	87.69
363.429	101.69
363.656	97.69
363.882	79.69
364.109	84.69
364.335	88.69
364.562	85.69
364.788	78.69
365.015	76.69
365.241	81.69
365.468	80.69
365.694	75.69
365.92	89.69
366.147	72.69
366.373	83.69
366.599	96.69
366.826	84.69
367.052	85.69
367.278	85.69
367.505	70.69
367.731	76.69
367.957	91.69
368.184	80.69
368.41	100.69
368.636	92.69
368.862	95.69
369.089	94.69
369.315	90.69
369.541	105.69
369.767	88.69
369.993	95.69
370.219	69.69
370.445	98.69
370.672	95.69
370.898	92.69
371.124	83.69
371.35	85.69
371.576	74.69
371.802	99.69
372.028	89.69
372.254	86.69
372.48	90.69
372.706	68.69
372.932	81.69
373.158	96.69
373.384	97.69
373.61	77.69
373.835	96.69
374.061	80.69
374.287	108.69
374.513	89.69
374.739	97.69
374.965	98.69
375.191	98.69
375.416	99.69
375.642	84.69
375.868	87.69
376.094	95.69
376.319	103.69
376.545	103.69
376.771	101.69
376.997	92.69
377.222	97.69
377.448	88.69
377.674	92.69
377.899	96.69
378.125	87.69
378.35	101.69
378.576	105.69
378.802	86.69
379.027	99.69
379.253	86.69
379.478	90.69
379.704	93.69
379.929	107.69
380.155	83.69
380.38	98.69
380.606	96.69
380.831	88.69
381.057	96.69
381.282	95.69
381.507	95.69
381.733	103.69
381.958	86.69
382.184	83.69
382.409	93.69
382.634	100.69
382.86	104.69
383.085	91.69
383.31	95.69
383.535	101.69
383.761	90.69
383.986	84.69
384.211	95.69
384.436	98.69
384.662	92.69
384.887	91.69
385.112	98.69
385.337	111.69
385.562	94.69
385.787	79.69
386.013	98.69
386.238	114.69
386.463	91.69
386.688	97.69
386.913	86.69
387.138	84.69
387.363	100.69
387.588	105.69
387.813	98.69
388.038	93.69
388.263	95.69
388.488	91.69
388.713	100.69
388.938	99.69
389.163	92.69
389.387	111.69
389.612	111.69
389.837	112.69
390.062	105.69
390.287	102.69
390.512	98.69
390.736	96.69
390.961	111.69
391.186	112.69
391.411	83.69
391.636	83.69
391.86	96.69
392.085	96.69
392.31	89.69
392.534	99.69
392.759	116.69
392.984	93.69
393.208	97.69
393.433	96.69
393.658	95.69
393.882	113.69
394.107	105.69
394.331	98.69
394.556	112.69
394.78	102.69
395.005	107.69
395.229	100.69
395.454	112.69
395.678	107.69
395.903	106.69
396.127	109.69
396.352	105.69
396.576	108.69
396.801	102.69
397.025	127.69
397.249	111.69
397.474	108.69
397.698	111.69
397.922	114.69
398.147	99.69
398.371	95.69
398.595	97.69
398.82	99.69
399.044	101.69
399.268	113.69
399.492	111.69
399.717	107.69
399.941	101.69
400.165	106.69
400.389	99.69
400.613	102.69
400.837	98.69
401.062	107.69
401.286	91.69
401.51	108.69
401.734	118.69
401.958	102.69
402.182	115.69
402.406	120.69
402.63	106.69
402.854	98.69
403.078	107.69
403.302	101.69
403.526	116.69
403.75	110.69
403.974	122.69
404.198	102.69
404.422	114.69
404.645	111.69
404.869	125.69
405.093	112.69
405.317	121.69
405.541	123.69
405.765	117.69
405.988	109.69
406.212	113.69
406.436	119.69
406.66	121.69
406.883	123.69
407.107	106.69
407.331	124.69
407.555	121.69
407.778	107.69
408.002	117.69
408.226	109.69
408.449	114.69
408.673	124.69
408.896	103.69
409.12	125.69
409.344	108.69
409.567	115.69
409.791	116.69
410.014	121.69
410.238	124.69
410.461	121.69
410.685	114.69
410.908	120.69
411.132	116.69
411.355	127.69
411.578	107.69
411.802	125.69
412.025	112.69
412.249	119.69
412.472	131.69
412.695	116.69
412.919	103.69
413.142	119.69
413.365	133.69
413.589	117.69
413.812	111.69
414.035	108.69
414.258	129.69
414.482	127.69
414.705	122.69
414.928	131.69
415.151	112.69
415.374	121.69
415.597	119.69
415.821	120.69
416.044	123.69
416.267	133.69
416.49	116.69
416.713	123.69
416.936	124.69
417.159	118.69
417.382	128.69
417.605	134.69
417.828	128.69
418.051	126.69
418.274	119.69
418.497	126.69
418.72	134.69
418.943	124.69
419.166	133.69
419.389	140.69
419.611	131.69
419.834	133.69
420.057	128.69
420.28	143.69
420.503	131.69
420.726	127.69
420.948	130.69
421.171	136.69
421.394	139.69
421.617	122.69
421.839	137.69
422.062	136.69
422.285	138.69
422.507	134.69
422.73	117.69
422.953	101.69
423.175	111.69
423.398	137.69
423.621	128.69
423.843	125.69
424.066	125.69
424.288	123.69
424.511	134.69
424.733	140.69
424.956	140.69
425.178	138.69
425.401	128.69
425.623	138.69
425.846	134.69
426.068	130.69
426.291	109.69
426.513	127.69
426.735	125.69
426.958	127.69
427.18	121.69
427.402	130.69
427.625	119.69
427.847	127.69
428.069	109.69
428.292	125.69
428.514	119.69
428.736	119.69
428.958	121.69
429.181	124.69
429.403	117.69
429.625	123.69
429.847	119.69
430.069	129.69
430.292	133.69
430.514	132.69
430.736	137.69
430.958	139.69
431.18	121.69
431.402	116.69
431.624	118.69
431.846	115.69
432.068	96.69
432.29	81.69
432.512	111.69
432.734	119.69
432.956	118.69
433.178	140.69
433.4	122.69
433.622	125.69
433.844	120.69
434.066	115.69
434.287	102.69
434.509	88.69
434.731	103.69
434.953	107.69
435.175	112.69
435.397	121.69
435.618	119.69
435.84	105.69
436.062	121.69
436.284	118.69
436.505	117.69
436.727	141.69
436.949	138.69
437.17	135.69
437.392	126.69
437.614	117.69
437.835	103.69
438.057	108.69
438.278	112.69
438.5	125.69
438.721	133.69
438.943	137.69
439.165	132.69
439.386	131.69
439.608	138.69
439.829	142.69
440.05	147.69
440.272	135.69
440.493	131.69
440.715	135.69
440.936	145.69
441.158	149.69
441.379	131.69
441.6	155.69
441.822	147.69
442.043	149.69
442.264	148.69
442.486	134.69
442.707	127.69
442.928	143.69
443.149	136.69
443.371	139.69
443.592	140.69
443.813	136.69
444.034	139.69
444.255	136.69
444.476	135.69
444.698	131.69
444.919	146.69
445.14	267.69
445.361	183.69
445.582	141.69
445.803	147.69
446.024	152.69
446.245	154.69
446.466	148.69
446.687	158.69
446.908	151.69
447.129	120.69
447.35	157.69
447.571	144.69
447.792	142.69
448.013	133.69
448.234	143.69
448.455	140.69
448.675	121.69
448.896	145.69
449.117	125.69
449.338	143.69
449.559	127.69
449.779	148.69
450	141.69
450.221	138.69
450.442	131.69
450.662	142.69
450.883	145.69
451.104	139.69
451.324	131.69
451.545	117.69
451.766	120.69
451.986	119.69
452.207	115.69
452.428	114.69
452.648	128.69
452.869	119.69
453.089	119.69
453.31	104.69
453.53	105.69
453.751	102.69
453.971	81.69
454.192	99.69
454.412	114.69
454.633	103.69
454.853	115.69
455.073	116.69
455.294	118.69
455.514	113.69
455.734	101.69
455.955	104.69
456.175	101.69
456.395	120.69
456.616	106.69
456.836	109.69
457.056	110.69
457.276	92.69
457.497	99.69
457.717	108.69
457.937	104.69
458.157	111.69
458.377	95.69
458.598	90.69
458.818	98.69
459.038	95.69
459.258	88.69
459.478	77.69
459.698	88.69
459.918	96.69
460.138	113.69
460.358	103.69
460.578	115.69
460.798	109.69
461.018	112.69
461.238	96.69
461.458	107.69
461.678	112.69
461.898	106.69
462.118	111.69
462.338	105.69
462.558	113.69
462.777	98.69
462.997	101.69
463.217	120.69
463.437	101.69
463.657	117.69
463.876	97.69
464.096	112.69
464.316	103.69
464.536	113.69
464.755	117.69
464.975	115.69
465.195	115.69
465.414	115.69
465.634	98.69
465.854	113.69
466.073	111.69
466.293	112.69
466.512	130.69
466.732	121.69
466.951	131.69
467.171	127.69
467.391	136.69
467.61	155.69
467.829	127.69
468.049	130.69
468.268	127.69
468.488	134.69
468.707	133.69
468.927	130.69
469.146	123.69
469.365	125.69
469.585	127.69
469.804	140.69
470.023	129.69
470.243	132.69
470.462	119.69
470.681	130.69
470.901	134.69
471.12	130.69
471.339	138.69
471.558	129.69
471.777	122.69
471.997	109.69
472.216	125.69
472.435	105.69
472.654	111.69
472.873	116.69
473.092	120.69
473.311	115.69
473.53	123.69
473.749	131.69
473.968	120.69
474.187	117.69
474.406	119.69
474.625	138.69
474.844	131.69
475.063	121.69
475.282	122.69
475.501	120.69
475.72	108.69
475.939	120.69
476.158	127.69
476.377	123.69
476.596	133.69
476.814	102.69
477.033	113.69
477.252	107.69
477.471	111.69
477.69	141.69
477.908	138.69
478.127	139.69
478.346	140.69
478.564	133.69
478.783	129.69
479.002	136.69
479.22	136.69
479.439	128.69
479.658	116.69
479.876	107.69
480.095	115.69
480.313	117.69
480.532	109.69
480.751	111.69
480.969	109.69
481.188	85.69
481.406	85.69
481.624	75.69
481.843	88.69
482.061	86.69
482.28	105.69
482.498	114.69
482.717	106.69
482.935	124.69
483.153	134.69
483.372	140.69
483.59	133.69
483.808	128.69
484.027	115.69
484.245	125.69
484.463	139.69
484.681	151.69
484.9	139.69
485.118	138.69
485.336	125.69
485.554	103.69
485.772	105.69
485.99	97.69
486.209	99.69
486.427	104.69
486.645	120.69
486.863	145.69
487.081	145.69
487.299	133.69
487.517	124.69
487.735	165.69
487.953	183.69
488.171	177.69
488.389	169.69
488.607	159.69
488.825	135.69
489.043	134.69
489.261	121.69
489.479	147.69
489.696	147.69
489.914	134.69
490.132	147.69
490.35	149.69
490.568	153.69
490.786	163.69
491.003	177.69
491.221	171.69
491.439	168.69
491.657	187.69
491.874	187.69
492.092	204.69
492.31	221.69
492.527	208.69
492.745	211.69
492.963	177.69
493.18	178.69
493.398	183.69
493.615	174.69
493.833	177.69
494.05	169.69
494.268	173.69
494.485	171.69
494.703	169.69
494.92	171.69
495.138	177.69
495.355	179.69
495.573	168.69
495.79	152.69
496.008	162.69
496.225	155.69
496.442	156.69
496.66	164.69
496.877	152.69
497.094	141.69
497.312	161.69
497.529	162.69
497.746	161.69
497.963	136.69
498.181	139.69
498.398	114.69
498.615	115.69
498.832	120.69
499.049	117.69
499.267	113.69
499.484	132.69
499.701	128.69
499.918	127.69
500.135	134.69
500.352	150.69
500.569	134.69
500.786	141.69
501.003	124.69
501.22	142.69
501.437	142.69
501.654	140.69
501.871	125.69
502.088	125.69
502.305	121.69
502.522	127.69
502.739	117.69
502.956	122.69
503.172	117.69
503.389	124.69
503.606	123.69
503.823	115.69
504.04	130.69
504.256	121.69
504.473	115.69
504.69	116.69
504.907	128.69
505.123	129.69
505.34	122.69
505.557	117.69
505.773	119.69
505.99	124.69
506.207	121.69
506.423	117.69
506.64	134.69
506.856	104.69
507.073	117.69
507.289	127.69
507.506	108.69
507.722	118.69
507.939	113.69
508.155	119.69
508.372	109.69
508.588	105.69
508.805	107.69
509.021	108.69
509.238	120.69
509.454	106.69
509.67	112.69
509.887	79.69
510.103	79.69
510.319	91.69
510.536	92.69
510.752	93.69
510.968	82.69
511.184	79.69
511.401	72.69
511.617	91.69
511.833	102.69
512.049	96.69
512.265	85.69
512.481	91.69
512.698	91.69
512.914	96.69
513.13	94.69
513.346	102.69
513.562	87.69
513.778	88.69
513.994	77.69
514.21	103.69
514.426	100.69
514.642	94.69
514.858	78.69
515.074	86.69
515.29	87.69
515.506	89.69
515.721	84.69
515.937	77.69
516.153	62.69
516.369	86.69
516.585	79.69
516.801	84.69
517.016	96.69
517.232	100.69
517.448	97.69
517.664	104.69
517.879	101.69
518.095	96.69
518.311	100.69
518.527	75.69
518.742	85.69
518.958	94.69
519.173	100.69
519.389	91.69
519.605	107.69
519.82	97.69
520.036	112.69
520.251	104.69
520.467	96.69
520.682	98.69
520.898	88.69
521.113	91.69
521.329	90.69
521.544	97.69
521.76	94.69
521.975	103.69
522.19	82.69
522.406	81.69
522.621	93.69
522.836	94.69
523.052	100.69
523.267	96.69
523.482	99.69
523.698	112.69
523.913	99.69
524.128	101.69
524.343	101.69
524.559	119.69
524.774	116.69
524.989	122.69
525.204	121.69
525.419	99.69
525.634	105.69
525.849	111.69
526.064	106.69
526.28	119.69
526.495	98.69
526.71	87.69
526.925	88.69
527.14	86.69
527.355	91.69
527.57	64.69
527.785	77.69
527.999	102.69
528.214	112.69
528.429	114.69
528.644	136.69
528.859	127.69
529.074	136.69
529.289	163.69
529.503	177.69
529.718	141.69
529.933	121.69
530.148	123.69
530.363	113.69
530.577	91.69
530.792	85.69
531.007	74.69
531.221	74.69
531.436	72.69
531.651	82.69
531.865	73.69
532.08	88.69
532.295	95.69
532.509	87.69
532.724	76.69
532.938	87.69
533.153	97.69
533.367	107.69
533.582	111.69
533.796	115.69
534.011	112.69
534.225	82.69
534.44	82.69
534.654	88.69
534.868	95.69
535.083	85.69
535.297	85.69
535.511	105.69
535.726	96.69
535.94	101.69
536.154	90.69
536.369	96.69
536.583	79.69
536.797	81.69
537.011	85.69
537.225	91.69
537.44	84.69
537.654	81.69
537.868	96.69
538.082	89.69
538.296	89.69
538.51	102.69
538.724	107.69
538.938	124.69
539.153	124.69
539.367	115.69
539.581	104.69
539.795	97.69
540.009	95.69
540.222	96.69
540.436	104.69
540.65	111.69
540.864	106.69
541.078	145.69
541.292	141.69
541.506	138.69
541.72	176.69
541.934	161.69
542.147	200.69
542.361	168.69
542.575	155.69
542.789	143.69
543.002	138.69
543.216	119.69
543.43	127.69
543.644	110.69
543.857	124.69
544.071	155.69
544.285	145.69
544.498	141.69
544.712	155.69
544.925	162.69
545.139	162.69
545.352	154.69
545.566	177.69
545.779	162.69
545.993	159.69
546.206	175.69
546.42	164.69
546.633	168.69
546.847	151.69
547.06	165.69
547.274	164.69
547.487	164.69
547.7	180.69
547.914	175.69
548.127	151.69
548.34	153.69
548.554	153.69
548.767	166.69
548.98	171.69
549.193	136.69
549.407	162.69
549.62	167.69
549.833	138.69
550.046	134.69
550.259	153.69
550.473	140.69
550.686	157.69
550.899	141.69
551.112	139.69
551.325	140.69
551.538	139.69
551.751	138.69
551.964	124.69
552.177	119.69
552.39	126.69
552.603	137.69
552.816	148.69
553.029	148.69
553.242	148.69
553.455	167.69
553.667	160.69
553.88	140.69
554.093	141.69
554.306	137.69
554.519	138.69
554.732	146.69
554.944	152.69
555.157	150.69
555.37	144.69
555.583	133.69
555.795	125.69
556.008	138.69
556.221	132.69
556.433	132.69
556.646	115.69
556.859	133.69
557.071	122.69
557.284	143.69
557.496	145.69
557.709	140.69
557.921	145.69
558.134	131.69
558.346	138.69
558.559	142.69
558.771	123.69
558.984	138.69
559.196	132.69
559.409	120.69
559.621	137.69
559.833	137.69
560.046	123.69
560.258	135.69
560.47	127.69
560.683	118.69
560.895	136.69
561.107	137.69
561.32	131.69
561.532	127.69
561.744	135.69
561.956	123.69
562.168	133.69
562.381	143.69
562.593	127.69
562.805	121.69
563.017	122.69
563.229	123.69
563.441	118.69
563.653	131.69
563.865	119.69
564.077	121.69
564.289	120.69
564.501	123.69
564.713	121.69
564.925	126.69
565.137	109.69
565.349	127.69
565.561	101.69
565.773	110.69
565.985	113.69
566.197	115.69
566.408	110.69
566.62	129.69
566.832	112.69
567.044	121.69
567.255	103.69
567.467	117.69
567.679	104.69
567.891	101.69
568.102	111.69
568.314	100.69
568.526	87.69
568.737	81.69
568.949	79.69
569.161	89.69
569.372	67.69
569.584	78.69
569.795	75.69
570.007	87.69
570.218	96.69
570.43	72.69
570.641	76.69
570.853	99.69
571.064	92.69
571.276	103.69
571.487	105.69
571.698	91.69
571.91	99.69
572.121	91.69
572.333	100.69
572.544	105.69
572.755	92.69
572.966	98.69
573.178	77.69
573.389	85.69
573.6	77.69
573.811	82.69
574.023	77.69
574.234	81.69
574.445	94.69
574.656	98.69
574.867	77.69
575.078	81.69
575.289	101.69
575.501	93.69
575.712	98.69
575.923	92.69
576.134	100.69
576.345	83.69
576.556	93.69
576.767	89.69
576.978	94.69
577.188	96.69
577.399	91.69
577.61	85.69
577.821	85.69
578.032	98.69
578.243	91.69
578.454	87.69
578.665	94.69
578.875	84.69
579.086	88.69
579.297	76.69
579.508	78.69
579.718	81.69
579.929	83.69
580.14	81.69
580.35	70.69
580.561	87.69
580.772	91.69
580.982	92.69
581.193	77.69
581.403	88.69
581.614	90.69
581.825	91.69
582.035	88.69
582.246	92.69
582.456	90.69
582.667	82.69
582.877	91.69
583.087	76.69
583.298	99.69
583.508	98.69
583.719	89.69
583.929	87.69
584.139	83.69
584.35	81.69
584.56	73.69
584.77	85.69
584.981	77.69
585.191	88.69
585.401	84.69
585.611	91.69
585.821	82.69
586.032	81.69
586.242	90.69
586.452	91.69
586.662	92.69
586.872	96.69
587.082	83.69
587.292	93.69
587.502	85.69
587.713	87.69
587.923	74.69
588.133	65.69
588.343	75.69
588.553	83.69
588.762	97.69
588.972	91.69
589.182	90.69
589.392	68.69
589.602	80.69
589.812	80.69
590.022	72.69
590.232	83.69
590.441	82.69
590.651	73.69
590.861	80.69
591.071	76.69
591.281	88.69
591.49	82.69
591.7	81.69
591.91	83.69
592.119	77.69
592.329	75.69
592.539	83.69
592.748	96.69
592.958	88.69
593.167	70.69
593.377	74.69
593.587	91.69
593.796	80.69
594.006	84.69
594.215	92.69
594.424	91.69
594.634	92.69
594.843	91.69
595.053	83.69
595.262	93.69
595.472	87.69
595.681	95.69
595.89	91.69
596.1	89.69
596.309	92.69
596.518	94.69
596.727	88.69
596.937	92.69
597.146	101.69
597.355	96.69
597.564	101.69
597.774	75.69
597.983	93.69
598.192	83.69
598.401	97.69
598.61	87.69
598.819	91.69
599.028	88.69
599.237	89.69
599.446	85.69
599.655	98.69
599.864	98.69
600.073	77.69
600.282	93.69
600.491	102.69
600.7	88.69
600.909	93.69
601.118	90.69
601.327	114.69
601.536	105.69
601.745	89.69
601.953	113.69
602.162	102.69
602.371	102.69
602.58	102.69
602.789	109.69
602.997	102.69
603.206	103.69
603.415	106.69
603.623	101.69
603.832	107.69
604.041	101.69
604.249	105.69
604.458	91.69
604.666	97.69
604.875	96.69
605.084	97.69
605.292	101.69
605.501	98.69
605.709	130.69
605.918	107.69
606.126	92.69
606.334	103.69
606.543	113.69
606.751	100.69
606.96	99.69
607.168	105.69
607.376	119.69
607.585	120.69
607.793	108.69
608.001	111.69
608.21	123.69
608.418	117.69
608.626	102.69
608.834	122.69
609.043	108.69
609.251	123.69
609.459	94.69
609.667	104.69
609.875	114.69
610.083	119.69
610.291	124.69
610.499	121.69
610.707	105.69
610.916	97.69
611.124	106.69
611.332	103.69
611.54	100.69
611.748	113.69
611.955	103.69
612.163	117.69
612.371	114.69
612.579	107.69
612.787	113.69
612.995	112.69
613.203	118.69
613.411	102.69
613.618	101.69
613.826	121.69
614.034	98.69
614.242	105.69
614.449	92.69
614.657	100.69
614.865	95.69
615.072	103.69
615.28	113.69
615.488	123.69
615.695	113.69
615.903	116.69
616.111	112.69
616.318	118.69
616.526	100.69
616.733	119.69
616.941	100.69
617.148	95.69
617.356	105.69
617.563	106.69
617.771	111.69
617.978	108.69
618.185	102.69
618.393	112.69
618.6	116.69
618.807	123.69
619.015	111.69
619.222	104.69
619.429	98.69
619.637	106.69
619.844	96.69
620.051	92.69
620.258	108.69
620.466	100.69
620.673	103.69
620.88	103.69
621.087	96.69
621.294	114.69
621.501	103.69
621.708	99.69
621.915	120.69
622.122	115.69
622.329	112.69
622.536	107.69
622.743	90.69
622.95	103.69
623.157	88.69
623.364	96.69
623.571	108.69
623.778	105.69
623.985	105.69
624.192	101.69
624.399	90.69
624.606	117.69
624.812	108.69
625.019	109.69
625.226	105.69
625.433	98.69
625.639	90.69
625.846	100.69
626.053	95.69
626.259	97.69
626.466	89.69
626.673	93.69
626.879	90.69
627.086	95.69
627.293	97.69
627.499	104.69
627.706	97.69
627.912	113.69
628.119	112.69
628.325	105.69
628.532	116.69
628.738	105.69
628.945	99.69
629.151	105.69
629.357	104.69
629.564	100.69
629.77	91.69
629.976	103.69
630.183	97.69
630.389	103.69
630.595	100.69
630.802	108.69
631.008	97.69
631.214	87.69
631.42	88.69
631.627	119.69
631.833	101.69
632.039	98.69
632.245	106.69
632.451	94.69
632.657	96.69
632.863	97.69
633.069	95.69
633.275	106.69
633.481	100.69
633.688	93.69
633.893	90.69
634.099	89.69
634.305	109.69
634.511	104.69
634.717	96.69
634.923	81.69
635.129	97.69
635.335	89.69
635.541	76.69
635.747	119.69
635.952	115.69
636.158	108.69
636.364	108.69
636.57	105.69
636.775	107.69
636.981	95.69
637.187	106.69
637.392	101.69
637.598	97.69
637.804	113.69
638.009	103.69
638.215	98.69
638.421	96.69
638.626	91.69
638.832	105.69
639.037	97.69
639.243	100.69
639.448	91.69
639.654	104.69
639.859	101.69
640.065	83.69
640.27	105.69
640.475	100.69
640.681	96.69
640.886	99.69
641.091	103.69
641.297	91.69
641.502	97.69
641.707	99.69
641.913	96.69
642.118	98.69
642.323	100.69
642.528	101.69
642.733	96.69
642.939	103.69
643.144	118.69
643.349	85.69
643.554	94.69
643.759	100.69
643.964	103.69
644.169	94.69
644.374	95.69
644.579	93.69
644.784	112.69
644.989	106.69
645.194	103.69
645.399	89.69
645.604	92.69
645.809	108.69
646.014	101.69
646.219	92.69
646.423	85.69
646.628	95.69
646.833	83.69
647.038	93.69
647.243	103.69
647.447	101.69
647.652	77.69
647.857	93.69
648.062	92.69
648.266	88.69
648.471	98.69
648.676	90.69
648.88	96.69
649.085	96.69
649.289	96.69
649.494	91.69
649.698	100.69
649.903	91.69
650.107	87.69
650.312	100.69
650.516	96.69
650.721	87.69
650.925	91.69
651.13	98.69
651.334	91.69
651.539	84.69
651.743	102.69
651.947	92.69
652.152	91.69
652.356	95.69
652.56	94.69
652.764	95.69
652.969	92.69
653.173	83.69
653.377	92.69
653.581	93.69
653.785	79.69
653.99	83.69
654.194	88.69
654.398	105.69
654.602	83.69
654.806	79.69
655.01	96.69
655.214	99.69
655.418	87.69
655.622	82.69
655.826	82.69
656.03	86.69
656.234	96.69
656.438	92.69
656.642	92.69
656.846	86.69
657.049	81.69
657.253	79.69
657.457	74.69
657.661	85.69
657.865	79.69
658.068	101.69
658.272	87.69
658.476	79.69
658.68	82.69
658.883	86.69
659.087	81.69
659.291	74.69
659.494	82.69
659.698	87.69
659.901	87.69
660.105	107.69
660.309	93.69
660.512	88.69
660.716	89.69
660.919	82.69
661.123	85.69
661.326	90.69
661.53	85.69
661.733	75.69
661.936	72.69
662.14	81.69
662.343	86.69
662.546	95.69
662.75	74.69
662.953	96.69
663.156	96.69
663.36	74.69
663.563	78.69
663.766	82.69
663.969	75.69
664.173	75.69
664.376	75.69
664.579	82.69
664.782	72.69
664.985	84.69
665.188	70.69
665.391	72.69
665.594	94.69
665.797	84.69
666	84.69
666.203	76.69
666.406	71.69
666.609	85.69
666.812	79.69
667.015	83.69
667.218	97.69
667.421	83.69
667.624	74.69
667.827	75.69
668.03	73.69
668.232	87.69
668.435	83.69
668.638	83.69
668.841	64.69
669.043	85.69
669.246	83.69
669.449	68.69
669.651	79.69
669.854	66.69
670.057	84.69
670.259	73.69
670.462	83.69
670.665	67.69
670.867	85.69
671.07	79.69
671.272	69.69
671.475	80.69
671.677	71.69
671.88	81.69
672.082	81.69
672.284	80.69
672.487	94.69
672.689	75.69
672.892	61.69
