Data from Location1.07152019.Energy5.Lamp.07192019.3%Agarose_HRD10591_14-30-27-018.txt Node
Date: Fri Jul 19 14:30:27 EDT 2019
User: cochatt
Spectrometer: HR+D1059
Trigger mode: 1
Integration Time (sec): 1.000000E-1
Scans to average: 1
Electric dark correction enabled: true
Nonlinearity correction enabled: false
Boxcar width: 0
XAxis mode: Wavelengths
Number of Pixels in Spectrum: 2048
>>>>>Begin Spectral Data<<<<<
223.165	-16.62
223.4	-16.62
223.635	-16.62
223.869	-19.62
224.104	-15.62
224.338	-8.62
224.573	-8.62
224.808	-24.62
225.042	-6.62
225.277	-20.62
225.511	-13.62
225.746	10.38
225.98	15.38
226.215	19.38
226.449	12.38
226.683	12.38
226.918	28.38
227.152	36.38
227.387	51.38
227.621	48.38
227.856	36.38
228.09	40.38
228.324	47.38
228.559	53.38
228.793	71.38
229.027	65.38
229.262	61.38
229.496	76.38
229.73	77.38
229.964	75.38
230.199	73.38
230.433	68.38
230.667	78.38
230.901	88.38
231.136	85.38
231.37	100.38
231.604	89.38
231.838	82.38
232.072	85.38
232.306	84.38
232.541	72.38
232.775	85.38
233.009	83.38
233.243	91.38
233.477	84.38
233.711	85.38
233.945	75.38
234.179	70.38
234.413	91.38
234.647	88.38
234.881	76.38
235.115	82.38
235.349	69.38
235.583	83.38
235.817	83.38
236.051	74.38
236.285	79.38
236.519	69.38
236.753	82.38
236.987	85.38
237.221	84.38
237.455	81.38
237.689	91.38
237.922	67.38
238.156	85.38
238.39	72.38
238.624	80.38
238.858	87.38
239.091	86.38
239.325	71.38
239.559	68.38
239.793	80.38
240.027	94.38
240.26	84.38
240.494	76.38
240.728	76.38
240.961	84.38
241.195	74.38
241.429	86.38
241.662	93.38
241.896	79.38
242.13	71.38
242.363	66.38
242.597	70.38
242.83	70.38
243.064	80.38
243.298	80.38
243.531	71.38
243.765	68.38
243.998	92.38
244.232	77.38
244.465	78.38
244.699	74.38
244.932	79.38
245.166	78.38
245.399	99.38
245.633	80.38
245.866	76.38
246.099	80.38
246.333	86.38
246.566	80.38
246.8	75.38
247.033	76.38
247.266	79.38
247.5	71.38
247.733	73.38
247.966	76.38
248.2	79.38
248.433	73.38
248.666	85.38
248.899	78.38
249.133	88.38
249.366	74.38
249.599	72.38
249.832	69.38
250.066	80.38
250.299	77.38
250.532	76.38
250.765	78.38
250.998	70.38
251.231	77.38
251.465	84.38
251.698	79.38
251.931	72.38
252.164	83.38
252.397	76.38
252.63	76.38
252.863	74.38
253.096	87.38
253.329	73.38
253.562	80.38
253.795	74.38
254.028	77.38
254.261	78.38
254.494	84.38
254.727	91.38
254.96	83.38
255.193	85.38
255.426	71.38
255.659	106.38
255.892	85.38
256.124	80.38
256.357	70.38
256.59	77.38
256.823	92.38
257.056	91.38
257.289	86.38
257.521	64.38
257.754	78.38
257.987	83.38
258.22	88.38
258.452	77.38
258.685	80.38
258.918	87.38
259.151	67.38
259.383	88.38
259.616	90.38
259.849	79.38
260.081	82.38
260.314	74.38
260.547	101.38
260.779	92.38
261.012	91.38
261.244	89.38
261.477	89.38
261.71	84.38
261.942	90.38
262.175	83.38
262.407	85.38
262.64	87.38
262.872	80.38
263.105	91.38
263.337	84.38
263.57	85.38
263.802	78.38
264.035	80.38
264.267	90.38
264.499	86.38
264.732	90.38
264.964	92.38
265.197	83.38
265.429	84.38
265.661	91.38
265.894	83.38
266.126	85.38
266.358	88.38
266.591	91.38
266.823	79.38
267.055	79.38
267.287	76.38
267.52	94.38
267.752	90.38
267.984	81.38
268.216	75.38
268.448	86.38
268.681	80.38
268.913	74.38
269.145	67.38
269.377	85.38
269.609	79.38
269.841	90.38
270.073	84.38
270.306	79.38
270.538	70.38
270.77	77.38
271.002	79.38
271.234	85.38
271.466	103.38
271.698	85.38
271.93	74.38
272.162	84.38
272.394	76.38
272.626	84.38
272.858	95.38
273.09	81.38
273.322	89.38
273.553	80.38
273.785	91.38
274.017	82.38
274.249	85.38
274.481	76.38
274.713	72.38
274.945	85.38
275.176	96.38
275.408	75.38
275.64	88.38
275.872	82.38
276.104	85.38
276.335	93.38
276.567	92.38
276.799	86.38
277.031	66.38
277.262	83.38
277.494	72.38
277.726	83.38
277.957	87.38
278.189	94.38
278.421	92.38
278.652	80.38
278.884	87.38
279.115	91.38
279.347	78.38
279.579	84.38
279.81	85.38
280.042	80.38
280.273	78.38
280.505	92.38
280.736	72.38
280.968	96.38
281.199	76.38
281.431	79.38
281.662	73.38
281.894	84.38
282.125	80.38
282.356	95.38
282.588	86.38
282.819	93.38
283.051	94.38
283.282	82.38
283.513	90.38
283.745	84.38
283.976	88.38
284.207	88.38
284.439	83.38
284.67	86.38
284.901	80.38
285.132	82.38
285.364	79.38
285.595	91.38
285.826	85.38
286.057	82.38
286.288	97.38
286.52	93.38
286.751	93.38
286.982	78.38
287.213	81.38
287.444	95.38
287.675	77.38
287.906	87.38
288.138	80.38
288.369	87.38
288.6	68.38
288.831	80.38
289.062	80.38
289.293	86.38
289.524	98.38
289.755	83.38
289.986	72.38
290.217	72.38
290.448	81.38
290.679	87.38
290.91	91.38
291.141	77.38
291.371	93.38
291.602	66.38
291.833	90.38
292.064	97.38
292.295	75.38
292.526	98.38
292.757	98.38
292.987	83.38
293.218	89.38
293.449	84.38
293.68	76.38
293.91	83.38
294.141	88.38
294.372	85.38
294.603	68.38
294.833	87.38
295.064	100.38
295.295	93.38
295.525	82.38
295.756	75.38
295.987	92.38
296.217	97.38
296.448	87.38
296.679	96.38
296.909	92.38
297.14	91.38
297.37	85.38
297.601	93.38
297.831	70.38
298.062	76.38
298.292	84.38
298.523	86.38
298.753	91.38
298.984	83.38
299.214	93.38
299.445	93.38
299.675	69.38
299.905	103.38
300.136	80.38
300.366	87.38
300.597	91.38
300.827	78.38
301.057	80.38
301.288	79.38
301.518	86.38
301.748	90.38
301.979	80.38
302.209	78.38
302.439	83.38
302.669	79.38
302.9	95.38
303.13	91.38
303.36	90.38
303.59	81.38
303.82	80.38
304.051	92.38
304.281	92.38
304.511	96.38
304.741	78.38
304.971	75.38
305.201	84.38
305.431	83.38
305.661	79.38
305.891	76.38
306.121	101.38
306.352	86.38
306.582	84.38
306.812	80.38
307.042	92.38
307.272	100.38
307.502	91.38
307.731	91.38
307.961	79.38
308.191	94.38
308.421	82.38
308.651	82.38
308.881	77.38
309.111	69.38
309.341	76.38
309.571	83.38
309.8	94.38
310.03	83.38
310.26	84.38
310.49	73.38
310.72	74.38
310.949	88.38
311.179	83.38
311.409	93.38
311.639	85.38
311.868	93.38
312.098	70.38
312.328	75.38
312.557	105.38
312.787	84.38
313.017	79.38
313.246	91.38
313.476	74.38
313.706	87.38
313.935	89.38
314.165	83.38
314.394	80.38
314.624	85.38
314.853	72.38
315.083	84.38
315.312	80.38
315.542	70.38
315.771	87.38
316.001	70.38
316.23	91.38
316.46	73.38
316.689	91.38
316.919	79.38
317.148	98.38
317.377	81.38
317.607	83.38
317.836	92.38
318.065	74.38
318.295	64.38
318.524	75.38
318.753	86.38
318.983	86.38
319.212	80.38
319.441	88.38
319.67	91.38
319.9	77.38
320.129	82.38
320.358	78.38
320.587	86.38
320.816	84.38
321.046	92.38
321.275	95.38
321.504	85.38
321.733	86.38
321.962	100.38
322.191	77.38
322.42	92.38
322.649	80.38
322.878	79.38
323.108	83.38
323.337	85.38
323.566	66.38
323.795	91.38
324.024	82.38
324.253	86.38
324.482	87.38
324.71	76.38
324.939	70.38
325.168	72.38
325.397	93.38
325.626	87.38
325.855	70.38
326.084	94.38
326.313	87.38
326.542	79.38
326.77	86.38
326.999	89.38
327.228	85.38
327.457	78.38
327.686	76.38
327.914	84.38
328.143	88.38
328.372	77.38
328.6	95.38
328.829	73.38
329.058	89.38
329.287	106.38
329.515	75.38
329.744	78.38
329.972	83.38
330.201	82.38
330.43	90.38
330.658	93.38
330.887	85.38
331.115	87.38
331.344	95.38
331.572	81.38
331.801	88.38
332.03	92.38
332.258	90.38
332.486	87.38
332.715	79.38
332.943	76.38
333.172	87.38
333.4	75.38
333.629	86.38
333.857	99.38
334.085	81.38
334.314	80.38
334.542	95.38
334.771	78.38
334.999	75.38
335.227	75.38
335.455	82.38
335.684	92.38
335.912	96.38
336.14	77.38
336.369	84.38
336.597	76.38
336.825	75.38
337.053	83.38
337.281	79.38
337.51	81.38
337.738	91.38
337.966	77.38
338.194	85.38
338.422	70.38
338.65	87.38
338.878	96.38
339.106	85.38
339.334	98.38
339.562	103.38
339.79	83.38
340.018	97.38
340.246	90.38
340.474	91.38
340.702	76.38
340.93	85.38
341.158	89.38
341.386	90.38
341.614	92.38
341.842	86.38
342.07	85.38
342.298	76.38
342.526	75.38
342.754	85.38
342.981	90.38
343.209	72.38
343.437	94.38
343.665	80.38
343.893	83.38
344.12	95.38
344.348	85.38
344.576	84.38
344.804	84.38
345.031	89.38
345.259	100.38
345.487	86.38
345.714	81.38
345.942	82.38
346.17	77.38
346.397	94.38
346.625	84.38
346.853	87.38
347.08	81.38
347.308	86.38
347.535	80.38
347.763	83.38
347.99	84.38
348.218	92.38
348.445	81.38
348.673	84.38
348.9	87.38
349.128	93.38
349.355	84.38
349.583	79.38
349.81	82.38
350.037	91.38
350.265	71.38
350.492	88.38
350.72	82.38
350.947	86.38
351.174	83.38
351.402	81.38
351.629	82.38
351.856	84.38
352.083	83.38
352.311	77.38
352.538	85.38
352.765	85.38
352.992	81.38
353.22	78.38
353.447	86.38
353.674	79.38
353.901	94.38
354.128	81.38
354.355	84.38
354.583	74.38
354.81	82.38
355.037	84.38
355.264	82.38
355.491	91.38
355.718	86.38
355.945	89.38
356.172	76.38
356.399	79.38
356.626	95.38
356.853	94.38
357.08	86.38
357.307	79.38
357.534	72.38
357.761	89.38
357.988	83.38
358.215	83.38
358.441	79.38
358.668	75.38
358.895	79.38
359.122	83.38
359.349	69.38
359.576	92.38
359.802	88.38
360.029	87.38
360.256	88.38
360.483	80.38
360.709	85.38
360.936	88.38
361.163	87.38
361.39	67.38
361.616	89.38
361.843	73.38
362.07	70.38
362.296	85.38
362.523	78.38
362.749	83.38
362.976	78.38
363.203	72.38
363.429	95.38
363.656	79.38
363.882	97.38
364.109	88.38
364.335	99.38
364.562	79.38
364.788	84.38
365.015	94.38
365.241	81.38
365.468	90.38
365.694	90.38
365.92	91.38
366.147	87.38
366.373	87.38
366.599	81.38
366.826	73.38
367.052	88.38
367.278	84.38
367.505	90.38
367.731	79.38
367.957	83.38
368.184	86.38
368.41	92.38
368.636	93.38
368.862	88.38
369.089	84.38
369.315	96.38
369.541	105.38
369.767	96.38
369.993	88.38
370.219	88.38
370.445	88.38
370.672	81.38
370.898	84.38
371.124	80.38
371.35	104.38
371.576	106.38
371.802	94.38
372.028	82.38
372.254	91.38
372.48	80.38
372.706	86.38
372.932	80.38
373.158	74.38
373.384	104.38
373.61	99.38
373.835	83.38
374.061	82.38
374.287	88.38
374.513	88.38
374.739	91.38
374.965	95.38
375.191	88.38
375.416	90.38
375.642	100.38
375.868	90.38
376.094	102.38
376.319	94.38
376.545	101.38
376.771	85.38
376.997	83.38
377.222	97.38
377.448	96.38
377.674	93.38
377.899	86.38
378.125	97.38
378.35	96.38
378.576	98.38
378.802	87.38
379.027	104.38
379.253	95.38
379.478	99.38
379.704	84.38
379.929	92.38
380.155	100.38
380.38	97.38
380.606	103.38
380.831	89.38
381.057	94.38
381.282	92.38
381.507	103.38
381.733	91.38
381.958	94.38
382.184	100.38
382.409	93.38
382.634	108.38
382.86	103.38
383.085	109.38
383.31	101.38
383.535	98.38
383.761	95.38
383.986	102.38
384.211	92.38
384.436	101.38
384.662	101.38
384.887	86.38
385.112	93.38
385.337	102.38
385.562	108.38
385.787	86.38
386.013	99.38
386.238	100.38
386.463	115.38
386.688	89.38
386.913	102.38
387.138	99.38
387.363	92.38
387.588	100.38
387.813	89.38
388.038	101.38
388.263	111.38
388.488	95.38
388.713	99.38
388.938	101.38
389.163	88.38
389.387	100.38
389.612	95.38
389.837	107.38
390.062	92.38
390.287	106.38
390.512	101.38
390.736	109.38
390.961	94.38
391.186	92.38
391.411	105.38
391.636	109.38
391.86	98.38
392.085	114.38
392.31	107.38
392.534	104.38
392.759	102.38
392.984	108.38
393.208	91.38
393.433	90.38
393.658	107.38
393.882	95.38
394.107	111.38
394.331	94.38
394.556	96.38
394.78	98.38
395.005	94.38
395.229	94.38
395.454	108.38
395.678	99.38
395.903	115.38
396.127	118.38
396.352	121.38
396.576	110.38
396.801	95.38
397.025	99.38
397.249	115.38
397.474	114.38
397.698	107.38
397.922	111.38
398.147	122.38
398.371	125.38
398.595	106.38
398.82	107.38
399.044	103.38
399.268	99.38
399.492	117.38
399.717	116.38
399.941	113.38
400.165	107.38
400.389	110.38
400.613	111.38
400.837	107.38
401.062	104.38
401.286	109.38
401.51	90.38
401.734	100.38
401.958	101.38
402.182	115.38
402.406	109.38
402.63	102.38
402.854	110.38
403.078	115.38
403.302	119.38
403.526	118.38
403.75	113.38
403.974	122.38
404.198	106.38
404.422	101.38
404.645	111.38
404.869	111.38
405.093	119.38
405.317	105.38
405.541	110.38
405.765	100.38
405.988	124.38
406.212	130.38
406.436	107.38
406.66	120.38
406.883	121.38
407.107	122.38
407.331	123.38
407.555	112.38
407.778	113.38
408.002	119.38
408.226	105.38
408.449	118.38
408.673	122.38
408.896	120.38
409.12	125.38
409.344	112.38
409.567	110.38
409.791	116.38
410.014	136.38
410.238	125.38
410.461	127.38
410.685	131.38
410.908	111.38
411.132	116.38
411.355	109.38
411.578	126.38
411.802	118.38
412.025	121.38
412.249	117.38
412.472	124.38
412.695	126.38
412.919	103.38
413.142	114.38
413.365	104.38
413.589	105.38
413.812	125.38
414.035	112.38
414.258	103.38
414.482	105.38
414.705	115.38
414.928	132.38
415.151	136.38
415.374	125.38
415.597	130.38
415.821	125.38
416.044	104.38
416.267	124.38
416.49	121.38
416.713	124.38
416.936	120.38
417.159	121.38
417.382	97.38
417.605	125.38
417.828	128.38
418.051	138.38
418.274	128.38
418.497	128.38
418.72	122.38
418.943	125.38
419.166	118.38
419.389	134.38
419.611	136.38
419.834	130.38
420.057	126.38
420.28	127.38
420.503	126.38
420.726	136.38
420.948	136.38
421.171	135.38
421.394	134.38
421.617	132.38
421.839	142.38
422.062	138.38
422.285	139.38
422.507	134.38
422.73	118.38
422.953	125.38
423.175	135.38
423.398	125.38
423.621	138.38
423.843	125.38
424.066	143.38
424.288	155.38
424.511	136.38
424.733	142.38
424.956	131.38
425.178	143.38
425.401	140.38
425.623	141.38
425.846	123.38
426.068	125.38
426.291	136.38
426.513	137.38
426.735	126.38
426.958	128.38
427.18	126.38
427.402	145.38
427.625	111.38
427.847	112.38
428.069	115.38
428.292	121.38
428.514	141.38
428.736	126.38
428.958	122.38
429.181	133.38
429.403	124.38
429.625	128.38
429.847	145.38
430.069	116.38
430.292	126.38
430.514	123.38
430.736	126.38
430.958	137.38
431.18	122.38
431.402	130.38
431.624	120.38
431.846	120.38
432.068	95.38
432.29	107.38
432.512	109.38
432.734	127.38
432.956	137.38
433.178	143.38
433.4	135.38
433.622	126.38
433.844	124.38
434.066	111.38
434.287	102.38
434.509	110.38
434.731	91.38
434.953	112.38
435.175	118.38
435.397	119.38
435.618	117.38
435.84	117.38
436.062	132.38
436.284	126.38
436.505	131.38
436.727	141.38
436.949	116.38
437.17	128.38
437.392	129.38
437.614	114.38
437.835	120.38
438.057	105.38
438.278	126.38
438.5	127.38
438.721	124.38
438.943	139.38
439.165	138.38
439.386	133.38
439.608	140.38
439.829	145.38
440.05	149.38
440.272	147.38
440.493	144.38
440.715	135.38
440.936	145.38
441.158	130.38
441.379	138.38
441.6	133.38
441.822	129.38
442.043	152.38
442.264	134.38
442.486	123.38
442.707	135.38
442.928	134.38
443.149	135.38
443.371	137.38
443.592	139.38
443.813	145.38
444.034	164.38
444.255	140.38
444.476	152.38
444.698	125.38
444.919	130.38
445.14	268.38
445.361	194.38
445.582	135.38
445.803	132.38
446.024	130.38
446.245	140.38
446.466	168.38
446.687	167.38
446.908	155.38
447.129	151.38
447.35	160.38
447.571	148.38
447.792	149.38
448.013	138.38
448.234	136.38
448.455	145.38
448.675	146.38
448.896	149.38
449.117	141.38
449.338	139.38
449.559	129.38
449.779	134.38
450	153.38
450.221	140.38
450.442	129.38
450.662	129.38
450.883	117.38
451.104	125.38
451.324	122.38
451.545	118.38
451.766	132.38
451.986	118.38
452.207	125.38
452.428	120.38
452.648	137.38
452.869	122.38
453.089	122.38
453.31	116.38
453.53	101.38
453.751	96.38
453.971	93.38
454.192	98.38
454.412	107.38
454.633	111.38
454.853	109.38
455.073	124.38
455.294	114.38
455.514	126.38
455.734	131.38
455.955	126.38
456.175	104.38
456.395	108.38
456.616	108.38
456.836	112.38
457.056	127.38
457.276	118.38
457.497	98.38
457.717	98.38
457.937	119.38
458.157	101.38
458.377	106.38
458.598	109.38
458.818	87.38
459.038	82.38
459.258	77.38
459.478	103.38
459.698	95.38
459.918	107.38
460.138	101.38
460.358	119.38
460.578	113.38
460.798	108.38
461.018	104.38
461.238	118.38
461.458	105.38
461.678	128.38
461.898	116.38
462.118	124.38
462.338	111.38
462.558	128.38
462.777	101.38
462.997	105.38
463.217	110.38
463.437	114.38
463.657	106.38
463.876	107.38
464.096	105.38
464.316	104.38
464.536	108.38
464.755	130.38
464.975	114.38
465.195	111.38
465.414	123.38
465.634	108.38
465.854	100.38
466.073	111.38
466.293	118.38
466.512	122.38
466.732	136.38
466.951	124.38
467.171	128.38
467.391	119.38
467.61	126.38
467.829	129.38
468.049	130.38
468.268	130.38
468.488	126.38
468.707	141.38
468.927	139.38
469.146	142.38
469.365	143.38
469.585	135.38
469.804	134.38
470.023	139.38
470.243	134.38
470.462	150.38
470.681	139.38
470.901	145.38
471.12	140.38
471.339	139.38
471.558	134.38
471.777	144.38
471.997	153.38
472.216	146.38
472.435	103.38
472.654	90.38
472.873	91.38
473.092	109.38
473.311	125.38
473.53	124.38
473.749	127.38
473.968	135.38
474.187	120.38
474.406	123.38
474.625	124.38
474.844	138.38
475.063	131.38
475.282	119.38
475.501	113.38
475.72	118.38
475.939	133.38
476.158	135.38
476.377	126.38
476.596	126.38
476.814	101.38
477.033	100.38
477.252	130.38
477.471	127.38
477.69	128.38
477.908	124.38
478.127	140.38
478.346	131.38
478.564	130.38
478.783	153.38
479.002	127.38
479.22	130.38
479.439	134.38
479.658	120.38
479.876	110.38
480.095	108.38
480.313	110.38
480.532	105.38
480.751	127.38
480.969	87.38
481.188	88.38
481.406	98.38
481.624	114.38
481.843	85.38
482.061	90.38
482.28	116.38
482.498	106.38
482.717	114.38
482.935	123.38
483.153	140.38
483.372	155.38
483.59	142.38
483.808	143.38
484.027	131.38
484.245	122.38
484.463	155.38
484.681	149.38
484.9	152.38
485.118	143.38
485.336	133.38
485.554	102.38
485.772	111.38
485.99	104.38
486.209	109.38
486.427	101.38
486.645	109.38
486.863	154.38
487.081	138.38
487.299	133.38
487.517	144.38
487.735	151.38
487.953	158.38
488.171	188.38
488.389	167.38
488.607	155.38
488.825	153.38
489.043	136.38
489.261	128.38
489.479	131.38
489.696	152.38
489.914	141.38
490.132	145.38
490.35	136.38
490.568	171.38
490.786	178.38
491.003	172.38
491.221	192.38
491.439	189.38
491.657	185.38
491.874	206.38
492.092	216.38
492.31	236.38
492.527	228.38
492.745	202.38
492.963	187.38
493.18	178.38
493.398	190.38
493.615	187.38
493.833	158.38
494.05	178.38
494.268	160.38
494.485	180.38
494.703	172.38
494.92	187.38
495.138	158.38
495.355	193.38
495.573	174.38
495.79	151.38
496.008	166.38
496.225	156.38
496.442	151.38
496.66	178.38
496.877	159.38
497.094	174.38
497.312	176.38
497.529	166.38
497.746	136.38
497.963	136.38
498.181	122.38
498.398	130.38
498.615	115.38
498.832	111.38
499.049	126.38
499.267	126.38
499.484	126.38
499.701	127.38
499.918	135.38
500.135	128.38
500.352	128.38
500.569	119.38
500.786	139.38
501.003	142.38
501.22	142.38
501.437	135.38
501.654	131.38
501.871	131.38
502.088	142.38
502.305	117.38
502.522	121.38
502.739	143.38
502.956	128.38
503.172	131.38
503.389	134.38
503.606	110.38
503.823	116.38
504.04	127.38
504.256	113.38
504.473	113.38
504.69	130.38
504.907	133.38
505.123	125.38
505.34	116.38
505.557	121.38
505.773	128.38
505.99	103.38
506.207	124.38
506.423	102.38
506.64	119.38
506.856	112.38
507.073	102.38
507.289	121.38
507.506	119.38
507.722	96.38
507.939	133.38
508.155	123.38
508.372	117.38
508.588	98.38
508.805	107.38
509.021	121.38
509.238	97.38
509.454	109.38
509.67	104.38
509.887	104.38
510.103	109.38
510.319	97.38
510.536	92.38
510.752	95.38
510.968	94.38
511.184	96.38
511.401	97.38
511.617	86.38
511.833	99.38
512.049	103.38
512.265	102.38
512.481	95.38
512.698	94.38
512.914	103.38
513.13	93.38
513.346	99.38
513.562	99.38
513.778	90.38
513.994	83.38
514.21	89.38
514.426	91.38
514.642	99.38
514.858	98.38
515.074	90.38
515.29	95.38
515.506	88.38
515.721	93.38
515.937	76.38
516.153	80.38
516.369	82.38
516.585	100.38
516.801	93.38
517.016	109.38
517.232	107.38
517.448	101.38
517.664	89.38
517.879	108.38
518.095	97.38
518.311	95.38
518.527	95.38
518.742	86.38
518.958	91.38
519.173	114.38
519.389	100.38
519.605	114.38
519.82	110.38
520.036	110.38
520.251	120.38
520.467	95.38
520.682	97.38
520.898	88.38
521.113	98.38
521.329	98.38
521.544	89.38
521.76	79.38
521.975	86.38
522.19	97.38
522.406	104.38
522.621	88.38
522.836	108.38
523.052	109.38
523.267	101.38
523.482	109.38
523.698	103.38
523.913	129.38
524.128	124.38
524.343	126.38
524.559	120.38
524.774	123.38
524.989	126.38
525.204	125.38
525.419	108.38
525.634	108.38
525.849	107.38
526.064	114.38
526.28	100.38
526.495	110.38
526.71	94.38
526.925	99.38
527.14	95.38
527.355	89.38
527.57	76.38
527.785	94.38
527.999	100.38
528.214	102.38
528.429	110.38
528.644	117.38
528.859	130.38
529.074	142.38
529.289	156.38
529.503	160.38
529.718	143.38
529.933	114.38
530.148	104.38
530.363	114.38
530.577	104.38
530.792	82.38
531.007	86.38
531.221	79.38
531.436	81.38
531.651	79.38
531.865	93.38
532.08	93.38
532.295	93.38
532.509	97.38
532.724	97.38
532.938	96.38
533.153	108.38
533.367	132.38
533.582	119.38
533.796	121.38
534.011	126.38
534.225	94.38
534.44	95.38
534.654	93.38
534.868	102.38
535.083	99.38
535.297	100.38
535.511	100.38
535.726	124.38
535.94	86.38
536.154	77.38
536.369	92.38
536.583	87.38
536.797	79.38
537.011	84.38
537.225	96.38
537.44	96.38
537.654	88.38
537.868	96.38
538.082	83.38
538.296	96.38
538.51	99.38
538.724	104.38
538.938	117.38
539.153	128.38
539.367	122.38
539.581	119.38
539.795	111.38
540.009	101.38
540.222	106.38
540.436	111.38
540.65	121.38
540.864	123.38
541.078	141.38
541.292	151.38
541.506	149.38
541.72	173.38
541.934	192.38
542.147	186.38
542.361	173.38
542.575	161.38
542.789	153.38
543.002	139.38
543.216	134.38
543.43	131.38
543.644	148.38
543.857	144.38
544.071	167.38
544.285	167.38
544.498	153.38
544.712	161.38
544.925	158.38
545.139	152.38
545.352	142.38
545.566	147.38
545.779	168.38
545.993	156.38
546.206	155.38
546.42	173.38
546.633	164.38
546.847	157.38
547.06	166.38
547.274	164.38
547.487	171.38
547.7	172.38
547.914	147.38
548.127	163.38
548.34	168.38
548.554	156.38
548.767	144.38
548.98	174.38
549.193	142.38
549.407	150.38
549.62	161.38
549.833	150.38
550.046	163.38
550.259	152.38
550.473	150.38
550.686	143.38
550.899	160.38
551.112	159.38
551.325	144.38
551.538	155.38
551.751	120.38
551.964	125.38
552.177	114.38
552.39	143.38
552.603	148.38
552.816	139.38
553.029	154.38
553.242	164.38
553.455	153.38
553.667	154.38
553.88	148.38
554.093	154.38
554.306	134.38
554.519	140.38
554.732	145.38
554.944	146.38
555.157	163.38
555.37	142.38
555.583	138.38
555.795	137.38
556.008	127.38
556.221	146.38
556.433	134.38
556.646	141.38
556.859	131.38
557.071	138.38
557.284	132.38
557.496	133.38
557.709	134.38
557.921	151.38
558.134	145.38
558.346	130.38
558.559	153.38
558.771	139.38
558.984	119.38
559.196	138.38
559.409	120.38
559.621	125.38
559.833	124.38
560.046	130.38
560.258	127.38
560.47	114.38
560.683	127.38
560.895	134.38
561.107	127.38
561.32	120.38
561.532	128.38
561.744	127.38
561.956	130.38
562.168	126.38
562.381	136.38
562.593	133.38
562.805	123.38
563.017	121.38
563.229	130.38
563.441	116.38
563.653	128.38
563.865	124.38
564.077	117.38
564.289	118.38
564.501	125.38
564.713	123.38
564.925	121.38
565.137	125.38
565.349	123.38
565.561	119.38
565.773	128.38
565.985	119.38
566.197	121.38
566.408	142.38
566.62	111.38
566.832	130.38
567.044	103.38
567.255	123.38
567.467	103.38
567.679	95.38
567.891	76.38
568.102	97.38
568.314	95.38
568.526	93.38
568.737	94.38
568.949	93.38
569.161	88.38
569.372	81.38
569.584	79.38
569.795	81.38
570.007	83.38
570.218	87.38
570.43	96.38
570.641	83.38
570.853	102.38
571.064	99.38
571.276	88.38
571.487	109.38
571.698	99.38
571.91	110.38
572.121	95.38
572.333	103.38
572.544	100.38
572.755	94.38
572.966	97.38
573.178	87.38
573.389	90.38
573.6	86.38
573.811	92.38
574.023	87.38
574.234	88.38
574.445	90.38
574.656	101.38
574.867	100.38
575.078	92.38
575.289	92.38
575.501	94.38
575.712	97.38
575.923	86.38
576.134	85.38
576.345	92.38
576.556	93.38
576.767	108.38
576.978	108.38
577.188	95.38
577.399	110.38
577.61	89.38
577.821	107.38
578.032	109.38
578.243	93.38
578.454	85.38
578.665	104.38
578.875	96.38
579.086	84.38
579.297	93.38
579.508	82.38
579.718	87.38
579.929	81.38
580.14	75.38
580.35	84.38
580.561	87.38
580.772	92.38
580.982	88.38
581.193	79.38
581.403	90.38
581.614	94.38
581.825	95.38
582.035	92.38
582.246	99.38
582.456	92.38
582.667	91.38
582.877	89.38
583.087	109.38
583.298	92.38
583.508	83.38
583.719	78.38
583.929	87.38
584.139	86.38
584.35	94.38
584.56	87.38
584.77	81.38
584.981	92.38
585.191	88.38
585.401	84.38
585.611	85.38
585.821	101.38
586.032	86.38
586.242	102.38
586.452	75.38
586.662	84.38
586.872	91.38
587.082	70.38
587.292	86.38
587.502	90.38
587.713	94.38
587.923	74.38
588.133	84.38
588.343	77.38
588.553	79.38
588.762	88.38
588.972	102.38
589.182	89.38
589.392	85.38
589.602	72.38
589.812	87.38
590.022	85.38
590.232	90.38
590.441	85.38
590.651	100.38
590.861	81.38
591.071	79.38
591.281	80.38
591.49	90.38
591.7	97.38
591.91	86.38
592.119	82.38
592.329	93.38
592.539	81.38
592.748	95.38
592.958	71.38
593.167	86.38
593.377	88.38
593.587	86.38
593.796	81.38
594.006	94.38
594.215	83.38
594.424	96.38
594.634	86.38
594.843	90.38
595.053	87.38
595.262	100.38
595.472	95.38
595.681	86.38
595.89	82.38
596.1	91.38
596.309	100.38
596.518	103.38
596.727	106.38
596.937	94.38
597.146	93.38
597.355	101.38
597.564	102.38
597.774	91.38
597.983	93.38
598.192	79.38
598.401	85.38
598.61	93.38
598.819	103.38
599.028	98.38
599.237	74.38
599.446	102.38
599.655	79.38
599.864	102.38
600.073	100.38
600.282	94.38
600.491	88.38
600.7	109.38
600.909	81.38
601.118	103.38
601.327	104.38
601.536	100.38
601.745	105.38
601.953	101.38
602.162	107.38
602.371	107.38
602.58	96.38
602.789	109.38
602.997	107.38
603.206	99.38
603.415	119.38
603.623	109.38
603.832	111.38
604.041	107.38
604.249	115.38
604.458	90.38
604.666	97.38
604.875	114.38
605.084	99.38
605.292	102.38
605.501	105.38
605.709	108.38
605.918	112.38
606.126	108.38
606.334	117.38
606.543	101.38
606.751	116.38
606.96	105.38
607.168	118.38
607.376	114.38
607.585	117.38
607.793	107.38
608.001	122.38
608.21	115.38
608.418	127.38
608.626	120.38
608.834	109.38
609.043	114.38
609.251	107.38
609.459	95.38
609.667	114.38
609.875	108.38
610.083	120.38
610.291	121.38
610.499	122.38
610.707	117.38
610.916	110.38
611.124	96.38
611.332	101.38
611.54	111.38
611.748	104.38
611.955	117.38
612.163	96.38
612.371	116.38
612.579	112.38
612.787	108.38
612.995	114.38
613.203	105.38
613.411	113.38
613.618	108.38
613.826	112.38
614.034	110.38
614.242	106.38
614.449	113.38
614.657	116.38
614.865	107.38
615.072	110.38
615.28	105.38
615.488	106.38
615.695	116.38
615.903	112.38
616.111	123.38
616.318	103.38
616.526	116.38
616.733	111.38
616.941	109.38
617.148	97.38
617.356	110.38
617.563	117.38
617.771	112.38
617.978	94.38
618.185	118.38
618.393	106.38
618.6	115.38
618.807	120.38
619.015	110.38
619.222	92.38
619.429	93.38
619.637	104.38
619.844	118.38
620.051	91.38
620.258	103.38
620.466	107.38
620.673	112.38
620.88	98.38
621.087	126.38
621.294	107.38
621.501	88.38
621.708	91.38
621.915	115.38
622.122	100.38
622.329	116.38
622.536	102.38
622.743	116.38
622.95	109.38
623.157	101.38
623.364	115.38
623.571	112.38
623.778	107.38
623.985	111.38
624.192	114.38
624.399	97.38
624.606	95.38
624.812	93.38
625.019	115.38
625.226	103.38
625.433	111.38
625.639	93.38
625.846	106.38
626.053	94.38
626.259	100.38
626.466	103.38
626.673	98.38
626.879	99.38
627.086	100.38
627.293	104.38
627.499	101.38
627.706	118.38
627.912	96.38
628.119	111.38
628.325	119.38
628.532	105.38
628.738	99.38
628.945	93.38
629.151	96.38
629.357	103.38
629.564	108.38
629.77	111.38
629.976	112.38
630.183	96.38
630.389	86.38
630.595	110.38
630.802	112.38
631.008	102.38
631.214	97.38
631.42	100.38
631.627	105.38
631.833	98.38
632.039	96.38
632.245	108.38
632.451	97.38
632.657	94.38
632.863	103.38
633.069	102.38
633.275	114.38
633.481	90.38
633.688	117.38
633.893	96.38
634.099	100.38
634.305	100.38
634.511	92.38
634.717	108.38
634.923	100.38
635.129	104.38
635.335	104.38
635.541	102.38
635.747	93.38
635.952	91.38
636.158	96.38
636.364	110.38
636.57	103.38
636.775	98.38
636.981	104.38
637.187	93.38
637.392	93.38
637.598	103.38
637.804	99.38
638.009	113.38
638.215	108.38
638.421	94.38
638.626	109.38
638.832	103.38
639.037	104.38
639.243	102.38
639.448	90.38
639.654	102.38
639.859	90.38
640.065	92.38
640.27	103.38
640.475	95.38
640.681	103.38
640.886	103.38
641.091	99.38
641.297	96.38
641.502	89.38
641.707	97.38
641.913	118.38
642.118	92.38
642.323	103.38
642.528	102.38
642.733	103.38
642.939	90.38
643.144	92.38
643.349	96.38
643.554	100.38
643.759	109.38
643.964	98.38
644.169	93.38
644.374	95.38
644.579	105.38
644.784	102.38
644.989	91.38
645.194	107.38
645.399	100.38
645.604	104.38
645.809	89.38
646.014	101.38
646.219	84.38
646.423	103.38
646.628	103.38
646.833	98.38
647.038	98.38
647.243	100.38
647.447	91.38
647.652	104.38
647.857	99.38
648.062	98.38
648.266	99.38
648.471	109.38
648.676	99.38
648.88	83.38
649.085	106.38
649.289	96.38
649.494	99.38
649.698	98.38
649.903	98.38
650.107	102.38
650.312	93.38
650.516	84.38
650.721	89.38
650.925	95.38
651.13	100.38
651.334	90.38
651.539	91.38
651.743	91.38
651.947	89.38
652.152	105.38
652.356	122.38
652.56	84.38
652.764	100.38
652.969	103.38
653.173	97.38
653.377	99.38
653.581	86.38
653.785	82.38
653.99	100.38
654.194	78.38
654.398	92.38
654.602	95.38
654.806	101.38
655.01	111.38
655.214	99.38
655.418	96.38
655.622	81.38
655.826	95.38
656.03	90.38
656.234	94.38
656.438	91.38
656.642	87.38
656.846	93.38
657.049	86.38
657.253	87.38
657.457	94.38
657.661	106.38
657.865	94.38
658.068	87.38
658.272	83.38
658.476	75.38
658.68	102.38
658.883	78.38
659.087	93.38
659.291	87.38
659.494	83.38
659.698	87.38
659.901	86.38
660.105	87.38
660.309	88.38
660.512	108.38
660.716	78.38
660.919	90.38
661.123	98.38
661.326	96.38
661.53	81.38
661.733	86.38
661.936	84.38
662.14	74.38
662.343	84.38
662.546	91.38
662.75	80.38
662.953	96.38
663.156	89.38
663.36	83.38
663.563	95.38
663.766	85.38
663.969	97.38
664.173	84.38
664.376	70.38
664.579	99.38
664.782	84.38
664.985	80.38
665.188	95.38
665.391	79.38
665.594	97.38
665.797	84.38
666	89.38
666.203	78.38
666.406	91.38
666.609	90.38
666.812	75.38
667.015	79.38
667.218	85.38
667.421	85.38
667.624	68.38
667.827	77.38
668.03	90.38
668.232	82.38
668.435	87.38
668.638	97.38
668.841	77.38
669.043	79.38
669.246	95.38
669.449	83.38
669.651	77.38
669.854	80.38
670.057	73.38
670.259	85.38
670.462	88.38
670.665	95.38
670.867	88.38
671.07	86.38
671.272	80.38
671.475	99.38
671.677	78.38
671.88	80.38
672.082	83.38
672.284	94.38
672.487	94.38
672.689	87.38
672.892	79.38
