Data from Location1.07152019.Energy5.Lamp.07192019.3%Agarose_HRD10591_14-32-54-016.txt Node
Date: Fri Jul 19 14:32:54 EDT 2019
User: cochatt
Spectrometer: HR+D1059
Trigger mode: 1
Integration Time (sec): 1.000000E-1
Scans to average: 1
Electric dark correction enabled: true
Nonlinearity correction enabled: false
Boxcar width: 0
XAxis mode: Wavelengths
Number of Pixels in Spectrum: 2048
>>>>>Begin Spectral Data<<<<<
223.165	-11.31
223.4	-11.31
223.635	-11.31
223.869	-7.31
224.104	-15.31
224.338	-15.31
224.573	-11.31
224.808	-14.31
225.042	-16.31
225.277	3.69
225.511	-0.31
225.746	10.69
225.98	5.69
226.215	-2.31
226.449	9.69
226.683	13.69
226.918	17.69
227.152	32.69
227.387	26.69
227.621	35.69
227.856	40.69
228.09	44.69
228.324	46.69
228.559	48.69
228.793	44.69
229.027	56.69
229.262	59.69
229.496	59.69
229.73	62.69
229.964	56.69
230.199	71.69
230.433	67.69
230.667	65.69
230.901	71.69
231.136	61.69
231.37	77.69
231.604	67.69
231.838	76.69
232.072	71.69
232.306	87.69
232.541	95.69
232.775	83.69
233.009	84.69
233.243	91.69
233.477	80.69
233.711	81.69
233.945	67.69
234.179	79.69
234.413	74.69
234.647	83.69
234.881	74.69
235.115	79.69
235.349	70.69
235.583	69.69
235.817	72.69
236.051	74.69
236.285	70.69
236.519	84.69
236.753	65.69
236.987	84.69
237.221	82.69
237.455	85.69
237.689	87.69
237.922	58.69
238.156	73.69
238.39	87.69
238.624	75.69
238.858	70.69
239.091	92.69
239.325	86.69
239.559	80.69
239.793	65.69
240.027	74.69
240.26	70.69
240.494	72.69
240.728	74.69
240.961	62.69
241.195	75.69
241.429	68.69
241.662	82.69
241.896	66.69
242.13	76.69
242.363	57.69
242.597	73.69
242.83	71.69
243.064	78.69
243.298	69.69
243.531	72.69
243.765	80.69
243.998	81.69
244.232	79.69
244.465	93.69
244.699	84.69
244.932	75.69
245.166	59.69
245.399	79.69
245.633	86.69
245.866	74.69
246.099	65.69
246.333	55.69
246.566	58.69
246.8	73.69
247.033	70.69
247.266	89.69
247.5	83.69
247.733	77.69
247.966	65.69
248.2	76.69
248.433	77.69
248.666	73.69
248.899	83.69
249.133	77.69
249.366	80.69
249.599	74.69
249.832	78.69
250.066	79.69
250.299	75.69
250.532	76.69
250.765	74.69
250.998	81.69
251.231	71.69
251.465	67.69
251.698	80.69
251.931	83.69
252.164	82.69
252.397	78.69
252.63	73.69
252.863	87.69
253.096	79.69
253.329	80.69
253.562	81.69
253.795	80.69
254.028	79.69
254.261	83.69
254.494	76.69
254.727	73.69
254.96	86.69
255.193	82.69
255.426	80.69
255.659	72.69
255.892	82.69
256.124	84.69
256.357	81.69
256.59	87.69
256.823	72.69
257.056	66.69
257.289	74.69
257.521	94.69
257.754	75.69
257.987	80.69
258.22	73.69
258.452	75.69
258.685	57.69
258.918	70.69
259.151	83.69
259.383	72.69
259.616	70.69
259.849	68.69
260.081	88.69
260.314	84.69
260.547	83.69
260.779	87.69
261.012	83.69
261.244	88.69
261.477	83.69
261.71	79.69
261.942	79.69
262.175	85.69
262.407	73.69
262.64	90.69
262.872	75.69
263.105	62.69
263.337	74.69
263.57	80.69
263.802	79.69
264.035	75.69
264.267	66.69
264.499	64.69
264.732	73.69
264.964	84.69
265.197	72.69
265.429	81.69
265.661	75.69
265.894	77.69
266.126	86.69
266.358	82.69
266.591	96.69
266.823	98.69
267.055	81.69
267.287	74.69
267.52	68.69
267.752	80.69
267.984	77.69
268.216	83.69
268.448	89.69
268.681	70.69
268.913	82.69
269.145	76.69
269.377	78.69
269.609	74.69
269.841	79.69
270.073	85.69
270.306	88.69
270.538	71.69
270.77	91.69
271.002	85.69
271.234	92.69
271.466	75.69
271.698	76.69
271.93	81.69
272.162	73.69
272.394	84.69
272.626	86.69
272.858	75.69
273.09	73.69
273.322	84.69
273.553	78.69
273.785	83.69
274.017	61.69
274.249	81.69
274.481	88.69
274.713	84.69
274.945	84.69
275.176	72.69
275.408	82.69
275.64	74.69
275.872	77.69
276.104	80.69
276.335	80.69
276.567	73.69
276.799	78.69
277.031	78.69
277.262	79.69
277.494	88.69
277.726	85.69
277.957	96.69
278.189	91.69
278.421	78.69
278.652	75.69
278.884	78.69
279.115	81.69
279.347	77.69
279.579	79.69
279.81	87.69
280.042	72.69
280.273	70.69
280.505	79.69
280.736	76.69
280.968	79.69
281.199	86.69
281.431	80.69
281.662	72.69
281.894	74.69
282.125	75.69
282.356	68.69
282.588	71.69
282.819	79.69
283.051	76.69
283.282	76.69
283.513	80.69
283.745	76.69
283.976	94.69
284.207	88.69
284.439	88.69
284.67	84.69
284.901	70.69
285.132	95.69
285.364	80.69
285.595	84.69
285.826	79.69
286.057	87.69
286.288	62.69
286.52	68.69
286.751	92.69
286.982	78.69
287.213	71.69
287.444	75.69
287.675	68.69
287.906	84.69
288.138	102.69
288.369	76.69
288.6	79.69
288.831	77.69
289.062	97.69
289.293	91.69
289.524	98.69
289.755	96.69
289.986	80.69
290.217	70.69
290.448	78.69
290.679	71.69
290.91	73.69
291.141	71.69
291.371	77.69
291.602	68.69
291.833	78.69
292.064	80.69
292.295	75.69
292.526	82.69
292.757	80.69
292.987	78.69
293.218	88.69
293.449	89.69
293.68	86.69
293.91	87.69
294.141	70.69
294.372	81.69
294.603	101.69
294.833	94.69
295.064	77.69
295.295	95.69
295.525	75.69
295.756	74.69
295.987	82.69
296.217	100.69
296.448	81.69
296.679	85.69
296.909	94.69
297.14	73.69
297.37	83.69
297.601	91.69
297.831	85.69
298.062	89.69
298.292	88.69
298.523	79.69
298.753	90.69
298.984	84.69
299.214	95.69
299.445	83.69
299.675	90.69
299.905	81.69
300.136	73.69
300.366	77.69
300.597	81.69
300.827	72.69
301.057	82.69
301.288	79.69
301.518	83.69
301.748	88.69
301.979	81.69
302.209	76.69
302.439	72.69
302.669	72.69
302.9	85.69
303.13	77.69
303.36	91.69
303.59	60.69
303.82	82.69
304.051	75.69
304.281	100.69
304.511	94.69
304.741	84.69
304.971	67.69
305.201	90.69
305.431	70.69
305.661	77.69
305.891	86.69
306.121	99.69
306.352	81.69
306.582	76.69
306.812	80.69
307.042	83.69
307.272	77.69
307.502	98.69
307.731	85.69
307.961	75.69
308.191	75.69
308.421	86.69
308.651	78.69
308.881	79.69
309.111	88.69
309.341	70.69
309.571	93.69
309.8	91.69
310.03	82.69
310.26	85.69
310.49	84.69
310.72	79.69
310.949	86.69
311.179	76.69
311.409	79.69
311.639	92.69
311.868	87.69
312.098	89.69
312.328	96.69
312.557	87.69
312.787	71.69
313.017	83.69
313.246	91.69
313.476	86.69
313.706	89.69
313.935	70.69
314.165	77.69
314.394	81.69
314.624	71.69
314.853	80.69
315.083	79.69
315.312	89.69
315.542	76.69
315.771	82.69
316.001	73.69
316.23	113.69
316.46	75.69
316.689	79.69
316.919	73.69
317.148	80.69
317.377	77.69
317.607	83.69
317.836	70.69
318.065	78.69
318.295	81.69
318.524	90.69
318.753	80.69
318.983	76.69
319.212	86.69
319.441	87.69
319.67	90.69
319.9	96.69
320.129	70.69
320.358	88.69
320.587	84.69
320.816	62.69
321.046	93.69
321.275	66.69
321.504	90.69
321.733	82.69
321.962	83.69
322.191	91.69
322.42	83.69
322.649	79.69
322.878	75.69
323.108	93.69
323.337	87.69
323.566	94.69
323.795	80.69
324.024	96.69
324.253	106.69
324.482	86.69
324.71	91.69
324.939	85.69
325.168	82.69
325.397	68.69
325.626	91.69
325.855	73.69
326.084	81.69
326.313	91.69
326.542	81.69
326.77	92.69
326.999	88.69
327.228	73.69
327.457	74.69
327.686	80.69
327.914	94.69
328.143	85.69
328.372	82.69
328.6	89.69
328.829	87.69
329.058	88.69
329.287	74.69
329.515	97.69
329.744	87.69
329.972	90.69
330.201	93.69
330.43	90.69
330.658	85.69
330.887	86.69
331.115	81.69
331.344	74.69
331.572	85.69
331.801	88.69
332.03	81.69
332.258	89.69
332.486	90.69
332.715	95.69
332.943	80.69
333.172	82.69
333.4	82.69
333.629	82.69
333.857	90.69
334.085	79.69
334.314	84.69
334.542	77.69
334.771	72.69
334.999	70.69
335.227	70.69
335.455	77.69
335.684	88.69
335.912	83.69
336.14	81.69
336.369	88.69
336.597	71.69
336.825	74.69
337.053	87.69
337.281	87.69
337.51	80.69
337.738	82.69
337.966	89.69
338.194	82.69
338.422	72.69
338.65	82.69
338.878	89.69
339.106	82.69
339.334	94.69
339.562	74.69
339.79	80.69
340.018	90.69
340.246	91.69
340.474	76.69
340.702	94.69
340.93	79.69
341.158	72.69
341.386	78.69
341.614	90.69
341.842	81.69
342.07	84.69
342.298	87.69
342.526	91.69
342.754	67.69
342.981	94.69
343.209	80.69
343.437	87.69
343.665	81.69
343.893	79.69
344.12	80.69
344.348	85.69
344.576	93.69
344.804	89.69
345.031	77.69
345.259	78.69
345.487	80.69
345.714	73.69
345.942	79.69
346.17	97.69
346.397	85.69
346.625	85.69
346.853	81.69
347.08	84.69
347.308	76.69
347.535	81.69
347.763	81.69
347.99	90.69
348.218	91.69
348.445	82.69
348.673	77.69
348.9	72.69
349.128	110.69
349.355	79.69
349.583	88.69
349.81	72.69
350.037	86.69
350.265	86.69
350.492	86.69
350.72	78.69
350.947	91.69
351.174	79.69
351.402	81.69
351.629	77.69
351.856	65.69
352.083	80.69
352.311	77.69
352.538	71.69
352.765	72.69
352.992	96.69
353.22	81.69
353.447	81.69
353.674	87.69
353.901	71.69
354.128	66.69
354.355	90.69
354.583	81.69
354.81	87.69
355.037	77.69
355.264	75.69
355.491	74.69
355.718	95.69
355.945	78.69
356.172	92.69
356.399	70.69
356.626	67.69
356.853	80.69
357.08	76.69
357.307	76.69
357.534	76.69
357.761	80.69
357.988	85.69
358.215	79.69
358.441	84.69
358.668	82.69
358.895	87.69
359.122	86.69
359.349	76.69
359.576	80.69
359.802	72.69
360.029	73.69
360.256	84.69
360.483	78.69
360.709	96.69
360.936	89.69
361.163	80.69
361.39	93.69
361.616	86.69
361.843	87.69
362.07	82.69
362.296	86.69
362.523	85.69
362.749	87.69
362.976	73.69
363.203	81.69
363.429	83.69
363.656	81.69
363.882	81.69
364.109	87.69
364.335	82.69
364.562	80.69
364.788	76.69
365.015	74.69
365.241	89.69
365.468	89.69
365.694	74.69
365.92	82.69
366.147	82.69
366.373	74.69
366.599	82.69
366.826	82.69
367.052	87.69
367.278	89.69
367.505	69.69
367.731	86.69
367.957	82.69
368.184	94.69
368.41	86.69
368.636	100.69
368.862	80.69
369.089	98.69
369.315	87.69
369.541	95.69
369.767	83.69
369.993	89.69
370.219	96.69
370.445	86.69
370.672	96.69
370.898	87.69
371.124	86.69
371.35	94.69
371.576	92.69
371.802	80.69
372.028	92.69
372.254	82.69
372.48	88.69
372.706	72.69
372.932	88.69
373.158	83.69
373.384	74.69
373.61	89.69
373.835	94.69
374.061	87.69
374.287	82.69
374.513	74.69
374.739	107.69
374.965	88.69
375.191	89.69
375.416	86.69
375.642	92.69
375.868	95.69
376.094	82.69
376.319	101.69
376.545	82.69
376.771	93.69
376.997	90.69
377.222	82.69
377.448	99.69
377.674	83.69
377.899	99.69
378.125	82.69
378.35	104.69
378.576	82.69
378.802	76.69
379.027	91.69
379.253	100.69
379.478	107.69
379.704	87.69
379.929	94.69
380.155	101.69
380.38	80.69
380.606	87.69
380.831	103.69
381.057	92.69
381.282	95.69
381.507	104.69
381.733	111.69
381.958	92.69
382.184	102.69
382.409	92.69
382.634	112.69
382.86	96.69
383.085	99.69
383.31	91.69
383.535	103.69
383.761	83.69
383.986	82.69
384.211	93.69
384.436	84.69
384.662	88.69
384.887	76.69
385.112	84.69
385.337	102.69
385.562	88.69
385.787	88.69
386.013	93.69
386.238	97.69
386.463	99.69
386.688	86.69
386.913	75.69
387.138	90.69
387.363	107.69
387.588	91.69
387.813	94.69
388.038	85.69
388.263	82.69
388.488	91.69
388.713	113.69
388.938	102.69
389.163	91.69
389.387	92.69
389.612	90.69
389.837	91.69
390.062	88.69
390.287	103.69
390.512	98.69
390.736	112.69
390.961	87.69
391.186	102.69
391.411	105.69
391.636	96.69
391.86	87.69
392.085	92.69
392.31	100.69
392.534	99.69
392.759	107.69
392.984	94.69
393.208	107.69
393.433	100.69
393.658	113.69
393.882	99.69
394.107	94.69
394.331	112.69
394.556	98.69
394.78	105.69
395.005	107.69
395.229	114.69
395.454	105.69
395.678	99.69
395.903	105.69
396.127	88.69
396.352	103.69
396.576	116.69
396.801	114.69
397.025	101.69
397.249	92.69
397.474	105.69
397.698	99.69
397.922	111.69
398.147	110.69
398.371	106.69
398.595	88.69
398.82	100.69
399.044	109.69
399.268	100.69
399.492	110.69
399.717	117.69
399.941	95.69
400.165	96.69
400.389	107.69
400.613	119.69
400.837	122.69
401.062	111.69
401.286	104.69
401.51	96.69
401.734	122.69
401.958	111.69
402.182	128.69
402.406	115.69
402.63	116.69
402.854	106.69
403.078	99.69
403.302	102.69
403.526	114.69
403.75	106.69
403.974	119.69
404.198	112.69
404.422	115.69
404.645	117.69
404.869	103.69
405.093	114.69
405.317	114.69
405.541	116.69
405.765	114.69
405.988	119.69
406.212	119.69
406.436	111.69
406.66	112.69
406.883	113.69
407.107	119.69
407.331	123.69
407.555	114.69
407.778	118.69
408.002	113.69
408.226	123.69
408.449	133.69
408.673	104.69
408.896	101.69
409.12	115.69
409.344	124.69
409.567	96.69
409.791	107.69
410.014	110.69
410.238	122.69
410.461	109.69
410.685	113.69
410.908	107.69
411.132	123.69
411.355	120.69
411.578	122.69
411.802	106.69
412.025	128.69
412.249	119.69
412.472	106.69
412.695	116.69
412.919	122.69
413.142	107.69
413.365	133.69
413.589	130.69
413.812	124.69
414.035	119.69
414.258	122.69
414.482	108.69
414.705	132.69
414.928	120.69
415.151	112.69
415.374	118.69
415.597	115.69
415.821	115.69
416.044	129.69
416.267	112.69
416.49	107.69
416.713	124.69
416.936	112.69
417.159	121.69
417.382	134.69
417.605	118.69
417.828	108.69
418.051	124.69
418.274	128.69
418.497	114.69
418.72	139.69
418.943	119.69
419.166	128.69
419.389	143.69
419.611	127.69
419.834	138.69
420.057	121.69
420.28	127.69
420.503	137.69
420.726	120.69
420.948	138.69
421.171	133.69
421.394	121.69
421.617	129.69
421.839	119.69
422.062	137.69
422.285	120.69
422.507	125.69
422.73	118.69
422.953	123.69
423.175	129.69
423.398	132.69
423.621	113.69
423.843	122.69
424.066	128.69
424.288	132.69
424.511	156.69
424.733	136.69
424.956	145.69
425.178	132.69
425.401	147.69
425.623	139.69
425.846	126.69
426.068	139.69
426.291	146.69
426.513	122.69
426.735	126.69
426.958	140.69
427.18	133.69
427.402	143.69
427.625	123.69
427.847	116.69
428.069	123.69
428.292	122.69
428.514	125.69
428.736	115.69
428.958	126.69
429.181	122.69
429.403	121.69
429.625	130.69
429.847	122.69
430.069	124.69
430.292	137.69
430.514	118.69
430.736	115.69
430.958	119.69
431.18	130.69
431.402	127.69
431.624	113.69
431.846	107.69
432.068	92.69
432.29	88.69
432.512	93.69
432.734	124.69
432.956	128.69
433.178	120.69
433.4	144.69
433.622	123.69
433.844	126.69
434.066	130.69
434.287	112.69
434.509	90.69
434.731	104.69
434.953	105.69
435.175	111.69
435.397	122.69
435.618	112.69
435.84	109.69
436.062	116.69
436.284	94.69
436.505	110.69
436.727	116.69
436.949	126.69
437.17	128.69
437.392	107.69
437.614	110.69
437.835	106.69
438.057	103.69
438.278	109.69
438.5	122.69
438.721	123.69
438.943	141.69
439.165	131.69
439.386	125.69
439.608	147.69
439.829	128.69
440.05	146.69
440.272	136.69
440.493	131.69
440.715	117.69
440.936	136.69
441.158	146.69
441.379	125.69
441.6	135.69
441.822	147.69
442.043	133.69
442.264	128.69
442.486	150.69
442.707	132.69
442.928	145.69
443.149	128.69
443.371	126.69
443.592	137.69
443.813	140.69
444.034	136.69
444.255	123.69
444.476	140.69
444.698	125.69
444.919	134.69
445.14	262.69
445.361	204.69
445.582	144.69
445.803	140.69
446.024	139.69
446.245	144.69
446.466	142.69
446.687	167.69
446.908	146.69
447.129	148.69
447.35	136.69
447.571	139.69
447.792	139.69
448.013	128.69
448.234	132.69
448.455	138.69
448.675	149.69
448.896	136.69
449.117	130.69
449.338	127.69
449.559	132.69
449.779	135.69
450	127.69
450.221	129.69
450.442	142.69
450.662	136.69
450.883	126.69
451.104	126.69
451.324	139.69
451.545	121.69
451.766	130.69
451.986	132.69
452.207	119.69
452.428	112.69
452.648	120.69
452.869	103.69
453.089	114.69
453.31	116.69
453.53	97.69
453.751	101.69
453.971	113.69
454.192	114.69
454.412	107.69
454.633	110.69
454.853	122.69
455.073	122.69
455.294	108.69
455.514	100.69
455.734	115.69
455.955	104.69
456.175	116.69
456.395	105.69
456.616	110.69
456.836	107.69
457.056	108.69
457.276	99.69
457.497	92.69
457.717	101.69
457.937	120.69
458.157	113.69
458.377	90.69
458.598	101.69
458.818	86.69
459.038	97.69
459.258	98.69
459.478	98.69
459.698	84.69
459.918	79.69
460.138	90.69
460.358	121.69
460.578	114.69
460.798	127.69
461.018	110.69
461.238	124.69
461.458	116.69
461.678	107.69
461.898	128.69
462.118	110.69
462.338	115.69
462.558	106.69
462.777	109.69
462.997	106.69
463.217	106.69
463.437	105.69
463.657	100.69
463.876	107.69
464.096	108.69
464.316	98.69
464.536	113.69
464.755	119.69
464.975	110.69
465.195	110.69
465.414	115.69
465.634	112.69
465.854	118.69
466.073	117.69
466.293	110.69
466.512	135.69
466.732	114.69
466.951	122.69
467.171	140.69
467.391	141.69
467.61	121.69
467.829	130.69
468.049	137.69
468.268	135.69
468.488	126.69
468.707	140.69
468.927	130.69
469.146	130.69
469.365	119.69
469.585	130.69
469.804	122.69
470.023	128.69
470.243	140.69
470.462	151.69
470.681	134.69
470.901	134.69
471.12	124.69
471.339	147.69
471.558	131.69
471.777	128.69
471.997	131.69
472.216	123.69
472.435	120.69
472.654	107.69
472.873	110.69
473.092	114.69
473.311	111.69
473.53	131.69
473.749	135.69
473.968	145.69
474.187	111.69
474.406	126.69
474.625	144.69
474.844	137.69
475.063	134.69
475.282	114.69
475.501	124.69
475.72	120.69
475.939	128.69
476.158	123.69
476.377	132.69
476.596	130.69
476.814	123.69
477.033	97.69
477.252	90.69
477.471	117.69
477.69	137.69
477.908	129.69
478.127	116.69
478.346	133.69
478.564	147.69
478.783	130.69
479.002	139.69
479.22	132.69
479.439	131.69
479.658	106.69
479.876	101.69
480.095	123.69
480.313	128.69
480.532	107.69
480.751	104.69
480.969	90.69
481.188	82.69
481.406	75.69
481.624	89.69
481.843	78.69
482.061	93.69
482.28	120.69
482.498	116.69
482.717	101.69
482.935	117.69
483.153	126.69
483.372	147.69
483.59	146.69
483.808	124.69
484.027	125.69
484.245	132.69
484.463	124.69
484.681	168.69
484.9	156.69
485.118	125.69
485.336	127.69
485.554	120.69
485.772	91.69
485.99	106.69
486.209	107.69
486.427	96.69
486.645	115.69
486.863	134.69
487.081	134.69
487.299	135.69
487.517	143.69
487.735	159.69
487.953	177.69
488.171	164.69
488.389	184.69
488.607	146.69
488.825	144.69
489.043	123.69
489.261	125.69
489.479	132.69
489.696	139.69
489.914	137.69
490.132	150.69
490.35	152.69
490.568	164.69
490.786	163.69
491.003	168.69
491.221	163.69
491.439	175.69
491.657	204.69
491.874	219.69
492.092	222.69
492.31	225.69
492.527	224.69
492.745	183.69
492.963	188.69
493.18	184.69
493.398	179.69
493.615	167.69
493.833	166.69
494.05	160.69
494.268	160.69
494.485	172.69
494.703	168.69
494.92	170.69
495.138	180.69
495.355	167.69
495.573	166.69
495.79	152.69
496.008	169.69
496.225	153.69
496.442	157.69
496.66	177.69
496.877	145.69
497.094	170.69
497.312	164.69
497.529	158.69
497.746	157.69
497.963	143.69
498.181	129.69
498.398	117.69
498.615	120.69
498.832	109.69
499.049	102.69
499.267	120.69
499.484	119.69
499.701	126.69
499.918	135.69
500.135	132.69
500.352	131.69
500.569	152.69
500.786	146.69
501.003	136.69
501.22	129.69
501.437	133.69
501.654	134.69
501.871	121.69
502.088	124.69
502.305	138.69
502.522	123.69
502.739	121.69
502.956	120.69
503.172	116.69
503.389	114.69
503.606	119.69
503.823	120.69
504.04	136.69
504.256	114.69
504.473	106.69
504.69	100.69
504.907	112.69
505.123	106.69
505.34	119.69
505.557	107.69
505.773	103.69
505.99	104.69
506.207	99.69
506.423	120.69
506.64	116.69
506.856	111.69
507.073	115.69
507.289	114.69
507.506	111.69
507.722	111.69
507.939	107.69
508.155	103.69
508.372	115.69
508.588	113.69
508.805	113.69
509.021	104.69
509.238	94.69
509.454	94.69
509.67	99.69
509.887	96.69
510.103	95.69
510.319	87.69
510.536	88.69
510.752	84.69
510.968	104.69
511.184	80.69
511.401	85.69
511.617	85.69
511.833	77.69
512.049	91.69
512.265	89.69
512.481	95.69
512.698	90.69
512.914	101.69
513.13	78.69
513.346	100.69
513.562	87.69
513.778	98.69
513.994	90.69
514.21	84.69
514.426	90.69
514.642	77.69
514.858	95.69
515.074	76.69
515.29	106.69
515.506	92.69
515.721	81.69
515.937	92.69
516.153	77.69
516.369	69.69
516.585	68.69
516.801	81.69
517.016	80.69
517.232	92.69
517.448	92.69
517.664	97.69
517.879	89.69
518.095	103.69
518.311	86.69
518.527	82.69
518.742	111.69
518.958	97.69
519.173	102.69
519.389	102.69
519.605	122.69
519.82	106.69
520.036	99.69
520.251	118.69
520.467	90.69
520.682	93.69
520.898	88.69
521.113	87.69
521.329	82.69
521.544	92.69
521.76	96.69
521.975	106.69
522.19	100.69
522.406	90.69
522.621	86.69
522.836	95.69
523.052	90.69
523.267	105.69
523.482	112.69
523.698	102.69
523.913	108.69
524.128	118.69
524.343	114.69
524.559	119.69
524.774	113.69
524.989	111.69
525.204	113.69
525.419	112.69
525.634	107.69
525.849	100.69
526.064	89.69
526.28	101.69
526.495	82.69
526.71	91.69
526.925	66.69
527.14	66.69
527.355	81.69
527.57	83.69
527.785	71.69
527.999	87.69
528.214	106.69
528.429	111.69
528.644	120.69
528.859	146.69
529.074	156.69
529.289	151.69
529.503	148.69
529.718	136.69
529.933	130.69
530.148	99.69
530.363	94.69
530.577	75.69
530.792	76.69
531.007	85.69
531.221	82.69
531.436	85.69
531.651	87.69
531.865	87.69
532.08	82.69
532.295	90.69
532.509	82.69
532.724	99.69
532.938	94.69
533.153	89.69
533.367	112.69
533.582	109.69
533.796	134.69
534.011	115.69
534.225	98.69
534.44	86.69
534.654	97.69
534.868	98.69
535.083	93.69
535.297	91.69
535.511	98.69
535.726	89.69
535.94	96.69
536.154	116.69
536.369	97.69
536.583	86.69
536.797	76.69
537.011	88.69
537.225	103.69
537.44	97.69
537.654	80.69
537.868	103.69
538.082	95.69
538.296	85.69
538.51	90.69
538.724	109.69
538.938	101.69
539.153	114.69
539.367	124.69
539.581	117.69
539.795	94.69
540.009	103.69
540.222	89.69
540.436	98.69
540.65	104.69
540.864	126.69
541.078	133.69
541.292	141.69
541.506	164.69
541.72	169.69
541.934	186.69
542.147	179.69
542.361	176.69
542.575	146.69
542.789	151.69
543.002	144.69
543.216	122.69
543.43	122.69
543.644	120.69
543.857	149.69
544.071	166.69
544.285	157.69
544.498	158.69
544.712	156.69
544.925	159.69
545.139	162.69
545.352	147.69
545.566	155.69
545.779	147.69
545.993	170.69
546.206	150.69
546.42	157.69
546.633	152.69
546.847	158.69
547.06	162.69
547.274	169.69
547.487	175.69
547.7	170.69
547.914	171.69
548.127	176.69
548.34	155.69
548.554	148.69
548.767	161.69
548.98	148.69
549.193	152.69
549.407	145.69
549.62	135.69
549.833	150.69
550.046	138.69
550.259	148.69
550.473	146.69
550.686	149.69
550.899	136.69
551.112	138.69
551.325	150.69
551.538	131.69
551.751	113.69
551.964	121.69
552.177	131.69
552.39	140.69
552.603	146.69
552.816	139.69
553.029	154.69
553.242	165.69
553.455	147.69
553.667	149.69
553.88	153.69
554.093	149.69
554.306	139.69
554.519	150.69
554.732	148.69
554.944	142.69
555.157	151.69
555.37	125.69
555.583	141.69
555.795	144.69
556.008	122.69
556.221	141.69
556.433	125.69
556.646	136.69
556.859	132.69
557.071	127.69
557.284	122.69
557.496	131.69
557.709	127.69
557.921	128.69
558.134	129.69
558.346	139.69
558.559	147.69
558.771	132.69
558.984	111.69
559.196	129.69
559.409	122.69
559.621	123.69
559.833	117.69
560.046	99.69
560.258	121.69
560.47	142.69
560.683	140.69
560.895	101.69
561.107	144.69
561.32	123.69
561.532	119.69
561.744	127.69
561.956	128.69
562.168	130.69
562.381	139.69
562.593	124.69
562.805	126.69
563.017	125.69
563.229	127.69
563.441	122.69
563.653	131.69
563.865	124.69
564.077	116.69
564.289	110.69
564.501	125.69
564.713	121.69
564.925	118.69
565.137	106.69
565.349	102.69
565.561	103.69
565.773	126.69
565.985	106.69
566.197	109.69
566.408	114.69
566.62	113.69
566.832	119.69
567.044	105.69
567.255	114.69
567.467	95.69
567.679	107.69
567.891	90.69
568.102	97.69
568.314	100.69
568.526	104.69
568.737	84.69
568.949	86.69
569.161	92.69
569.372	88.69
569.584	91.69
569.795	88.69
570.007	90.69
570.218	86.69
570.43	82.69
570.641	90.69
570.853	88.69
571.064	97.69
571.276	106.69
571.487	109.69
571.698	84.69
571.91	104.69
572.121	90.69
572.333	86.69
572.544	91.69
572.755	88.69
572.966	84.69
573.178	88.69
573.389	83.69
573.6	85.69
573.811	75.69
574.023	78.69
574.234	94.69
574.445	92.69
574.656	89.69
574.867	86.69
575.078	90.69
575.289	103.69
575.501	98.69
575.712	82.69
575.923	86.69
576.134	105.69
576.345	99.69
576.556	108.69
576.767	98.69
576.978	87.69
577.188	89.69
577.399	95.69
577.61	87.69
577.821	101.69
578.032	76.69
578.243	93.69
578.454	102.69
578.665	103.69
578.875	89.69
579.086	83.69
579.297	76.69
579.508	68.69
579.718	68.69
579.929	85.69
580.14	76.69
580.35	82.69
580.561	83.69
580.772	87.69
580.982	70.69
581.193	83.69
581.403	97.69
581.614	99.69
581.825	99.69
582.035	87.69
582.246	87.69
582.456	90.69
582.667	98.69
582.877	94.69
583.087	79.69
583.298	83.69
583.508	83.69
583.719	97.69
583.929	94.69
584.139	82.69
584.35	84.69
584.56	83.69
584.77	83.69
584.981	83.69
585.191	81.69
585.401	90.69
585.611	79.69
585.821	93.69
586.032	95.69
586.242	94.69
586.452	88.69
586.662	65.69
586.872	70.69
587.082	84.69
587.292	83.69
587.502	83.69
587.713	98.69
587.923	88.69
588.133	81.69
588.343	89.69
588.553	74.69
588.762	89.69
588.972	94.69
589.182	91.69
589.392	86.69
589.602	82.69
589.812	81.69
590.022	85.69
590.232	90.69
590.441	70.69
590.651	88.69
590.861	67.69
591.071	76.69
591.281	91.69
591.49	82.69
591.7	70.69
591.91	81.69
592.119	80.69
592.329	75.69
592.539	74.69
592.748	96.69
592.958	82.69
593.167	73.69
593.377	85.69
593.587	78.69
593.796	88.69
594.006	82.69
594.215	88.69
594.424	88.69
594.634	76.69
594.843	105.69
595.053	104.69
595.262	78.69
595.472	93.69
595.681	91.69
595.89	97.69
596.1	100.69
596.309	85.69
596.518	90.69
596.727	101.69
596.937	84.69
597.146	86.69
597.355	82.69
597.564	86.69
597.774	93.69
597.983	95.69
598.192	101.69
598.401	82.69
598.61	75.69
598.819	92.69
599.028	102.69
599.237	91.69
599.446	98.69
599.655	89.69
599.864	84.69
600.073	86.69
600.282	88.69
600.491	87.69
600.7	87.69
600.909	80.69
601.118	101.69
601.327	97.69
601.536	99.69
601.745	104.69
601.953	91.69
602.162	104.69
602.371	109.69
602.58	117.69
602.789	107.69
602.997	109.69
603.206	101.69
603.415	102.69
603.623	112.69
603.832	100.69
604.041	104.69
604.249	106.69
604.458	100.69
604.666	101.69
604.875	106.69
605.084	100.69
605.292	102.69
605.501	104.69
605.709	98.69
605.918	100.69
606.126	122.69
606.334	104.69
606.543	98.69
606.751	98.69
606.96	113.69
607.168	112.69
607.376	108.69
607.585	110.69
607.793	107.69
608.001	110.69
608.21	104.69
608.418	114.69
608.626	98.69
608.834	118.69
609.043	110.69
609.251	120.69
609.459	120.69
609.667	114.69
609.875	115.69
610.083	113.69
610.291	111.69
610.499	102.69
610.707	107.69
610.916	97.69
611.124	122.69
611.332	108.69
611.54	111.69
611.748	107.69
611.955	112.69
612.163	106.69
612.371	110.69
612.579	95.69
612.787	101.69
612.995	114.69
613.203	95.69
613.411	126.69
613.618	110.69
613.826	112.69
614.034	119.69
614.242	103.69
614.449	106.69
614.657	121.69
614.865	113.69
615.072	99.69
615.28	112.69
615.488	120.69
615.695	114.69
615.903	110.69
616.111	113.69
616.318	119.69
616.526	108.69
616.733	120.69
616.941	118.69
617.148	103.69
617.356	105.69
617.563	119.69
617.771	123.69
617.978	105.69
618.185	103.69
618.393	104.69
618.6	111.69
618.807	113.69
619.015	107.69
619.222	94.69
619.429	106.69
619.637	86.69
619.844	107.69
620.051	114.69
620.258	96.69
620.466	114.69
620.673	113.69
620.88	117.69
621.087	105.69
621.294	99.69
621.501	97.69
621.708	91.69
621.915	109.69
622.122	119.69
622.329	112.69
622.536	95.69
622.743	100.69
622.95	106.69
623.157	88.69
623.364	106.69
623.571	99.69
623.778	102.69
623.985	97.69
624.192	105.69
624.399	104.69
624.606	103.69
624.812	99.69
625.019	98.69
625.226	96.69
625.433	106.69
625.639	89.69
625.846	97.69
626.053	93.69
626.259	81.69
626.466	94.69
626.673	91.69
626.879	82.69
627.086	96.69
627.293	100.69
627.499	92.69
627.706	101.69
627.912	102.69
628.119	116.69
628.325	105.69
628.532	110.69
628.738	93.69
628.945	94.69
629.151	102.69
629.357	92.69
629.564	97.69
629.77	110.69
629.976	96.69
630.183	100.69
630.389	106.69
630.595	96.69
630.802	111.69
631.008	98.69
631.214	106.69
631.42	110.69
631.627	100.69
631.833	105.69
632.039	98.69
632.245	101.69
632.451	102.69
632.657	100.69
632.863	107.69
633.069	90.69
633.275	86.69
633.481	102.69
633.688	96.69
633.893	86.69
634.099	91.69
634.305	104.69
634.511	103.69
634.717	104.69
634.923	101.69
635.129	88.69
635.335	88.69
635.541	101.69
635.747	86.69
635.952	98.69
636.158	101.69
636.364	101.69
636.57	99.69
636.775	84.69
636.981	95.69
637.187	93.69
637.392	100.69
637.598	101.69
637.804	92.69
638.009	90.69
638.215	97.69
638.421	117.69
638.626	90.69
638.832	101.69
639.037	95.69
639.243	85.69
639.448	115.69
639.654	98.69
639.859	114.69
640.065	94.69
640.27	108.69
640.475	94.69
640.681	83.69
640.886	106.69
641.091	94.69
641.297	88.69
641.502	94.69
641.707	96.69
641.913	107.69
642.118	88.69
642.323	87.69
642.528	99.69
642.733	98.69
642.939	108.69
643.144	95.69
643.349	100.69
643.554	98.69
643.759	88.69
643.964	97.69
644.169	98.69
644.374	88.69
644.579	100.69
644.784	81.69
644.989	108.69
645.194	101.69
645.399	110.69
645.604	102.69
645.809	100.69
646.014	79.69
646.219	84.69
646.423	93.69
646.628	88.69
646.833	94.69
647.038	103.69
647.243	101.69
647.447	87.69
647.652	87.69
647.857	83.69
648.062	91.69
648.266	101.69
648.471	95.69
648.676	90.69
648.88	95.69
649.085	106.69
649.289	93.69
649.494	86.69
649.698	92.69
649.903	94.69
650.107	89.69
650.312	101.69
650.516	105.69
650.721	94.69
650.925	99.69
651.13	93.69
651.334	82.69
651.539	102.69
651.743	92.69
651.947	95.69
652.152	100.69
652.356	99.69
652.56	99.69
652.764	85.69
652.969	97.69
653.173	94.69
653.377	86.69
653.581	90.69
653.785	87.69
653.99	83.69
654.194	91.69
654.398	98.69
654.602	102.69
654.806	101.69
655.01	88.69
655.214	83.69
655.418	79.69
655.622	76.69
655.826	73.69
656.03	91.69
656.234	87.69
656.438	93.69
656.642	77.69
656.846	79.69
657.049	85.69
657.253	87.69
657.457	87.69
657.661	90.69
657.865	96.69
658.068	74.69
658.272	82.69
658.476	97.69
658.68	75.69
658.883	83.69
659.087	102.69
659.291	81.69
659.494	80.69
659.698	84.69
659.901	79.69
660.105	76.69
660.309	92.69
660.512	86.69
660.716	79.69
660.919	90.69
661.123	82.69
661.326	80.69
661.53	68.69
661.733	85.69
661.936	84.69
662.14	89.69
662.343	82.69
662.546	62.69
662.75	77.69
662.953	81.69
663.156	79.69
663.36	85.69
663.563	76.69
663.766	81.69
663.969	75.69
664.173	72.69
664.376	80.69
664.579	77.69
664.782	76.69
664.985	56.69
665.188	81.69
665.391	78.69
665.594	60.69
665.797	72.69
666	65.69
666.203	78.69
666.406	76.69
666.609	75.69
666.812	97.69
667.015	73.69
667.218	88.69
667.421	83.69
667.624	79.69
667.827	84.69
668.03	72.69
668.232	66.69
668.435	74.69
668.638	74.69
668.841	87.69
669.043	92.69
669.246	74.69
669.449	84.69
669.651	80.69
669.854	80.69
670.057	81.69
670.259	91.69
670.462	75.69
670.665	79.69
670.867	78.69
671.07	76.69
671.272	76.69
671.475	100.69
671.677	84.69
671.88	75.69
672.082	71.69
672.284	88.69
672.487	80.69
672.689	74.69
672.892	99.69
