Data from Location1.07152019.Energy5.Lamp.07192019.3%Agarose_HRD10591_14-32-56-016.txt Node
Date: Fri Jul 19 14:32:56 EDT 2019
User: cochatt
Spectrometer: HR+D1059
Trigger mode: 1
Integration Time (sec): 1.000000E-1
Scans to average: 1
Electric dark correction enabled: true
Nonlinearity correction enabled: false
Boxcar width: 0
XAxis mode: Wavelengths
Number of Pixels in Spectrum: 2048
>>>>>Begin Spectral Data<<<<<
223.165	-5.62
223.4	-5.62
223.635	-5.62
223.869	-24.62
224.104	-10.62
224.338	-17.62
224.573	-21.62
224.808	-14.62
225.042	2.38
225.277	-23.62
225.511	-5.62
225.746	5.38
225.98	13.38
226.215	3.38
226.449	29.38
226.683	11.38
226.918	26.38
227.152	32.38
227.387	29.38
227.621	20.38
227.856	34.38
228.09	57.38
228.324	45.38
228.559	55.38
228.793	55.38
229.027	61.38
229.262	57.38
229.496	55.38
229.73	58.38
229.964	67.38
230.199	77.38
230.433	64.38
230.667	93.38
230.901	80.38
231.136	78.38
231.37	69.38
231.604	89.38
231.838	83.38
232.072	74.38
232.306	78.38
232.541	86.38
232.775	86.38
233.009	85.38
233.243	79.38
233.477	81.38
233.711	85.38
233.945	86.38
234.179	84.38
234.413	68.38
234.647	82.38
234.881	82.38
235.115	63.38
235.349	72.38
235.583	78.38
235.817	81.38
236.051	76.38
236.285	86.38
236.519	78.38
236.753	78.38
236.987	73.38
237.221	80.38
237.455	76.38
237.689	70.38
237.922	93.38
238.156	74.38
238.39	86.38
238.624	71.38
238.858	70.38
239.091	83.38
239.325	85.38
239.559	64.38
239.793	74.38
240.027	75.38
240.26	77.38
240.494	76.38
240.728	67.38
240.961	61.38
241.195	83.38
241.429	84.38
241.662	82.38
241.896	74.38
242.13	71.38
242.363	71.38
242.597	64.38
242.83	76.38
243.064	103.38
243.298	65.38
243.531	73.38
243.765	77.38
243.998	81.38
244.232	70.38
244.465	81.38
244.699	64.38
244.932	70.38
245.166	67.38
245.399	84.38
245.633	80.38
245.866	88.38
246.099	63.38
246.333	80.38
246.566	71.38
246.8	80.38
247.033	68.38
247.266	75.38
247.5	74.38
247.733	73.38
247.966	71.38
248.2	89.38
248.433	74.38
248.666	76.38
248.899	85.38
249.133	71.38
249.366	80.38
249.599	71.38
249.832	86.38
250.066	69.38
250.299	59.38
250.532	72.38
250.765	76.38
250.998	69.38
251.231	79.38
251.465	76.38
251.698	75.38
251.931	73.38
252.164	84.38
252.397	79.38
252.63	90.38
252.863	83.38
253.096	66.38
253.329	76.38
253.562	86.38
253.795	70.38
254.028	73.38
254.261	76.38
254.494	87.38
254.727	85.38
254.96	92.38
255.193	78.38
255.426	53.38
255.659	78.38
255.892	86.38
256.124	75.38
256.357	88.38
256.59	92.38
256.823	74.38
257.056	84.38
257.289	80.38
257.521	78.38
257.754	79.38
257.987	75.38
258.22	91.38
258.452	77.38
258.685	78.38
258.918	77.38
259.151	79.38
259.383	80.38
259.616	68.38
259.849	77.38
260.081	81.38
260.314	77.38
260.547	87.38
260.779	90.38
261.012	69.38
261.244	96.38
261.477	83.38
261.71	71.38
261.942	75.38
262.175	81.38
262.407	81.38
262.64	84.38
262.872	86.38
263.105	82.38
263.337	87.38
263.57	74.38
263.802	73.38
264.035	80.38
264.267	80.38
264.499	82.38
264.732	68.38
264.964	75.38
265.197	78.38
265.429	79.38
265.661	78.38
265.894	71.38
266.126	80.38
266.358	73.38
266.591	85.38
266.823	100.38
267.055	86.38
267.287	64.38
267.52	71.38
267.752	77.38
267.984	84.38
268.216	100.38
268.448	88.38
268.681	90.38
268.913	87.38
269.145	99.38
269.377	82.38
269.609	84.38
269.841	89.38
270.073	73.38
270.306	76.38
270.538	91.38
270.77	85.38
271.002	93.38
271.234	91.38
271.466	87.38
271.698	80.38
271.93	76.38
272.162	85.38
272.394	81.38
272.626	67.38
272.858	80.38
273.09	88.38
273.322	80.38
273.553	79.38
273.785	69.38
274.017	67.38
274.249	77.38
274.481	85.38
274.713	79.38
274.945	88.38
275.176	70.38
275.408	62.38
275.64	62.38
275.872	77.38
276.104	80.38
276.335	69.38
276.567	79.38
276.799	82.38
277.031	82.38
277.262	81.38
277.494	87.38
277.726	74.38
277.957	85.38
278.189	71.38
278.421	71.38
278.652	73.38
278.884	67.38
279.115	58.38
279.347	72.38
279.579	76.38
279.81	81.38
280.042	81.38
280.273	87.38
280.505	90.38
280.736	83.38
280.968	72.38
281.199	88.38
281.431	93.38
281.662	89.38
281.894	94.38
282.125	90.38
282.356	95.38
282.588	78.38
282.819	76.38
283.051	89.38
283.282	84.38
283.513	84.38
283.745	86.38
283.976	89.38
284.207	73.38
284.439	77.38
284.67	72.38
284.901	69.38
285.132	91.38
285.364	76.38
285.595	94.38
285.826	79.38
286.057	88.38
286.288	77.38
286.52	80.38
286.751	90.38
286.982	81.38
287.213	82.38
287.444	90.38
287.675	92.38
287.906	72.38
288.138	77.38
288.369	77.38
288.6	73.38
288.831	71.38
289.062	96.38
289.293	78.38
289.524	75.38
289.755	85.38
289.986	73.38
290.217	80.38
290.448	87.38
290.679	85.38
290.91	75.38
291.141	88.38
291.371	76.38
291.602	83.38
291.833	89.38
292.064	75.38
292.295	86.38
292.526	84.38
292.757	83.38
292.987	89.38
293.218	77.38
293.449	85.38
293.68	80.38
293.91	74.38
294.141	74.38
294.372	78.38
294.603	87.38
294.833	84.38
295.064	72.38
295.295	85.38
295.525	72.38
295.756	84.38
295.987	73.38
296.217	80.38
296.448	81.38
296.679	77.38
296.909	88.38
297.14	73.38
297.37	81.38
297.601	86.38
297.831	88.38
298.062	81.38
298.292	79.38
298.523	84.38
298.753	84.38
298.984	95.38
299.214	85.38
299.445	92.38
299.675	104.38
299.905	83.38
300.136	82.38
300.366	78.38
300.597	82.38
300.827	76.38
301.057	88.38
301.288	88.38
301.518	83.38
301.748	91.38
301.979	88.38
302.209	86.38
302.439	82.38
302.669	86.38
302.9	93.38
303.13	67.38
303.36	86.38
303.59	86.38
303.82	91.38
304.051	80.38
304.281	91.38
304.511	75.38
304.741	82.38
304.971	79.38
305.201	82.38
305.431	80.38
305.661	81.38
305.891	80.38
306.121	81.38
306.352	76.38
306.582	75.38
306.812	74.38
307.042	79.38
307.272	68.38
307.502	72.38
307.731	77.38
307.961	74.38
308.191	93.38
308.421	80.38
308.651	81.38
308.881	86.38
309.111	94.38
309.341	89.38
309.571	85.38
309.8	90.38
310.03	88.38
310.26	95.38
310.49	74.38
310.72	82.38
310.949	69.38
311.179	90.38
311.409	83.38
311.639	79.38
311.868	75.38
312.098	76.38
312.328	81.38
312.557	86.38
312.787	85.38
313.017	91.38
313.246	79.38
313.476	69.38
313.706	83.38
313.935	86.38
314.165	91.38
314.394	76.38
314.624	91.38
314.853	93.38
315.083	81.38
315.312	75.38
315.542	80.38
315.771	84.38
316.001	77.38
316.23	89.38
316.46	78.38
316.689	84.38
316.919	89.38
317.148	83.38
317.377	70.38
317.607	80.38
317.836	86.38
318.065	82.38
318.295	71.38
318.524	84.38
318.753	86.38
318.983	73.38
319.212	72.38
319.441	78.38
319.67	83.38
319.9	80.38
320.129	82.38
320.358	72.38
320.587	99.38
320.816	76.38
321.046	83.38
321.275	73.38
321.504	91.38
321.733	82.38
321.962	74.38
322.191	75.38
322.42	95.38
322.649	90.38
322.878	76.38
323.108	83.38
323.337	81.38
323.566	82.38
323.795	82.38
324.024	79.38
324.253	77.38
324.482	75.38
324.71	83.38
324.939	85.38
325.168	77.38
325.397	84.38
325.626	66.38
325.855	106.38
326.084	78.38
326.313	88.38
326.542	75.38
326.77	72.38
326.999	85.38
327.228	79.38
327.457	87.38
327.686	88.38
327.914	87.38
328.143	78.38
328.372	84.38
328.6	82.38
328.829	82.38
329.058	74.38
329.287	79.38
329.515	82.38
329.744	94.38
329.972	70.38
330.201	86.38
330.43	72.38
330.658	77.38
330.887	81.38
331.115	86.38
331.344	86.38
331.572	91.38
331.801	94.38
332.03	97.38
332.258	85.38
332.486	87.38
332.715	76.38
332.943	93.38
333.172	74.38
333.4	75.38
333.629	85.38
333.857	78.38
334.085	87.38
334.314	99.38
334.542	90.38
334.771	86.38
334.999	90.38
335.227	81.38
335.455	83.38
335.684	77.38
335.912	64.38
336.14	66.38
336.369	92.38
336.597	92.38
336.825	93.38
337.053	85.38
337.281	76.38
337.51	78.38
337.738	86.38
337.966	84.38
338.194	76.38
338.422	70.38
338.65	83.38
338.878	79.38
339.106	95.38
339.334	100.38
339.562	67.38
339.79	73.38
340.018	85.38
340.246	79.38
340.474	91.38
340.702	76.38
340.93	88.38
341.158	67.38
341.386	82.38
341.614	96.38
341.842	73.38
342.07	84.38
342.298	82.38
342.526	82.38
342.754	91.38
342.981	86.38
343.209	94.38
343.437	77.38
343.665	88.38
343.893	80.38
344.12	89.38
344.348	81.38
344.576	85.38
344.804	80.38
345.031	85.38
345.259	81.38
345.487	82.38
345.714	90.38
345.942	75.38
346.17	88.38
346.397	84.38
346.625	89.38
346.853	95.38
347.08	96.38
347.308	65.38
347.535	90.38
347.763	97.38
347.99	62.38
348.218	74.38
348.445	94.38
348.673	75.38
348.9	92.38
349.128	78.38
349.355	84.38
349.583	76.38
349.81	73.38
350.037	77.38
350.265	93.38
350.492	89.38
350.72	71.38
350.947	72.38
351.174	83.38
351.402	86.38
351.629	92.38
351.856	97.38
352.083	86.38
352.311	76.38
352.538	71.38
352.765	93.38
352.992	88.38
353.22	73.38
353.447	81.38
353.674	85.38
353.901	82.38
354.128	86.38
354.355	79.38
354.583	79.38
354.81	83.38
355.037	91.38
355.264	77.38
355.491	85.38
355.718	76.38
355.945	88.38
356.172	81.38
356.399	91.38
356.626	88.38
356.853	91.38
357.08	90.38
357.307	96.38
357.534	70.38
357.761	68.38
357.988	76.38
358.215	80.38
358.441	85.38
358.668	79.38
358.895	83.38
359.122	90.38
359.349	75.38
359.576	83.38
359.802	80.38
360.029	86.38
360.256	82.38
360.483	93.38
360.709	99.38
360.936	81.38
361.163	90.38
361.39	99.38
361.616	81.38
361.843	80.38
362.07	96.38
362.296	69.38
362.523	84.38
362.749	78.38
362.976	76.38
363.203	78.38
363.429	77.38
363.656	84.38
363.882	67.38
364.109	82.38
364.335	73.38
364.562	78.38
364.788	79.38
365.015	96.38
365.241	76.38
365.468	92.38
365.694	82.38
365.92	86.38
366.147	82.38
366.373	76.38
366.599	87.38
366.826	90.38
367.052	82.38
367.278	87.38
367.505	84.38
367.731	77.38
367.957	96.38
368.184	77.38
368.41	93.38
368.636	88.38
368.862	88.38
369.089	84.38
369.315	102.38
369.541	85.38
369.767	97.38
369.993	90.38
370.219	72.38
370.445	81.38
370.672	90.38
370.898	89.38
371.124	88.38
371.35	84.38
371.576	92.38
371.802	92.38
372.028	89.38
372.254	75.38
372.48	94.38
372.706	87.38
372.932	93.38
373.158	90.38
373.384	98.38
373.61	89.38
373.835	88.38
374.061	86.38
374.287	91.38
374.513	91.38
374.739	92.38
374.965	99.38
375.191	81.38
375.416	97.38
375.642	102.38
375.868	96.38
376.094	100.38
376.319	88.38
376.545	82.38
376.771	88.38
376.997	102.38
377.222	92.38
377.448	97.38
377.674	96.38
377.899	101.38
378.125	87.38
378.35	91.38
378.576	82.38
378.802	82.38
379.027	101.38
379.253	88.38
379.478	94.38
379.704	91.38
379.929	102.38
380.155	100.38
380.38	95.38
380.606	85.38
380.831	98.38
381.057	106.38
381.282	100.38
381.507	107.38
381.733	101.38
381.958	91.38
382.184	99.38
382.409	103.38
382.634	108.38
382.86	93.38
383.085	96.38
383.31	97.38
383.535	84.38
383.761	94.38
383.986	99.38
384.211	90.38
384.436	102.38
384.662	85.38
384.887	97.38
385.112	82.38
385.337	83.38
385.562	85.38
385.787	88.38
386.013	101.38
386.238	96.38
386.463	100.38
386.688	86.38
386.913	98.38
387.138	89.38
387.363	103.38
387.588	92.38
387.813	107.38
388.038	93.38
388.263	84.38
388.488	110.38
388.713	105.38
388.938	105.38
389.163	94.38
389.387	89.38
389.612	94.38
389.837	99.38
390.062	100.38
390.287	97.38
390.512	86.38
390.736	99.38
390.961	115.38
391.186	97.38
391.411	93.38
391.636	99.38
391.86	104.38
392.085	91.38
392.31	104.38
392.534	104.38
392.759	108.38
392.984	115.38
393.208	92.38
393.433	106.38
393.658	87.38
393.882	93.38
394.107	107.38
394.331	101.38
394.556	105.38
394.78	106.38
395.005	111.38
395.229	99.38
395.454	110.38
395.678	114.38
395.903	90.38
396.127	102.38
396.352	101.38
396.576	110.38
396.801	114.38
397.025	120.38
397.249	104.38
397.474	104.38
397.698	103.38
397.922	116.38
398.147	110.38
398.371	93.38
398.595	108.38
398.82	108.38
399.044	103.38
399.268	106.38
399.492	122.38
399.717	98.38
399.941	110.38
400.165	109.38
400.389	99.38
400.613	104.38
400.837	116.38
401.062	118.38
401.286	112.38
401.51	107.38
401.734	106.38
401.958	98.38
402.182	103.38
402.406	110.38
402.63	104.38
402.854	108.38
403.078	111.38
403.302	101.38
403.526	112.38
403.75	117.38
403.974	113.38
404.198	111.38
404.422	115.38
404.645	116.38
404.869	117.38
405.093	110.38
405.317	120.38
405.541	115.38
405.765	108.38
405.988	134.38
406.212	116.38
406.436	129.38
406.66	120.38
406.883	132.38
407.107	101.38
407.331	121.38
407.555	123.38
407.778	112.38
408.002	112.38
408.226	122.38
408.449	125.38
408.673	116.38
408.896	131.38
409.12	119.38
409.344	117.38
409.567	121.38
409.791	112.38
410.014	104.38
410.238	123.38
410.461	122.38
410.685	127.38
410.908	123.38
411.132	125.38
411.355	106.38
411.578	114.38
411.802	109.38
412.025	115.38
412.249	108.38
412.472	104.38
412.695	112.38
412.919	124.38
413.142	121.38
413.365	105.38
413.589	133.38
413.812	115.38
414.035	116.38
414.258	121.38
414.482	118.38
414.705	109.38
414.928	125.38
415.151	113.38
415.374	120.38
415.597	108.38
415.821	118.38
416.044	122.38
416.267	128.38
416.49	137.38
416.713	112.38
416.936	136.38
417.159	128.38
417.382	133.38
417.605	121.38
417.828	121.38
418.051	115.38
418.274	124.38
418.497	124.38
418.72	133.38
418.943	151.38
419.166	141.38
419.389	140.38
419.611	148.38
419.834	150.38
420.057	142.38
420.28	123.38
420.503	117.38
420.726	134.38
420.948	142.38
421.171	138.38
421.394	113.38
421.617	128.38
421.839	146.38
422.062	138.38
422.285	125.38
422.507	140.38
422.73	107.38
422.953	114.38
423.175	122.38
423.398	138.38
423.621	119.38
423.843	128.38
424.066	136.38
424.288	133.38
424.511	130.38
424.733	135.38
424.956	126.38
425.178	118.38
425.401	137.38
425.623	133.38
425.846	130.38
426.068	139.38
426.291	124.38
426.513	126.38
426.735	137.38
426.958	136.38
427.18	134.38
427.402	125.38
427.625	120.38
427.847	132.38
428.069	132.38
428.292	126.38
428.514	124.38
428.736	122.38
428.958	113.38
429.181	115.38
429.403	110.38
429.625	123.38
429.847	132.38
430.069	129.38
430.292	111.38
430.514	123.38
430.736	143.38
430.958	120.38
431.18	114.38
431.402	125.38
431.624	109.38
431.846	101.38
432.068	100.38
432.29	105.38
432.512	107.38
432.734	122.38
432.956	115.38
433.178	136.38
433.4	134.38
433.622	128.38
433.844	136.38
434.066	123.38
434.287	112.38
434.509	100.38
434.731	101.38
434.953	105.38
435.175	112.38
435.397	130.38
435.618	119.38
435.84	125.38
436.062	116.38
436.284	106.38
436.505	134.38
436.727	131.38
436.949	114.38
437.17	124.38
437.392	125.38
437.614	121.38
437.835	109.38
438.057	120.38
438.278	126.38
438.5	140.38
438.721	136.38
438.943	154.38
439.165	131.38
439.386	136.38
439.608	126.38
439.829	152.38
440.05	150.38
440.272	121.38
440.493	136.38
440.715	151.38
440.936	140.38
441.158	144.38
441.379	138.38
441.6	146.38
441.822	151.38
442.043	136.38
442.264	133.38
442.486	136.38
442.707	130.38
442.928	142.38
443.149	126.38
443.371	133.38
443.592	139.38
443.813	133.38
444.034	148.38
444.255	156.38
444.476	129.38
444.698	140.38
444.919	142.38
445.14	258.38
445.361	200.38
445.582	145.38
445.803	150.38
446.024	141.38
446.245	134.38
446.466	147.38
446.687	165.38
446.908	141.38
447.129	157.38
447.35	142.38
447.571	148.38
447.792	150.38
448.013	149.38
448.234	128.38
448.455	140.38
448.675	139.38
448.896	144.38
449.117	140.38
449.338	115.38
449.559	131.38
449.779	147.38
450	153.38
450.221	125.38
450.442	145.38
450.662	132.38
450.883	143.38
451.104	123.38
451.324	126.38
451.545	140.38
451.766	123.38
451.986	118.38
452.207	123.38
452.428	134.38
452.648	115.38
452.869	109.38
453.089	114.38
453.31	114.38
453.53	119.38
453.751	101.38
453.971	93.38
454.192	89.38
454.412	104.38
454.633	103.38
454.853	120.38
455.073	124.38
455.294	122.38
455.514	125.38
455.734	134.38
455.955	117.38
456.175	116.38
456.395	120.38
456.616	113.38
456.836	109.38
457.056	94.38
457.276	119.38
457.497	104.38
457.717	115.38
457.937	114.38
458.157	98.38
458.377	97.38
458.598	97.38
458.818	84.38
459.038	77.38
459.258	81.38
459.478	82.38
459.698	93.38
459.918	97.38
460.138	103.38
460.358	108.38
460.578	121.38
460.798	116.38
461.018	113.38
461.238	127.38
461.458	124.38
461.678	114.38
461.898	109.38
462.118	103.38
462.338	103.38
462.558	112.38
462.777	104.38
462.997	108.38
463.217	106.38
463.437	121.38
463.657	116.38
463.876	116.38
464.096	95.38
464.316	106.38
464.536	99.38
464.755	114.38
464.975	104.38
465.195	117.38
465.414	116.38
465.634	124.38
465.854	101.38
466.073	117.38
466.293	116.38
466.512	130.38
466.732	141.38
466.951	121.38
467.171	124.38
467.391	135.38
467.61	128.38
467.829	131.38
468.049	138.38
468.268	137.38
468.488	141.38
468.707	145.38
468.927	138.38
469.146	140.38
469.365	153.38
469.585	138.38
469.804	132.38
470.023	145.38
470.243	141.38
470.462	130.38
470.681	148.38
470.901	124.38
471.12	129.38
471.339	143.38
471.558	145.38
471.777	130.38
471.997	128.38
472.216	125.38
472.435	117.38
472.654	110.38
472.873	104.38
473.092	114.38
473.311	114.38
473.53	116.38
473.749	121.38
473.968	130.38
474.187	121.38
474.406	118.38
474.625	113.38
474.844	134.38
475.063	125.38
475.282	104.38
475.501	113.38
475.72	118.38
475.939	124.38
476.158	135.38
476.377	128.38
476.596	138.38
476.814	125.38
477.033	122.38
477.252	113.38
477.471	121.38
477.69	128.38
477.908	143.38
478.127	144.38
478.346	134.38
478.564	129.38
478.783	131.38
479.002	136.38
479.22	138.38
479.439	132.38
479.658	122.38
479.876	107.38
480.095	116.38
480.313	118.38
480.532	112.38
480.751	119.38
480.969	90.38
481.188	101.38
481.406	111.38
481.624	80.38
481.843	76.38
482.061	98.38
482.28	98.38
482.498	114.38
482.717	105.38
482.935	110.38
483.153	140.38
483.372	146.38
483.59	156.38
483.808	142.38
484.027	141.38
484.245	138.38
484.463	158.38
484.681	160.38
484.9	126.38
485.118	141.38
485.336	123.38
485.554	103.38
485.772	106.38
485.99	96.38
486.209	115.38
486.427	120.38
486.645	118.38
486.863	142.38
487.081	140.38
487.299	132.38
487.517	140.38
487.735	159.38
487.953	174.38
488.171	182.38
488.389	177.38
488.607	141.38
488.825	141.38
489.043	132.38
489.261	125.38
489.479	135.38
489.696	130.38
489.914	139.38
490.132	133.38
490.35	163.38
490.568	150.38
490.786	178.38
491.003	180.38
491.221	185.38
491.439	170.38
491.657	169.38
491.874	196.38
492.092	215.38
492.31	243.38
492.527	214.38
492.745	201.38
492.963	192.38
493.18	178.38
493.398	178.38
493.615	178.38
493.833	185.38
494.05	178.38
494.268	173.38
494.485	179.38
494.703	164.38
494.92	183.38
495.138	164.38
495.355	168.38
495.573	154.38
495.79	176.38
496.008	172.38
496.225	165.38
496.442	176.38
496.66	145.38
496.877	173.38
497.094	171.38
497.312	160.38
497.529	160.38
497.746	164.38
497.963	132.38
498.181	126.38
498.398	127.38
498.615	126.38
498.832	127.38
499.049	108.38
499.267	115.38
499.484	125.38
499.701	145.38
499.918	141.38
500.135	126.38
500.352	142.38
500.569	152.38
500.786	150.38
501.003	144.38
501.22	140.38
501.437	149.38
501.654	125.38
501.871	120.38
502.088	139.38
502.305	104.38
502.522	131.38
502.739	140.38
502.956	124.38
503.172	128.38
503.389	120.38
503.606	121.38
503.823	112.38
504.04	128.38
504.256	124.38
504.473	121.38
504.69	119.38
504.907	120.38
505.123	113.38
505.34	121.38
505.557	129.38
505.773	120.38
505.99	121.38
506.207	136.38
506.423	119.38
506.64	116.38
506.856	136.38
507.073	108.38
507.289	126.38
507.506	139.38
507.722	121.38
507.939	121.38
508.155	119.38
508.372	121.38
508.588	101.38
508.805	104.38
509.021	101.38
509.238	93.38
509.454	110.38
509.67	98.38
509.887	91.38
510.103	101.38
510.319	94.38
510.536	93.38
510.752	72.38
510.968	86.38
511.184	81.38
511.401	85.38
511.617	85.38
511.833	100.38
512.049	76.38
512.265	89.38
512.481	84.38
512.698	103.38
512.914	115.38
513.13	92.38
513.346	93.38
513.562	93.38
513.778	77.38
513.994	97.38
514.21	102.38
514.426	92.38
514.642	88.38
514.858	93.38
515.074	92.38
515.29	90.38
515.506	91.38
515.721	86.38
515.937	72.38
516.153	68.38
516.369	79.38
516.585	95.38
516.801	93.38
517.016	93.38
517.232	105.38
517.448	101.38
517.664	95.38
517.879	112.38
518.095	96.38
518.311	92.38
518.527	97.38
518.742	107.38
518.958	106.38
519.173	114.38
519.389	96.38
519.605	92.38
519.82	94.38
520.036	99.38
520.251	98.38
520.467	106.38
520.682	97.38
520.898	83.38
521.113	79.38
521.329	95.38
521.544	90.38
521.76	96.38
521.975	88.38
522.19	103.38
522.406	93.38
522.621	107.38
522.836	91.38
523.052	112.38
523.267	97.38
523.482	100.38
523.698	117.38
523.913	121.38
524.128	117.38
524.343	116.38
524.559	129.38
524.774	129.38
524.989	123.38
525.204	124.38
525.419	126.38
525.634	116.38
525.849	91.38
526.064	110.38
526.28	107.38
526.495	97.38
526.71	87.38
526.925	89.38
527.14	87.38
527.355	87.38
527.57	90.38
527.785	91.38
527.999	80.38
528.214	98.38
528.429	112.38
528.644	124.38
528.859	128.38
529.074	158.38
529.289	166.38
529.503	147.38
529.718	153.38
529.933	127.38
530.148	110.38
530.363	114.38
530.577	84.38
530.792	71.38
531.007	77.38
531.221	80.38
531.436	84.38
531.651	88.38
531.865	94.38
532.08	89.38
532.295	94.38
532.509	88.38
532.724	88.38
532.938	96.38
533.153	100.38
533.367	106.38
533.582	127.38
533.796	121.38
534.011	125.38
534.225	97.38
534.44	90.38
534.654	99.38
534.868	93.38
535.083	117.38
535.297	112.38
535.511	115.38
535.726	93.38
535.94	116.38
536.154	104.38
536.369	92.38
536.583	102.38
536.797	92.38
537.011	78.38
537.225	84.38
537.44	102.38
537.654	91.38
537.868	98.38
538.082	76.38
538.296	91.38
538.51	115.38
538.724	126.38
538.938	126.38
539.153	119.38
539.367	121.38
539.581	97.38
539.795	101.38
540.009	95.38
540.222	98.38
540.436	124.38
540.65	104.38
540.864	125.38
541.078	124.38
541.292	141.38
541.506	154.38
541.72	169.38
541.934	195.38
542.147	200.38
542.361	179.38
542.575	152.38
542.789	134.38
543.002	132.38
543.216	134.38
543.43	121.38
543.644	131.38
543.857	142.38
544.071	164.38
544.285	146.38
544.498	153.38
544.712	158.38
544.925	157.38
545.139	158.38
545.352	151.38
545.566	152.38
545.779	155.38
545.993	167.38
546.206	157.38
546.42	148.38
546.633	173.38
546.847	169.38
547.06	166.38
547.274	169.38
547.487	151.38
547.7	166.38
547.914	177.38
548.127	153.38
548.34	152.38
548.554	160.38
548.767	166.38
548.98	171.38
549.193	142.38
549.407	171.38
549.62	147.38
549.833	133.38
550.046	155.38
550.259	159.38
550.473	150.38
550.686	151.38
550.899	149.38
551.112	140.38
551.325	152.38
551.538	143.38
551.751	112.38
551.964	121.38
552.177	115.38
552.39	148.38
552.603	147.38
552.816	134.38
553.029	156.38
553.242	152.38
553.455	157.38
553.667	153.38
553.88	146.38
554.093	144.38
554.306	143.38
554.519	148.38
554.732	146.38
554.944	158.38
555.157	142.38
555.37	135.38
555.583	147.38
555.795	145.38
556.008	126.38
556.221	130.38
556.433	116.38
556.646	135.38
556.859	139.38
557.071	130.38
557.284	138.38
557.496	138.38
557.709	133.38
557.921	131.38
558.134	146.38
558.346	137.38
558.559	140.38
558.771	148.38
558.984	138.38
559.196	137.38
559.409	120.38
559.621	128.38
559.833	126.38
560.046	126.38
560.258	132.38
560.47	138.38
560.683	133.38
560.895	118.38
561.107	133.38
561.32	138.38
561.532	121.38
561.744	123.38
561.956	136.38
562.168	135.38
562.381	128.38
562.593	130.38
562.805	121.38
563.017	125.38
563.229	122.38
563.441	128.38
563.653	116.38
563.865	121.38
564.077	124.38
564.289	113.38
564.501	105.38
564.713	110.38
564.925	119.38
565.137	128.38
565.349	122.38
565.561	106.38
565.773	121.38
565.985	125.38
566.197	105.38
566.408	115.38
566.62	110.38
566.832	128.38
567.044	120.38
567.255	107.38
567.467	107.38
567.679	109.38
567.891	100.38
568.102	118.38
568.314	102.38
568.526	91.38
568.737	99.38
568.949	97.38
569.161	82.38
569.372	76.38
569.584	80.38
569.795	84.38
570.007	84.38
570.218	82.38
570.43	95.38
570.641	100.38
570.853	108.38
571.064	98.38
571.276	126.38
571.487	93.38
571.698	100.38
571.91	96.38
572.121	108.38
572.333	93.38
572.544	100.38
572.755	94.38
572.966	83.38
573.178	86.38
573.389	91.38
573.6	87.38
573.811	93.38
574.023	97.38
574.234	91.38
574.445	82.38
574.656	92.38
574.867	95.38
575.078	99.38
575.289	100.38
575.501	89.38
575.712	80.38
575.923	85.38
576.134	91.38
576.345	104.38
576.556	94.38
576.767	96.38
576.978	97.38
577.188	87.38
577.399	89.38
577.61	96.38
577.821	93.38
578.032	87.38
578.243	96.38
578.454	87.38
578.665	75.38
578.875	70.38
579.086	81.38
579.297	100.38
579.508	77.38
579.718	83.38
579.929	92.38
580.14	84.38
580.35	81.38
580.561	89.38
580.772	92.38
580.982	94.38
581.193	89.38
581.403	93.38
581.614	88.38
581.825	87.38
582.035	91.38
582.246	89.38
582.456	90.38
582.667	102.38
582.877	88.38
583.087	92.38
583.298	75.38
583.508	94.38
583.719	83.38
583.929	94.38
584.139	95.38
584.35	97.38
584.56	88.38
584.77	86.38
584.981	81.38
585.191	84.38
585.401	89.38
585.611	92.38
585.821	85.38
586.032	86.38
586.242	90.38
586.452	84.38
586.662	76.38
586.872	82.38
587.082	94.38
587.292	84.38
587.502	87.38
587.713	81.38
587.923	86.38
588.133	91.38
588.343	86.38
588.553	86.38
588.762	87.38
588.972	72.38
589.182	82.38
589.392	81.38
589.602	91.38
589.812	87.38
590.022	79.38
590.232	84.38
590.441	87.38
590.651	96.38
590.861	79.38
591.071	74.38
591.281	86.38
591.49	88.38
591.7	86.38
591.91	82.38
592.119	90.38
592.329	86.38
592.539	97.38
592.748	96.38
592.958	94.38
593.167	94.38
593.377	72.38
593.587	86.38
593.796	89.38
594.006	78.38
594.215	90.38
594.424	89.38
594.634	81.38
594.843	102.38
595.053	84.38
595.262	85.38
595.472	84.38
595.681	90.38
595.89	93.38
596.1	83.38
596.309	109.38
596.518	89.38
596.727	92.38
596.937	93.38
597.146	96.38
597.355	100.38
597.564	87.38
597.774	81.38
597.983	81.38
598.192	105.38
598.401	74.38
598.61	98.38
598.819	93.38
599.028	87.38
599.237	87.38
599.446	98.38
599.655	100.38
599.864	81.38
600.073	89.38
600.282	102.38
600.491	97.38
600.7	92.38
600.909	96.38
601.118	93.38
601.327	101.38
601.536	107.38
601.745	88.38
601.953	98.38
602.162	116.38
602.371	100.38
602.58	102.38
602.789	108.38
602.997	116.38
603.206	101.38
603.415	122.38
603.623	98.38
603.832	96.38
604.041	123.38
604.249	104.38
604.458	100.38
604.666	90.38
604.875	90.38
605.084	104.38
605.292	100.38
605.501	116.38
605.709	100.38
605.918	116.38
606.126	112.38
606.334	128.38
606.543	125.38
606.751	109.38
606.96	105.38
607.168	107.38
607.376	106.38
607.585	122.38
607.793	113.38
608.001	102.38
608.21	105.38
608.418	89.38
608.626	106.38
608.834	122.38
609.043	106.38
609.251	114.38
609.459	109.38
609.667	100.38
609.875	119.38
610.083	121.38
610.291	117.38
610.499	107.38
610.707	103.38
610.916	105.38
611.124	108.38
611.332	108.38
611.54	100.38
611.748	111.38
611.955	110.38
612.163	116.38
612.371	122.38
612.579	113.38
612.787	96.38
612.995	112.38
613.203	116.38
613.411	118.38
613.618	117.38
613.826	98.38
614.034	116.38
614.242	109.38
614.449	123.38
614.657	122.38
614.865	92.38
615.072	94.38
615.28	115.38
615.488	121.38
615.695	107.38
615.903	96.38
616.111	114.38
616.318	116.38
616.526	108.38
616.733	103.38
616.941	97.38
617.148	93.38
617.356	108.38
617.563	102.38
617.771	96.38
617.978	99.38
618.185	118.38
618.393	112.38
618.6	107.38
618.807	110.38
619.015	116.38
619.222	101.38
619.429	101.38
619.637	98.38
619.844	98.38
620.051	112.38
620.258	101.38
620.466	112.38
620.673	118.38
620.88	106.38
621.087	102.38
621.294	106.38
621.501	95.38
621.708	99.38
621.915	116.38
622.122	90.38
622.329	125.38
622.536	107.38
622.743	100.38
622.95	105.38
623.157	100.38
623.364	115.38
623.571	96.38
623.778	97.38
623.985	111.38
624.192	108.38
624.399	101.38
624.606	99.38
624.812	102.38
625.019	85.38
625.226	99.38
625.433	92.38
625.639	98.38
625.846	102.38
626.053	97.38
626.259	93.38
626.466	83.38
626.673	102.38
626.879	99.38
627.086	92.38
627.293	108.38
627.499	104.38
627.706	94.38
627.912	101.38
628.119	104.38
628.325	108.38
628.532	101.38
628.738	94.38
628.945	94.38
629.151	104.38
629.357	101.38
629.564	101.38
629.77	79.38
629.976	91.38
630.183	101.38
630.389	104.38
630.595	84.38
630.802	97.38
631.008	92.38
631.214	99.38
631.42	100.38
631.627	110.38
631.833	112.38
632.039	101.38
632.245	87.38
632.451	102.38
632.657	100.38
632.863	106.38
633.069	113.38
633.275	112.38
633.481	105.38
633.688	102.38
633.893	102.38
634.099	99.38
634.305	101.38
634.511	92.38
634.717	94.38
634.923	89.38
635.129	92.38
635.335	103.38
635.541	98.38
635.747	105.38
635.952	102.38
636.158	92.38
636.364	97.38
636.57	85.38
636.775	73.38
636.981	101.38
637.187	99.38
637.392	94.38
637.598	101.38
637.804	102.38
638.009	105.38
638.215	92.38
638.421	88.38
638.626	80.38
638.832	102.38
639.037	94.38
639.243	62.38
639.448	94.38
639.654	105.38
639.859	82.38
640.065	92.38
640.27	89.38
640.475	89.38
640.681	101.38
640.886	82.38
641.091	105.38
641.297	113.38
641.502	93.38
641.707	94.38
641.913	104.38
642.118	92.38
642.323	85.38
642.528	92.38
642.733	87.38
642.939	104.38
643.144	104.38
643.349	96.38
643.554	97.38
643.759	91.38
643.964	106.38
644.169	107.38
644.374	82.38
644.579	97.38
644.784	119.38
644.989	106.38
645.194	97.38
645.399	100.38
645.604	85.38
645.809	99.38
646.014	103.38
646.219	109.38
646.423	87.38
646.628	95.38
646.833	89.38
647.038	97.38
647.243	106.38
647.447	103.38
647.652	94.38
647.857	94.38
648.062	106.38
648.266	95.38
648.471	87.38
648.676	96.38
648.88	101.38
649.085	84.38
649.289	84.38
649.494	97.38
649.698	96.38
649.903	89.38
650.107	110.38
650.312	79.38
650.516	101.38
650.721	97.38
650.925	82.38
651.13	91.38
651.334	94.38
651.539	79.38
651.743	100.38
651.947	91.38
652.152	78.38
652.356	99.38
652.56	99.38
652.764	90.38
652.969	84.38
653.173	102.38
653.377	86.38
653.581	94.38
653.785	78.38
653.99	81.38
654.194	103.38
654.398	95.38
654.602	88.38
654.806	103.38
655.01	74.38
655.214	87.38
655.418	97.38
655.622	95.38
655.826	83.38
656.03	69.38
656.234	89.38
656.438	98.38
656.642	89.38
656.846	88.38
657.049	98.38
657.253	98.38
657.457	73.38
657.661	89.38
657.865	96.38
658.068	92.38
658.272	101.38
658.476	76.38
658.68	82.38
658.883	88.38
659.087	83.38
659.291	82.38
659.494	88.38
659.698	78.38
659.901	108.38
660.105	81.38
660.309	88.38
660.512	89.38
660.716	73.38
660.919	87.38
661.123	78.38
661.326	64.38
661.53	74.38
661.733	89.38
661.936	81.38
662.14	97.38
662.343	84.38
662.546	75.38
662.75	68.38
662.953	103.38
663.156	84.38
663.36	76.38
663.563	70.38
663.766	87.38
663.969	84.38
664.173	92.38
664.376	99.38
664.579	82.38
664.782	67.38
664.985	74.38
665.188	84.38
665.391	73.38
665.594	86.38
665.797	84.38
666	87.38
666.203	82.38
666.406	81.38
666.609	71.38
666.812	85.38
667.015	89.38
667.218	87.38
667.421	81.38
667.624	84.38
667.827	73.38
668.03	79.38
668.232	86.38
668.435	76.38
668.638	57.38
668.841	87.38
669.043	85.38
669.246	96.38
669.449	89.38
669.651	66.38
669.854	75.38
670.057	77.38
670.259	74.38
670.462	83.38
670.665	75.38
670.867	92.38
671.07	72.38
671.272	79.38
671.475	76.38
671.677	86.38
671.88	77.38
672.082	83.38
672.284	90.38
672.487	92.38
672.689	77.38
672.892	92.38
