Data from Location1.07152019.Energy5.Lamp.07192019.3%Agarose_HRD10591_14-33-06-016.txt Node
Date: Fri Jul 19 14:33:06 EDT 2019
User: cochatt
Spectrometer: HR+D1059
Trigger mode: 1
Integration Time (sec): 1.000000E-1
Scans to average: 1
Electric dark correction enabled: true
Nonlinearity correction enabled: false
Boxcar width: 0
XAxis mode: Wavelengths
Number of Pixels in Spectrum: 2048
>>>>>Begin Spectral Data<<<<<
223.165	0.75
223.4	0.75
223.635	0.75
223.869	-23.25
224.104	-14.25
224.338	-9.25
224.573	-21.25
224.808	-22.25
225.042	-14.25
225.277	2.75
225.511	-16.25
225.746	8.75
225.98	-1.25
226.215	15.75
226.449	14.75
226.683	19.75
226.918	27.75
227.152	31.75
227.387	30.75
227.621	35.75
227.856	23.75
228.09	46.75
228.324	45.75
228.559	66.75
228.793	51.75
229.027	51.75
229.262	68.75
229.496	58.75
229.73	72.75
229.964	68.75
230.199	78.75
230.433	72.75
230.667	66.75
230.901	74.75
231.136	80.75
231.37	68.75
231.604	75.75
231.838	77.75
232.072	79.75
232.306	81.75
232.541	92.75
232.775	84.75
233.009	90.75
233.243	75.75
233.477	80.75
233.711	73.75
233.945	69.75
234.179	73.75
234.413	73.75
234.647	69.75
234.881	84.75
235.115	85.75
235.349	76.75
235.583	71.75
235.817	80.75
236.051	68.75
236.285	74.75
236.519	70.75
236.753	70.75
236.987	85.75
237.221	57.75
237.455	86.75
237.689	75.75
237.922	80.75
238.156	64.75
238.39	79.75
238.624	78.75
238.858	81.75
239.091	70.75
239.325	98.75
239.559	74.75
239.793	90.75
240.027	73.75
240.26	60.75
240.494	74.75
240.728	71.75
240.961	64.75
241.195	73.75
241.429	84.75
241.662	80.75
241.896	66.75
242.13	76.75
242.363	75.75
242.597	64.75
242.83	66.75
243.064	75.75
243.298	68.75
243.531	59.75
243.765	65.75
243.998	62.75
244.232	65.75
244.465	70.75
244.699	71.75
244.932	66.75
245.166	64.75
245.399	81.75
245.633	84.75
245.866	67.75
246.099	73.75
246.333	73.75
246.566	71.75
246.8	80.75
247.033	70.75
247.266	68.75
247.5	71.75
247.733	73.75
247.966	85.75
248.2	72.75
248.433	63.75
248.666	71.75
248.899	71.75
249.133	72.75
249.366	75.75
249.599	65.75
249.832	72.75
250.066	76.75
250.299	79.75
250.532	80.75
250.765	81.75
250.998	78.75
251.231	83.75
251.465	95.75
251.698	76.75
251.931	79.75
252.164	72.75
252.397	63.75
252.63	76.75
252.863	76.75
253.096	68.75
253.329	88.75
253.562	81.75
253.795	78.75
254.028	72.75
254.261	81.75
254.494	74.75
254.727	79.75
254.96	75.75
255.193	83.75
255.426	76.75
255.659	73.75
255.892	71.75
256.124	80.75
256.357	70.75
256.59	79.75
256.823	61.75
257.056	79.75
257.289	59.75
257.521	74.75
257.754	65.75
257.987	85.75
258.22	60.75
258.452	66.75
258.685	67.75
258.918	85.75
259.151	81.75
259.383	77.75
259.616	88.75
259.849	85.75
260.081	85.75
260.314	75.75
260.547	89.75
260.779	75.75
261.012	80.75
261.244	79.75
261.477	67.75
261.71	75.75
261.942	63.75
262.175	93.75
262.407	63.75
262.64	80.75
262.872	80.75
263.105	86.75
263.337	86.75
263.57	80.75
263.802	88.75
264.035	68.75
264.267	78.75
264.499	88.75
264.732	77.75
264.964	76.75
265.197	90.75
265.429	82.75
265.661	74.75
265.894	78.75
266.126	81.75
266.358	79.75
266.591	68.75
266.823	89.75
267.055	67.75
267.287	80.75
267.52	79.75
267.752	66.75
267.984	79.75
268.216	66.75
268.448	79.75
268.681	74.75
268.913	75.75
269.145	98.75
269.377	78.75
269.609	74.75
269.841	84.75
270.073	83.75
270.306	91.75
270.538	93.75
270.77	59.75
271.002	72.75
271.234	84.75
271.466	74.75
271.698	73.75
271.93	80.75
272.162	75.75
272.394	80.75
272.626	81.75
272.858	87.75
273.09	75.75
273.322	88.75
273.553	71.75
273.785	77.75
274.017	72.75
274.249	75.75
274.481	74.75
274.713	83.75
274.945	81.75
275.176	80.75
275.408	84.75
275.64	87.75
275.872	81.75
276.104	73.75
276.335	78.75
276.567	83.75
276.799	64.75
277.031	82.75
277.262	83.75
277.494	79.75
277.726	87.75
277.957	67.75
278.189	67.75
278.421	79.75
278.652	97.75
278.884	93.75
279.115	81.75
279.347	87.75
279.579	86.75
279.81	90.75
280.042	69.75
280.273	75.75
280.505	77.75
280.736	72.75
280.968	70.75
281.199	84.75
281.431	91.75
281.662	77.75
281.894	78.75
282.125	68.75
282.356	80.75
282.588	84.75
282.819	79.75
283.051	73.75
283.282	89.75
283.513	89.75
283.745	89.75
283.976	86.75
284.207	80.75
284.439	86.75
284.67	62.75
284.901	76.75
285.132	76.75
285.364	70.75
285.595	82.75
285.826	88.75
286.057	86.75
286.288	82.75
286.52	83.75
286.751	78.75
286.982	75.75
287.213	89.75
287.444	77.75
287.675	96.75
287.906	90.75
288.138	82.75
288.369	78.75
288.6	73.75
288.831	93.75
289.062	81.75
289.293	94.75
289.524	77.75
289.755	88.75
289.986	85.75
290.217	73.75
290.448	66.75
290.679	78.75
290.91	74.75
291.141	81.75
291.371	65.75
291.602	67.75
291.833	69.75
292.064	71.75
292.295	85.75
292.526	67.75
292.757	61.75
292.987	75.75
293.218	74.75
293.449	93.75
293.68	93.75
293.91	90.75
294.141	74.75
294.372	69.75
294.603	77.75
294.833	85.75
295.064	96.75
295.295	72.75
295.525	75.75
295.756	70.75
295.987	85.75
296.217	75.75
296.448	84.75
296.679	71.75
296.909	74.75
297.14	72.75
297.37	87.75
297.601	73.75
297.831	74.75
298.062	75.75
298.292	78.75
298.523	89.75
298.753	78.75
298.984	82.75
299.214	80.75
299.445	65.75
299.675	91.75
299.905	74.75
300.136	66.75
300.366	62.75
300.597	72.75
300.827	72.75
301.057	78.75
301.288	75.75
301.518	77.75
301.748	86.75
301.979	74.75
302.209	77.75
302.439	79.75
302.669	79.75
302.9	90.75
303.13	77.75
303.36	76.75
303.59	77.75
303.82	81.75
304.051	88.75
304.281	87.75
304.511	85.75
304.741	87.75
304.971	85.75
305.201	100.75
305.431	90.75
305.661	86.75
305.891	78.75
306.121	75.75
306.352	95.75
306.582	82.75
306.812	78.75
307.042	79.75
307.272	71.75
307.502	78.75
307.731	90.75
307.961	62.75
308.191	79.75
308.421	83.75
308.651	85.75
308.881	86.75
309.111	91.75
309.341	89.75
309.571	90.75
309.8	75.75
310.03	84.75
310.26	84.75
310.49	72.75
310.72	79.75
310.949	79.75
311.179	77.75
311.409	69.75
311.639	82.75
311.868	85.75
312.098	83.75
312.328	70.75
312.557	80.75
312.787	87.75
313.017	76.75
313.246	73.75
313.476	65.75
313.706	77.75
313.935	76.75
314.165	76.75
314.394	78.75
314.624	82.75
314.853	82.75
315.083	82.75
315.312	71.75
315.542	81.75
315.771	90.75
316.001	76.75
316.23	78.75
316.46	82.75
316.689	94.75
316.919	73.75
317.148	73.75
317.377	77.75
317.607	84.75
317.836	76.75
318.065	74.75
318.295	74.75
318.524	66.75
318.753	69.75
318.983	71.75
319.212	91.75
319.441	78.75
319.67	81.75
319.9	73.75
320.129	82.75
320.358	72.75
320.587	81.75
320.816	82.75
321.046	76.75
321.275	88.75
321.504	63.75
321.733	78.75
321.962	80.75
322.191	75.75
322.42	85.75
322.649	78.75
322.878	87.75
323.108	66.75
323.337	62.75
323.566	64.75
323.795	76.75
324.024	90.75
324.253	75.75
324.482	84.75
324.71	74.75
324.939	80.75
325.168	79.75
325.397	81.75
325.626	88.75
325.855	81.75
326.084	80.75
326.313	73.75
326.542	78.75
326.77	77.75
326.999	74.75
327.228	66.75
327.457	82.75
327.686	85.75
327.914	81.75
328.143	84.75
328.372	82.75
328.6	82.75
328.829	85.75
329.058	83.75
329.287	70.75
329.515	85.75
329.744	84.75
329.972	86.75
330.201	67.75
330.43	81.75
330.658	96.75
330.887	98.75
331.115	87.75
331.344	81.75
331.572	83.75
331.801	74.75
332.03	74.75
332.258	64.75
332.486	58.75
332.715	71.75
332.943	77.75
333.172	72.75
333.4	79.75
333.629	78.75
333.857	84.75
334.085	78.75
334.314	69.75
334.542	73.75
334.771	74.75
334.999	74.75
335.227	85.75
335.455	81.75
335.684	70.75
335.912	83.75
336.14	82.75
336.369	97.75
336.597	82.75
336.825	67.75
337.053	75.75
337.281	72.75
337.51	77.75
337.738	75.75
337.966	75.75
338.194	78.75
338.422	79.75
338.65	73.75
338.878	68.75
339.106	72.75
339.334	93.75
339.562	77.75
339.79	69.75
340.018	79.75
340.246	85.75
340.474	78.75
340.702	65.75
340.93	70.75
341.158	79.75
341.386	81.75
341.614	83.75
341.842	62.75
342.07	81.75
342.298	70.75
342.526	87.75
342.754	82.75
342.981	68.75
343.209	82.75
343.437	79.75
343.665	80.75
343.893	90.75
344.12	82.75
344.348	75.75
344.576	68.75
344.804	97.75
345.031	84.75
345.259	83.75
345.487	83.75
345.714	74.75
345.942	76.75
346.17	79.75
346.397	66.75
346.625	75.75
346.853	64.75
347.08	77.75
347.308	93.75
347.535	81.75
347.763	78.75
347.99	69.75
348.218	82.75
348.445	87.75
348.673	84.75
348.9	83.75
349.128	85.75
349.355	80.75
349.583	82.75
349.81	87.75
350.037	80.75
350.265	67.75
350.492	74.75
350.72	70.75
350.947	70.75
351.174	80.75
351.402	83.75
351.629	90.75
351.856	76.75
352.083	89.75
352.311	83.75
352.538	83.75
352.765	82.75
352.992	83.75
353.22	90.75
353.447	81.75
353.674	77.75
353.901	75.75
354.128	83.75
354.355	70.75
354.583	82.75
354.81	94.75
355.037	73.75
355.264	69.75
355.491	89.75
355.718	82.75
355.945	74.75
356.172	79.75
356.399	89.75
356.626	93.75
356.853	70.75
357.08	78.75
357.307	62.75
357.534	74.75
357.761	80.75
357.988	82.75
358.215	71.75
358.441	79.75
358.668	72.75
358.895	83.75
359.122	74.75
359.349	86.75
359.576	77.75
359.802	77.75
360.029	82.75
360.256	80.75
360.483	79.75
360.709	72.75
360.936	65.75
361.163	72.75
361.39	63.75
361.616	70.75
361.843	68.75
362.07	87.75
362.296	83.75
362.523	87.75
362.749	87.75
362.976	85.75
363.203	79.75
363.429	75.75
363.656	87.75
363.882	81.75
364.109	69.75
364.335	88.75
364.562	79.75
364.788	80.75
365.015	69.75
365.241	75.75
365.468	83.75
365.694	70.75
365.92	82.75
366.147	80.75
366.373	84.75
366.599	79.75
366.826	85.75
367.052	82.75
367.278	74.75
367.505	83.75
367.731	84.75
367.957	85.75
368.184	94.75
368.41	90.75
368.636	93.75
368.862	90.75
369.089	89.75
369.315	76.75
369.541	88.75
369.767	94.75
369.993	84.75
370.219	88.75
370.445	90.75
370.672	82.75
370.898	88.75
371.124	95.75
371.35	94.75
371.576	96.75
371.802	97.75
372.028	86.75
372.254	89.75
372.48	85.75
372.706	72.75
372.932	80.75
373.158	86.75
373.384	67.75
373.61	96.75
373.835	94.75
374.061	82.75
374.287	95.75
374.513	99.75
374.739	74.75
374.965	85.75
375.191	82.75
375.416	83.75
375.642	90.75
375.868	89.75
376.094	88.75
376.319	87.75
376.545	88.75
376.771	87.75
376.997	95.75
377.222	86.75
377.448	86.75
377.674	90.75
377.899	92.75
378.125	81.75
378.35	83.75
378.576	85.75
378.802	74.75
379.027	83.75
379.253	86.75
379.478	93.75
379.704	89.75
379.929	90.75
380.155	91.75
380.38	78.75
380.606	91.75
380.831	81.75
381.057	103.75
381.282	87.75
381.507	83.75
381.733	101.75
381.958	106.75
382.184	87.75
382.409	93.75
382.634	116.75
382.86	94.75
383.085	82.75
383.31	104.75
383.535	102.75
383.761	98.75
383.986	96.75
384.211	94.75
384.436	87.75
384.662	97.75
384.887	77.75
385.112	100.75
385.337	99.75
385.562	98.75
385.787	91.75
386.013	91.75
386.238	85.75
386.463	91.75
386.688	109.75
386.913	81.75
387.138	90.75
387.363	103.75
387.588	101.75
387.813	98.75
388.038	89.75
388.263	82.75
388.488	95.75
388.713	82.75
388.938	99.75
389.163	106.75
389.387	102.75
389.612	80.75
389.837	94.75
390.062	96.75
390.287	88.75
390.512	98.75
390.736	91.75
390.961	78.75
391.186	101.75
391.411	97.75
391.636	101.75
391.86	96.75
392.085	86.75
392.31	93.75
392.534	102.75
392.759	95.75
392.984	98.75
393.208	113.75
393.433	86.75
393.658	99.75
393.882	94.75
394.107	86.75
394.331	98.75
394.556	102.75
394.78	100.75
395.005	99.75
395.229	88.75
395.454	102.75
395.678	105.75
395.903	121.75
396.127	93.75
396.352	98.75
396.576	104.75
396.801	95.75
397.025	94.75
397.249	99.75
397.474	103.75
397.698	102.75
397.922	109.75
398.147	103.75
398.371	109.75
398.595	97.75
398.82	104.75
399.044	107.75
399.268	97.75
399.492	90.75
399.717	105.75
399.941	78.75
400.165	114.75
400.389	115.75
400.613	122.75
400.837	109.75
401.062	99.75
401.286	108.75
401.51	110.75
401.734	106.75
401.958	105.75
402.182	102.75
402.406	104.75
402.63	107.75
402.854	117.75
403.078	98.75
403.302	104.75
403.526	117.75
403.75	104.75
403.974	119.75
404.198	104.75
404.422	98.75
404.645	115.75
404.869	101.75
405.093	97.75
405.317	109.75
405.541	121.75
405.765	132.75
405.988	119.75
406.212	100.75
406.436	103.75
406.66	123.75
406.883	111.75
407.107	117.75
407.331	115.75
407.555	106.75
407.778	116.75
408.002	106.75
408.226	120.75
408.449	127.75
408.673	117.75
408.896	110.75
409.12	115.75
409.344	102.75
409.567	109.75
409.791	125.75
410.014	108.75
410.238	121.75
410.461	119.75
410.685	107.75
410.908	127.75
411.132	115.75
411.355	114.75
411.578	130.75
411.802	123.75
412.025	104.75
412.249	104.75
412.472	115.75
412.695	114.75
412.919	121.75
413.142	117.75
413.365	120.75
413.589	130.75
413.812	115.75
414.035	110.75
414.258	109.75
414.482	125.75
414.705	111.75
414.928	103.75
415.151	113.75
415.374	115.75
415.597	126.75
415.821	122.75
416.044	119.75
416.267	123.75
416.49	122.75
416.713	129.75
416.936	124.75
417.159	126.75
417.382	122.75
417.605	122.75
417.828	113.75
418.051	120.75
418.274	114.75
418.497	119.75
418.72	133.75
418.943	137.75
419.166	116.75
419.389	131.75
419.611	133.75
419.834	123.75
420.057	128.75
420.28	127.75
420.503	125.75
420.726	122.75
420.948	125.75
421.171	123.75
421.394	118.75
421.617	129.75
421.839	129.75
422.062	127.75
422.285	148.75
422.507	123.75
422.73	130.75
422.953	120.75
423.175	129.75
423.398	124.75
423.621	115.75
423.843	131.75
424.066	142.75
424.288	147.75
424.511	130.75
424.733	139.75
424.956	136.75
425.178	113.75
425.401	113.75
425.623	131.75
425.846	136.75
426.068	125.75
426.291	127.75
426.513	126.75
426.735	129.75
426.958	126.75
427.18	122.75
427.402	125.75
427.625	128.75
427.847	119.75
428.069	107.75
428.292	130.75
428.514	117.75
428.736	118.75
428.958	126.75
429.181	131.75
429.403	122.75
429.625	129.75
429.847	115.75
430.069	127.75
430.292	127.75
430.514	140.75
430.736	123.75
430.958	127.75
431.18	122.75
431.402	121.75
431.624	127.75
431.846	100.75
432.068	103.75
432.29	84.75
432.512	113.75
432.734	135.75
432.956	138.75
433.178	125.75
433.4	129.75
433.622	145.75
433.844	130.75
434.066	117.75
434.287	94.75
434.509	93.75
434.731	102.75
434.953	102.75
435.175	126.75
435.397	119.75
435.618	111.75
435.84	109.75
436.062	112.75
436.284	113.75
436.505	136.75
436.727	112.75
436.949	125.75
437.17	123.75
437.392	118.75
437.614	111.75
437.835	118.75
438.057	111.75
438.278	103.75
438.5	127.75
438.721	120.75
438.943	117.75
439.165	138.75
439.386	135.75
439.608	134.75
439.829	136.75
440.05	134.75
440.272	125.75
440.493	139.75
440.715	141.75
440.936	129.75
441.158	136.75
441.379	130.75
441.6	143.75
441.822	141.75
442.043	147.75
442.264	125.75
442.486	119.75
442.707	142.75
442.928	133.75
443.149	135.75
443.371	145.75
443.592	128.75
443.813	137.75
444.034	135.75
444.255	128.75
444.476	128.75
444.698	144.75
444.919	143.75
445.14	218.75
445.361	177.75
445.582	154.75
445.803	144.75
446.024	163.75
446.245	151.75
446.466	151.75
446.687	150.75
446.908	165.75
447.129	151.75
447.35	139.75
447.571	144.75
447.792	138.75
448.013	151.75
448.234	133.75
448.455	137.75
448.675	129.75
448.896	141.75
449.117	129.75
449.338	145.75
449.559	114.75
449.779	124.75
450	129.75
450.221	128.75
450.442	121.75
450.662	125.75
450.883	123.75
451.104	129.75
451.324	122.75
451.545	123.75
451.766	112.75
451.986	130.75
452.207	120.75
452.428	119.75
452.648	109.75
452.869	132.75
453.089	111.75
453.31	99.75
453.53	104.75
453.751	111.75
453.971	115.75
454.192	103.75
454.412	105.75
454.633	107.75
454.853	120.75
455.073	109.75
455.294	118.75
455.514	124.75
455.734	121.75
455.955	111.75
456.175	114.75
456.395	101.75
456.616	104.75
456.836	113.75
457.056	107.75
457.276	92.75
457.497	113.75
457.717	110.75
457.937	119.75
458.157	110.75
458.377	101.75
458.598	102.75
458.818	95.75
459.038	84.75
459.258	91.75
459.478	81.75
459.698	75.75
459.918	92.75
460.138	103.75
460.358	102.75
460.578	116.75
460.798	116.75
461.018	116.75
461.238	119.75
461.458	111.75
461.678	93.75
461.898	99.75
462.118	119.75
462.338	110.75
462.558	110.75
462.777	101.75
462.997	107.75
463.217	105.75
463.437	82.75
463.657	106.75
463.876	107.75
464.096	124.75
464.316	114.75
464.536	103.75
464.755	103.75
464.975	123.75
465.195	119.75
465.414	125.75
465.634	114.75
465.854	112.75
466.073	117.75
466.293	127.75
466.512	122.75
466.732	131.75
466.951	150.75
467.171	136.75
467.391	130.75
467.61	150.75
467.829	131.75
468.049	122.75
468.268	121.75
468.488	111.75
468.707	123.75
468.927	144.75
469.146	133.75
469.365	137.75
469.585	133.75
469.804	140.75
470.023	133.75
470.243	146.75
470.462	135.75
470.681	135.75
470.901	127.75
471.12	126.75
471.339	132.75
471.558	134.75
471.777	125.75
471.997	129.75
472.216	122.75
472.435	117.75
472.654	106.75
472.873	121.75
473.092	121.75
473.311	120.75
473.53	118.75
473.749	122.75
473.968	122.75
474.187	125.75
474.406	119.75
474.625	136.75
474.844	118.75
475.063	133.75
475.282	122.75
475.501	128.75
475.72	120.75
475.939	97.75
476.158	109.75
476.377	117.75
476.596	123.75
476.814	121.75
477.033	110.75
477.252	111.75
477.471	101.75
477.69	125.75
477.908	135.75
478.127	137.75
478.346	123.75
478.564	126.75
478.783	125.75
479.002	120.75
479.22	124.75
479.439	136.75
479.658	130.75
479.876	106.75
480.095	102.75
480.313	125.75
480.532	117.75
480.751	104.75
480.969	82.75
481.188	87.75
481.406	81.75
481.624	88.75
481.843	94.75
482.061	102.75
482.28	94.75
482.498	116.75
482.717	105.75
482.935	114.75
483.153	141.75
483.372	139.75
483.59	159.75
483.808	151.75
484.027	129.75
484.245	136.75
484.463	151.75
484.681	165.75
484.9	136.75
485.118	137.75
485.336	131.75
485.554	110.75
485.772	115.75
485.99	102.75
486.209	115.75
486.427	107.75
486.645	123.75
486.863	114.75
487.081	142.75
487.299	126.75
487.517	128.75
487.735	165.75
487.953	173.75
488.171	166.75
488.389	186.75
488.607	149.75
488.825	136.75
489.043	134.75
489.261	127.75
489.479	137.75
489.696	133.75
489.914	113.75
490.132	141.75
490.35	137.75
490.568	143.75
490.786	165.75
491.003	162.75
491.221	182.75
491.439	177.75
491.657	170.75
491.874	194.75
492.092	195.75
492.31	226.75
492.527	225.75
492.745	202.75
492.963	179.75
493.18	185.75
493.398	189.75
493.615	177.75
493.833	162.75
494.05	170.75
494.268	158.75
494.485	170.75
494.703	171.75
494.92	155.75
495.138	167.75
495.355	182.75
495.573	167.75
495.79	147.75
496.008	150.75
496.225	163.75
496.442	157.75
496.66	161.75
496.877	163.75
497.094	177.75
497.312	162.75
497.529	159.75
497.746	153.75
497.963	138.75
498.181	116.75
498.398	121.75
498.615	120.75
498.832	114.75
499.049	101.75
499.267	119.75
499.484	127.75
499.701	114.75
499.918	121.75
500.135	149.75
500.352	135.75
500.569	142.75
500.786	131.75
501.003	136.75
501.22	129.75
501.437	130.75
501.654	106.75
501.871	123.75
502.088	129.75
502.305	117.75
502.522	120.75
502.739	133.75
502.956	122.75
503.172	121.75
503.389	122.75
503.606	111.75
503.823	130.75
504.04	129.75
504.256	110.75
504.473	108.75
504.69	120.75
504.907	122.75
505.123	121.75
505.34	114.75
505.557	113.75
505.773	115.75
505.99	122.75
506.207	115.75
506.423	121.75
506.64	123.75
506.856	129.75
507.073	111.75
507.289	127.75
507.506	136.75
507.722	107.75
507.939	102.75
508.155	121.75
508.372	113.75
508.588	104.75
508.805	111.75
509.021	119.75
509.238	110.75
509.454	96.75
509.67	99.75
509.887	78.75
510.103	105.75
510.319	90.75
510.536	89.75
510.752	86.75
510.968	73.75
511.184	88.75
511.401	78.75
511.617	71.75
511.833	83.75
512.049	75.75
512.265	75.75
512.481	92.75
512.698	83.75
512.914	100.75
513.13	86.75
513.346	85.75
513.562	96.75
513.778	103.75
513.994	80.75
514.21	86.75
514.426	98.75
514.642	84.75
514.858	85.75
515.074	82.75
515.29	89.75
515.506	81.75
515.721	73.75
515.937	79.75
516.153	91.75
516.369	74.75
516.585	95.75
516.801	84.75
517.016	83.75
517.232	93.75
517.448	96.75
517.664	86.75
517.879	92.75
518.095	99.75
518.311	91.75
518.527	86.75
518.742	98.75
518.958	96.75
519.173	101.75
519.389	119.75
519.605	109.75
519.82	103.75
520.036	116.75
520.251	106.75
520.467	102.75
520.682	98.75
520.898	84.75
521.113	89.75
521.329	93.75
521.544	75.75
521.76	88.75
521.975	97.75
522.19	85.75
522.406	93.75
522.621	110.75
522.836	109.75
523.052	105.75
523.267	88.75
523.482	113.75
523.698	111.75
523.913	104.75
524.128	107.75
524.343	117.75
524.559	123.75
524.774	122.75
524.989	112.75
525.204	121.75
525.419	111.75
525.634	104.75
525.849	102.75
526.064	102.75
526.28	107.75
526.495	97.75
526.71	82.75
526.925	84.75
527.14	70.75
527.355	90.75
527.57	75.75
527.785	82.75
527.999	88.75
528.214	97.75
528.429	105.75
528.644	120.75
528.859	131.75
529.074	143.75
529.289	170.75
529.503	145.75
529.718	139.75
529.933	120.75
530.148	93.75
530.363	95.75
530.577	96.75
530.792	87.75
531.007	74.75
531.221	87.75
531.436	75.75
531.651	74.75
531.865	95.75
532.08	90.75
532.295	83.75
532.509	82.75
532.724	83.75
532.938	76.75
533.153	93.75
533.367	110.75
533.582	114.75
533.796	114.75
534.011	100.75
534.225	109.75
534.44	81.75
534.654	91.75
534.868	88.75
535.083	107.75
535.297	92.75
535.511	102.75
535.726	109.75
535.94	110.75
536.154	101.75
536.369	91.75
536.583	95.75
536.797	80.75
537.011	72.75
537.225	83.75
537.44	97.75
537.654	102.75
537.868	92.75
538.082	76.75
538.296	91.75
538.51	104.75
538.724	104.75
538.938	120.75
539.153	114.75
539.367	118.75
539.581	125.75
539.795	104.75
540.009	87.75
540.222	93.75
540.436	101.75
540.65	111.75
540.864	119.75
541.078	122.75
541.292	158.75
541.506	165.75
541.72	161.75
541.934	174.75
542.147	207.75
542.361	176.75
542.575	151.75
542.789	145.75
543.002	119.75
543.216	130.75
543.43	130.75
543.644	127.75
543.857	152.75
544.071	153.75
544.285	158.75
544.498	156.75
544.712	149.75
544.925	159.75
545.139	157.75
545.352	153.75
545.566	152.75
545.779	168.75
545.993	161.75
546.206	167.75
546.42	152.75
546.633	162.75
546.847	155.75
547.06	153.75
547.274	138.75
547.487	174.75
547.7	166.75
547.914	159.75
548.127	150.75
548.34	177.75
548.554	155.75
548.767	143.75
548.98	157.75
549.193	151.75
549.407	149.75
549.62	141.75
549.833	146.75
550.046	151.75
550.259	146.75
550.473	146.75
550.686	160.75
550.899	134.75
551.112	135.75
551.325	133.75
551.538	123.75
551.751	110.75
551.964	118.75
552.177	136.75
552.39	128.75
552.603	147.75
552.816	140.75
553.029	149.75
553.242	145.75
553.455	151.75
553.667	156.75
553.88	160.75
554.093	145.75
554.306	147.75
554.519	147.75
554.732	139.75
554.944	158.75
555.157	129.75
555.37	139.75
555.583	139.75
555.795	131.75
556.008	128.75
556.221	129.75
556.433	134.75
556.646	130.75
556.859	129.75
557.071	121.75
557.284	132.75
557.496	138.75
557.709	125.75
557.921	150.75
558.134	118.75
558.346	138.75
558.559	128.75
558.771	138.75
558.984	130.75
559.196	133.75
559.409	131.75
559.621	121.75
559.833	123.75
560.046	121.75
560.258	127.75
560.47	121.75
560.683	127.75
560.895	110.75
561.107	108.75
561.32	132.75
561.532	132.75
561.744	127.75
561.956	118.75
562.168	119.75
562.381	132.75
562.593	135.75
562.805	134.75
563.017	130.75
563.229	125.75
563.441	127.75
563.653	122.75
563.865	104.75
564.077	111.75
564.289	135.75
564.501	118.75
564.713	118.75
564.925	119.75
565.137	113.75
565.349	117.75
565.561	110.75
565.773	115.75
565.985	100.75
566.197	106.75
566.408	105.75
566.62	91.75
566.832	110.75
567.044	129.75
567.255	115.75
567.467	107.75
567.679	105.75
567.891	103.75
568.102	78.75
568.314	112.75
568.526	84.75
568.737	86.75
568.949	79.75
569.161	81.75
569.372	75.75
569.584	74.75
569.795	84.75
570.007	75.75
570.218	81.75
570.43	95.75
570.641	86.75
570.853	86.75
571.064	114.75
571.276	101.75
571.487	106.75
571.698	102.75
571.91	96.75
572.121	95.75
572.333	98.75
572.544	91.75
572.755	94.75
572.966	92.75
573.178	79.75
573.389	90.75
573.6	85.75
573.811	84.75
574.023	72.75
574.234	70.75
574.445	83.75
574.656	84.75
574.867	83.75
575.078	90.75
575.289	104.75
575.501	94.75
575.712	84.75
575.923	91.75
576.134	87.75
576.345	109.75
576.556	99.75
576.767	98.75
576.978	95.75
577.188	112.75
577.399	101.75
577.61	90.75
577.821	91.75
578.032	98.75
578.243	89.75
578.454	75.75
578.665	83.75
578.875	85.75
579.086	70.75
579.297	82.75
579.508	82.75
579.718	76.75
579.929	74.75
580.14	86.75
580.35	82.75
580.561	82.75
580.772	87.75
580.982	80.75
581.193	90.75
581.403	81.75
581.614	89.75
581.825	98.75
582.035	91.75
582.246	76.75
582.456	81.75
582.667	82.75
582.877	85.75
583.087	79.75
583.298	95.75
583.508	78.75
583.719	80.75
583.929	79.75
584.139	81.75
584.35	79.75
584.56	80.75
584.77	79.75
584.981	73.75
585.191	71.75
585.401	86.75
585.611	80.75
585.821	85.75
586.032	98.75
586.242	87.75
586.452	75.75
586.662	71.75
586.872	63.75
587.082	84.75
587.292	77.75
587.502	77.75
587.713	85.75
587.923	79.75
588.133	80.75
588.343	92.75
588.553	77.75
588.762	82.75
588.972	80.75
589.182	89.75
589.392	85.75
589.602	63.75
589.812	73.75
590.022	74.75
590.232	81.75
590.441	74.75
590.651	83.75
590.861	84.75
591.071	76.75
591.281	81.75
591.49	70.75
591.7	63.75
591.91	93.75
592.119	71.75
592.329	78.75
592.539	90.75
592.748	72.75
592.958	82.75
593.167	74.75
593.377	79.75
593.587	82.75
593.796	81.75
594.006	86.75
594.215	93.75
594.424	66.75
594.634	85.75
594.843	93.75
595.053	93.75
595.262	86.75
595.472	93.75
595.681	75.75
595.89	91.75
596.1	89.75
596.309	78.75
596.518	87.75
596.727	96.75
596.937	80.75
597.146	81.75
597.355	100.75
597.564	83.75
597.774	94.75
597.983	77.75
598.192	83.75
598.401	82.75
598.61	72.75
598.819	86.75
599.028	80.75
599.237	87.75
599.446	84.75
599.655	101.75
599.864	89.75
600.073	82.75
600.282	88.75
600.491	100.75
600.7	80.75
600.909	89.75
601.118	97.75
601.327	97.75
601.536	83.75
601.745	97.75
601.953	104.75
602.162	90.75
602.371	95.75
602.58	102.75
602.789	101.75
602.997	89.75
603.206	99.75
603.415	103.75
603.623	97.75
603.832	97.75
604.041	93.75
604.249	103.75
604.458	91.75
604.666	97.75
604.875	82.75
605.084	101.75
605.292	108.75
605.501	111.75
605.709	114.75
605.918	101.75
606.126	116.75
606.334	109.75
606.543	100.75
606.751	105.75
606.96	106.75
607.168	98.75
607.376	124.75
607.585	103.75
607.793	114.75
608.001	111.75
608.21	111.75
608.418	94.75
608.626	98.75
608.834	113.75
609.043	100.75
609.251	105.75
609.459	98.75
609.667	109.75
609.875	95.75
610.083	102.75
610.291	109.75
610.499	121.75
610.707	125.75
610.916	98.75
611.124	112.75
611.332	104.75
611.54	101.75
611.748	93.75
611.955	97.75
612.163	98.75
612.371	95.75
612.579	98.75
612.787	114.75
612.995	113.75
613.203	100.75
613.411	112.75
613.618	103.75
613.826	104.75
614.034	114.75
614.242	115.75
614.449	104.75
614.657	106.75
614.865	110.75
615.072	104.75
615.28	105.75
615.488	103.75
615.695	117.75
615.903	109.75
616.111	113.75
616.318	94.75
616.526	105.75
616.733	102.75
616.941	117.75
617.148	91.75
617.356	96.75
617.563	99.75
617.771	96.75
617.978	99.75
618.185	120.75
618.393	117.75
618.6	96.75
618.807	100.75
619.015	102.75
619.222	100.75
619.429	112.75
619.637	100.75
619.844	105.75
620.051	110.75
620.258	93.75
620.466	112.75
620.673	113.75
620.88	116.75
621.087	107.75
621.294	106.75
621.501	98.75
621.708	97.75
621.915	91.75
622.122	108.75
622.329	100.75
622.536	107.75
622.743	102.75
622.95	80.75
623.157	97.75
623.364	109.75
623.571	95.75
623.778	90.75
623.985	105.75
624.192	91.75
624.399	96.75
624.606	113.75
624.812	106.75
625.019	109.75
625.226	99.75
625.433	101.75
625.639	84.75
625.846	101.75
626.053	95.75
626.259	84.75
626.466	109.75
626.673	77.75
626.879	96.75
627.086	95.75
627.293	87.75
627.499	83.75
627.706	91.75
627.912	90.75
628.119	102.75
628.325	108.75
628.532	102.75
628.738	102.75
628.945	94.75
629.151	110.75
629.357	101.75
629.564	101.75
629.77	95.75
629.976	104.75
630.183	102.75
630.389	95.75
630.595	87.75
630.802	103.75
631.008	103.75
631.214	85.75
631.42	111.75
631.627	100.75
631.833	88.75
632.039	98.75
632.245	96.75
632.451	82.75
632.657	92.75
632.863	90.75
633.069	93.75
633.275	96.75
633.481	103.75
633.688	94.75
633.893	102.75
634.099	90.75
634.305	98.75
634.511	94.75
634.717	91.75
634.923	90.75
635.129	98.75
635.335	93.75
635.541	97.75
635.747	89.75
635.952	103.75
636.158	99.75
636.364	103.75
636.57	97.75
636.775	102.75
636.981	96.75
637.187	95.75
637.392	87.75
637.598	92.75
637.804	102.75
638.009	86.75
638.215	99.75
638.421	97.75
638.626	96.75
638.832	99.75
639.037	101.75
639.243	94.75
639.448	104.75
639.654	86.75
639.859	88.75
640.065	88.75
640.27	89.75
640.475	88.75
640.681	106.75
640.886	97.75
641.091	101.75
641.297	96.75
641.502	87.75
641.707	86.75
641.913	104.75
642.118	85.75
642.323	97.75
642.528	115.75
642.733	97.75
642.939	105.75
643.144	94.75
643.349	105.75
643.554	109.75
643.759	107.75
643.964	91.75
644.169	95.75
644.374	79.75
644.579	95.75
644.784	96.75
644.989	89.75
645.194	98.75
645.399	103.75
645.604	96.75
645.809	96.75
646.014	95.75
646.219	90.75
646.423	89.75
646.628	96.75
646.833	86.75
647.038	91.75
647.243	101.75
647.447	91.75
647.652	104.75
647.857	89.75
648.062	88.75
648.266	87.75
648.471	104.75
648.676	95.75
648.88	89.75
649.085	102.75
649.289	90.75
649.494	92.75
649.698	79.75
649.903	99.75
650.107	94.75
650.312	92.75
650.516	85.75
650.721	100.75
650.925	92.75
651.13	96.75
651.334	92.75
651.539	77.75
651.743	100.75
651.947	99.75
652.152	84.75
652.356	82.75
652.56	78.75
652.764	86.75
652.969	98.75
653.173	75.75
653.377	85.75
653.581	85.75
653.785	90.75
653.99	88.75
654.194	82.75
654.398	83.75
654.602	72.75
654.806	95.75
655.01	91.75
655.214	86.75
655.418	91.75
655.622	74.75
655.826	77.75
656.03	86.75
656.234	85.75
656.438	96.75
656.642	91.75
656.846	64.75
657.049	84.75
657.253	90.75
657.457	89.75
657.661	75.75
657.865	84.75
658.068	81.75
658.272	85.75
658.476	81.75
658.68	89.75
658.883	78.75
659.087	89.75
659.291	87.75
659.494	90.75
659.698	81.75
659.901	80.75
660.105	68.75
660.309	79.75
660.512	73.75
660.716	76.75
660.919	83.75
661.123	82.75
661.326	78.75
661.53	86.75
661.733	97.75
661.936	85.75
662.14	90.75
662.343	79.75
662.546	78.75
662.75	79.75
662.953	78.75
663.156	89.75
663.36	85.75
663.563	90.75
663.766	71.75
663.969	72.75
664.173	65.75
664.376	74.75
664.579	71.75
664.782	72.75
664.985	75.75
665.188	67.75
665.391	83.75
665.594	81.75
665.797	80.75
666	73.75
666.203	74.75
666.406	70.75
666.609	69.75
666.812	68.75
667.015	72.75
667.218	86.75
667.421	67.75
667.624	76.75
667.827	73.75
668.03	79.75
668.232	82.75
668.435	68.75
668.638	74.75
668.841	84.75
669.043	84.75
669.246	77.75
669.449	87.75
669.651	66.75
669.854	79.75
670.057	75.75
670.259	76.75
670.462	79.75
670.665	73.75
670.867	70.75
671.07	67.75
671.272	70.75
671.475	74.75
671.677	70.75
671.88	87.75
672.082	74.75
672.284	91.75
672.487	83.75
672.689	81.75
672.892	72.75
