Data from Location1.07152019.Energy5.Lamp.07192019.3%Agarose_HRD10591_14-32-42-015.txt Node
Date: Fri Jul 19 14:32:42 EDT 2019
User: cochatt
Spectrometer: HR+D1059
Trigger mode: 1
Integration Time (sec): 1.000000E-1
Scans to average: 1
Electric dark correction enabled: true
Nonlinearity correction enabled: false
Boxcar width: 0
XAxis mode: Wavelengths
Number of Pixels in Spectrum: 2048
>>>>>Begin Spectral Data<<<<<
223.165	-25.12
223.4	-25.12
223.635	-25.12
223.869	-22.12
224.104	-21.12
224.338	-2.12
224.573	-13.12
224.808	-12.12
225.042	1.88
225.277	-13.12
225.511	-1.12
225.746	-4.12
225.98	4.88
226.215	15.88
226.449	10.88
226.683	7.88
226.918	33.88
227.152	38.88
227.387	21.88
227.621	35.88
227.856	53.88
228.09	59.88
228.324	57.88
228.559	51.88
228.793	55.88
229.027	53.88
229.262	60.88
229.496	54.88
229.73	65.88
229.964	61.88
230.199	59.88
230.433	63.88
230.667	79.88
230.901	57.88
231.136	71.88
231.37	71.88
231.604	85.88
231.838	88.88
232.072	66.88
232.306	80.88
232.541	101.88
232.775	73.88
233.009	78.88
233.243	74.88
233.477	85.88
233.711	81.88
233.945	77.88
234.179	74.88
234.413	90.88
234.647	81.88
234.881	84.88
235.115	86.88
235.349	74.88
235.583	75.88
235.817	85.88
236.051	73.88
236.285	74.88
236.519	59.88
236.753	80.88
236.987	96.88
237.221	73.88
237.455	57.88
237.689	67.88
237.922	74.88
238.156	76.88
238.39	68.88
238.624	70.88
238.858	66.88
239.091	64.88
239.325	72.88
239.559	68.88
239.793	65.88
240.027	66.88
240.26	62.88
240.494	70.88
240.728	72.88
240.961	61.88
241.195	75.88
241.429	75.88
241.662	62.88
241.896	73.88
242.13	91.88
242.363	77.88
242.597	77.88
242.83	64.88
243.064	71.88
243.298	56.88
243.531	76.88
243.765	70.88
243.998	67.88
244.232	70.88
244.465	83.88
244.699	69.88
244.932	79.88
245.166	66.88
245.399	85.88
245.633	85.88
245.866	75.88
246.099	64.88
246.333	93.88
246.566	86.88
246.8	69.88
247.033	83.88
247.266	69.88
247.5	74.88
247.733	83.88
247.966	80.88
248.2	61.88
248.433	54.88
248.666	68.88
248.899	79.88
249.133	69.88
249.366	82.88
249.599	78.88
249.832	81.88
250.066	85.88
250.299	74.88
250.532	72.88
250.765	74.88
250.998	65.88
251.231	73.88
251.465	84.88
251.698	82.88
251.931	68.88
252.164	65.88
252.397	59.88
252.63	61.88
252.863	83.88
253.096	85.88
253.329	82.88
253.562	87.88
253.795	67.88
254.028	74.88
254.261	67.88
254.494	70.88
254.727	74.88
254.96	74.88
255.193	83.88
255.426	80.88
255.659	89.88
255.892	89.88
256.124	65.88
256.357	76.88
256.59	82.88
256.823	79.88
257.056	72.88
257.289	74.88
257.521	56.88
257.754	62.88
257.987	78.88
258.22	87.88
258.452	79.88
258.685	73.88
258.918	71.88
259.151	80.88
259.383	94.88
259.616	66.88
259.849	83.88
260.081	80.88
260.314	70.88
260.547	87.88
260.779	74.88
261.012	73.88
261.244	74.88
261.477	69.88
261.71	78.88
261.942	81.88
262.175	74.88
262.407	74.88
262.64	77.88
262.872	85.88
263.105	80.88
263.337	87.88
263.57	86.88
263.802	78.88
264.035	78.88
264.267	71.88
264.499	77.88
264.732	78.88
264.964	82.88
265.197	89.88
265.429	71.88
265.661	66.88
265.894	86.88
266.126	87.88
266.358	72.88
266.591	73.88
266.823	61.88
267.055	66.88
267.287	67.88
267.52	73.88
267.752	78.88
267.984	61.88
268.216	80.88
268.448	82.88
268.681	83.88
268.913	70.88
269.145	86.88
269.377	74.88
269.609	75.88
269.841	80.88
270.073	77.88
270.306	93.88
270.538	82.88
270.77	72.88
271.002	95.88
271.234	85.88
271.466	93.88
271.698	83.88
271.93	78.88
272.162	93.88
272.394	89.88
272.626	74.88
272.858	74.88
273.09	81.88
273.322	81.88
273.553	75.88
273.785	71.88
274.017	65.88
274.249	87.88
274.481	83.88
274.713	78.88
274.945	70.88
275.176	79.88
275.408	77.88
275.64	90.88
275.872	87.88
276.104	74.88
276.335	75.88
276.567	78.88
276.799	66.88
277.031	71.88
277.262	86.88
277.494	74.88
277.726	68.88
277.957	93.88
278.189	76.88
278.421	80.88
278.652	85.88
278.884	82.88
279.115	78.88
279.347	90.88
279.579	92.88
279.81	86.88
280.042	72.88
280.273	81.88
280.505	74.88
280.736	86.88
280.968	78.88
281.199	87.88
281.431	88.88
281.662	76.88
281.894	77.88
282.125	86.88
282.356	92.88
282.588	83.88
282.819	68.88
283.051	76.88
283.282	79.88
283.513	91.88
283.745	69.88
283.976	77.88
284.207	71.88
284.439	87.88
284.67	81.88
284.901	80.88
285.132	80.88
285.364	75.88
285.595	75.88
285.826	78.88
286.057	77.88
286.288	76.88
286.52	66.88
286.751	85.88
286.982	88.88
287.213	90.88
287.444	80.88
287.675	78.88
287.906	89.88
288.138	79.88
288.369	82.88
288.6	80.88
288.831	79.88
289.062	79.88
289.293	66.88
289.524	84.88
289.755	75.88
289.986	82.88
290.217	86.88
290.448	70.88
290.679	92.88
290.91	84.88
291.141	75.88
291.371	89.88
291.602	94.88
291.833	66.88
292.064	64.88
292.295	83.88
292.526	74.88
292.757	75.88
292.987	75.88
293.218	88.88
293.449	74.88
293.68	63.88
293.91	100.88
294.141	85.88
294.372	79.88
294.603	81.88
294.833	78.88
295.064	86.88
295.295	80.88
295.525	85.88
295.756	89.88
295.987	75.88
296.217	74.88
296.448	80.88
296.679	84.88
296.909	71.88
297.14	78.88
297.37	71.88
297.601	79.88
297.831	92.88
298.062	86.88
298.292	72.88
298.523	77.88
298.753	68.88
298.984	88.88
299.214	77.88
299.445	75.88
299.675	81.88
299.905	91.88
300.136	77.88
300.366	68.88
300.597	86.88
300.827	87.88
301.057	86.88
301.288	78.88
301.518	82.88
301.748	82.88
301.979	88.88
302.209	90.88
302.439	89.88
302.669	61.88
302.9	77.88
303.13	74.88
303.36	66.88
303.59	78.88
303.82	76.88
304.051	72.88
304.281	98.88
304.511	93.88
304.741	79.88
304.971	80.88
305.201	91.88
305.431	72.88
305.661	74.88
305.891	82.88
306.121	69.88
306.352	86.88
306.582	80.88
306.812	65.88
307.042	74.88
307.272	86.88
307.502	81.88
307.731	75.88
307.961	83.88
308.191	77.88
308.421	90.88
308.651	78.88
308.881	82.88
309.111	82.88
309.341	72.88
309.571	90.88
309.8	85.88
310.03	79.88
310.26	97.88
310.49	71.88
310.72	75.88
310.949	71.88
311.179	80.88
311.409	92.88
311.639	85.88
311.868	79.88
312.098	89.88
312.328	97.88
312.557	79.88
312.787	89.88
313.017	89.88
313.246	75.88
313.476	86.88
313.706	74.88
313.935	72.88
314.165	80.88
314.394	76.88
314.624	82.88
314.853	79.88
315.083	74.88
315.312	85.88
315.542	84.88
315.771	82.88
316.001	82.88
316.23	84.88
316.46	84.88
316.689	80.88
316.919	75.88
317.148	78.88
317.377	81.88
317.607	76.88
317.836	86.88
318.065	80.88
318.295	77.88
318.524	76.88
318.753	81.88
318.983	86.88
319.212	81.88
319.441	78.88
319.67	69.88
319.9	94.88
320.129	91.88
320.358	74.88
320.587	76.88
320.816	95.88
321.046	77.88
321.275	69.88
321.504	82.88
321.733	80.88
321.962	78.88
322.191	87.88
322.42	81.88
322.649	78.88
322.878	88.88
323.108	89.88
323.337	80.88
323.566	101.88
323.795	73.88
324.024	93.88
324.253	90.88
324.482	89.88
324.71	88.88
324.939	86.88
325.168	82.88
325.397	77.88
325.626	92.88
325.855	79.88
326.084	66.88
326.313	78.88
326.542	82.88
326.77	75.88
326.999	92.88
327.228	81.88
327.457	80.88
327.686	80.88
327.914	74.88
328.143	74.88
328.372	78.88
328.6	88.88
328.829	82.88
329.058	70.88
329.287	91.88
329.515	89.88
329.744	93.88
329.972	75.88
330.201	75.88
330.43	73.88
330.658	81.88
330.887	84.88
331.115	83.88
331.344	82.88
331.572	82.88
331.801	72.88
332.03	82.88
332.258	99.88
332.486	82.88
332.715	73.88
332.943	83.88
333.172	82.88
333.4	82.88
333.629	81.88
333.857	91.88
334.085	74.88
334.314	77.88
334.542	83.88
334.771	94.88
334.999	89.88
335.227	73.88
335.455	84.88
335.684	77.88
335.912	85.88
336.14	92.88
336.369	67.88
336.597	95.88
336.825	85.88
337.053	91.88
337.281	87.88
337.51	78.88
337.738	73.88
337.966	93.88
338.194	78.88
338.422	81.88
338.65	91.88
338.878	81.88
339.106	74.88
339.334	89.88
339.562	83.88
339.79	79.88
340.018	87.88
340.246	78.88
340.474	82.88
340.702	68.88
340.93	80.88
341.158	85.88
341.386	94.88
341.614	80.88
341.842	83.88
342.07	79.88
342.298	69.88
342.526	88.88
342.754	89.88
342.981	70.88
343.209	81.88
343.437	87.88
343.665	68.88
343.893	74.88
344.12	80.88
344.348	83.88
344.576	81.88
344.804	92.88
345.031	74.88
345.259	86.88
345.487	84.88
345.714	82.88
345.942	85.88
346.17	95.88
346.397	78.88
346.625	75.88
346.853	81.88
347.08	86.88
347.308	83.88
347.535	95.88
347.763	85.88
347.99	84.88
348.218	76.88
348.445	67.88
348.673	81.88
348.9	79.88
349.128	89.88
349.355	74.88
349.583	74.88
349.81	70.88
350.037	80.88
350.265	82.88
350.492	82.88
350.72	94.88
350.947	97.88
351.174	87.88
351.402	73.88
351.629	77.88
351.856	86.88
352.083	93.88
352.311	82.88
352.538	74.88
352.765	72.88
352.992	79.88
353.22	79.88
353.447	83.88
353.674	75.88
353.901	87.88
354.128	76.88
354.355	82.88
354.583	93.88
354.81	80.88
355.037	77.88
355.264	66.88
355.491	65.88
355.718	86.88
355.945	85.88
356.172	89.88
356.399	71.88
356.626	63.88
356.853	67.88
357.08	80.88
357.307	80.88
357.534	87.88
357.761	78.88
357.988	83.88
358.215	88.88
358.441	86.88
358.668	75.88
358.895	67.88
359.122	85.88
359.349	84.88
359.576	72.88
359.802	83.88
360.029	74.88
360.256	67.88
360.483	90.88
360.709	82.88
360.936	93.88
361.163	83.88
361.39	76.88
361.616	86.88
361.843	76.88
362.07	83.88
362.296	71.88
362.523	83.88
362.749	91.88
362.976	79.88
363.203	74.88
363.429	78.88
363.656	87.88
363.882	85.88
364.109	85.88
364.335	73.88
364.562	73.88
364.788	65.88
365.015	91.88
365.241	78.88
365.468	81.88
365.694	73.88
365.92	72.88
366.147	95.88
366.373	74.88
366.599	80.88
366.826	82.88
367.052	82.88
367.278	87.88
367.505	81.88
367.731	86.88
367.957	76.88
368.184	86.88
368.41	84.88
368.636	72.88
368.862	74.88
369.089	84.88
369.315	86.88
369.541	87.88
369.767	93.88
369.993	93.88
370.219	81.88
370.445	82.88
370.672	77.88
370.898	86.88
371.124	90.88
371.35	79.88
371.576	85.88
371.802	92.88
372.028	94.88
372.254	95.88
372.48	80.88
372.706	98.88
372.932	80.88
373.158	74.88
373.384	101.88
373.61	80.88
373.835	103.88
374.061	83.88
374.287	98.88
374.513	88.88
374.739	95.88
374.965	84.88
375.191	96.88
375.416	88.88
375.642	85.88
375.868	90.88
376.094	83.88
376.319	95.88
376.545	94.88
376.771	91.88
376.997	94.88
377.222	81.88
377.448	86.88
377.674	91.88
377.899	97.88
378.125	97.88
378.35	84.88
378.576	85.88
378.802	91.88
379.027	95.88
379.253	107.88
379.478	80.88
379.704	90.88
379.929	86.88
380.155	96.88
380.38	109.88
380.606	81.88
380.831	87.88
381.057	87.88
381.282	77.88
381.507	83.88
381.733	94.88
381.958	89.88
382.184	105.88
382.409	82.88
382.634	107.88
382.86	89.88
383.085	106.88
383.31	94.88
383.535	102.88
383.761	79.88
383.986	87.88
384.211	94.88
384.436	89.88
384.662	103.88
384.887	98.88
385.112	90.88
385.337	95.88
385.562	93.88
385.787	102.88
386.013	103.88
386.238	94.88
386.463	94.88
386.688	87.88
386.913	85.88
387.138	90.88
387.363	78.88
387.588	97.88
387.813	110.88
388.038	97.88
388.263	106.88
388.488	102.88
388.713	96.88
388.938	81.88
389.163	101.88
389.387	99.88
389.612	95.88
389.837	110.88
390.062	95.88
390.287	100.88
390.512	114.88
390.736	101.88
390.961	89.88
391.186	101.88
391.411	87.88
391.636	101.88
391.86	94.88
392.085	90.88
392.31	94.88
392.534	106.88
392.759	93.88
392.984	104.88
393.208	99.88
393.433	100.88
393.658	94.88
393.882	94.88
394.107	98.88
394.331	109.88
394.556	109.88
394.78	93.88
395.005	97.88
395.229	103.88
395.454	94.88
395.678	108.88
395.903	111.88
396.127	109.88
396.352	104.88
396.576	99.88
396.801	89.88
397.025	97.88
397.249	118.88
397.474	107.88
397.698	109.88
397.922	97.88
398.147	98.88
398.371	90.88
398.595	100.88
398.82	114.88
399.044	99.88
399.268	97.88
399.492	117.88
399.717	125.88
399.941	114.88
400.165	102.88
400.389	113.88
400.613	98.88
400.837	120.88
401.062	106.88
401.286	95.88
401.51	127.88
401.734	116.88
401.958	114.88
402.182	113.88
402.406	101.88
402.63	94.88
402.854	99.88
403.078	113.88
403.302	103.88
403.526	113.88
403.75	118.88
403.974	121.88
404.198	125.88
404.422	119.88
404.645	115.88
404.869	112.88
405.093	105.88
405.317	118.88
405.541	125.88
405.765	113.88
405.988	116.88
406.212	110.88
406.436	119.88
406.66	118.88
406.883	114.88
407.107	119.88
407.331	117.88
407.555	96.88
407.778	129.88
408.002	105.88
408.226	102.88
408.449	118.88
408.673	104.88
408.896	121.88
409.12	97.88
409.344	109.88
409.567	118.88
409.791	113.88
410.014	115.88
410.238	101.88
410.461	127.88
410.685	122.88
410.908	116.88
411.132	111.88
411.355	85.88
411.578	120.88
411.802	120.88
412.025	91.88
412.249	113.88
412.472	121.88
412.695	112.88
412.919	115.88
413.142	126.88
413.365	115.88
413.589	102.88
413.812	122.88
414.035	121.88
414.258	120.88
414.482	121.88
414.705	118.88
414.928	122.88
415.151	127.88
415.374	113.88
415.597	123.88
415.821	123.88
416.044	133.88
416.267	121.88
416.49	119.88
416.713	119.88
416.936	118.88
417.159	120.88
417.382	117.88
417.605	120.88
417.828	121.88
418.051	122.88
418.274	121.88
418.497	125.88
418.72	128.88
418.943	141.88
419.166	136.88
419.389	127.88
419.611	123.88
419.834	114.88
420.057	120.88
420.28	119.88
420.503	121.88
420.726	136.88
420.948	117.88
421.171	114.88
421.394	144.88
421.617	119.88
421.839	131.88
422.062	138.88
422.285	128.88
422.507	125.88
422.73	130.88
422.953	130.88
423.175	122.88
423.398	129.88
423.621	125.88
423.843	134.88
424.066	114.88
424.288	125.88
424.511	144.88
424.733	137.88
424.956	134.88
425.178	145.88
425.401	125.88
425.623	142.88
425.846	141.88
426.068	120.88
426.291	131.88
426.513	131.88
426.735	132.88
426.958	132.88
427.18	127.88
427.402	139.88
427.625	118.88
427.847	123.88
428.069	118.88
428.292	129.88
428.514	115.88
428.736	118.88
428.958	129.88
429.181	123.88
429.403	127.88
429.625	129.88
429.847	113.88
430.069	125.88
430.292	115.88
430.514	122.88
430.736	126.88
430.958	109.88
431.18	118.88
431.402	112.88
431.624	120.88
431.846	107.88
432.068	102.88
432.29	96.88
432.512	104.88
432.734	123.88
432.956	113.88
433.178	125.88
433.4	136.88
433.622	145.88
433.844	117.88
434.066	114.88
434.287	105.88
434.509	98.88
434.731	102.88
434.953	111.88
435.175	103.88
435.397	117.88
435.618	119.88
435.84	104.88
436.062	106.88
436.284	118.88
436.505	109.88
436.727	140.88
436.949	124.88
437.17	121.88
437.392	116.88
437.614	103.88
437.835	103.88
438.057	115.88
438.278	110.88
438.5	128.88
438.721	131.88
438.943	129.88
439.165	121.88
439.386	133.88
439.608	131.88
439.829	131.88
440.05	137.88
440.272	131.88
440.493	134.88
440.715	151.88
440.936	129.88
441.158	133.88
441.379	129.88
441.6	138.88
441.822	135.88
442.043	162.88
442.264	148.88
442.486	121.88
442.707	131.88
442.928	145.88
443.149	122.88
443.371	143.88
443.592	129.88
443.813	136.88
444.034	117.88
444.255	127.88
444.476	156.88
444.698	135.88
444.919	152.88
445.14	268.88
445.361	173.88
445.582	142.88
445.803	139.88
446.024	143.88
446.245	162.88
446.466	132.88
446.687	145.88
446.908	161.88
447.129	145.88
447.35	151.88
447.571	142.88
447.792	136.88
448.013	141.88
448.234	122.88
448.455	131.88
448.675	147.88
448.896	126.88
449.117	123.88
449.338	129.88
449.559	131.88
449.779	132.88
450	130.88
450.221	125.88
450.442	122.88
450.662	133.88
450.883	127.88
451.104	139.88
451.324	127.88
451.545	126.88
451.766	117.88
451.986	121.88
452.207	118.88
452.428	111.88
452.648	109.88
452.869	106.88
453.089	100.88
453.31	111.88
453.53	101.88
453.751	110.88
453.971	97.88
454.192	89.88
454.412	109.88
454.633	121.88
454.853	123.88
455.073	123.88
455.294	118.88
455.514	107.88
455.734	125.88
455.955	119.88
456.175	110.88
456.395	105.88
456.616	115.88
456.836	113.88
457.056	107.88
457.276	100.88
457.497	111.88
457.717	106.88
457.937	91.88
458.157	100.88
458.377	100.88
458.598	96.88
458.818	89.88
459.038	85.88
459.258	99.88
459.478	85.88
459.698	91.88
459.918	87.88
460.138	102.88
460.358	112.88
460.578	107.88
460.798	112.88
461.018	104.88
461.238	113.88
461.458	113.88
461.678	83.88
461.898	101.88
462.118	106.88
462.338	114.88
462.558	99.88
462.777	104.88
462.997	98.88
463.217	109.88
463.437	102.88
463.657	89.88
463.876	103.88
464.096	98.88
464.316	103.88
464.536	102.88
464.755	114.88
464.975	111.88
465.195	117.88
465.414	99.88
465.634	114.88
465.854	111.88
466.073	97.88
466.293	120.88
466.512	123.88
466.732	121.88
466.951	131.88
467.171	113.88
467.391	101.88
467.61	135.88
467.829	124.88
468.049	125.88
468.268	121.88
468.488	117.88
468.707	122.88
468.927	131.88
469.146	110.88
469.365	135.88
469.585	134.88
469.804	131.88
470.023	121.88
470.243	134.88
470.462	124.88
470.681	135.88
470.901	141.88
471.12	142.88
471.339	134.88
471.558	142.88
471.777	136.88
471.997	121.88
472.216	128.88
472.435	113.88
472.654	106.88
472.873	113.88
473.092	103.88
473.311	121.88
473.53	125.88
473.749	119.88
473.968	115.88
474.187	113.88
474.406	117.88
474.625	125.88
474.844	126.88
475.063	104.88
475.282	132.88
475.501	104.88
475.72	118.88
475.939	113.88
476.158	127.88
476.377	121.88
476.596	114.88
476.814	113.88
477.033	117.88
477.252	111.88
477.471	111.88
477.69	123.88
477.908	134.88
478.127	133.88
478.346	113.88
478.564	126.88
478.783	124.88
479.002	128.88
479.22	121.88
479.439	113.88
479.658	104.88
479.876	112.88
480.095	102.88
480.313	123.88
480.532	113.88
480.751	104.88
480.969	97.88
481.188	79.88
481.406	94.88
481.624	93.88
481.843	86.88
482.061	96.88
482.28	119.88
482.498	111.88
482.717	99.88
482.935	125.88
483.153	139.88
483.372	139.88
483.59	154.88
483.808	136.88
484.027	115.88
484.245	132.88
484.463	132.88
484.681	160.88
484.9	146.88
485.118	141.88
485.336	115.88
485.554	112.88
485.772	96.88
485.99	101.88
486.209	116.88
486.427	105.88
486.645	117.88
486.863	127.88
487.081	149.88
487.299	128.88
487.517	131.88
487.735	166.88
487.953	171.88
488.171	173.88
488.389	171.88
488.607	149.88
488.825	134.88
489.043	130.88
489.261	121.88
489.479	135.88
489.696	140.88
489.914	133.88
490.132	123.88
490.35	141.88
490.568	154.88
490.786	151.88
491.003	170.88
491.221	167.88
491.439	163.88
491.657	183.88
491.874	193.88
492.092	221.88
492.31	237.88
492.527	226.88
492.745	184.88
492.963	187.88
493.18	189.88
493.398	167.88
493.615	173.88
493.833	170.88
494.05	167.88
494.268	147.88
494.485	164.88
494.703	166.88
494.92	163.88
495.138	171.88
495.355	171.88
495.573	150.88
495.79	180.88
496.008	143.88
496.225	151.88
496.442	174.88
496.66	173.88
496.877	162.88
497.094	165.88
497.312	154.88
497.529	153.88
497.746	146.88
497.963	127.88
498.181	120.88
498.398	110.88
498.615	113.88
498.832	116.88
499.049	119.88
499.267	125.88
499.484	120.88
499.701	132.88
499.918	125.88
500.135	145.88
500.352	141.88
500.569	137.88
500.786	137.88
501.003	139.88
501.22	147.88
501.437	139.88
501.654	119.88
501.871	135.88
502.088	120.88
502.305	120.88
502.522	117.88
502.739	118.88
502.956	126.88
503.172	129.88
503.389	110.88
503.606	114.88
503.823	111.88
504.04	119.88
504.256	121.88
504.473	110.88
504.69	109.88
504.907	116.88
505.123	114.88
505.34	117.88
505.557	122.88
505.773	128.88
505.99	122.88
506.207	116.88
506.423	115.88
506.64	109.88
506.856	99.88
507.073	111.88
507.289	119.88
507.506	124.88
507.722	113.88
507.939	109.88
508.155	105.88
508.372	110.88
508.588	116.88
508.805	109.88
509.021	107.88
509.238	78.88
509.454	79.88
509.67	96.88
509.887	95.88
510.103	87.88
510.319	98.88
510.536	93.88
510.752	79.88
510.968	78.88
511.184	78.88
511.401	82.88
511.617	86.88
511.833	83.88
512.049	88.88
512.265	94.88
512.481	106.88
512.698	84.88
512.914	85.88
513.13	89.88
513.346	97.88
513.562	79.88
513.778	72.88
513.994	68.88
514.21	93.88
514.426	89.88
514.642	86.88
514.858	98.88
515.074	103.88
515.29	91.88
515.506	94.88
515.721	65.88
515.937	84.88
516.153	81.88
516.369	77.88
516.585	89.88
516.801	93.88
517.016	88.88
517.232	97.88
517.448	89.88
517.664	106.88
517.879	79.88
518.095	88.88
518.311	97.88
518.527	98.88
518.742	99.88
518.958	107.88
519.173	95.88
519.389	108.88
519.605	116.88
519.82	105.88
520.036	105.88
520.251	105.88
520.467	97.88
520.682	107.88
520.898	86.88
521.113	88.88
521.329	78.88
521.544	87.88
521.76	90.88
521.975	106.88
522.19	76.88
522.406	88.88
522.621	98.88
522.836	101.88
523.052	110.88
523.267	111.88
523.482	106.88
523.698	118.88
523.913	113.88
524.128	96.88
524.343	116.88
524.559	109.88
524.774	119.88
524.989	112.88
525.204	127.88
525.419	109.88
525.634	114.88
525.849	109.88
526.064	98.88
526.28	88.88
526.495	86.88
526.71	79.88
526.925	81.88
527.14	74.88
527.355	79.88
527.57	73.88
527.785	71.88
527.999	85.88
528.214	96.88
528.429	112.88
528.644	116.88
528.859	126.88
529.074	139.88
529.289	153.88
529.503	147.88
529.718	130.88
529.933	126.88
530.148	92.88
530.363	87.88
530.577	86.88
530.792	71.88
531.007	84.88
531.221	81.88
531.436	88.88
531.651	84.88
531.865	71.88
532.08	75.88
532.295	82.88
532.509	93.88
532.724	65.88
532.938	86.88
533.153	110.88
533.367	120.88
533.582	113.88
533.796	100.88
534.011	115.88
534.225	84.88
534.44	95.88
534.654	90.88
534.868	97.88
535.083	98.88
535.297	84.88
535.511	97.88
535.726	108.88
535.94	102.88
536.154	84.88
536.369	102.88
536.583	86.88
536.797	78.88
537.011	75.88
537.225	79.88
537.44	87.88
537.654	83.88
537.868	95.88
538.082	80.88
538.296	70.88
538.51	109.88
538.724	110.88
538.938	109.88
539.153	133.88
539.367	128.88
539.581	108.88
539.795	111.88
540.009	96.88
540.222	96.88
540.436	121.88
540.65	110.88
540.864	121.88
541.078	134.88
541.292	138.88
541.506	140.88
541.72	157.88
541.934	178.88
542.147	192.88
542.361	194.88
542.575	143.88
542.789	139.88
543.002	120.88
543.216	133.88
543.43	120.88
543.644	128.88
543.857	131.88
544.071	159.88
544.285	147.88
544.498	143.88
544.712	153.88
544.925	149.88
545.139	166.88
545.352	151.88
545.566	161.88
545.779	160.88
545.993	165.88
546.206	167.88
546.42	168.88
546.633	161.88
546.847	149.88
547.06	157.88
547.274	153.88
547.487	168.88
547.7	161.88
547.914	155.88
548.127	160.88
548.34	151.88
548.554	141.88
548.767	150.88
548.98	145.88
549.193	162.88
549.407	151.88
549.62	147.88
549.833	144.88
550.046	122.88
550.259	148.88
550.473	140.88
550.686	147.88
550.899	148.88
551.112	133.88
551.325	149.88
551.538	127.88
551.751	132.88
551.964	130.88
552.177	132.88
552.39	129.88
552.603	142.88
552.816	151.88
553.029	154.88
553.242	163.88
553.455	168.88
553.667	157.88
553.88	159.88
554.093	148.88
554.306	147.88
554.519	127.88
554.732	137.88
554.944	132.88
555.157	142.88
555.37	141.88
555.583	143.88
555.795	133.88
556.008	113.88
556.221	131.88
556.433	127.88
556.646	136.88
556.859	117.88
557.071	135.88
557.284	130.88
557.496	135.88
557.709	137.88
557.921	137.88
558.134	148.88
558.346	129.88
558.559	132.88
558.771	138.88
558.984	130.88
559.196	126.88
559.409	122.88
559.621	115.88
559.833	123.88
560.046	121.88
560.258	111.88
560.47	129.88
560.683	123.88
560.895	106.88
561.107	125.88
561.32	119.88
561.532	121.88
561.744	119.88
561.956	128.88
562.168	119.88
562.381	121.88
562.593	125.88
562.805	121.88
563.017	113.88
563.229	124.88
563.441	110.88
563.653	129.88
563.865	118.88
564.077	113.88
564.289	105.88
564.501	104.88
564.713	128.88
564.925	130.88
565.137	111.88
565.349	113.88
565.561	126.88
565.773	109.88
565.985	114.88
566.197	119.88
566.408	123.88
566.62	114.88
566.832	110.88
567.044	110.88
567.255	106.88
567.467	97.88
567.679	99.88
567.891	109.88
568.102	106.88
568.314	87.88
568.526	79.88
568.737	84.88
568.949	73.88
569.161	87.88
569.372	65.88
569.584	71.88
569.795	79.88
570.007	61.88
570.218	81.88
570.43	77.88
570.641	84.88
570.853	87.88
571.064	87.88
571.276	96.88
571.487	109.88
571.698	89.88
571.91	90.88
572.121	93.88
572.333	83.88
572.544	94.88
572.755	102.88
572.966	85.88
573.178	77.88
573.389	85.88
573.6	80.88
573.811	70.88
574.023	75.88
574.234	88.88
574.445	83.88
574.656	97.88
574.867	88.88
575.078	85.88
575.289	90.88
575.501	86.88
575.712	110.88
575.923	90.88
576.134	98.88
576.345	86.88
576.556	110.88
576.767	97.88
576.978	96.88
577.188	99.88
577.399	90.88
577.61	88.88
577.821	82.88
578.032	98.88
578.243	96.88
578.454	101.88
578.665	85.88
578.875	86.88
579.086	91.88
579.297	89.88
579.508	71.88
579.718	75.88
579.929	92.88
580.14	94.88
580.35	82.88
580.561	82.88
580.772	77.88
580.982	80.88
581.193	95.88
581.403	96.88
581.614	85.88
581.825	77.88
582.035	95.88
582.246	104.88
582.456	96.88
582.667	91.88
582.877	87.88
583.087	77.88
583.298	73.88
583.508	78.88
583.719	83.88
583.929	101.88
584.139	81.88
584.35	92.88
584.56	84.88
584.77	93.88
584.981	72.88
585.191	86.88
585.401	79.88
585.611	93.88
585.821	78.88
586.032	99.88
586.242	93.88
586.452	80.88
586.662	90.88
586.872	81.88
587.082	94.88
587.292	89.88
587.502	75.88
587.713	79.88
587.923	83.88
588.133	79.88
588.343	81.88
588.553	84.88
588.762	79.88
588.972	87.88
589.182	96.88
589.392	78.88
589.602	80.88
589.812	81.88
590.022	80.88
590.232	74.88
590.441	78.88
590.651	74.88
590.861	84.88
591.071	84.88
591.281	98.88
591.49	80.88
591.7	74.88
591.91	83.88
592.119	81.88
592.329	87.88
592.539	75.88
592.748	75.88
592.958	71.88
593.167	75.88
593.377	83.88
593.587	81.88
593.796	86.88
594.006	82.88
594.215	82.88
594.424	86.88
594.634	89.88
594.843	95.88
595.053	104.88
595.262	82.88
595.472	85.88
595.681	91.88
595.89	86.88
596.1	79.88
596.309	72.88
596.518	103.88
596.727	85.88
596.937	95.88
597.146	81.88
597.355	88.88
597.564	89.88
597.774	76.88
597.983	88.88
598.192	83.88
598.401	98.88
598.61	84.88
598.819	103.88
599.028	97.88
599.237	82.88
599.446	85.88
599.655	83.88
599.864	95.88
600.073	96.88
600.282	93.88
600.491	85.88
600.7	83.88
600.909	87.88
601.118	98.88
601.327	112.88
601.536	106.88
601.745	96.88
601.953	89.88
602.162	110.88
602.371	100.88
602.58	107.88
602.789	101.88
602.997	109.88
603.206	104.88
603.415	105.88
603.623	104.88
603.832	95.88
604.041	103.88
604.249	102.88
604.458	100.88
604.666	75.88
604.875	109.88
605.084	99.88
605.292	105.88
605.501	111.88
605.709	109.88
605.918	101.88
606.126	93.88
606.334	113.88
606.543	122.88
606.751	118.88
606.96	99.88
607.168	111.88
607.376	118.88
607.585	92.88
607.793	120.88
608.001	90.88
608.21	121.88
608.418	115.88
608.626	117.88
608.834	111.88
609.043	107.88
609.251	103.88
609.459	100.88
609.667	125.88
609.875	110.88
610.083	118.88
610.291	107.88
610.499	121.88
610.707	113.88
610.916	104.88
611.124	103.88
611.332	98.88
611.54	115.88
611.748	107.88
611.955	112.88
612.163	93.88
612.371	117.88
612.579	98.88
612.787	102.88
612.995	120.88
613.203	109.88
613.411	106.88
613.618	95.88
613.826	98.88
614.034	111.88
614.242	103.88
614.449	93.88
614.657	122.88
614.865	113.88
615.072	103.88
615.28	113.88
615.488	121.88
615.695	105.88
615.903	112.88
616.111	106.88
616.318	113.88
616.526	102.88
616.733	109.88
616.941	107.88
617.148	110.88
617.356	111.88
617.563	96.88
617.771	105.88
617.978	90.88
618.185	101.88
618.393	94.88
618.6	97.88
618.807	110.88
619.015	87.88
619.222	111.88
619.429	108.88
619.637	110.88
619.844	98.88
620.051	105.88
620.258	102.88
620.466	109.88
620.673	110.88
620.88	97.88
621.087	106.88
621.294	101.88
621.501	111.88
621.708	98.88
621.915	109.88
622.122	93.88
622.329	96.88
622.536	95.88
622.743	98.88
622.95	110.88
623.157	107.88
623.364	102.88
623.571	103.88
623.778	112.88
623.985	101.88
624.192	95.88
624.399	93.88
624.606	87.88
624.812	115.88
625.019	113.88
625.226	94.88
625.433	109.88
625.639	96.88
625.846	86.88
626.053	95.88
626.259	92.88
626.466	97.88
626.673	95.88
626.879	72.88
627.086	97.88
627.293	103.88
627.499	104.88
627.706	112.88
627.912	104.88
628.119	91.88
628.325	107.88
628.532	95.88
628.738	97.88
628.945	106.88
629.151	97.88
629.357	93.88
629.564	110.88
629.77	113.88
629.976	95.88
630.183	94.88
630.389	99.88
630.595	94.88
630.802	74.88
631.008	97.88
631.214	95.88
631.42	102.88
631.627	117.88
631.833	98.88
632.039	97.88
632.245	98.88
632.451	105.88
632.657	103.88
632.863	99.88
633.069	90.88
633.275	105.88
633.481	99.88
633.688	93.88
633.893	117.88
634.099	99.88
634.305	101.88
634.511	94.88
634.717	98.88
634.923	95.88
635.129	77.88
635.335	98.88
635.541	97.88
635.747	110.88
635.952	93.88
636.158	86.88
636.364	102.88
636.57	87.88
636.775	94.88
636.981	103.88
637.187	101.88
637.392	103.88
637.598	104.88
637.804	106.88
638.009	89.88
638.215	98.88
638.421	88.88
638.626	87.88
638.832	87.88
639.037	89.88
639.243	88.88
639.448	80.88
639.654	91.88
639.859	96.88
640.065	94.88
640.27	97.88
640.475	87.88
640.681	96.88
640.886	94.88
641.091	97.88
641.297	90.88
641.502	97.88
641.707	103.88
641.913	98.88
642.118	103.88
642.323	94.88
642.528	85.88
642.733	97.88
642.939	89.88
643.144	87.88
643.349	101.88
643.554	95.88
643.759	106.88
643.964	97.88
644.169	96.88
644.374	97.88
644.579	91.88
644.784	99.88
644.989	94.88
645.194	80.88
645.399	78.88
645.604	78.88
645.809	81.88
646.014	86.88
646.219	108.88
646.423	99.88
646.628	96.88
646.833	93.88
647.038	96.88
647.243	85.88
647.447	88.88
647.652	100.88
647.857	83.88
648.062	92.88
648.266	101.88
648.471	95.88
648.676	102.88
648.88	86.88
649.085	102.88
649.289	78.88
649.494	94.88
649.698	99.88
649.903	103.88
650.107	97.88
650.312	90.88
650.516	94.88
650.721	85.88
650.925	96.88
651.13	97.88
651.334	92.88
651.539	94.88
651.743	82.88
651.947	89.88
652.152	85.88
652.356	83.88
652.56	100.88
652.764	80.88
652.969	84.88
653.173	101.88
653.377	86.88
653.581	89.88
653.785	100.88
653.99	92.88
654.194	84.88
654.398	73.88
654.602	77.88
654.806	77.88
655.01	85.88
655.214	86.88
655.418	85.88
655.622	97.88
655.826	82.88
656.03	89.88
656.234	102.88
656.438	89.88
656.642	80.88
656.846	78.88
657.049	95.88
657.253	86.88
657.457	100.88
657.661	84.88
657.865	98.88
658.068	80.88
658.272	82.88
658.476	75.88
658.68	81.88
658.883	81.88
659.087	90.88
659.291	83.88
659.494	74.88
659.698	82.88
659.901	66.88
660.105	78.88
660.309	87.88
660.512	76.88
660.716	91.88
660.919	82.88
661.123	70.88
661.326	82.88
661.53	81.88
661.733	75.88
661.936	86.88
662.14	69.88
662.343	74.88
662.546	85.88
662.75	78.88
662.953	90.88
663.156	73.88
663.36	73.88
663.563	88.88
663.766	72.88
663.969	69.88
664.173	80.88
664.376	83.88
664.579	82.88
664.782	81.88
664.985	95.88
665.188	83.88
665.391	70.88
665.594	69.88
665.797	79.88
666	86.88
666.203	76.88
666.406	91.88
666.609	70.88
666.812	78.88
667.015	81.88
667.218	88.88
667.421	89.88
667.624	81.88
667.827	74.88
668.03	78.88
668.232	71.88
668.435	74.88
668.638	76.88
668.841	95.88
669.043	86.88
669.246	76.88
669.449	91.88
669.651	79.88
669.854	84.88
670.057	76.88
670.259	90.88
670.462	87.88
670.665	80.88
670.867	87.88
671.07	80.88
671.272	75.88
671.475	81.88
671.677	71.88
671.88	79.88
672.082	82.88
672.284	81.88
672.487	78.88
672.689	67.88
672.892	78.88
