Data from Location1.07152019.Energy5.Lamp.07192019.3%Agarose_HRD10591_14-31-43-016.txt Node
Date: Fri Jul 19 14:31:43 EDT 2019
User: cochatt
Spectrometer: HR+D1059
Trigger mode: 1
Integration Time (sec): 1.000000E-1
Scans to average: 1
Electric dark correction enabled: true
Nonlinearity correction enabled: false
Boxcar width: 0
XAxis mode: Wavelengths
Number of Pixels in Spectrum: 2048
>>>>>Begin Spectral Data<<<<<
223.165	-22.62
223.4	-22.62
223.635	-22.62
223.869	-18.62
224.104	-23.62
224.338	-12.62
224.573	-0.62
224.808	-8.62
225.042	-6.62
225.277	-7.62
225.511	5.38
225.746	-2.62
225.98	-1.62
226.215	12.38
226.449	15.38
226.683	18.38
226.918	26.38
227.152	27.38
227.387	31.38
227.621	34.38
227.856	51.38
228.09	43.38
228.324	60.38
228.559	45.38
228.793	49.38
229.027	55.38
229.262	58.38
229.496	67.38
229.73	67.38
229.964	75.38
230.199	81.38
230.433	57.38
230.667	89.38
230.901	70.38
231.136	78.38
231.37	71.38
231.604	74.38
231.838	83.38
232.072	66.38
232.306	92.38
232.541	76.38
232.775	83.38
233.009	91.38
233.243	79.38
233.477	86.38
233.711	78.38
233.945	88.38
234.179	74.38
234.413	97.38
234.647	78.38
234.881	73.38
235.115	90.38
235.349	85.38
235.583	86.38
235.817	57.38
236.051	83.38
236.285	82.38
236.519	73.38
236.753	71.38
236.987	85.38
237.221	82.38
237.455	71.38
237.689	77.38
237.922	81.38
238.156	56.38
238.39	69.38
238.624	77.38
238.858	89.38
239.091	85.38
239.325	68.38
239.559	77.38
239.793	81.38
240.027	79.38
240.26	65.38
240.494	83.38
240.728	65.38
240.961	79.38
241.195	71.38
241.429	97.38
241.662	76.38
241.896	85.38
242.13	59.38
242.363	86.38
242.597	77.38
242.83	71.38
243.064	71.38
243.298	75.38
243.531	69.38
243.765	69.38
243.998	74.38
244.232	73.38
244.465	83.38
244.699	77.38
244.932	69.38
245.166	83.38
245.399	70.38
245.633	72.38
245.866	81.38
246.099	74.38
246.333	78.38
246.566	86.38
246.8	80.38
247.033	81.38
247.266	79.38
247.5	70.38
247.733	79.38
247.966	88.38
248.2	84.38
248.433	87.38
248.666	66.38
248.899	76.38
249.133	83.38
249.366	73.38
249.599	83.38
249.832	67.38
250.066	72.38
250.299	77.38
250.532	77.38
250.765	84.38
250.998	69.38
251.231	82.38
251.465	81.38
251.698	61.38
251.931	90.38
252.164	85.38
252.397	79.38
252.63	85.38
252.863	84.38
253.096	88.38
253.329	85.38
253.562	89.38
253.795	82.38
254.028	88.38
254.261	67.38
254.494	73.38
254.727	74.38
254.96	71.38
255.193	76.38
255.426	79.38
255.659	79.38
255.892	85.38
256.124	83.38
256.357	87.38
256.59	92.38
256.823	69.38
257.056	85.38
257.289	71.38
257.521	69.38
257.754	78.38
257.987	69.38
258.22	89.38
258.452	74.38
258.685	74.38
258.918	63.38
259.151	77.38
259.383	87.38
259.616	88.38
259.849	66.38
260.081	85.38
260.314	72.38
260.547	70.38
260.779	91.38
261.012	91.38
261.244	84.38
261.477	84.38
261.71	82.38
261.942	69.38
262.175	74.38
262.407	87.38
262.64	77.38
262.872	82.38
263.105	94.38
263.337	94.38
263.57	78.38
263.802	76.38
264.035	73.38
264.267	73.38
264.499	74.38
264.732	91.38
264.964	79.38
265.197	74.38
265.429	64.38
265.661	82.38
265.894	83.38
266.126	66.38
266.358	85.38
266.591	78.38
266.823	79.38
267.055	81.38
267.287	102.38
267.52	68.38
267.752	63.38
267.984	82.38
268.216	79.38
268.448	78.38
268.681	76.38
268.913	73.38
269.145	79.38
269.377	86.38
269.609	76.38
269.841	90.38
270.073	84.38
270.306	70.38
270.538	68.38
270.77	78.38
271.002	80.38
271.234	95.38
271.466	81.38
271.698	73.38
271.93	83.38
272.162	85.38
272.394	82.38
272.626	72.38
272.858	72.38
273.09	86.38
273.322	77.38
273.553	79.38
273.785	70.38
274.017	97.38
274.249	84.38
274.481	79.38
274.713	83.38
274.945	81.38
275.176	92.38
275.408	66.38
275.64	85.38
275.872	70.38
276.104	78.38
276.335	77.38
276.567	66.38
276.799	85.38
277.031	99.38
277.262	69.38
277.494	79.38
277.726	98.38
277.957	83.38
278.189	83.38
278.421	90.38
278.652	71.38
278.884	77.38
279.115	84.38
279.347	89.38
279.579	76.38
279.81	65.38
280.042	89.38
280.273	78.38
280.505	86.38
280.736	98.38
280.968	84.38
281.199	84.38
281.431	74.38
281.662	85.38
281.894	71.38
282.125	88.38
282.356	89.38
282.588	95.38
282.819	85.38
283.051	89.38
283.282	79.38
283.513	76.38
283.745	80.38
283.976	74.38
284.207	74.38
284.439	82.38
284.67	89.38
284.901	70.38
285.132	77.38
285.364	91.38
285.595	85.38
285.826	83.38
286.057	72.38
286.288	79.38
286.52	68.38
286.751	74.38
286.982	80.38
287.213	83.38
287.444	77.38
287.675	90.38
287.906	78.38
288.138	82.38
288.369	86.38
288.6	71.38
288.831	71.38
289.062	73.38
289.293	86.38
289.524	83.38
289.755	93.38
289.986	84.38
290.217	94.38
290.448	85.38
290.679	76.38
290.91	86.38
291.141	85.38
291.371	88.38
291.602	79.38
291.833	79.38
292.064	88.38
292.295	85.38
292.526	91.38
292.757	83.38
292.987	77.38
293.218	93.38
293.449	91.38
293.68	76.38
293.91	77.38
294.141	68.38
294.372	79.38
294.603	84.38
294.833	76.38
295.064	77.38
295.295	77.38
295.525	78.38
295.756	82.38
295.987	84.38
296.217	85.38
296.448	85.38
296.679	83.38
296.909	82.38
297.14	78.38
297.37	92.38
297.601	90.38
297.831	88.38
298.062	86.38
298.292	98.38
298.523	85.38
298.753	89.38
298.984	93.38
299.214	81.38
299.445	72.38
299.675	89.38
299.905	91.38
300.136	86.38
300.366	79.38
300.597	94.38
300.827	85.38
301.057	81.38
301.288	77.38
301.518	71.38
301.748	72.38
301.979	85.38
302.209	63.38
302.439	83.38
302.669	85.38
302.9	82.38
303.13	88.38
303.36	88.38
303.59	91.38
303.82	81.38
304.051	84.38
304.281	80.38
304.511	69.38
304.741	74.38
304.971	88.38
305.201	78.38
305.431	78.38
305.661	85.38
305.891	85.38
306.121	85.38
306.352	77.38
306.582	83.38
306.812	95.38
307.042	91.38
307.272	75.38
307.502	81.38
307.731	80.38
307.961	99.38
308.191	80.38
308.421	84.38
308.651	81.38
308.881	88.38
309.111	71.38
309.341	82.38
309.571	93.38
309.8	84.38
310.03	80.38
310.26	88.38
310.49	83.38
310.72	82.38
310.949	92.38
311.179	73.38
311.409	90.38
311.639	88.38
311.868	78.38
312.098	86.38
312.328	87.38
312.557	90.38
312.787	85.38
313.017	83.38
313.246	87.38
313.476	88.38
313.706	86.38
313.935	75.38
314.165	84.38
314.394	73.38
314.624	86.38
314.853	82.38
315.083	79.38
315.312	88.38
315.542	88.38
315.771	95.38
316.001	82.38
316.23	87.38
316.46	72.38
316.689	88.38
316.919	78.38
317.148	100.38
317.377	86.38
317.607	76.38
317.836	74.38
318.065	89.38
318.295	76.38
318.524	84.38
318.753	79.38
318.983	79.38
319.212	84.38
319.441	85.38
319.67	90.38
319.9	79.38
320.129	98.38
320.358	80.38
320.587	90.38
320.816	88.38
321.046	87.38
321.275	97.38
321.504	92.38
321.733	93.38
321.962	91.38
322.191	71.38
322.42	90.38
322.649	89.38
322.878	77.38
323.108	86.38
323.337	88.38
323.566	90.38
323.795	91.38
324.024	92.38
324.253	85.38
324.482	92.38
324.71	93.38
324.939	83.38
325.168	74.38
325.397	73.38
325.626	74.38
325.855	84.38
326.084	77.38
326.313	92.38
326.542	81.38
326.77	97.38
326.999	91.38
327.228	88.38
327.457	82.38
327.686	79.38
327.914	89.38
328.143	87.38
328.372	81.38
328.6	88.38
328.829	85.38
329.058	72.38
329.287	84.38
329.515	81.38
329.744	75.38
329.972	75.38
330.201	80.38
330.43	78.38
330.658	87.38
330.887	94.38
331.115	83.38
331.344	83.38
331.572	85.38
331.801	85.38
332.03	75.38
332.258	77.38
332.486	66.38
332.715	77.38
332.943	79.38
333.172	91.38
333.4	86.38
333.629	79.38
333.857	65.38
334.085	74.38
334.314	74.38
334.542	86.38
334.771	86.38
334.999	86.38
335.227	83.38
335.455	73.38
335.684	84.38
335.912	78.38
336.14	86.38
336.369	82.38
336.597	87.38
336.825	82.38
337.053	78.38
337.281	86.38
337.51	79.38
337.738	83.38
337.966	77.38
338.194	77.38
338.422	95.38
338.65	77.38
338.878	83.38
339.106	78.38
339.334	83.38
339.562	70.38
339.79	83.38
340.018	87.38
340.246	77.38
340.474	80.38
340.702	90.38
340.93	77.38
341.158	83.38
341.386	66.38
341.614	69.38
341.842	81.38
342.07	75.38
342.298	86.38
342.526	95.38
342.754	79.38
342.981	91.38
343.209	76.38
343.437	79.38
343.665	72.38
343.893	65.38
344.12	80.38
344.348	79.38
344.576	85.38
344.804	89.38
345.031	82.38
345.259	78.38
345.487	85.38
345.714	80.38
345.942	75.38
346.17	85.38
346.397	83.38
346.625	85.38
346.853	73.38
347.08	77.38
347.308	90.38
347.535	85.38
347.763	78.38
347.99	83.38
348.218	82.38
348.445	73.38
348.673	90.38
348.9	96.38
349.128	93.38
349.355	72.38
349.583	81.38
349.81	89.38
350.037	82.38
350.265	90.38
350.492	90.38
350.72	81.38
350.947	88.38
351.174	72.38
351.402	80.38
351.629	102.38
351.856	77.38
352.083	85.38
352.311	89.38
352.538	78.38
352.765	86.38
352.992	94.38
353.22	89.38
353.447	87.38
353.674	72.38
353.901	91.38
354.128	90.38
354.355	91.38
354.583	98.38
354.81	78.38
355.037	86.38
355.264	87.38
355.491	66.38
355.718	73.38
355.945	84.38
356.172	77.38
356.399	78.38
356.626	86.38
356.853	85.38
357.08	89.38
357.307	99.38
357.534	77.38
357.761	88.38
357.988	79.38
358.215	89.38
358.441	93.38
358.668	96.38
358.895	89.38
359.122	79.38
359.349	88.38
359.576	88.38
359.802	88.38
360.029	83.38
360.256	84.38
360.483	82.38
360.709	73.38
360.936	88.38
361.163	91.38
361.39	78.38
361.616	90.38
361.843	76.38
362.07	79.38
362.296	92.38
362.523	79.38
362.749	81.38
362.976	92.38
363.203	96.38
363.429	95.38
363.656	78.38
363.882	79.38
364.109	90.38
364.335	82.38
364.562	97.38
364.788	68.38
365.015	77.38
365.241	102.38
365.468	81.38
365.694	87.38
365.92	94.38
366.147	86.38
366.373	80.38
366.599	83.38
366.826	82.38
367.052	93.38
367.278	89.38
367.505	95.38
367.731	103.38
367.957	93.38
368.184	84.38
368.41	90.38
368.636	89.38
368.862	92.38
369.089	99.38
369.315	85.38
369.541	87.38
369.767	90.38
369.993	75.38
370.219	96.38
370.445	82.38
370.672	83.38
370.898	82.38
371.124	86.38
371.35	97.38
371.576	89.38
371.802	94.38
372.028	84.38
372.254	104.38
372.48	103.38
372.706	87.38
372.932	78.38
373.158	91.38
373.384	95.38
373.61	92.38
373.835	93.38
374.061	79.38
374.287	89.38
374.513	86.38
374.739	93.38
374.965	100.38
375.191	93.38
375.416	91.38
375.642	84.38
375.868	105.38
376.094	101.38
376.319	89.38
376.545	92.38
376.771	91.38
376.997	87.38
377.222	91.38
377.448	87.38
377.674	106.38
377.899	85.38
378.125	81.38
378.35	87.38
378.576	106.38
378.802	105.38
379.027	75.38
379.253	87.38
379.478	74.38
379.704	87.38
379.929	93.38
380.155	92.38
380.38	96.38
380.606	82.38
380.831	93.38
381.057	100.38
381.282	78.38
381.507	94.38
381.733	93.38
381.958	82.38
382.184	108.38
382.409	98.38
382.634	95.38
382.86	96.38
383.085	85.38
383.31	102.38
383.535	95.38
383.761	93.38
383.986	92.38
384.211	94.38
384.436	86.38
384.662	98.38
384.887	105.38
385.112	100.38
385.337	105.38
385.562	89.38
385.787	100.38
386.013	89.38
386.238	85.38
386.463	97.38
386.688	101.38
386.913	100.38
387.138	96.38
387.363	100.38
387.588	94.38
387.813	93.38
388.038	109.38
388.263	95.38
388.488	99.38
388.713	97.38
388.938	93.38
389.163	100.38
389.387	98.38
389.612	94.38
389.837	108.38
390.062	106.38
390.287	87.38
390.512	89.38
390.736	84.38
390.961	104.38
391.186	89.38
391.411	110.38
391.636	102.38
391.86	114.38
392.085	102.38
392.31	90.38
392.534	101.38
392.759	107.38
392.984	108.38
393.208	93.38
393.433	113.38
393.658	116.38
393.882	98.38
394.107	94.38
394.331	111.38
394.556	110.38
394.78	100.38
395.005	108.38
395.229	111.38
395.454	121.38
395.678	101.38
395.903	94.38
396.127	114.38
396.352	112.38
396.576	109.38
396.801	105.38
397.025	105.38
397.249	110.38
397.474	110.38
397.698	104.38
397.922	106.38
398.147	103.38
398.371	116.38
398.595	123.38
398.82	108.38
399.044	93.38
399.268	101.38
399.492	113.38
399.717	102.38
399.941	101.38
400.165	119.38
400.389	99.38
400.613	119.38
400.837	118.38
401.062	117.38
401.286	118.38
401.51	108.38
401.734	114.38
401.958	113.38
402.182	116.38
402.406	107.38
402.63	107.38
402.854	109.38
403.078	113.38
403.302	108.38
403.526	113.38
403.75	110.38
403.974	115.38
404.198	119.38
404.422	121.38
404.645	123.38
404.869	128.38
405.093	102.38
405.317	114.38
405.541	115.38
405.765	109.38
405.988	117.38
406.212	102.38
406.436	115.38
406.66	106.38
406.883	117.38
407.107	121.38
407.331	123.38
407.555	119.38
407.778	129.38
408.002	116.38
408.226	107.38
408.449	99.38
408.673	123.38
408.896	97.38
409.12	109.38
409.344	135.38
409.567	117.38
409.791	127.38
410.014	113.38
410.238	134.38
410.461	118.38
410.685	119.38
410.908	114.38
411.132	124.38
411.355	115.38
411.578	122.38
411.802	117.38
412.025	116.38
412.249	124.38
412.472	121.38
412.695	126.38
412.919	114.38
413.142	108.38
413.365	125.38
413.589	123.38
413.812	121.38
414.035	114.38
414.258	129.38
414.482	119.38
414.705	133.38
414.928	113.38
415.151	126.38
415.374	124.38
415.597	110.38
415.821	123.38
416.044	119.38
416.267	123.38
416.49	123.38
416.713	132.38
416.936	133.38
417.159	115.38
417.382	122.38
417.605	125.38
417.828	135.38
418.051	126.38
418.274	131.38
418.497	138.38
418.72	133.38
418.943	133.38
419.166	128.38
419.389	135.38
419.611	136.38
419.834	122.38
420.057	123.38
420.28	132.38
420.503	136.38
420.726	127.38
420.948	127.38
421.171	136.38
421.394	129.38
421.617	146.38
421.839	131.38
422.062	127.38
422.285	129.38
422.507	137.38
422.73	118.38
422.953	117.38
423.175	131.38
423.398	131.38
423.621	117.38
423.843	121.38
424.066	141.38
424.288	159.38
424.511	125.38
424.733	139.38
424.956	140.38
425.178	129.38
425.401	136.38
425.623	140.38
425.846	123.38
426.068	134.38
426.291	147.38
426.513	127.38
426.735	128.38
426.958	126.38
427.18	139.38
427.402	141.38
427.625	119.38
427.847	126.38
428.069	140.38
428.292	114.38
428.514	133.38
428.736	133.38
428.958	138.38
429.181	128.38
429.403	122.38
429.625	126.38
429.847	130.38
430.069	122.38
430.292	126.38
430.514	126.38
430.736	119.38
430.958	121.38
431.18	127.38
431.402	137.38
431.624	97.38
431.846	98.38
432.068	98.38
432.29	108.38
432.512	106.38
432.734	129.38
432.956	116.38
433.178	150.38
433.4	139.38
433.622	135.38
433.844	130.38
434.066	129.38
434.287	102.38
434.509	101.38
434.731	104.38
434.953	107.38
435.175	111.38
435.397	111.38
435.618	106.38
435.84	118.38
436.062	113.38
436.284	129.38
436.505	139.38
436.727	132.38
436.949	133.38
437.17	120.38
437.392	121.38
437.614	134.38
437.835	131.38
438.057	97.38
438.278	117.38
438.5	131.38
438.721	118.38
438.943	119.38
439.165	133.38
439.386	128.38
439.608	144.38
439.829	140.38
440.05	142.38
440.272	119.38
440.493	141.38
440.715	129.38
440.936	143.38
441.158	142.38
441.379	146.38
441.6	132.38
441.822	141.38
442.043	130.38
442.264	127.38
442.486	137.38
442.707	129.38
442.928	142.38
443.149	149.38
443.371	134.38
443.592	136.38
443.813	132.38
444.034	153.38
444.255	141.38
444.476	146.38
444.698	135.38
444.919	146.38
445.14	272.38
445.361	211.38
445.582	151.38
445.803	126.38
446.024	142.38
446.245	148.38
446.466	153.38
446.687	156.38
446.908	159.38
447.129	144.38
447.35	143.38
447.571	154.38
447.792	149.38
448.013	142.38
448.234	131.38
448.455	147.38
448.675	129.38
448.896	135.38
449.117	143.38
449.338	141.38
449.559	122.38
449.779	121.38
450	139.38
450.221	150.38
450.442	129.38
450.662	141.38
450.883	119.38
451.104	116.38
451.324	130.38
451.545	122.38
451.766	125.38
451.986	133.38
452.207	128.38
452.428	130.38
452.648	119.38
452.869	127.38
453.089	127.38
453.31	110.38
453.53	109.38
453.751	102.38
453.971	119.38
454.192	89.38
454.412	104.38
454.633	123.38
454.853	118.38
455.073	122.38
455.294	115.38
455.514	108.38
455.734	128.38
455.955	108.38
456.175	114.38
456.395	115.38
456.616	113.38
456.836	111.38
457.056	111.38
457.276	110.38
457.497	115.38
457.717	119.38
457.937	105.38
458.157	111.38
458.377	88.38
458.598	95.38
458.818	93.38
459.038	83.38
459.258	95.38
459.478	78.38
459.698	85.38
459.918	76.38
460.138	102.38
460.358	125.38
460.578	137.38
460.798	118.38
461.018	123.38
461.238	109.38
461.458	113.38
461.678	102.38
461.898	108.38
462.118	121.38
462.338	121.38
462.558	122.38
462.777	114.38
462.997	98.38
463.217	107.38
463.437	115.38
463.657	97.38
463.876	104.38
464.096	119.38
464.316	113.38
464.536	106.38
464.755	117.38
464.975	124.38
465.195	121.38
465.414	107.38
465.634	120.38
465.854	121.38
466.073	118.38
466.293	120.38
466.512	134.38
466.732	136.38
466.951	133.38
467.171	129.38
467.391	121.38
467.61	128.38
467.829	118.38
468.049	141.38
468.268	120.38
468.488	126.38
468.707	150.38
468.927	151.38
469.146	122.38
469.365	145.38
469.585	135.38
469.804	136.38
470.023	134.38
470.243	129.38
470.462	155.38
470.681	143.38
470.901	146.38
471.12	151.38
471.339	148.38
471.558	146.38
471.777	138.38
471.997	128.38
472.216	131.38
472.435	125.38
472.654	113.38
472.873	100.38
473.092	129.38
473.311	122.38
473.53	130.38
473.749	139.38
473.968	133.38
474.187	103.38
474.406	113.38
474.625	113.38
474.844	134.38
475.063	125.38
475.282	121.38
475.501	114.38
475.72	135.38
475.939	127.38
476.158	121.38
476.377	130.38
476.596	135.38
476.814	110.38
477.033	103.38
477.252	122.38
477.471	133.38
477.69	122.38
477.908	138.38
478.127	124.38
478.346	143.38
478.564	131.38
478.783	131.38
479.002	146.38
479.22	140.38
479.439	133.38
479.658	125.38
479.876	101.38
480.095	122.38
480.313	117.38
480.532	107.38
480.751	103.38
480.969	73.38
481.188	83.38
481.406	97.38
481.624	92.38
481.843	85.38
482.061	96.38
482.28	117.38
482.498	117.38
482.717	123.38
482.935	114.38
483.153	131.38
483.372	151.38
483.59	145.38
483.808	127.38
484.027	117.38
484.245	130.38
484.463	147.38
484.681	161.38
484.9	142.38
485.118	127.38
485.336	117.38
485.554	125.38
485.772	106.38
485.99	108.38
486.209	122.38
486.427	125.38
486.645	127.38
486.863	142.38
487.081	138.38
487.299	131.38
487.517	124.38
487.735	155.38
487.953	175.38
488.171	182.38
488.389	173.38
488.607	145.38
488.825	143.38
489.043	153.38
489.261	124.38
489.479	141.38
489.696	142.38
489.914	124.38
490.132	120.38
490.35	142.38
490.568	167.38
490.786	179.38
491.003	163.38
491.221	185.38
491.439	164.38
491.657	193.38
491.874	176.38
492.092	206.38
492.31	239.38
492.527	234.38
492.745	204.38
492.963	182.38
493.18	171.38
493.398	178.38
493.615	174.38
493.833	156.38
494.05	158.38
494.268	174.38
494.485	181.38
494.703	175.38
494.92	166.38
495.138	160.38
495.355	180.38
495.573	164.38
495.79	158.38
496.008	155.38
496.225	182.38
496.442	149.38
496.66	167.38
496.877	166.38
497.094	151.38
497.312	152.38
497.529	153.38
497.746	135.38
497.963	132.38
498.181	125.38
498.398	129.38
498.615	121.38
498.832	109.38
499.049	107.38
499.267	115.38
499.484	126.38
499.701	129.38
499.918	139.38
500.135	142.38
500.352	148.38
500.569	150.38
500.786	135.38
501.003	147.38
501.22	141.38
501.437	145.38
501.654	129.38
501.871	126.38
502.088	119.38
502.305	120.38
502.522	125.38
502.739	132.38
502.956	117.38
503.172	117.38
503.389	122.38
503.606	118.38
503.823	122.38
504.04	119.38
504.256	118.38
504.473	120.38
504.69	108.38
504.907	125.38
505.123	115.38
505.34	123.38
505.557	124.38
505.773	130.38
505.99	129.38
506.207	125.38
506.423	121.38
506.64	116.38
506.856	122.38
507.073	125.38
507.289	102.38
507.506	110.38
507.722	124.38
507.939	119.38
508.155	120.38
508.372	110.38
508.588	111.38
508.805	106.38
509.021	94.38
509.238	112.38
509.454	101.38
509.67	95.38
509.887	91.38
510.103	86.38
510.319	98.38
510.536	90.38
510.752	92.38
510.968	85.38
511.184	77.38
511.401	82.38
511.617	101.38
511.833	98.38
512.049	102.38
512.265	113.38
512.481	100.38
512.698	98.38
512.914	103.38
513.13	102.38
513.346	90.38
513.562	92.38
513.778	77.38
513.994	95.38
514.21	93.38
514.426	81.38
514.642	97.38
514.858	89.38
515.074	87.38
515.29	89.38
515.506	69.38
515.721	84.38
515.937	81.38
516.153	80.38
516.369	86.38
516.585	100.38
516.801	83.38
517.016	79.38
517.232	83.38
517.448	96.38
517.664	82.38
517.879	102.38
518.095	87.38
518.311	83.38
518.527	105.38
518.742	101.38
518.958	96.38
519.173	103.38
519.389	101.38
519.605	119.38
519.82	106.38
520.036	117.38
520.251	104.38
520.467	102.38
520.682	106.38
520.898	95.38
521.113	93.38
521.329	80.38
521.544	76.38
521.76	70.38
521.975	85.38
522.19	87.38
522.406	96.38
522.621	114.38
522.836	110.38
523.052	92.38
523.267	91.38
523.482	102.38
523.698	105.38
523.913	124.38
524.128	106.38
524.343	103.38
524.559	123.38
524.774	107.38
524.989	135.38
525.204	127.38
525.419	107.38
525.634	105.38
525.849	106.38
526.064	108.38
526.28	111.38
526.495	91.38
526.71	87.38
526.925	84.38
527.14	75.38
527.355	81.38
527.57	79.38
527.785	93.38
527.999	93.38
528.214	88.38
528.429	123.38
528.644	122.38
528.859	127.38
529.074	137.38
529.289	169.38
529.503	156.38
529.718	141.38
529.933	126.38
530.148	106.38
530.363	94.38
530.577	67.38
530.792	85.38
531.007	81.38
531.221	77.38
531.436	74.38
531.651	93.38
531.865	79.38
532.08	79.38
532.295	102.38
532.509	86.38
532.724	83.38
532.938	81.38
533.153	101.38
533.367	129.38
533.582	119.38
533.796	132.38
534.011	111.38
534.225	90.38
534.44	95.38
534.654	92.38
534.868	100.38
535.083	99.38
535.297	109.38
535.511	91.38
535.726	93.38
535.94	89.38
536.154	97.38
536.369	88.38
536.583	100.38
536.797	85.38
537.011	86.38
537.225	79.38
537.44	90.38
537.654	96.38
537.868	91.38
538.082	85.38
538.296	82.38
538.51	101.38
538.724	102.38
538.938	105.38
539.153	125.38
539.367	97.38
539.581	107.38
539.795	108.38
540.009	104.38
540.222	103.38
540.436	105.38
540.65	119.38
540.864	115.38
541.078	130.38
541.292	157.38
541.506	170.38
541.72	173.38
541.934	180.38
542.147	202.38
542.361	191.38
542.575	159.38
542.789	139.38
543.002	134.38
543.216	137.38
543.43	129.38
543.644	147.38
543.857	135.38
544.071	146.38
544.285	163.38
544.498	168.38
544.712	169.38
544.925	161.38
545.139	155.38
545.352	163.38
545.566	154.38
545.779	152.38
545.993	155.38
546.206	182.38
546.42	151.38
546.633	167.38
546.847	161.38
547.06	162.38
547.274	180.38
547.487	161.38
547.7	163.38
547.914	151.38
548.127	161.38
548.34	168.38
548.554	159.38
548.767	161.38
548.98	138.38
549.193	140.38
549.407	140.38
549.62	141.38
549.833	166.38
550.046	161.38
550.259	145.38
550.473	134.38
550.686	142.38
550.899	143.38
551.112	137.38
551.325	126.38
551.538	107.38
551.751	123.38
551.964	113.38
552.177	129.38
552.39	127.38
552.603	140.38
552.816	144.38
553.029	147.38
553.242	171.38
553.455	150.38
553.667	155.38
553.88	140.38
554.093	147.38
554.306	156.38
554.519	158.38
554.732	149.38
554.944	142.38
555.157	129.38
555.37	141.38
555.583	136.38
555.795	142.38
556.008	124.38
556.221	137.38
556.433	131.38
556.646	131.38
556.859	138.38
557.071	134.38
557.284	149.38
557.496	137.38
557.709	143.38
557.921	133.38
558.134	129.38
558.346	149.38
558.559	129.38
558.771	137.38
558.984	134.38
559.196	135.38
559.409	126.38
559.621	140.38
559.833	138.38
560.046	129.38
560.258	137.38
560.47	131.38
560.683	129.38
560.895	129.38
561.107	140.38
561.32	127.38
561.532	139.38
561.744	131.38
561.956	125.38
562.168	123.38
562.381	128.38
562.593	132.38
562.805	129.38
563.017	118.38
563.229	131.38
563.441	118.38
563.653	122.38
563.865	129.38
564.077	121.38
564.289	119.38
564.501	123.38
564.713	120.38
564.925	124.38
565.137	121.38
565.349	114.38
565.561	114.38
565.773	119.38
565.985	111.38
566.197	123.38
566.408	108.38
566.62	109.38
566.832	116.38
567.044	112.38
567.255	115.38
567.467	115.38
567.679	101.38
567.891	112.38
568.102	99.38
568.314	97.38
568.526	90.38
568.737	94.38
568.949	87.38
569.161	73.38
569.372	94.38
569.584	86.38
569.795	75.38
570.007	89.38
570.218	70.38
570.43	92.38
570.641	101.38
570.853	98.38
571.064	99.38
571.276	110.38
571.487	106.38
571.698	103.38
571.91	116.38
572.121	97.38
572.333	97.38
572.544	79.38
572.755	103.38
572.966	95.38
573.178	83.38
573.389	94.38
573.6	68.38
573.811	75.38
574.023	79.38
574.234	86.38
574.445	88.38
574.656	71.38
574.867	98.38
575.078	92.38
575.289	94.38
575.501	98.38
575.712	97.38
575.923	106.38
576.134	106.38
576.345	108.38
576.556	105.38
576.767	97.38
576.978	98.38
577.188	95.38
577.399	85.38
577.61	90.38
577.821	89.38
578.032	77.38
578.243	83.38
578.454	91.38
578.665	110.38
578.875	81.38
579.086	95.38
579.297	85.38
579.508	90.38
579.718	87.38
579.929	89.38
580.14	93.38
580.35	94.38
580.561	84.38
580.772	79.38
580.982	94.38
581.193	105.38
581.403	99.38
581.614	98.38
581.825	95.38
582.035	93.38
582.246	81.38
582.456	101.38
582.667	91.38
582.877	102.38
583.087	78.38
583.298	88.38
583.508	86.38
583.719	70.38
583.929	83.38
584.139	83.38
584.35	88.38
584.56	87.38
584.77	87.38
584.981	91.38
585.191	90.38
585.401	89.38
585.611	81.38
585.821	93.38
586.032	102.38
586.242	80.38
586.452	86.38
586.662	85.38
586.872	85.38
587.082	85.38
587.292	76.38
587.502	84.38
587.713	86.38
587.923	84.38
588.133	94.38
588.343	72.38
588.553	82.38
588.762	92.38
588.972	93.38
589.182	68.38
589.392	69.38
589.602	82.38
589.812	75.38
590.022	86.38
590.232	94.38
590.441	91.38
590.651	90.38
590.861	85.38
591.071	85.38
591.281	77.38
591.49	91.38
591.7	93.38
591.91	73.38
592.119	84.38
592.329	85.38
592.539	78.38
592.748	86.38
592.958	86.38
593.167	98.38
593.377	88.38
593.587	96.38
593.796	89.38
594.006	79.38
594.215	80.38
594.424	107.38
594.634	98.38
594.843	98.38
595.053	87.38
595.262	78.38
595.472	83.38
595.681	87.38
595.89	98.38
596.1	85.38
596.309	92.38
596.518	85.38
596.727	105.38
596.937	94.38
597.146	87.38
597.355	97.38
597.564	73.38
597.774	86.38
597.983	97.38
598.192	97.38
598.401	94.38
598.61	90.38
598.819	77.38
599.028	83.38
599.237	86.38
599.446	93.38
599.655	86.38
599.864	101.38
600.073	83.38
600.282	85.38
600.491	85.38
600.7	101.38
600.909	84.38
601.118	93.38
601.327	106.38
601.536	100.38
601.745	92.38
601.953	106.38
602.162	95.38
602.371	117.38
602.58	113.38
602.789	89.38
602.997	102.38
603.206	114.38
603.415	105.38
603.623	107.38
603.832	101.38
604.041	101.38
604.249	97.38
604.458	78.38
604.666	94.38
604.875	94.38
605.084	113.38
605.292	99.38
605.501	113.38
605.709	110.38
605.918	98.38
606.126	110.38
606.334	104.38
606.543	109.38
606.751	114.38
606.96	119.38
607.168	105.38
607.376	114.38
607.585	123.38
607.793	127.38
608.001	113.38
608.21	111.38
608.418	108.38
608.626	106.38
608.834	107.38
609.043	130.38
609.251	119.38
609.459	110.38
609.667	101.38
609.875	116.38
610.083	118.38
610.291	116.38
610.499	115.38
610.707	113.38
610.916	108.38
611.124	116.38
611.332	124.38
611.54	118.38
611.748	116.38
611.955	116.38
612.163	117.38
612.371	105.38
612.579	111.38
612.787	118.38
612.995	110.38
613.203	107.38
613.411	115.38
613.618	108.38
613.826	110.38
614.034	113.38
614.242	121.38
614.449	102.38
614.657	121.38
614.865	117.38
615.072	117.38
615.28	118.38
615.488	100.38
615.695	101.38
615.903	109.38
616.111	101.38
616.318	119.38
616.526	103.38
616.733	108.38
616.941	114.38
617.148	109.38
617.356	97.38
617.563	109.38
617.771	91.38
617.978	94.38
618.185	86.38
618.393	109.38
618.6	110.38
618.807	121.38
619.015	108.38
619.222	106.38
619.429	92.38
619.637	116.38
619.844	93.38
620.051	105.38
620.258	102.38
620.466	110.38
620.673	97.38
620.88	115.38
621.087	120.38
621.294	107.38
621.501	119.38
621.708	101.38
621.915	94.38
622.122	90.38
622.329	115.38
622.536	102.38
622.743	105.38
622.95	100.38
623.157	98.38
623.364	96.38
623.571	105.38
623.778	102.38
623.985	95.38
624.192	104.38
624.399	111.38
624.606	109.38
624.812	102.38
625.019	94.38
625.226	108.38
625.433	107.38
625.639	106.38
625.846	95.38
626.053	85.38
626.259	98.38
626.466	104.38
626.673	89.38
626.879	95.38
627.086	99.38
627.293	108.38
627.499	92.38
627.706	110.38
627.912	98.38
628.119	96.38
628.325	98.38
628.532	113.38
628.738	99.38
628.945	114.38
629.151	105.38
629.357	103.38
629.564	96.38
629.77	89.38
629.976	98.38
630.183	98.38
630.389	97.38
630.595	93.38
630.802	102.38
631.008	98.38
631.214	120.38
631.42	108.38
631.627	108.38
631.833	103.38
632.039	80.38
632.245	97.38
632.451	104.38
632.657	106.38
632.863	93.38
633.069	100.38
633.275	101.38
633.481	104.38
633.688	96.38
633.893	94.38
634.099	102.38
634.305	101.38
634.511	89.38
634.717	110.38
634.923	97.38
635.129	81.38
635.335	98.38
635.541	85.38
635.747	111.38
635.952	105.38
636.158	98.38
636.364	103.38
636.57	93.38
636.775	84.38
636.981	91.38
637.187	94.38
637.392	97.38
637.598	105.38
637.804	103.38
638.009	101.38
638.215	99.38
638.421	94.38
638.626	97.38
638.832	112.38
639.037	90.38
639.243	86.38
639.448	93.38
639.654	101.38
639.859	114.38
640.065	101.38
640.27	109.38
640.475	98.38
640.681	94.38
640.886	93.38
641.091	94.38
641.297	98.38
641.502	90.38
641.707	95.38
641.913	102.38
642.118	110.38
642.323	116.38
642.528	110.38
642.733	80.38
642.939	91.38
643.144	97.38
643.349	95.38
643.554	108.38
643.759	81.38
643.964	93.38
644.169	99.38
644.374	102.38
644.579	96.38
644.784	102.38
644.989	92.38
645.194	100.38
645.399	102.38
645.604	102.38
645.809	103.38
646.014	120.38
646.219	99.38
646.423	93.38
646.628	94.38
646.833	89.38
647.038	97.38
647.243	88.38
647.447	86.38
647.652	104.38
647.857	107.38
648.062	101.38
648.266	99.38
648.471	99.38
648.676	93.38
648.88	100.38
649.085	92.38
649.289	93.38
649.494	101.38
649.698	88.38
649.903	89.38
650.107	94.38
650.312	99.38
650.516	94.38
650.721	102.38
650.925	89.38
651.13	90.38
651.334	93.38
651.539	84.38
651.743	88.38
651.947	86.38
652.152	87.38
652.356	89.38
652.56	97.38
652.764	99.38
652.969	98.38
653.173	94.38
653.377	97.38
653.581	74.38
653.785	84.38
653.99	94.38
654.194	107.38
654.398	87.38
654.602	90.38
654.806	95.38
655.01	97.38
655.214	77.38
655.418	81.38
655.622	93.38
655.826	85.38
656.03	89.38
656.234	89.38
656.438	84.38
656.642	67.38
656.846	84.38
657.049	84.38
657.253	94.38
657.457	101.38
657.661	84.38
657.865	81.38
658.068	85.38
658.272	98.38
658.476	81.38
658.68	77.38
658.883	96.38
659.087	84.38
659.291	100.38
659.494	87.38
659.698	99.38
659.901	91.38
660.105	85.38
660.309	85.38
660.512	79.38
660.716	87.38
660.919	75.38
661.123	82.38
661.326	85.38
661.53	82.38
661.733	88.38
661.936	82.38
662.14	85.38
662.343	81.38
662.546	75.38
662.75	84.38
662.953	73.38
663.156	87.38
663.36	77.38
663.563	78.38
663.766	76.38
663.969	67.38
664.173	87.38
664.376	81.38
664.579	89.38
664.782	73.38
664.985	74.38
665.188	89.38
665.391	78.38
665.594	88.38
665.797	78.38
666	73.38
666.203	82.38
666.406	81.38
666.609	84.38
666.812	88.38
667.015	58.38
667.218	86.38
667.421	76.38
667.624	79.38
667.827	88.38
668.03	79.38
668.232	92.38
668.435	85.38
668.638	80.38
668.841	81.38
669.043	85.38
669.246	85.38
669.449	86.38
669.651	78.38
669.854	82.38
670.057	89.38
670.259	92.38
670.462	84.38
670.665	81.38
670.867	89.38
671.07	85.38
671.272	80.38
671.475	71.38
671.677	80.38
671.88	73.38
672.082	76.38
672.284	84.38
672.487	80.38
672.689	81.38
672.892	74.38
