Data from Location1.07152019.Energy5.Lamp.07192019.3%Agarose_HRD10591_14-30-43-015.txt Node
Date: Fri Jul 19 14:30:43 EDT 2019
User: cochatt
Spectrometer: HR+D1059
Trigger mode: 1
Integration Time (sec): 1.000000E-1
Scans to average: 1
Electric dark correction enabled: true
Nonlinearity correction enabled: false
Boxcar width: 0
XAxis mode: Wavelengths
Number of Pixels in Spectrum: 2048
>>>>>Begin Spectral Data<<<<<
223.165	-14.94
223.4	-14.94
223.635	-14.94
223.869	-20.94
224.104	0.06
224.338	-10.94
224.573	-18.94
224.808	-4.94
225.042	-8.94
225.277	2.06
225.511	-17.94
225.746	7.06
225.98	7.06
226.215	15.06
226.449	5.06
226.683	11.06
226.918	23.06
227.152	27.06
227.387	33.06
227.621	36.06
227.856	48.06
228.09	51.06
228.324	45.06
228.559	48.06
228.793	74.06
229.027	56.06
229.262	62.06
229.496	65.06
229.73	53.06
229.964	73.06
230.199	81.06
230.433	77.06
230.667	82.06
230.901	78.06
231.136	83.06
231.37	77.06
231.604	78.06
231.838	71.06
232.072	88.06
232.306	87.06
232.541	89.06
232.775	91.06
233.009	80.06
233.243	78.06
233.477	80.06
233.711	74.06
233.945	81.06
234.179	83.06
234.413	83.06
234.647	83.06
234.881	92.06
235.115	88.06
235.349	81.06
235.583	83.06
235.817	77.06
236.051	81.06
236.285	79.06
236.519	94.06
236.753	85.06
236.987	86.06
237.221	86.06
237.455	80.06
237.689	79.06
237.922	74.06
238.156	75.06
238.39	90.06
238.624	75.06
238.858	83.06
239.091	82.06
239.325	67.06
239.559	83.06
239.793	92.06
240.027	91.06
240.26	76.06
240.494	90.06
240.728	78.06
240.961	83.06
241.195	85.06
241.429	89.06
241.662	75.06
241.896	84.06
242.13	79.06
242.363	68.06
242.597	75.06
242.83	74.06
243.064	70.06
243.298	88.06
243.531	71.06
243.765	85.06
243.998	97.06
244.232	87.06
244.465	92.06
244.699	70.06
244.932	73.06
245.166	75.06
245.399	81.06
245.633	82.06
245.866	85.06
246.099	84.06
246.333	80.06
246.566	94.06
246.8	83.06
247.033	86.06
247.266	92.06
247.5	87.06
247.733	91.06
247.966	79.06
248.2	81.06
248.433	72.06
248.666	81.06
248.899	75.06
249.133	80.06
249.366	96.06
249.599	91.06
249.832	79.06
250.066	71.06
250.299	93.06
250.532	85.06
250.765	80.06
250.998	76.06
251.231	94.06
251.465	86.06
251.698	85.06
251.931	87.06
252.164	80.06
252.397	87.06
252.63	83.06
252.863	80.06
253.096	79.06
253.329	79.06
253.562	78.06
253.795	73.06
254.028	80.06
254.261	77.06
254.494	77.06
254.727	101.06
254.96	82.06
255.193	71.06
255.426	97.06
255.659	70.06
255.892	85.06
256.124	82.06
256.357	72.06
256.59	79.06
256.823	75.06
257.056	87.06
257.289	88.06
257.521	78.06
257.754	77.06
257.987	101.06
258.22	86.06
258.452	74.06
258.685	80.06
258.918	72.06
259.151	82.06
259.383	85.06
259.616	69.06
259.849	95.06
260.081	84.06
260.314	72.06
260.547	66.06
260.779	82.06
261.012	81.06
261.244	83.06
261.477	76.06
261.71	90.06
261.942	93.06
262.175	95.06
262.407	75.06
262.64	84.06
262.872	84.06
263.105	78.06
263.337	96.06
263.57	84.06
263.802	88.06
264.035	78.06
264.267	81.06
264.499	94.06
264.732	81.06
264.964	97.06
265.197	88.06
265.429	80.06
265.661	81.06
265.894	96.06
266.126	88.06
266.358	88.06
266.591	92.06
266.823	81.06
267.055	77.06
267.287	74.06
267.52	84.06
267.752	85.06
267.984	86.06
268.216	88.06
268.448	94.06
268.681	97.06
268.913	91.06
269.145	87.06
269.377	82.06
269.609	82.06
269.841	69.06
270.073	83.06
270.306	83.06
270.538	91.06
270.77	85.06
271.002	96.06
271.234	95.06
271.466	88.06
271.698	94.06
271.93	76.06
272.162	73.06
272.394	90.06
272.626	91.06
272.858	81.06
273.09	87.06
273.322	86.06
273.553	100.06
273.785	86.06
274.017	87.06
274.249	99.06
274.481	78.06
274.713	101.06
274.945	87.06
275.176	79.06
275.408	87.06
275.64	83.06
275.872	85.06
276.104	91.06
276.335	90.06
276.567	89.06
276.799	82.06
277.031	85.06
277.262	83.06
277.494	83.06
277.726	97.06
277.957	79.06
278.189	75.06
278.421	86.06
278.652	79.06
278.884	85.06
279.115	88.06
279.347	93.06
279.579	88.06
279.81	75.06
280.042	94.06
280.273	77.06
280.505	89.06
280.736	82.06
280.968	76.06
281.199	96.06
281.431	88.06
281.662	97.06
281.894	90.06
282.125	86.06
282.356	96.06
282.588	90.06
282.819	89.06
283.051	89.06
283.282	97.06
283.513	96.06
283.745	82.06
283.976	89.06
284.207	83.06
284.439	88.06
284.67	80.06
284.901	92.06
285.132	86.06
285.364	93.06
285.595	101.06
285.826	91.06
286.057	87.06
286.288	92.06
286.52	88.06
286.751	87.06
286.982	98.06
287.213	90.06
287.444	83.06
287.675	86.06
287.906	92.06
288.138	87.06
288.369	87.06
288.6	90.06
288.831	85.06
289.062	101.06
289.293	91.06
289.524	79.06
289.755	93.06
289.986	87.06
290.217	80.06
290.448	87.06
290.679	82.06
290.91	103.06
291.141	89.06
291.371	90.06
291.602	85.06
291.833	85.06
292.064	89.06
292.295	93.06
292.526	82.06
292.757	101.06
292.987	87.06
293.218	80.06
293.449	99.06
293.68	81.06
293.91	81.06
294.141	94.06
294.372	75.06
294.603	89.06
294.833	78.06
295.064	89.06
295.295	91.06
295.525	92.06
295.756	73.06
295.987	94.06
296.217	95.06
296.448	86.06
296.679	109.06
296.909	91.06
297.14	93.06
297.37	113.06
297.601	91.06
297.831	78.06
298.062	97.06
298.292	82.06
298.523	101.06
298.753	92.06
298.984	82.06
299.214	96.06
299.445	94.06
299.675	90.06
299.905	94.06
300.136	82.06
300.366	87.06
300.597	79.06
300.827	88.06
301.057	89.06
301.288	98.06
301.518	82.06
301.748	94.06
301.979	98.06
302.209	82.06
302.439	87.06
302.669	91.06
302.9	99.06
303.13	82.06
303.36	85.06
303.59	80.06
303.82	85.06
304.051	94.06
304.281	89.06
304.511	80.06
304.741	87.06
304.971	86.06
305.201	105.06
305.431	95.06
305.661	85.06
305.891	87.06
306.121	91.06
306.352	85.06
306.582	92.06
306.812	110.06
307.042	75.06
307.272	81.06
307.502	80.06
307.731	84.06
307.961	90.06
308.191	95.06
308.421	66.06
308.651	73.06
308.881	93.06
309.111	73.06
309.341	90.06
309.571	83.06
309.8	75.06
310.03	87.06
310.26	101.06
310.49	82.06
310.72	82.06
310.949	83.06
311.179	89.06
311.409	97.06
311.639	80.06
311.868	99.06
312.098	86.06
312.328	93.06
312.557	89.06
312.787	82.06
313.017	93.06
313.246	92.06
313.476	89.06
313.706	93.06
313.935	86.06
314.165	94.06
314.394	83.06
314.624	96.06
314.853	89.06
315.083	86.06
315.312	94.06
315.542	100.06
315.771	65.06
316.001	88.06
316.23	81.06
316.46	89.06
316.689	78.06
316.919	98.06
317.148	87.06
317.377	88.06
317.607	61.06
317.836	93.06
318.065	106.06
318.295	88.06
318.524	83.06
318.753	101.06
318.983	94.06
319.212	84.06
319.441	91.06
319.67	94.06
319.9	93.06
320.129	94.06
320.358	79.06
320.587	90.06
320.816	93.06
321.046	89.06
321.275	77.06
321.504	81.06
321.733	103.06
321.962	79.06
322.191	85.06
322.42	104.06
322.649	101.06
322.878	89.06
323.108	92.06
323.337	94.06
323.566	82.06
323.795	93.06
324.024	89.06
324.253	94.06
324.482	97.06
324.71	85.06
324.939	90.06
325.168	87.06
325.397	92.06
325.626	87.06
325.855	88.06
326.084	89.06
326.313	89.06
326.542	86.06
326.77	90.06
326.999	90.06
327.228	88.06
327.457	78.06
327.686	76.06
327.914	100.06
328.143	96.06
328.372	86.06
328.6	81.06
328.829	86.06
329.058	99.06
329.287	93.06
329.515	94.06
329.744	95.06
329.972	89.06
330.201	87.06
330.43	96.06
330.658	86.06
330.887	87.06
331.115	79.06
331.344	93.06
331.572	93.06
331.801	95.06
332.03	91.06
332.258	81.06
332.486	64.06
332.715	80.06
332.943	87.06
333.172	81.06
333.4	90.06
333.629	94.06
333.857	87.06
334.085	86.06
334.314	95.06
334.542	91.06
334.771	87.06
334.999	99.06
335.227	103.06
335.455	98.06
335.684	93.06
335.912	86.06
336.14	77.06
336.369	74.06
336.597	83.06
336.825	88.06
337.053	87.06
337.281	84.06
337.51	79.06
337.738	89.06
337.966	89.06
338.194	95.06
338.422	83.06
338.65	94.06
338.878	89.06
339.106	88.06
339.334	87.06
339.562	75.06
339.79	75.06
340.018	83.06
340.246	80.06
340.474	97.06
340.702	78.06
340.93	97.06
341.158	91.06
341.386	85.06
341.614	89.06
341.842	91.06
342.07	83.06
342.298	78.06
342.526	82.06
342.754	89.06
342.981	98.06
343.209	78.06
343.437	86.06
343.665	90.06
343.893	100.06
344.12	91.06
344.348	81.06
344.576	86.06
344.804	87.06
345.031	81.06
345.259	90.06
345.487	83.06
345.714	85.06
345.942	90.06
346.17	82.06
346.397	93.06
346.625	86.06
346.853	83.06
347.08	101.06
347.308	96.06
347.535	87.06
347.763	87.06
347.99	84.06
348.218	79.06
348.445	96.06
348.673	87.06
348.9	88.06
349.128	99.06
349.355	93.06
349.583	80.06
349.81	80.06
350.037	71.06
350.265	93.06
350.492	81.06
350.72	96.06
350.947	103.06
351.174	87.06
351.402	90.06
351.629	91.06
351.856	76.06
352.083	91.06
352.311	88.06
352.538	84.06
352.765	82.06
352.992	87.06
353.22	95.06
353.447	88.06
353.674	86.06
353.901	81.06
354.128	80.06
354.355	84.06
354.583	93.06
354.81	83.06
355.037	87.06
355.264	91.06
355.491	89.06
355.718	78.06
355.945	95.06
356.172	95.06
356.399	83.06
356.626	83.06
356.853	77.06
357.08	74.06
357.307	82.06
357.534	98.06
357.761	76.06
357.988	86.06
358.215	91.06
358.441	76.06
358.668	69.06
358.895	96.06
359.122	71.06
359.349	97.06
359.576	77.06
359.802	100.06
360.029	92.06
360.256	92.06
360.483	93.06
360.709	96.06
360.936	88.06
361.163	99.06
361.39	94.06
361.616	75.06
361.843	87.06
362.07	79.06
362.296	99.06
362.523	79.06
362.749	77.06
362.976	78.06
363.203	81.06
363.429	91.06
363.656	72.06
363.882	80.06
364.109	89.06
364.335	101.06
364.562	88.06
364.788	81.06
365.015	91.06
365.241	83.06
365.468	84.06
365.694	87.06
365.92	61.06
366.147	92.06
366.373	89.06
366.599	83.06
366.826	78.06
367.052	90.06
367.278	81.06
367.505	106.06
367.731	92.06
367.957	95.06
368.184	92.06
368.41	99.06
368.636	89.06
368.862	89.06
369.089	94.06
369.315	89.06
369.541	94.06
369.767	77.06
369.993	90.06
370.219	85.06
370.445	95.06
370.672	85.06
370.898	94.06
371.124	91.06
371.35	82.06
371.576	95.06
371.802	100.06
372.028	102.06
372.254	94.06
372.48	99.06
372.706	81.06
372.932	98.06
373.158	78.06
373.384	101.06
373.61	102.06
373.835	106.06
374.061	90.06
374.287	87.06
374.513	83.06
374.739	83.06
374.965	92.06
375.191	90.06
375.416	93.06
375.642	94.06
375.868	91.06
376.094	104.06
376.319	87.06
376.545	94.06
376.771	97.06
376.997	94.06
377.222	95.06
377.448	87.06
377.674	96.06
377.899	103.06
378.125	98.06
378.35	100.06
378.576	97.06
378.802	97.06
379.027	104.06
379.253	99.06
379.478	83.06
379.704	84.06
379.929	101.06
380.155	115.06
380.38	88.06
380.606	112.06
380.831	112.06
381.057	106.06
381.282	104.06
381.507	93.06
381.733	87.06
381.958	101.06
382.184	101.06
382.409	94.06
382.634	96.06
382.86	90.06
383.085	99.06
383.31	95.06
383.535	104.06
383.761	97.06
383.986	105.06
384.211	97.06
384.436	107.06
384.662	101.06
384.887	96.06
385.112	96.06
385.337	104.06
385.562	113.06
385.787	109.06
386.013	96.06
386.238	114.06
386.463	109.06
386.688	103.06
386.913	96.06
387.138	108.06
387.363	112.06
387.588	111.06
387.813	104.06
388.038	108.06
388.263	96.06
388.488	114.06
388.713	99.06
388.938	117.06
389.163	101.06
389.387	113.06
389.612	100.06
389.837	108.06
390.062	108.06
390.287	115.06
390.512	93.06
390.736	100.06
390.961	110.06
391.186	101.06
391.411	112.06
391.636	126.06
391.86	96.06
392.085	106.06
392.31	105.06
392.534	115.06
392.759	109.06
392.984	104.06
393.208	102.06
393.433	97.06
393.658	112.06
393.882	112.06
394.107	112.06
394.331	100.06
394.556	93.06
394.78	124.06
395.005	95.06
395.229	100.06
395.454	112.06
395.678	109.06
395.903	123.06
396.127	121.06
396.352	110.06
396.576	116.06
396.801	114.06
397.025	97.06
397.249	110.06
397.474	109.06
397.698	109.06
397.922	105.06
398.147	112.06
398.371	102.06
398.595	121.06
398.82	119.06
399.044	107.06
399.268	107.06
399.492	121.06
399.717	126.06
399.941	107.06
400.165	111.06
400.389	123.06
400.613	107.06
400.837	110.06
401.062	106.06
401.286	104.06
401.51	106.06
401.734	122.06
401.958	119.06
402.182	120.06
402.406	108.06
402.63	125.06
402.854	129.06
403.078	118.06
403.302	119.06
403.526	123.06
403.75	112.06
403.974	109.06
404.198	122.06
404.422	117.06
404.645	119.06
404.869	128.06
405.093	120.06
405.317	133.06
405.541	128.06
405.765	119.06
405.988	118.06
406.212	135.06
406.436	111.06
406.66	121.06
406.883	133.06
407.107	124.06
407.331	114.06
407.555	121.06
407.778	114.06
408.002	121.06
408.226	121.06
408.449	110.06
408.673	117.06
408.896	107.06
409.12	119.06
409.344	123.06
409.567	123.06
409.791	114.06
410.014	129.06
410.238	123.06
410.461	124.06
410.685	122.06
410.908	119.06
411.132	121.06
411.355	124.06
411.578	141.06
411.802	126.06
412.025	126.06
412.249	135.06
412.472	128.06
412.695	107.06
412.919	119.06
413.142	121.06
413.365	116.06
413.589	137.06
413.812	134.06
414.035	141.06
414.258	113.06
414.482	119.06
414.705	123.06
414.928	126.06
415.151	115.06
415.374	125.06
415.597	123.06
415.821	131.06
416.044	150.06
416.267	122.06
416.49	122.06
416.713	136.06
416.936	131.06
417.159	123.06
417.382	128.06
417.605	125.06
417.828	125.06
418.051	127.06
418.274	126.06
418.497	133.06
418.72	130.06
418.943	148.06
419.166	130.06
419.389	137.06
419.611	147.06
419.834	137.06
420.057	130.06
420.28	125.06
420.503	137.06
420.726	129.06
420.948	134.06
421.171	127.06
421.394	136.06
421.617	137.06
421.839	147.06
422.062	139.06
422.285	143.06
422.507	138.06
422.73	137.06
422.953	131.06
423.175	154.06
423.398	127.06
423.621	125.06
423.843	138.06
424.066	140.06
424.288	129.06
424.511	139.06
424.733	141.06
424.956	127.06
425.178	136.06
425.401	146.06
425.623	151.06
425.846	137.06
426.068	126.06
426.291	133.06
426.513	118.06
426.735	138.06
426.958	140.06
427.18	133.06
427.402	135.06
427.625	135.06
427.847	138.06
428.069	127.06
428.292	122.06
428.514	138.06
428.736	136.06
428.958	135.06
429.181	143.06
429.403	126.06
429.625	120.06
429.847	139.06
430.069	135.06
430.292	128.06
430.514	128.06
430.736	128.06
430.958	134.06
431.18	131.06
431.402	126.06
431.624	118.06
431.846	118.06
432.068	86.06
432.29	103.06
432.512	123.06
432.734	115.06
432.956	129.06
433.178	143.06
433.4	136.06
433.622	164.06
433.844	141.06
434.066	131.06
434.287	118.06
434.509	103.06
434.731	97.06
434.953	102.06
435.175	113.06
435.397	139.06
435.618	119.06
435.84	121.06
436.062	128.06
436.284	119.06
436.505	122.06
436.727	131.06
436.949	144.06
437.17	117.06
437.392	129.06
437.614	122.06
437.835	115.06
438.057	135.06
438.278	117.06
438.5	114.06
438.721	137.06
438.943	137.06
439.165	136.06
439.386	123.06
439.608	148.06
439.829	146.06
440.05	147.06
440.272	148.06
440.493	138.06
440.715	141.06
440.936	134.06
441.158	138.06
441.379	153.06
441.6	145.06
441.822	159.06
442.043	144.06
442.264	139.06
442.486	137.06
442.707	141.06
442.928	127.06
443.149	147.06
443.371	142.06
443.592	137.06
443.813	139.06
444.034	137.06
444.255	130.06
444.476	131.06
444.698	149.06
444.919	136.06
445.14	248.06
445.361	193.06
445.582	139.06
445.803	137.06
446.024	152.06
446.245	165.06
446.466	154.06
446.687	151.06
446.908	165.06
447.129	153.06
447.35	151.06
447.571	149.06
447.792	149.06
448.013	150.06
448.234	142.06
448.455	137.06
448.675	147.06
448.896	155.06
449.117	147.06
449.338	138.06
449.559	145.06
449.779	126.06
450	140.06
450.221	128.06
450.442	130.06
450.662	138.06
450.883	141.06
451.104	143.06
451.324	132.06
451.545	133.06
451.766	134.06
451.986	139.06
452.207	131.06
452.428	121.06
452.648	130.06
452.869	122.06
453.089	124.06
453.31	127.06
453.53	110.06
453.751	103.06
453.971	106.06
454.192	110.06
454.412	104.06
454.633	106.06
454.853	128.06
455.073	142.06
455.294	127.06
455.514	122.06
455.734	130.06
455.955	130.06
456.175	111.06
456.395	114.06
456.616	117.06
456.836	114.06
457.056	100.06
457.276	110.06
457.497	113.06
457.717	106.06
457.937	128.06
458.157	106.06
458.377	114.06
458.598	112.06
458.818	113.06
459.038	113.06
459.258	101.06
459.478	91.06
459.698	97.06
459.918	106.06
460.138	103.06
460.358	122.06
460.578	127.06
460.798	130.06
461.018	127.06
461.238	118.06
461.458	117.06
461.678	118.06
461.898	120.06
462.118	117.06
462.338	131.06
462.558	111.06
462.777	104.06
462.997	113.06
463.217	117.06
463.437	110.06
463.657	112.06
463.876	121.06
464.096	120.06
464.316	113.06
464.536	110.06
464.755	121.06
464.975	121.06
465.195	125.06
465.414	128.06
465.634	127.06
465.854	119.06
466.073	129.06
466.293	137.06
466.512	128.06
466.732	132.06
466.951	129.06
467.171	109.06
467.391	129.06
467.61	124.06
467.829	136.06
468.049	147.06
468.268	125.06
468.488	121.06
468.707	137.06
468.927	149.06
469.146	129.06
469.365	145.06
469.585	129.06
469.804	146.06
470.023	136.06
470.243	144.06
470.462	155.06
470.681	155.06
470.901	128.06
471.12	136.06
471.339	152.06
471.558	130.06
471.777	135.06
471.997	139.06
472.216	125.06
472.435	129.06
472.654	126.06
472.873	115.06
473.092	129.06
473.311	137.06
473.53	130.06
473.749	128.06
473.968	128.06
474.187	118.06
474.406	121.06
474.625	125.06
474.844	130.06
475.063	152.06
475.282	120.06
475.501	123.06
475.72	120.06
475.939	123.06
476.158	136.06
476.377	125.06
476.596	123.06
476.814	117.06
477.033	90.06
477.252	125.06
477.471	123.06
477.69	147.06
477.908	136.06
478.127	125.06
478.346	147.06
478.564	136.06
478.783	137.06
479.002	138.06
479.22	142.06
479.439	122.06
479.658	111.06
479.876	111.06
480.095	122.06
480.313	123.06
480.532	120.06
480.751	111.06
480.969	91.06
481.188	100.06
481.406	90.06
481.624	102.06
481.843	105.06
482.061	110.06
482.28	101.06
482.498	121.06
482.717	125.06
482.935	128.06
483.153	139.06
483.372	159.06
483.59	162.06
483.808	156.06
484.027	120.06
484.245	146.06
484.463	147.06
484.681	161.06
484.9	143.06
485.118	134.06
485.336	125.06
485.554	119.06
485.772	117.06
485.99	101.06
486.209	113.06
486.427	94.06
486.645	115.06
486.863	136.06
487.081	147.06
487.299	139.06
487.517	147.06
487.735	191.06
487.953	200.06
488.171	189.06
488.389	165.06
488.607	151.06
488.825	150.06
489.043	128.06
489.261	140.06
489.479	137.06
489.696	124.06
489.914	131.06
490.132	143.06
490.35	135.06
490.568	165.06
490.786	169.06
491.003	159.06
491.221	176.06
491.439	192.06
491.657	175.06
491.874	195.06
492.092	218.06
492.31	239.06
492.527	226.06
492.745	203.06
492.963	198.06
493.18	185.06
493.398	207.06
493.615	187.06
493.833	176.06
494.05	173.06
494.268	165.06
494.485	173.06
494.703	160.06
494.92	164.06
495.138	166.06
495.355	170.06
495.573	154.06
495.79	173.06
496.008	180.06
496.225	164.06
496.442	173.06
496.66	172.06
496.877	169.06
497.094	166.06
497.312	171.06
497.529	174.06
497.746	157.06
497.963	138.06
498.181	148.06
498.398	134.06
498.615	122.06
498.832	130.06
499.049	107.06
499.267	125.06
499.484	124.06
499.701	131.06
499.918	141.06
500.135	130.06
500.352	137.06
500.569	148.06
500.786	139.06
501.003	143.06
501.22	142.06
501.437	138.06
501.654	128.06
501.871	143.06
502.088	126.06
502.305	132.06
502.522	126.06
502.739	139.06
502.956	132.06
503.172	127.06
503.389	127.06
503.606	127.06
503.823	124.06
504.04	111.06
504.256	127.06
504.473	124.06
504.69	127.06
504.907	133.06
505.123	121.06
505.34	122.06
505.557	138.06
505.773	127.06
505.99	112.06
506.207	127.06
506.423	126.06
506.64	127.06
506.856	132.06
507.073	133.06
507.289	122.06
507.506	130.06
507.722	105.06
507.939	110.06
508.155	109.06
508.372	125.06
508.588	113.06
508.805	123.06
509.021	116.06
509.238	118.06
509.454	111.06
509.67	121.06
509.887	96.06
510.103	105.06
510.319	93.06
510.536	97.06
510.752	92.06
510.968	100.06
511.184	89.06
511.401	98.06
511.617	92.06
511.833	106.06
512.049	98.06
512.265	97.06
512.481	101.06
512.698	101.06
512.914	101.06
513.13	99.06
513.346	99.06
513.562	107.06
513.778	104.06
513.994	103.06
514.21	100.06
514.426	104.06
514.642	90.06
514.858	96.06
515.074	83.06
515.29	96.06
515.506	96.06
515.721	100.06
515.937	99.06
516.153	90.06
516.369	86.06
516.585	83.06
516.801	80.06
517.016	87.06
517.232	101.06
517.448	99.06
517.664	97.06
517.879	99.06
518.095	108.06
518.311	96.06
518.527	90.06
518.742	101.06
518.958	109.06
519.173	111.06
519.389	106.06
519.605	111.06
519.82	110.06
520.036	107.06
520.251	107.06
520.467	114.06
520.682	107.06
520.898	108.06
521.113	102.06
521.329	95.06
521.544	105.06
521.76	91.06
521.975	106.06
522.19	97.06
522.406	112.06
522.621	109.06
522.836	115.06
523.052	105.06
523.267	93.06
523.482	119.06
523.698	110.06
523.913	120.06
524.128	115.06
524.343	102.06
524.559	114.06
524.774	128.06
524.989	127.06
525.204	127.06
525.419	117.06
525.634	119.06
525.849	118.06
526.064	106.06
526.28	114.06
526.495	103.06
526.71	103.06
526.925	79.06
527.14	90.06
527.355	85.06
527.57	94.06
527.785	106.06
527.999	95.06
528.214	98.06
528.429	127.06
528.644	125.06
528.859	142.06
529.074	151.06
529.289	161.06
529.503	158.06
529.718	141.06
529.933	124.06
530.148	122.06
530.363	106.06
530.577	93.06
530.792	94.06
531.007	87.06
531.221	90.06
531.436	100.06
531.651	99.06
531.865	93.06
532.08	84.06
532.295	91.06
532.509	78.06
532.724	90.06
532.938	99.06
533.153	100.06
533.367	117.06
533.582	107.06
533.796	122.06
534.011	122.06
534.225	103.06
534.44	109.06
534.654	86.06
534.868	93.06
535.083	112.06
535.297	114.06
535.511	106.06
535.726	113.06
535.94	99.06
536.154	97.06
536.369	97.06
536.583	86.06
536.797	95.06
537.011	96.06
537.225	93.06
537.44	87.06
537.654	100.06
537.868	111.06
538.082	88.06
538.296	88.06
538.51	102.06
538.724	117.06
538.938	115.06
539.153	128.06
539.367	130.06
539.581	128.06
539.795	104.06
540.009	92.06
540.222	104.06
540.436	93.06
540.65	106.06
540.864	111.06
541.078	139.06
541.292	145.06
541.506	171.06
541.72	182.06
541.934	189.06
542.147	193.06
542.361	185.06
542.575	147.06
542.789	145.06
543.002	134.06
543.216	131.06
543.43	138.06
543.644	127.06
543.857	143.06
544.071	158.06
544.285	158.06
544.498	162.06
544.712	151.06
544.925	159.06
545.139	161.06
545.352	150.06
545.566	149.06
545.779	158.06
545.993	162.06
546.206	162.06
546.42	167.06
546.633	158.06
546.847	169.06
547.06	159.06
547.274	176.06
547.487	183.06
547.7	181.06
547.914	157.06
548.127	176.06
548.34	160.06
548.554	154.06
548.767	145.06
548.98	163.06
549.193	147.06
549.407	160.06
549.62	156.06
549.833	142.06
550.046	163.06
550.259	157.06
550.473	168.06
550.686	159.06
550.899	153.06
551.112	155.06
551.325	145.06
551.538	126.06
551.751	135.06
551.964	130.06
552.177	133.06
552.39	139.06
552.603	140.06
552.816	153.06
553.029	175.06
553.242	152.06
553.455	170.06
553.667	161.06
553.88	146.06
554.093	159.06
554.306	150.06
554.519	160.06
554.732	143.06
554.944	149.06
555.157	143.06
555.37	136.06
555.583	130.06
555.795	143.06
556.008	145.06
556.221	145.06
556.433	137.06
556.646	141.06
556.859	158.06
557.071	137.06
557.284	151.06
557.496	139.06
557.709	137.06
557.921	129.06
558.134	147.06
558.346	148.06
558.559	142.06
558.771	137.06
558.984	140.06
559.196	143.06
559.409	145.06
559.621	141.06
559.833	114.06
560.046	133.06
560.258	129.06
560.47	128.06
560.683	138.06
560.895	132.06
561.107	129.06
561.32	138.06
561.532	141.06
561.744	131.06
561.956	125.06
562.168	127.06
562.381	131.06
562.593	123.06
562.805	134.06
563.017	126.06
563.229	127.06
563.441	132.06
563.653	121.06
563.865	119.06
564.077	133.06
564.289	124.06
564.501	120.06
564.713	131.06
564.925	123.06
565.137	121.06
565.349	114.06
565.561	119.06
565.773	134.06
565.985	127.06
566.197	129.06
566.408	123.06
566.62	126.06
566.832	117.06
567.044	126.06
567.255	126.06
567.467	116.06
567.679	117.06
567.891	100.06
568.102	98.06
568.314	103.06
568.526	89.06
568.737	104.06
568.949	88.06
569.161	76.06
569.372	80.06
569.584	80.06
569.795	86.06
570.007	86.06
570.218	86.06
570.43	107.06
570.641	103.06
570.853	96.06
571.064	115.06
571.276	110.06
571.487	101.06
571.698	117.06
571.91	104.06
572.121	105.06
572.333	97.06
572.544	96.06
572.755	95.06
572.966	100.06
573.178	104.06
573.389	111.06
573.6	94.06
573.811	81.06
574.023	95.06
574.234	106.06
574.445	89.06
574.656	84.06
574.867	95.06
575.078	103.06
575.289	101.06
575.501	102.06
575.712	107.06
575.923	106.06
576.134	100.06
576.345	96.06
576.556	101.06
576.767	107.06
576.978	105.06
577.188	90.06
577.399	100.06
577.61	99.06
577.821	91.06
578.032	98.06
578.243	101.06
578.454	105.06
578.665	97.06
578.875	103.06
579.086	76.06
579.297	81.06
579.508	75.06
579.718	89.06
579.929	91.06
580.14	82.06
580.35	81.06
580.561	88.06
580.772	104.06
580.982	101.06
581.193	107.06
581.403	98.06
581.614	103.06
581.825	95.06
582.035	94.06
582.246	90.06
582.456	98.06
582.667	92.06
582.877	91.06
583.087	110.06
583.298	103.06
583.508	101.06
583.719	91.06
583.929	90.06
584.139	76.06
584.35	100.06
584.56	90.06
584.77	97.06
584.981	92.06
585.191	95.06
585.401	89.06
585.611	93.06
585.821	100.06
586.032	87.06
586.242	92.06
586.452	97.06
586.662	80.06
586.872	83.06
587.082	101.06
587.292	82.06
587.502	92.06
587.713	90.06
587.923	83.06
588.133	79.06
588.343	87.06
588.553	79.06
588.762	103.06
588.972	89.06
589.182	74.06
589.392	82.06
589.602	72.06
589.812	88.06
590.022	90.06
590.232	91.06
590.441	92.06
590.651	82.06
590.861	92.06
591.071	85.06
591.281	87.06
591.49	80.06
591.7	92.06
591.91	83.06
592.119	89.06
592.329	87.06
592.539	90.06
592.748	85.06
592.958	83.06
593.167	105.06
593.377	87.06
593.587	77.06
593.796	94.06
594.006	89.06
594.215	95.06
594.424	97.06
594.634	108.06
594.843	104.06
595.053	81.06
595.262	89.06
595.472	94.06
595.681	99.06
595.89	95.06
596.1	103.06
596.309	93.06
596.518	85.06
596.727	98.06
596.937	89.06
597.146	94.06
597.355	87.06
597.564	97.06
597.774	88.06
597.983	101.06
598.192	95.06
598.401	103.06
598.61	86.06
598.819	109.06
599.028	93.06
599.237	97.06
599.446	106.06
599.655	91.06
599.864	91.06
600.073	97.06
600.282	98.06
600.491	105.06
600.7	105.06
600.909	103.06
601.118	106.06
601.327	100.06
601.536	109.06
601.745	106.06
601.953	115.06
602.162	119.06
602.371	113.06
602.58	117.06
602.789	97.06
602.997	114.06
603.206	110.06
603.415	94.06
603.623	105.06
603.832	97.06
604.041	107.06
604.249	106.06
604.458	98.06
604.666	90.06
604.875	102.06
605.084	108.06
605.292	105.06
605.501	105.06
605.709	122.06
605.918	111.06
606.126	127.06
606.334	111.06
606.543	103.06
606.751	123.06
606.96	109.06
607.168	109.06
607.376	101.06
607.585	112.06
607.793	115.06
608.001	110.06
608.21	126.06
608.418	119.06
608.626	117.06
608.834	122.06
609.043	127.06
609.251	118.06
609.459	110.06
609.667	121.06
609.875	108.06
610.083	119.06
610.291	106.06
610.499	110.06
610.707	111.06
610.916	123.06
611.124	108.06
611.332	106.06
611.54	110.06
611.748	128.06
611.955	110.06
612.163	122.06
612.371	121.06
612.579	112.06
612.787	125.06
612.995	97.06
613.203	117.06
613.411	115.06
613.618	106.06
613.826	105.06
614.034	105.06
614.242	118.06
614.449	113.06
614.657	117.06
614.865	117.06
615.072	122.06
615.28	111.06
615.488	111.06
615.695	104.06
615.903	118.06
616.111	114.06
616.318	102.06
616.526	111.06
616.733	110.06
616.941	119.06
617.148	107.06
617.356	121.06
617.563	119.06
617.771	104.06
617.978	103.06
618.185	112.06
618.393	107.06
618.6	107.06
618.807	119.06
619.015	111.06
619.222	99.06
619.429	117.06
619.637	112.06
619.844	115.06
620.051	111.06
620.258	103.06
620.466	108.06
620.673	101.06
620.88	105.06
621.087	111.06
621.294	119.06
621.501	109.06
621.708	117.06
621.915	100.06
622.122	115.06
622.329	106.06
622.536	117.06
622.743	96.06
622.95	117.06
623.157	117.06
623.364	106.06
623.571	106.06
623.778	113.06
623.985	111.06
624.192	120.06
624.399	111.06
624.606	121.06
624.812	115.06
625.019	90.06
625.226	110.06
625.433	102.06
625.639	103.06
625.846	104.06
626.053	96.06
626.259	99.06
626.466	107.06
626.673	89.06
626.879	104.06
627.086	103.06
627.293	105.06
627.499	118.06
627.706	101.06
627.912	107.06
628.119	109.06
628.325	105.06
628.532	100.06
628.738	122.06
628.945	109.06
629.151	107.06
629.357	105.06
629.564	104.06
629.77	108.06
629.976	111.06
630.183	86.06
630.389	103.06
630.595	107.06
630.802	122.06
631.008	108.06
631.214	96.06
631.42	123.06
631.627	116.06
631.833	103.06
632.039	100.06
632.245	100.06
632.451	107.06
632.657	108.06
632.863	95.06
633.069	95.06
633.275	98.06
633.481	95.06
633.688	98.06
633.893	114.06
634.099	110.06
634.305	89.06
634.511	111.06
634.717	87.06
634.923	89.06
635.129	104.06
635.335	117.06
635.541	105.06
635.747	101.06
635.952	94.06
636.158	96.06
636.364	94.06
636.57	89.06
636.775	82.06
636.981	109.06
637.187	101.06
637.392	109.06
637.598	108.06
637.804	109.06
638.009	103.06
638.215	108.06
638.421	100.06
638.626	102.06
638.832	110.06
639.037	94.06
639.243	91.06
639.448	110.06
639.654	106.06
639.859	110.06
640.065	103.06
640.27	102.06
640.475	101.06
640.681	106.06
640.886	105.06
641.091	102.06
641.297	114.06
641.502	98.06
641.707	107.06
641.913	96.06
642.118	93.06
642.323	103.06
642.528	103.06
642.733	112.06
642.939	98.06
643.144	87.06
643.349	105.06
643.554	113.06
643.759	105.06
643.964	110.06
644.169	100.06
644.374	98.06
644.579	108.06
644.784	93.06
644.989	106.06
645.194	97.06
645.399	99.06
645.604	94.06
645.809	101.06
646.014	104.06
646.219	88.06
646.423	100.06
646.628	91.06
646.833	80.06
647.038	107.06
647.243	104.06
647.447	104.06
647.652	102.06
647.857	113.06
648.062	103.06
648.266	82.06
648.471	98.06
648.676	109.06
648.88	94.06
649.085	101.06
649.289	103.06
649.494	102.06
649.698	93.06
649.903	97.06
650.107	80.06
650.312	96.06
650.516	97.06
650.721	91.06
650.925	104.06
651.13	95.06
651.334	105.06
651.539	106.06
651.743	87.06
651.947	108.06
652.152	90.06
652.356	93.06
652.56	94.06
652.764	101.06
652.969	89.06
653.173	93.06
653.377	102.06
653.581	106.06
653.785	100.06
653.99	104.06
654.194	89.06
654.398	94.06
654.602	105.06
654.806	93.06
655.01	93.06
655.214	100.06
655.418	88.06
655.622	84.06
655.826	102.06
656.03	98.06
656.234	87.06
656.438	90.06
656.642	75.06
656.846	86.06
657.049	93.06
657.253	88.06
657.457	86.06
657.661	98.06
657.865	90.06
658.068	89.06
658.272	93.06
658.476	88.06
658.68	103.06
658.883	101.06
659.087	94.06
659.291	94.06
659.494	89.06
659.698	95.06
659.901	101.06
660.105	90.06
660.309	82.06
660.512	98.06
660.716	97.06
660.919	87.06
661.123	96.06
661.326	80.06
661.53	81.06
661.733	73.06
661.936	92.06
662.14	72.06
662.343	80.06
662.546	75.06
662.75	89.06
662.953	86.06
663.156	88.06
663.36	75.06
663.563	94.06
663.766	76.06
663.969	75.06
664.173	78.06
664.376	81.06
664.579	98.06
664.782	82.06
664.985	78.06
665.188	81.06
665.391	91.06
665.594	84.06
665.797	81.06
666	75.06
666.203	85.06
666.406	90.06
666.609	98.06
666.812	78.06
667.015	79.06
667.218	80.06
667.421	87.06
667.624	96.06
667.827	88.06
668.03	83.06
668.232	78.06
668.435	76.06
668.638	89.06
668.841	81.06
669.043	89.06
669.246	94.06
669.449	86.06
669.651	83.06
669.854	91.06
670.057	75.06
670.259	95.06
670.462	101.06
670.665	90.06
670.867	92.06
671.07	93.06
671.272	85.06
671.475	91.06
671.677	86.06
671.88	86.06
672.082	81.06
672.284	90.06
672.487	76.06
672.689	73.06
672.892	77.06
