Data from Location1.07152019.Energy5.Lamp.07192019.3%Agarose_HRD10591_14-31-56-015.txt Node
Date: Fri Jul 19 14:31:56 EDT 2019
User: cochatt
Spectrometer: HR+D1059
Trigger mode: 1
Integration Time (sec): 1.000000E-1
Scans to average: 1
Electric dark correction enabled: true
Nonlinearity correction enabled: false
Boxcar width: 0
XAxis mode: Wavelengths
Number of Pixels in Spectrum: 2048
>>>>>Begin Spectral Data<<<<<
223.165	-22.12
223.4	-22.12
223.635	-22.12
223.869	-13.12
224.104	-24.12
224.338	-28.12
224.573	-16.12
224.808	-12.12
225.042	0.88
225.277	-5.12
225.511	-5.12
225.746	10.88
225.98	15.88
226.215	11.88
226.449	12.88
226.683	17.88
226.918	20.88
227.152	34.88
227.387	24.88
227.621	35.88
227.856	61.88
228.09	32.88
228.324	38.88
228.559	53.88
228.793	50.88
229.027	60.88
229.262	48.88
229.496	61.88
229.73	63.88
229.964	81.88
230.199	60.88
230.433	57.88
230.667	75.88
230.901	74.88
231.136	71.88
231.37	77.88
231.604	73.88
231.838	86.88
232.072	78.88
232.306	68.88
232.541	80.88
232.775	79.88
233.009	77.88
233.243	81.88
233.477	72.88
233.711	70.88
233.945	79.88
234.179	78.88
234.413	89.88
234.647	69.88
234.881	78.88
235.115	76.88
235.349	72.88
235.583	68.88
235.817	80.88
236.051	66.88
236.285	75.88
236.519	64.88
236.753	92.88
236.987	68.88
237.221	72.88
237.455	65.88
237.689	86.88
237.922	76.88
238.156	68.88
238.39	70.88
238.624	75.88
238.858	83.88
239.091	71.88
239.325	73.88
239.559	61.88
239.793	77.88
240.027	82.88
240.26	72.88
240.494	90.88
240.728	78.88
240.961	68.88
241.195	84.88
241.429	75.88
241.662	75.88
241.896	78.88
242.13	71.88
242.363	77.88
242.597	61.88
242.83	77.88
243.064	77.88
243.298	69.88
243.531	76.88
243.765	65.88
243.998	78.88
244.232	66.88
244.465	69.88
244.699	77.88
244.932	78.88
245.166	56.88
245.399	82.88
245.633	76.88
245.866	93.88
246.099	77.88
246.333	87.88
246.566	78.88
246.8	74.88
247.033	66.88
247.266	78.88
247.5	69.88
247.733	74.88
247.966	85.88
248.2	74.88
248.433	88.88
248.666	76.88
248.899	67.88
249.133	85.88
249.366	76.88
249.599	78.88
249.832	68.88
250.066	84.88
250.299	78.88
250.532	82.88
250.765	64.88
250.998	74.88
251.231	91.88
251.465	91.88
251.698	81.88
251.931	89.88
252.164	63.88
252.397	77.88
252.63	77.88
252.863	72.88
253.096	73.88
253.329	85.88
253.562	81.88
253.795	75.88
254.028	82.88
254.261	88.88
254.494	85.88
254.727	80.88
254.96	74.88
255.193	69.88
255.426	88.88
255.659	64.88
255.892	95.88
256.124	76.88
256.357	94.88
256.59	75.88
256.823	77.88
257.056	75.88
257.289	68.88
257.521	86.88
257.754	71.88
257.987	72.88
258.22	66.88
258.452	86.88
258.685	76.88
258.918	76.88
259.151	92.88
259.383	79.88
259.616	71.88
259.849	79.88
260.081	82.88
260.314	76.88
260.547	80.88
260.779	76.88
261.012	71.88
261.244	81.88
261.477	70.88
261.71	81.88
261.942	87.88
262.175	87.88
262.407	69.88
262.64	88.88
262.872	81.88
263.105	85.88
263.337	81.88
263.57	74.88
263.802	84.88
264.035	81.88
264.267	83.88
264.499	67.88
264.732	75.88
264.964	76.88
265.197	77.88
265.429	76.88
265.661	85.88
265.894	88.88
266.126	82.88
266.358	93.88
266.591	90.88
266.823	80.88
267.055	72.88
267.287	79.88
267.52	81.88
267.752	81.88
267.984	80.88
268.216	76.88
268.448	77.88
268.681	68.88
268.913	82.88
269.145	72.88
269.377	76.88
269.609	75.88
269.841	87.88
270.073	80.88
270.306	73.88
270.538	66.88
270.77	82.88
271.002	84.88
271.234	73.88
271.466	70.88
271.698	56.88
271.93	77.88
272.162	83.88
272.394	97.88
272.626	72.88
272.858	76.88
273.09	79.88
273.322	69.88
273.553	79.88
273.785	69.88
274.017	76.88
274.249	82.88
274.481	67.88
274.713	72.88
274.945	84.88
275.176	86.88
275.408	82.88
275.64	81.88
275.872	74.88
276.104	79.88
276.335	77.88
276.567	90.88
276.799	78.88
277.031	85.88
277.262	85.88
277.494	92.88
277.726	77.88
277.957	74.88
278.189	83.88
278.421	78.88
278.652	76.88
278.884	85.88
279.115	75.88
279.347	89.88
279.579	78.88
279.81	89.88
280.042	82.88
280.273	80.88
280.505	84.88
280.736	74.88
280.968	75.88
281.199	78.88
281.431	75.88
281.662	81.88
281.894	96.88
282.125	92.88
282.356	80.88
282.588	77.88
282.819	81.88
283.051	92.88
283.282	79.88
283.513	79.88
283.745	86.88
283.976	92.88
284.207	84.88
284.439	80.88
284.67	74.88
284.901	83.88
285.132	72.88
285.364	78.88
285.595	84.88
285.826	82.88
286.057	82.88
286.288	82.88
286.52	84.88
286.751	85.88
286.982	82.88
287.213	84.88
287.444	77.88
287.675	89.88
287.906	70.88
288.138	73.88
288.369	84.88
288.6	90.88
288.831	78.88
289.062	80.88
289.293	93.88
289.524	77.88
289.755	81.88
289.986	84.88
290.217	82.88
290.448	76.88
290.679	90.88
290.91	77.88
291.141	73.88
291.371	94.88
291.602	70.88
291.833	82.88
292.064	84.88
292.295	75.88
292.526	79.88
292.757	61.88
292.987	84.88
293.218	101.88
293.449	86.88
293.68	78.88
293.91	81.88
294.141	96.88
294.372	84.88
294.603	80.88
294.833	92.88
295.064	75.88
295.295	92.88
295.525	83.88
295.756	85.88
295.987	81.88
296.217	83.88
296.448	78.88
296.679	77.88
296.909	74.88
297.14	77.88
297.37	87.88
297.601	85.88
297.831	75.88
298.062	84.88
298.292	77.88
298.523	91.88
298.753	77.88
298.984	82.88
299.214	86.88
299.445	97.88
299.675	92.88
299.905	82.88
300.136	86.88
300.366	79.88
300.597	72.88
300.827	78.88
301.057	75.88
301.288	76.88
301.518	81.88
301.748	96.88
301.979	86.88
302.209	86.88
302.439	81.88
302.669	78.88
302.9	78.88
303.13	82.88
303.36	77.88
303.59	78.88
303.82	84.88
304.051	71.88
304.281	103.88
304.511	86.88
304.741	75.88
304.971	82.88
305.201	80.88
305.431	97.88
305.661	86.88
305.891	81.88
306.121	80.88
306.352	91.88
306.582	69.88
306.812	92.88
307.042	82.88
307.272	96.88
307.502	78.88
307.731	86.88
307.961	90.88
308.191	80.88
308.421	93.88
308.651	79.88
308.881	81.88
309.111	80.88
309.341	92.88
309.571	77.88
309.8	89.88
310.03	83.88
310.26	91.88
310.49	85.88
310.72	86.88
310.949	80.88
311.179	86.88
311.409	92.88
311.639	77.88
311.868	91.88
312.098	80.88
312.328	79.88
312.557	86.88
312.787	71.88
313.017	90.88
313.246	77.88
313.476	99.88
313.706	82.88
313.935	93.88
314.165	87.88
314.394	77.88
314.624	71.88
314.853	72.88
315.083	84.88
315.312	84.88
315.542	70.88
315.771	81.88
316.001	79.88
316.23	89.88
316.46	97.88
316.689	84.88
316.919	71.88
317.148	70.88
317.377	100.88
317.607	77.88
317.836	89.88
318.065	84.88
318.295	85.88
318.524	89.88
318.753	91.88
318.983	84.88
319.212	87.88
319.441	78.88
319.67	92.88
319.9	77.88
320.129	78.88
320.358	85.88
320.587	82.88
320.816	83.88
321.046	90.88
321.275	84.88
321.504	90.88
321.733	105.88
321.962	71.88
322.191	70.88
322.42	71.88
322.649	83.88
322.878	75.88
323.108	76.88
323.337	71.88
323.566	76.88
323.795	76.88
324.024	77.88
324.253	84.88
324.482	67.88
324.71	91.88
324.939	75.88
325.168	95.88
325.397	90.88
325.626	77.88
325.855	83.88
326.084	87.88
326.313	78.88
326.542	77.88
326.77	85.88
326.999	72.88
327.228	87.88
327.457	86.88
327.686	84.88
327.914	98.88
328.143	81.88
328.372	84.88
328.6	74.88
328.829	85.88
329.058	88.88
329.287	87.88
329.515	96.88
329.744	81.88
329.972	89.88
330.201	91.88
330.43	100.88
330.658	82.88
330.887	99.88
331.115	72.88
331.344	75.88
331.572	85.88
331.801	99.88
332.03	84.88
332.258	78.88
332.486	64.88
332.715	93.88
332.943	74.88
333.172	76.88
333.4	84.88
333.629	84.88
333.857	78.88
334.085	89.88
334.314	95.88
334.542	85.88
334.771	87.88
334.999	84.88
335.227	82.88
335.455	75.88
335.684	80.88
335.912	91.88
336.14	83.88
336.369	80.88
336.597	99.88
336.825	87.88
337.053	82.88
337.281	83.88
337.51	86.88
337.738	64.88
337.966	85.88
338.194	75.88
338.422	74.88
338.65	94.88
338.878	80.88
339.106	85.88
339.334	94.88
339.562	87.88
339.79	91.88
340.018	85.88
340.246	77.88
340.474	92.88
340.702	76.88
340.93	79.88
341.158	84.88
341.386	91.88
341.614	77.88
341.842	73.88
342.07	86.88
342.298	80.88
342.526	81.88
342.754	90.88
342.981	84.88
343.209	80.88
343.437	92.88
343.665	76.88
343.893	86.88
344.12	88.88
344.348	86.88
344.576	72.88
344.804	72.88
345.031	108.88
345.259	82.88
345.487	77.88
345.714	96.88
345.942	90.88
346.17	80.88
346.397	78.88
346.625	82.88
346.853	80.88
347.08	77.88
347.308	92.88
347.535	91.88
347.763	79.88
347.99	88.88
348.218	82.88
348.445	93.88
348.673	98.88
348.9	80.88
349.128	86.88
349.355	81.88
349.583	85.88
349.81	76.88
350.037	90.88
350.265	81.88
350.492	93.88
350.72	82.88
350.947	70.88
351.174	81.88
351.402	74.88
351.629	96.88
351.856	92.88
352.083	93.88
352.311	78.88
352.538	92.88
352.765	97.88
352.992	83.88
353.22	95.88
353.447	70.88
353.674	74.88
353.901	83.88
354.128	86.88
354.355	87.88
354.583	88.88
354.81	91.88
355.037	85.88
355.264	73.88
355.491	73.88
355.718	74.88
355.945	88.88
356.172	93.88
356.399	84.88
356.626	78.88
356.853	94.88
357.08	89.88
357.307	76.88
357.534	87.88
357.761	76.88
357.988	82.88
358.215	91.88
358.441	85.88
358.668	67.88
358.895	81.88
359.122	76.88
359.349	97.88
359.576	75.88
359.802	78.88
360.029	83.88
360.256	74.88
360.483	76.88
360.709	96.88
360.936	89.88
361.163	89.88
361.39	68.88
361.616	88.88
361.843	77.88
362.07	73.88
362.296	84.88
362.523	69.88
362.749	75.88
362.976	84.88
363.203	68.88
363.429	77.88
363.656	86.88
363.882	76.88
364.109	87.88
364.335	83.88
364.562	84.88
364.788	74.88
365.015	91.88
365.241	77.88
365.468	85.88
365.694	81.88
365.92	86.88
366.147	82.88
366.373	78.88
366.599	103.88
366.826	88.88
367.052	92.88
367.278	84.88
367.505	88.88
367.731	69.88
367.957	77.88
368.184	78.88
368.41	75.88
368.636	81.88
368.862	89.88
369.089	86.88
369.315	84.88
369.541	88.88
369.767	92.88
369.993	85.88
370.219	77.88
370.445	77.88
370.672	91.88
370.898	92.88
371.124	83.88
371.35	77.88
371.576	76.88
371.802	91.88
372.028	87.88
372.254	97.88
372.48	82.88
372.706	96.88
372.932	97.88
373.158	84.88
373.384	98.88
373.61	87.88
373.835	96.88
374.061	104.88
374.287	87.88
374.513	82.88
374.739	101.88
374.965	97.88
375.191	101.88
375.416	88.88
375.642	96.88
375.868	101.88
376.094	89.88
376.319	99.88
376.545	92.88
376.771	106.88
376.997	86.88
377.222	91.88
377.448	86.88
377.674	80.88
377.899	88.88
378.125	87.88
378.35	86.88
378.576	85.88
378.802	84.88
379.027	85.88
379.253	83.88
379.478	93.88
379.704	83.88
379.929	90.88
380.155	90.88
380.38	90.88
380.606	83.88
380.831	89.88
381.057	99.88
381.282	92.88
381.507	104.88
381.733	102.88
381.958	102.88
382.184	95.88
382.409	80.88
382.634	87.88
382.86	87.88
383.085	102.88
383.31	93.88
383.535	103.88
383.761	98.88
383.986	106.88
384.211	89.88
384.436	85.88
384.662	88.88
384.887	96.88
385.112	104.88
385.337	97.88
385.562	100.88
385.787	99.88
386.013	114.88
386.238	94.88
386.463	93.88
386.688	88.88
386.913	89.88
387.138	78.88
387.363	91.88
387.588	102.88
387.813	113.88
388.038	98.88
388.263	102.88
388.488	99.88
388.713	95.88
388.938	103.88
389.163	85.88
389.387	91.88
389.612	96.88
389.837	98.88
390.062	103.88
390.287	107.88
390.512	108.88
390.736	106.88
390.961	107.88
391.186	107.88
391.411	102.88
391.636	109.88
391.86	89.88
392.085	93.88
392.31	93.88
392.534	94.88
392.759	118.88
392.984	108.88
393.208	103.88
393.433	117.88
393.658	116.88
393.882	105.88
394.107	112.88
394.331	107.88
394.556	112.88
394.78	100.88
395.005	101.88
395.229	115.88
395.454	110.88
395.678	112.88
395.903	109.88
396.127	109.88
396.352	98.88
396.576	78.88
396.801	118.88
397.025	101.88
397.249	110.88
397.474	92.88
397.698	104.88
397.922	109.88
398.147	100.88
398.371	108.88
398.595	113.88
398.82	112.88
399.044	122.88
399.268	116.88
399.492	113.88
399.717	106.88
399.941	98.88
400.165	108.88
400.389	112.88
400.613	115.88
400.837	113.88
401.062	108.88
401.286	111.88
401.51	95.88
401.734	95.88
401.958	119.88
402.182	114.88
402.406	110.88
402.63	101.88
402.854	116.88
403.078	120.88
403.302	105.88
403.526	120.88
403.75	122.88
403.974	100.88
404.198	106.88
404.422	121.88
404.645	99.88
404.869	115.88
405.093	120.88
405.317	114.88
405.541	100.88
405.765	105.88
405.988	123.88
406.212	114.88
406.436	118.88
406.66	128.88
406.883	99.88
407.107	110.88
407.331	116.88
407.555	118.88
407.778	107.88
408.002	116.88
408.226	129.88
408.449	122.88
408.673	126.88
408.896	114.88
409.12	121.88
409.344	108.88
409.567	114.88
409.791	120.88
410.014	122.88
410.238	122.88
410.461	125.88
410.685	120.88
410.908	120.88
411.132	130.88
411.355	126.88
411.578	96.88
411.802	122.88
412.025	114.88
412.249	106.88
412.472	113.88
412.695	118.88
412.919	117.88
413.142	137.88
413.365	127.88
413.589	103.88
413.812	112.88
414.035	106.88
414.258	112.88
414.482	118.88
414.705	121.88
414.928	120.88
415.151	131.88
415.374	120.88
415.597	126.88
415.821	120.88
416.044	118.88
416.267	134.88
416.49	120.88
416.713	124.88
416.936	124.88
417.159	126.88
417.382	125.88
417.605	114.88
417.828	133.88
418.051	126.88
418.274	124.88
418.497	128.88
418.72	125.88
418.943	121.88
419.166	137.88
419.389	130.88
419.611	129.88
419.834	126.88
420.057	125.88
420.28	134.88
420.503	127.88
420.726	131.88
420.948	145.88
421.171	129.88
421.394	130.88
421.617	132.88
421.839	123.88
422.062	132.88
422.285	133.88
422.507	116.88
422.73	142.88
422.953	121.88
423.175	120.88
423.398	122.88
423.621	129.88
423.843	125.88
424.066	128.88
424.288	136.88
424.511	133.88
424.733	144.88
424.956	122.88
425.178	127.88
425.401	150.88
425.623	139.88
425.846	128.88
426.068	132.88
426.291	122.88
426.513	116.88
426.735	134.88
426.958	125.88
427.18	122.88
427.402	134.88
427.625	120.88
427.847	111.88
428.069	120.88
428.292	127.88
428.514	132.88
428.736	119.88
428.958	138.88
429.181	119.88
429.403	117.88
429.625	129.88
429.847	125.88
430.069	131.88
430.292	130.88
430.514	118.88
430.736	125.88
430.958	129.88
431.18	125.88
431.402	110.88
431.624	113.88
431.846	100.88
432.068	92.88
432.29	100.88
432.512	105.88
432.734	125.88
432.956	127.88
433.178	114.88
433.4	135.88
433.622	149.88
433.844	139.88
434.066	121.88
434.287	97.88
434.509	92.88
434.731	92.88
434.953	105.88
435.175	104.88
435.397	114.88
435.618	112.88
435.84	94.88
436.062	104.88
436.284	111.88
436.505	133.88
436.727	134.88
436.949	134.88
437.17	135.88
437.392	127.88
437.614	119.88
437.835	108.88
438.057	115.88
438.278	124.88
438.5	115.88
438.721	139.88
438.943	123.88
439.165	134.88
439.386	142.88
439.608	137.88
439.829	132.88
440.05	143.88
440.272	132.88
440.493	140.88
440.715	129.88
440.936	141.88
441.158	154.88
441.379	149.88
441.6	145.88
441.822	141.88
442.043	130.88
442.264	141.88
442.486	137.88
442.707	153.88
442.928	134.88
443.149	115.88
443.371	125.88
443.592	113.88
443.813	140.88
444.034	144.88
444.255	123.88
444.476	148.88
444.698	134.88
444.919	138.88
445.14	280.88
445.361	198.88
445.582	156.88
445.803	135.88
446.024	150.88
446.245	152.88
446.466	161.88
446.687	148.88
446.908	148.88
447.129	149.88
447.35	148.88
447.571	139.88
447.792	128.88
448.013	138.88
448.234	140.88
448.455	141.88
448.675	143.88
448.896	150.88
449.117	128.88
449.338	140.88
449.559	134.88
449.779	131.88
450	128.88
450.221	121.88
450.442	131.88
450.662	130.88
450.883	124.88
451.104	138.88
451.324	116.88
451.545	118.88
451.766	137.88
451.986	134.88
452.207	120.88
452.428	131.88
452.648	118.88
452.869	115.88
453.089	107.88
453.31	107.88
453.53	107.88
453.751	100.88
453.971	100.88
454.192	120.88
454.412	109.88
454.633	112.88
454.853	116.88
455.073	123.88
455.294	130.88
455.514	125.88
455.734	107.88
455.955	106.88
456.175	106.88
456.395	143.88
456.616	114.88
456.836	109.88
457.056	112.88
457.276	94.88
457.497	104.88
457.717	92.88
457.937	124.88
458.157	104.88
458.377	98.88
458.598	104.88
458.818	90.88
459.038	93.88
459.258	104.88
459.478	81.88
459.698	78.88
459.918	86.88
460.138	89.88
460.358	100.88
460.578	118.88
460.798	121.88
461.018	98.88
461.238	113.88
461.458	126.88
461.678	123.88
461.898	122.88
462.118	116.88
462.338	113.88
462.558	113.88
462.777	99.88
462.997	97.88
463.217	93.88
463.437	106.88
463.657	100.88
463.876	108.88
464.096	104.88
464.316	102.88
464.536	106.88
464.755	108.88
464.975	117.88
465.195	118.88
465.414	122.88
465.634	127.88
465.854	115.88
466.073	122.88
466.293	125.88
466.512	121.88
466.732	120.88
466.951	143.88
467.171	124.88
467.391	135.88
467.61	121.88
467.829	128.88
468.049	155.88
468.268	132.88
468.488	134.88
468.707	122.88
468.927	137.88
469.146	140.88
469.365	131.88
469.585	133.88
469.804	124.88
470.023	139.88
470.243	132.88
470.462	141.88
470.681	141.88
470.901	135.88
471.12	148.88
471.339	148.88
471.558	141.88
471.777	138.88
471.997	145.88
472.216	114.88
472.435	120.88
472.654	99.88
472.873	112.88
473.092	108.88
473.311	116.88
473.53	114.88
473.749	123.88
473.968	136.88
474.187	129.88
474.406	113.88
474.625	120.88
474.844	131.88
475.063	114.88
475.282	111.88
475.501	117.88
475.72	109.88
475.939	128.88
476.158	128.88
476.377	108.88
476.596	122.88
476.814	105.88
477.033	121.88
477.252	115.88
477.471	122.88
477.69	126.88
477.908	137.88
478.127	132.88
478.346	126.88
478.564	131.88
478.783	128.88
479.002	137.88
479.22	131.88
479.439	128.88
479.658	118.88
479.876	105.88
480.095	109.88
480.313	113.88
480.532	108.88
480.751	105.88
480.969	102.88
481.188	82.88
481.406	84.88
481.624	92.88
481.843	90.88
482.061	89.88
482.28	105.88
482.498	114.88
482.717	116.88
482.935	130.88
483.153	133.88
483.372	135.88
483.59	130.88
483.808	151.88
484.027	121.88
484.245	126.88
484.463	162.88
484.681	164.88
484.9	138.88
485.118	128.88
485.336	128.88
485.554	90.88
485.772	91.88
485.99	105.88
486.209	102.88
486.427	95.88
486.645	114.88
486.863	144.88
487.081	131.88
487.299	126.88
487.517	129.88
487.735	159.88
487.953	181.88
488.171	175.88
488.389	170.88
488.607	150.88
488.825	141.88
489.043	141.88
489.261	121.88
489.479	139.88
489.696	153.88
489.914	138.88
490.132	138.88
490.35	150.88
490.568	156.88
490.786	170.88
491.003	186.88
491.221	173.88
491.439	188.88
491.657	201.88
491.874	201.88
492.092	225.88
492.31	218.88
492.527	211.88
492.745	190.88
492.963	199.88
493.18	184.88
493.398	178.88
493.615	169.88
493.833	165.88
494.05	175.88
494.268	179.88
494.485	166.88
494.703	182.88
494.92	155.88
495.138	167.88
495.355	155.88
495.573	156.88
495.79	158.88
496.008	153.88
496.225	143.88
496.442	168.88
496.66	163.88
496.877	164.88
497.094	155.88
497.312	156.88
497.529	154.88
497.746	141.88
497.963	129.88
498.181	131.88
498.398	134.88
498.615	124.88
498.832	115.88
499.049	116.88
499.267	125.88
499.484	133.88
499.701	100.88
499.918	122.88
500.135	124.88
500.352	140.88
500.569	150.88
500.786	126.88
501.003	128.88
501.22	123.88
501.437	135.88
501.654	141.88
501.871	128.88
502.088	121.88
502.305	129.88
502.522	121.88
502.739	136.88
502.956	118.88
503.172	140.88
503.389	126.88
503.606	125.88
503.823	118.88
504.04	125.88
504.256	121.88
504.473	131.88
504.69	102.88
504.907	122.88
505.123	116.88
505.34	123.88
505.557	100.88
505.773	112.88
505.99	124.88
506.207	128.88
506.423	124.88
506.64	113.88
506.856	113.88
507.073	122.88
507.289	114.88
507.506	106.88
507.722	123.88
507.939	120.88
508.155	125.88
508.372	103.88
508.588	100.88
508.805	117.88
509.021	100.88
509.238	96.88
509.454	98.88
509.67	103.88
509.887	96.88
510.103	81.88
510.319	101.88
510.536	85.88
510.752	93.88
510.968	79.88
511.184	89.88
511.401	96.88
511.617	95.88
511.833	95.88
512.049	78.88
512.265	105.88
512.481	103.88
512.698	102.88
512.914	102.88
513.13	99.88
513.346	87.88
513.562	93.88
513.778	91.88
513.994	90.88
514.21	78.88
514.426	94.88
514.642	85.88
514.858	72.88
515.074	73.88
515.29	85.88
515.506	75.88
515.721	90.88
515.937	96.88
516.153	78.88
516.369	68.88
516.585	88.88
516.801	96.88
517.016	92.88
517.232	68.88
517.448	88.88
517.664	99.88
517.879	105.88
518.095	89.88
518.311	76.88
518.527	96.88
518.742	100.88
518.958	106.88
519.173	100.88
519.389	116.88
519.605	105.88
519.82	93.88
520.036	102.88
520.251	99.88
520.467	98.88
520.682	98.88
520.898	101.88
521.113	94.88
521.329	86.88
521.544	77.88
521.76	103.88
521.975	92.88
522.19	96.88
522.406	84.88
522.621	102.88
522.836	102.88
523.052	103.88
523.267	115.88
523.482	119.88
523.698	106.88
523.913	107.88
524.128	118.88
524.343	120.88
524.559	116.88
524.774	131.88
524.989	118.88
525.204	122.88
525.419	106.88
525.634	96.88
525.849	112.88
526.064	94.88
526.28	86.88
526.495	99.88
526.71	101.88
526.925	78.88
527.14	89.88
527.355	86.88
527.57	84.88
527.785	101.88
527.999	85.88
528.214	98.88
528.429	97.88
528.644	108.88
528.859	144.88
529.074	158.88
529.289	156.88
529.503	160.88
529.718	140.88
529.933	125.88
530.148	101.88
530.363	104.88
530.577	101.88
530.792	88.88
531.007	80.88
531.221	83.88
531.436	82.88
531.651	78.88
531.865	86.88
532.08	87.88
532.295	93.88
532.509	99.88
532.724	89.88
532.938	85.88
533.153	95.88
533.367	104.88
533.582	118.88
533.796	130.88
534.011	117.88
534.225	82.88
534.44	82.88
534.654	86.88
534.868	97.88
535.083	109.88
535.297	95.88
535.511	106.88
535.726	114.88
535.94	93.88
536.154	93.88
536.369	91.88
536.583	82.88
536.797	92.88
537.011	87.88
537.225	89.88
537.44	94.88
537.654	90.88
537.868	98.88
538.082	95.88
538.296	91.88
538.51	103.88
538.724	106.88
538.938	123.88
539.153	122.88
539.367	109.88
539.581	108.88
539.795	100.88
540.009	98.88
540.222	101.88
540.436	113.88
540.65	104.88
540.864	114.88
541.078	132.88
541.292	150.88
541.506	156.88
541.72	157.88
541.934	193.88
542.147	176.88
542.361	154.88
542.575	155.88
542.789	153.88
543.002	127.88
543.216	119.88
543.43	138.88
543.644	124.88
543.857	140.88
544.071	155.88
544.285	161.88
544.498	150.88
544.712	174.88
544.925	149.88
545.139	133.88
545.352	150.88
545.566	164.88
545.779	142.88
545.993	173.88
546.206	159.88
546.42	158.88
546.633	145.88
546.847	156.88
547.06	149.88
547.274	162.88
547.487	165.88
547.7	170.88
547.914	162.88
548.127	128.88
548.34	146.88
548.554	170.88
548.767	144.88
548.98	152.88
549.193	143.88
549.407	162.88
549.62	164.88
549.833	152.88
550.046	144.88
550.259	136.88
550.473	166.88
550.686	154.88
550.899	163.88
551.112	155.88
551.325	157.88
551.538	131.88
551.751	126.88
551.964	112.88
552.177	141.88
552.39	124.88
552.603	130.88
552.816	161.88
553.029	144.88
553.242	154.88
553.455	151.88
553.667	152.88
553.88	140.88
554.093	147.88
554.306	146.88
554.519	128.88
554.732	136.88
554.944	128.88
555.157	142.88
555.37	139.88
555.583	138.88
555.795	149.88
556.008	136.88
556.221	149.88
556.433	138.88
556.646	137.88
556.859	127.88
557.071	138.88
557.284	139.88
557.496	132.88
557.709	141.88
557.921	121.88
558.134	129.88
558.346	127.88
558.559	122.88
558.771	117.88
558.984	127.88
559.196	107.88
559.409	132.88
559.621	146.88
559.833	121.88
560.046	133.88
560.258	124.88
560.47	118.88
560.683	130.88
560.895	130.88
561.107	130.88
561.32	127.88
561.532	128.88
561.744	117.88
561.956	130.88
562.168	131.88
562.381	116.88
562.593	121.88
562.805	114.88
563.017	116.88
563.229	113.88
563.441	131.88
563.653	117.88
563.865	105.88
564.077	101.88
564.289	128.88
564.501	113.88
564.713	114.88
564.925	116.88
565.137	113.88
565.349	110.88
565.561	110.88
565.773	122.88
565.985	123.88
566.197	108.88
566.408	114.88
566.62	125.88
566.832	135.88
567.044	125.88
567.255	100.88
567.467	113.88
567.679	103.88
567.891	112.88
568.102	94.88
568.314	109.88
568.526	91.88
568.737	76.88
568.949	85.88
569.161	62.88
569.372	80.88
569.584	78.88
569.795	100.88
570.007	82.88
570.218	85.88
570.43	89.88
570.641	92.88
570.853	87.88
571.064	100.88
571.276	86.88
571.487	101.88
571.698	119.88
571.91	114.88
572.121	102.88
572.333	99.88
572.544	108.88
572.755	85.88
572.966	104.88
573.178	92.88
573.389	98.88
573.6	83.88
573.811	75.88
574.023	87.88
574.234	77.88
574.445	84.88
574.656	91.88
574.867	91.88
575.078	99.88
575.289	96.88
575.501	94.88
575.712	89.88
575.923	106.88
576.134	94.88
576.345	80.88
576.556	101.88
576.767	101.88
576.978	93.88
577.188	109.88
577.399	99.88
577.61	84.88
577.821	86.88
578.032	90.88
578.243	108.88
578.454	88.88
578.665	85.88
578.875	76.88
579.086	86.88
579.297	96.88
579.508	85.88
579.718	87.88
579.929	98.88
580.14	93.88
580.35	85.88
580.561	80.88
580.772	87.88
580.982	85.88
581.193	89.88
581.403	98.88
581.614	93.88
581.825	87.88
582.035	97.88
582.246	93.88
582.456	85.88
582.667	90.88
582.877	89.88
583.087	92.88
583.298	80.88
583.508	72.88
583.719	83.88
583.929	86.88
584.139	87.88
584.35	78.88
584.56	90.88
584.77	79.88
584.981	84.88
585.191	89.88
585.401	87.88
585.611	77.88
585.821	80.88
586.032	76.88
586.242	83.88
586.452	78.88
586.662	80.88
586.872	83.88
587.082	85.88
587.292	74.88
587.502	85.88
587.713	97.88
587.923	85.88
588.133	85.88
588.343	70.88
588.553	86.88
588.762	88.88
588.972	77.88
589.182	92.88
589.392	83.88
589.602	89.88
589.812	82.88
590.022	87.88
590.232	77.88
590.441	90.88
590.651	86.88
590.861	78.88
591.071	92.88
591.281	101.88
591.49	86.88
591.7	80.88
591.91	83.88
592.119	91.88
592.329	81.88
592.539	68.88
592.748	77.88
592.958	78.88
593.167	75.88
593.377	78.88
593.587	96.88
593.796	90.88
594.006	74.88
594.215	79.88
594.424	81.88
594.634	73.88
594.843	104.88
595.053	84.88
595.262	91.88
595.472	83.88
595.681	84.88
595.89	89.88
596.1	82.88
596.309	100.88
596.518	82.88
596.727	92.88
596.937	102.88
597.146	93.88
597.355	100.88
597.564	100.88
597.774	91.88
597.983	75.88
598.192	82.88
598.401	78.88
598.61	83.88
598.819	97.88
599.028	109.88
599.237	86.88
599.446	90.88
599.655	85.88
599.864	86.88
600.073	84.88
600.282	86.88
600.491	87.88
600.7	90.88
600.909	115.88
601.118	98.88
601.327	93.88
601.536	100.88
601.745	113.88
601.953	117.88
602.162	104.88
602.371	110.88
602.58	100.88
602.789	95.88
602.997	96.88
603.206	100.88
603.415	85.88
603.623	114.88
603.832	108.88
604.041	108.88
604.249	92.88
604.458	94.88
604.666	100.88
604.875	93.88
605.084	88.88
605.292	113.88
605.501	113.88
605.709	121.88
605.918	107.88
606.126	109.88
606.334	100.88
606.543	122.88
606.751	116.88
606.96	115.88
607.168	102.88
607.376	108.88
607.585	106.88
607.793	118.88
608.001	106.88
608.21	100.88
608.418	120.88
608.626	106.88
608.834	105.88
609.043	102.88
609.251	116.88
609.459	109.88
609.667	111.88
609.875	105.88
610.083	116.88
610.291	114.88
610.499	112.88
610.707	105.88
610.916	93.88
611.124	118.88
611.332	118.88
611.54	116.88
611.748	115.88
611.955	124.88
612.163	129.88
612.371	109.88
612.579	112.88
612.787	116.88
612.995	108.88
613.203	100.88
613.411	112.88
613.618	96.88
613.826	102.88
614.034	123.88
614.242	118.88
614.449	109.88
614.657	103.88
614.865	107.88
615.072	112.88
615.28	112.88
615.488	107.88
615.695	108.88
615.903	108.88
616.111	115.88
616.318	112.88
616.526	120.88
616.733	103.88
616.941	109.88
617.148	114.88
617.356	115.88
617.563	100.88
617.771	113.88
617.978	90.88
618.185	102.88
618.393	96.88
618.6	96.88
618.807	101.88
619.015	99.88
619.222	101.88
619.429	127.88
619.637	113.88
619.844	104.88
620.051	108.88
620.258	125.88
620.466	89.88
620.673	109.88
620.88	105.88
621.087	109.88
621.294	100.88
621.501	96.88
621.708	104.88
621.915	107.88
622.122	106.88
622.329	109.88
622.536	119.88
622.743	114.88
622.95	105.88
623.157	92.88
623.364	102.88
623.571	118.88
623.778	105.88
623.985	98.88
624.192	101.88
624.399	97.88
624.606	96.88
624.812	107.88
625.019	112.88
625.226	102.88
625.433	108.88
625.639	93.88
625.846	102.88
626.053	87.88
626.259	86.88
626.466	94.88
626.673	84.88
626.879	100.88
627.086	92.88
627.293	108.88
627.499	84.88
627.706	110.88
627.912	130.88
628.119	117.88
628.325	101.88
628.532	106.88
628.738	89.88
628.945	90.88
629.151	108.88
629.357	98.88
629.564	96.88
629.77	106.88
629.976	103.88
630.183	101.88
630.389	93.88
630.595	103.88
630.802	101.88
631.008	105.88
631.214	106.88
631.42	97.88
631.627	97.88
631.833	105.88
632.039	98.88
632.245	115.88
632.451	106.88
632.657	116.88
632.863	109.88
633.069	112.88
633.275	80.88
633.481	89.88
633.688	91.88
633.893	83.88
634.099	112.88
634.305	92.88
634.511	95.88
634.717	90.88
634.923	101.88
635.129	94.88
635.335	100.88
635.541	91.88
635.747	101.88
635.952	100.88
636.158	114.88
636.364	101.88
636.57	116.88
636.775	103.88
636.981	102.88
637.187	103.88
637.392	98.88
637.598	99.88
637.804	102.88
638.009	116.88
638.215	101.88
638.421	91.88
638.626	93.88
638.832	104.88
639.037	92.88
639.243	96.88
639.448	92.88
639.654	99.88
639.859	90.88
640.065	98.88
640.27	103.88
640.475	84.88
640.681	98.88
640.886	95.88
641.091	98.88
641.297	109.88
641.502	98.88
641.707	93.88
641.913	108.88
642.118	95.88
642.323	101.88
642.528	100.88
642.733	107.88
642.939	101.88
643.144	97.88
643.349	104.88
643.554	101.88
643.759	88.88
643.964	85.88
644.169	84.88
644.374	96.88
644.579	101.88
644.784	98.88
644.989	101.88
645.194	96.88
645.399	102.88
645.604	99.88
645.809	99.88
646.014	83.88
646.219	88.88
646.423	86.88
646.628	98.88
646.833	105.88
647.038	79.88
647.243	90.88
647.447	104.88
647.652	82.88
647.857	92.88
648.062	98.88
648.266	112.88
648.471	93.88
648.676	86.88
648.88	104.88
649.085	100.88
649.289	80.88
649.494	94.88
649.698	92.88
649.903	90.88
650.107	79.88
650.312	99.88
650.516	93.88
650.721	100.88
650.925	96.88
651.13	78.88
651.334	104.88
651.539	97.88
651.743	102.88
651.947	93.88
652.152	90.88
652.356	77.88
652.56	83.88
652.764	86.88
652.969	83.88
653.173	87.88
653.377	105.88
653.581	99.88
653.785	90.88
653.99	100.88
654.194	74.88
654.398	100.88
654.602	85.88
654.806	106.88
655.01	97.88
655.214	98.88
655.418	85.88
655.622	91.88
655.826	87.88
656.03	74.88
656.234	83.88
656.438	88.88
656.642	83.88
656.846	88.88
657.049	84.88
657.253	84.88
657.457	76.88
657.661	86.88
657.865	96.88
658.068	104.88
658.272	72.88
658.476	109.88
658.68	82.88
658.883	94.88
659.087	97.88
659.291	77.88
659.494	82.88
659.698	83.88
659.901	77.88
660.105	80.88
660.309	90.88
660.512	79.88
660.716	81.88
660.919	90.88
661.123	96.88
661.326	81.88
661.53	84.88
661.733	65.88
661.936	85.88
662.14	74.88
662.343	92.88
662.546	98.88
662.75	85.88
662.953	81.88
663.156	91.88
663.36	84.88
663.563	89.88
663.766	82.88
663.969	78.88
664.173	88.88
664.376	82.88
664.579	83.88
664.782	73.88
664.985	88.88
665.188	78.88
665.391	96.88
665.594	76.88
665.797	83.88
666	69.88
666.203	82.88
666.406	73.88
666.609	100.88
666.812	81.88
667.015	84.88
667.218	78.88
667.421	89.88
667.624	77.88
667.827	73.88
668.03	64.88
668.232	85.88
668.435	82.88
668.638	79.88
668.841	88.88
669.043	82.88
669.246	76.88
669.449	69.88
669.651	90.88
669.854	74.88
670.057	77.88
670.259	73.88
670.462	77.88
670.665	68.88
670.867	81.88
671.07	82.88
671.272	83.88
671.475	89.88
671.677	86.88
671.88	84.88
672.082	86.88
672.284	81.88
672.487	88.88
672.689	104.88
672.892	80.88
