Data from Location1.07152019.Energy5.Lamp.07192019.3%Agarose_HRD10591_14-33-05-016.txt Node
Date: Fri Jul 19 14:33:05 EDT 2019
User: cochatt
Spectrometer: HR+D1059
Trigger mode: 1
Integration Time (sec): 1.000000E-1
Scans to average: 1
Electric dark correction enabled: true
Nonlinearity correction enabled: false
Boxcar width: 0
XAxis mode: Wavelengths
Number of Pixels in Spectrum: 2048
>>>>>Begin Spectral Data<<<<<
223.165	-22.12
223.4	-22.12
223.635	-22.12
223.869	-17.12
224.104	-20.12
224.338	-14.12
224.573	-11.12
224.808	-10.12
225.042	-9.12
225.277	-5.12
225.511	-9.12
225.746	-11.12
225.98	15.88
226.215	17.88
226.449	5.88
226.683	22.88
226.918	26.88
227.152	39.88
227.387	29.88
227.621	31.88
227.856	53.88
228.09	47.88
228.324	51.88
228.559	54.88
228.793	54.88
229.027	73.88
229.262	70.88
229.496	56.88
229.73	78.88
229.964	78.88
230.199	72.88
230.433	79.88
230.667	78.88
230.901	82.88
231.136	78.88
231.37	76.88
231.604	80.88
231.838	77.88
232.072	81.88
232.306	85.88
232.541	88.88
232.775	90.88
233.009	69.88
233.243	90.88
233.477	83.88
233.711	78.88
233.945	81.88
234.179	79.88
234.413	82.88
234.647	82.88
234.881	81.88
235.115	84.88
235.349	84.88
235.583	78.88
235.817	79.88
236.051	72.88
236.285	85.88
236.519	88.88
236.753	87.88
236.987	74.88
237.221	69.88
237.455	79.88
237.689	68.88
237.922	75.88
238.156	79.88
238.39	67.88
238.624	79.88
238.858	78.88
239.091	68.88
239.325	82.88
239.559	84.88
239.793	77.88
240.027	75.88
240.26	70.88
240.494	69.88
240.728	71.88
240.961	69.88
241.195	78.88
241.429	88.88
241.662	77.88
241.896	82.88
242.13	89.88
242.363	78.88
242.597	70.88
242.83	74.88
243.064	69.88
243.298	61.88
243.531	81.88
243.765	73.88
243.998	65.88
244.232	83.88
244.465	76.88
244.699	85.88
244.932	71.88
245.166	71.88
245.399	86.88
245.633	79.88
245.866	79.88
246.099	68.88
246.333	68.88
246.566	73.88
246.8	74.88
247.033	77.88
247.266	70.88
247.5	77.88
247.733	84.88
247.966	79.88
248.2	71.88
248.433	85.88
248.666	68.88
248.899	73.88
249.133	84.88
249.366	77.88
249.599	76.88
249.832	68.88
250.066	70.88
250.299	66.88
250.532	74.88
250.765	84.88
250.998	69.88
251.231	80.88
251.465	78.88
251.698	85.88
251.931	85.88
252.164	78.88
252.397	69.88
252.63	78.88
252.863	84.88
253.096	90.88
253.329	76.88
253.562	85.88
253.795	83.88
254.028	87.88
254.261	91.88
254.494	79.88
254.727	94.88
254.96	78.88
255.193	78.88
255.426	88.88
255.659	82.88
255.892	80.88
256.124	76.88
256.357	74.88
256.59	76.88
256.823	75.88
257.056	90.88
257.289	92.88
257.521	85.88
257.754	87.88
257.987	73.88
258.22	81.88
258.452	80.88
258.685	66.88
258.918	83.88
259.151	77.88
259.383	86.88
259.616	85.88
259.849	77.88
260.081	78.88
260.314	81.88
260.547	82.88
260.779	85.88
261.012	82.88
261.244	76.88
261.477	81.88
261.71	74.88
261.942	87.88
262.175	89.88
262.407	88.88
262.64	80.88
262.872	81.88
263.105	68.88
263.337	89.88
263.57	79.88
263.802	71.88
264.035	70.88
264.267	65.88
264.499	65.88
264.732	75.88
264.964	88.88
265.197	74.88
265.429	77.88
265.661	91.88
265.894	87.88
266.126	87.88
266.358	85.88
266.591	86.88
266.823	89.88
267.055	83.88
267.287	86.88
267.52	78.88
267.752	76.88
267.984	75.88
268.216	72.88
268.448	91.88
268.681	98.88
268.913	97.88
269.145	76.88
269.377	73.88
269.609	82.88
269.841	82.88
270.073	63.88
270.306	88.88
270.538	85.88
270.77	84.88
271.002	73.88
271.234	75.88
271.466	79.88
271.698	79.88
271.93	93.88
272.162	85.88
272.394	92.88
272.626	80.88
272.858	87.88
273.09	91.88
273.322	84.88
273.553	73.88
273.785	83.88
274.017	79.88
274.249	73.88
274.481	77.88
274.713	84.88
274.945	82.88
275.176	83.88
275.408	78.88
275.64	92.88
275.872	84.88
276.104	85.88
276.335	94.88
276.567	91.88
276.799	89.88
277.031	95.88
277.262	93.88
277.494	78.88
277.726	89.88
277.957	83.88
278.189	82.88
278.421	78.88
278.652	92.88
278.884	97.88
279.115	95.88
279.347	92.88
279.579	81.88
279.81	81.88
280.042	93.88
280.273	79.88
280.505	93.88
280.736	72.88
280.968	79.88
281.199	91.88
281.431	67.88
281.662	91.88
281.894	76.88
282.125	94.88
282.356	84.88
282.588	78.88
282.819	81.88
283.051	78.88
283.282	78.88
283.513	86.88
283.745	82.88
283.976	80.88
284.207	75.88
284.439	82.88
284.67	89.88
284.901	79.88
285.132	81.88
285.364	75.88
285.595	86.88
285.826	86.88
286.057	92.88
286.288	82.88
286.52	88.88
286.751	85.88
286.982	85.88
287.213	73.88
287.444	78.88
287.675	78.88
287.906	71.88
288.138	100.88
288.369	90.88
288.6	80.88
288.831	85.88
289.062	80.88
289.293	76.88
289.524	73.88
289.755	67.88
289.986	79.88
290.217	81.88
290.448	77.88
290.679	85.88
290.91	87.88
291.141	72.88
291.371	94.88
291.602	85.88
291.833	78.88
292.064	85.88
292.295	85.88
292.526	76.88
292.757	83.88
292.987	79.88
293.218	82.88
293.449	84.88
293.68	76.88
293.91	78.88
294.141	75.88
294.372	86.88
294.603	85.88
294.833	83.88
295.064	88.88
295.295	86.88
295.525	79.88
295.756	92.88
295.987	79.88
296.217	77.88
296.448	76.88
296.679	73.88
296.909	82.88
297.14	92.88
297.37	103.88
297.601	99.88
297.831	82.88
298.062	89.88
298.292	88.88
298.523	91.88
298.753	104.88
298.984	92.88
299.214	89.88
299.445	75.88
299.675	79.88
299.905	98.88
300.136	91.88
300.366	74.88
300.597	85.88
300.827	73.88
301.057	77.88
301.288	83.88
301.518	91.88
301.748	101.88
301.979	93.88
302.209	81.88
302.439	82.88
302.669	84.88
302.9	81.88
303.13	81.88
303.36	88.88
303.59	95.88
303.82	78.88
304.051	83.88
304.281	89.88
304.511	89.88
304.741	75.88
304.971	78.88
305.201	82.88
305.431	94.88
305.661	85.88
305.891	83.88
306.121	86.88
306.352	74.88
306.582	90.88
306.812	92.88
307.042	81.88
307.272	77.88
307.502	73.88
307.731	74.88
307.961	90.88
308.191	84.88
308.421	92.88
308.651	80.88
308.881	90.88
309.111	77.88
309.341	78.88
309.571	86.88
309.8	70.88
310.03	93.88
310.26	86.88
310.49	88.88
310.72	75.88
310.949	86.88
311.179	85.88
311.409	76.88
311.639	73.88
311.868	79.88
312.098	86.88
312.328	76.88
312.557	80.88
312.787	72.88
313.017	78.88
313.246	79.88
313.476	85.88
313.706	81.88
313.935	77.88
314.165	91.88
314.394	76.88
314.624	77.88
314.853	100.88
315.083	79.88
315.312	93.88
315.542	81.88
315.771	90.88
316.001	84.88
316.23	77.88
316.46	84.88
316.689	79.88
316.919	97.88
317.148	73.88
317.377	94.88
317.607	88.88
317.836	77.88
318.065	78.88
318.295	89.88
318.524	76.88
318.753	79.88
318.983	76.88
319.212	90.88
319.441	83.88
319.67	89.88
319.9	82.88
320.129	85.88
320.358	89.88
320.587	77.88
320.816	86.88
321.046	91.88
321.275	88.88
321.504	93.88
321.733	92.88
321.962	95.88
322.191	88.88
322.42	77.88
322.649	84.88
322.878	84.88
323.108	69.88
323.337	91.88
323.566	85.88
323.795	89.88
324.024	75.88
324.253	85.88
324.482	87.88
324.71	92.88
324.939	75.88
325.168	86.88
325.397	77.88
325.626	82.88
325.855	83.88
326.084	87.88
326.313	88.88
326.542	85.88
326.77	94.88
326.999	84.88
327.228	86.88
327.457	89.88
327.686	80.88
327.914	84.88
328.143	100.88
328.372	73.88
328.6	74.88
328.829	90.88
329.058	81.88
329.287	88.88
329.515	83.88
329.744	88.88
329.972	78.88
330.201	73.88
330.43	71.88
330.658	91.88
330.887	86.88
331.115	80.88
331.344	83.88
331.572	95.88
331.801	81.88
332.03	71.88
332.258	90.88
332.486	92.88
332.715	93.88
332.943	71.88
333.172	67.88
333.4	87.88
333.629	75.88
333.857	97.88
334.085	83.88
334.314	69.88
334.542	93.88
334.771	91.88
334.999	93.88
335.227	76.88
335.455	86.88
335.684	93.88
335.912	83.88
336.14	86.88
336.369	74.88
336.597	91.88
336.825	84.88
337.053	94.88
337.281	87.88
337.51	92.88
337.738	89.88
337.966	80.88
338.194	90.88
338.422	87.88
338.65	82.88
338.878	78.88
339.106	74.88
339.334	78.88
339.562	79.88
339.79	90.88
340.018	79.88
340.246	91.88
340.474	87.88
340.702	108.88
340.93	81.88
341.158	90.88
341.386	80.88
341.614	72.88
341.842	80.88
342.07	82.88
342.298	96.88
342.526	83.88
342.754	79.88
342.981	75.88
343.209	89.88
343.437	83.88
343.665	85.88
343.893	85.88
344.12	96.88
344.348	98.88
344.576	77.88
344.804	65.88
345.031	73.88
345.259	78.88
345.487	76.88
345.714	69.88
345.942	84.88
346.17	101.88
346.397	81.88
346.625	98.88
346.853	83.88
347.08	89.88
347.308	88.88
347.535	79.88
347.763	75.88
347.99	93.88
348.218	93.88
348.445	90.88
348.673	86.88
348.9	85.88
349.128	88.88
349.355	83.88
349.583	79.88
349.81	82.88
350.037	88.88
350.265	78.88
350.492	81.88
350.72	90.88
350.947	78.88
351.174	83.88
351.402	79.88
351.629	76.88
351.856	91.88
352.083	93.88
352.311	79.88
352.538	75.88
352.765	88.88
352.992	79.88
353.22	79.88
353.447	84.88
353.674	86.88
353.901	83.88
354.128	87.88
354.355	86.88
354.583	87.88
354.81	90.88
355.037	85.88
355.264	85.88
355.491	87.88
355.718	86.88
355.945	97.88
356.172	74.88
356.399	79.88
356.626	88.88
356.853	66.88
357.08	91.88
357.307	82.88
357.534	88.88
357.761	90.88
357.988	99.88
358.215	85.88
358.441	93.88
358.668	77.88
358.895	93.88
359.122	82.88
359.349	92.88
359.576	91.88
359.802	85.88
360.029	79.88
360.256	82.88
360.483	90.88
360.709	85.88
360.936	91.88
361.163	83.88
361.39	76.88
361.616	77.88
361.843	92.88
362.07	83.88
362.296	90.88
362.523	69.88
362.749	83.88
362.976	81.88
363.203	84.88
363.429	80.88
363.656	85.88
363.882	87.88
364.109	91.88
364.335	84.88
364.562	79.88
364.788	89.88
365.015	86.88
365.241	95.88
365.468	89.88
365.694	75.88
365.92	86.88
366.147	91.88
366.373	83.88
366.599	92.88
366.826	84.88
367.052	91.88
367.278	74.88
367.505	97.88
367.731	93.88
367.957	79.88
368.184	72.88
368.41	91.88
368.636	80.88
368.862	91.88
369.089	85.88
369.315	104.88
369.541	100.88
369.767	82.88
369.993	88.88
370.219	80.88
370.445	91.88
370.672	90.88
370.898	79.88
371.124	95.88
371.35	87.88
371.576	96.88
371.802	109.88
372.028	94.88
372.254	87.88
372.48	85.88
372.706	77.88
372.932	85.88
373.158	91.88
373.384	92.88
373.61	93.88
373.835	101.88
374.061	88.88
374.287	91.88
374.513	85.88
374.739	92.88
374.965	102.88
375.191	84.88
375.416	103.88
375.642	77.88
375.868	101.88
376.094	93.88
376.319	90.88
376.545	84.88
376.771	86.88
376.997	95.88
377.222	93.88
377.448	89.88
377.674	87.88
377.899	95.88
378.125	88.88
378.35	91.88
378.576	94.88
378.802	99.88
379.027	87.88
379.253	78.88
379.478	84.88
379.704	94.88
379.929	96.88
380.155	105.88
380.38	94.88
380.606	87.88
380.831	107.88
381.057	97.88
381.282	88.88
381.507	104.88
381.733	97.88
381.958	87.88
382.184	95.88
382.409	86.88
382.634	102.88
382.86	108.88
383.085	108.88
383.31	90.88
383.535	103.88
383.761	86.88
383.986	103.88
384.211	100.88
384.436	98.88
384.662	89.88
384.887	96.88
385.112	100.88
385.337	97.88
385.562	85.88
385.787	86.88
386.013	115.88
386.238	89.88
386.463	87.88
386.688	98.88
386.913	90.88
387.138	101.88
387.363	115.88
387.588	102.88
387.813	98.88
388.038	106.88
388.263	100.88
388.488	94.88
388.713	99.88
388.938	110.88
389.163	106.88
389.387	99.88
389.612	101.88
389.837	100.88
390.062	102.88
390.287	104.88
390.512	113.88
390.736	99.88
390.961	118.88
391.186	96.88
391.411	105.88
391.636	104.88
391.86	93.88
392.085	96.88
392.31	100.88
392.534	105.88
392.759	100.88
392.984	109.88
393.208	109.88
393.433	107.88
393.658	91.88
393.882	99.88
394.107	106.88
394.331	85.88
394.556	90.88
394.78	94.88
395.005	111.88
395.229	93.88
395.454	106.88
395.678	117.88
395.903	113.88
396.127	113.88
396.352	118.88
396.576	116.88
396.801	102.88
397.025	106.88
397.249	118.88
397.474	118.88
397.698	107.88
397.922	120.88
398.147	113.88
398.371	104.88
398.595	110.88
398.82	98.88
399.044	93.88
399.268	105.88
399.492	109.88
399.717	114.88
399.941	96.88
400.165	106.88
400.389	100.88
400.613	97.88
400.837	105.88
401.062	108.88
401.286	107.88
401.51	117.88
401.734	101.88
401.958	121.88
402.182	109.88
402.406	107.88
402.63	132.88
402.854	117.88
403.078	115.88
403.302	121.88
403.526	105.88
403.75	117.88
403.974	116.88
404.198	119.88
404.422	127.88
404.645	117.88
404.869	130.88
405.093	126.88
405.317	118.88
405.541	115.88
405.765	110.88
405.988	117.88
406.212	113.88
406.436	105.88
406.66	132.88
406.883	113.88
407.107	115.88
407.331	120.88
407.555	108.88
407.778	97.88
408.002	115.88
408.226	113.88
408.449	103.88
408.673	123.88
408.896	127.88
409.12	103.88
409.344	111.88
409.567	121.88
409.791	114.88
410.014	117.88
410.238	114.88
410.461	128.88
410.685	130.88
410.908	122.88
411.132	131.88
411.355	113.88
411.578	115.88
411.802	130.88
412.025	124.88
412.249	123.88
412.472	126.88
412.695	120.88
412.919	123.88
413.142	123.88
413.365	129.88
413.589	137.88
413.812	128.88
414.035	122.88
414.258	130.88
414.482	123.88
414.705	111.88
414.928	119.88
415.151	122.88
415.374	124.88
415.597	116.88
415.821	117.88
416.044	118.88
416.267	138.88
416.49	123.88
416.713	132.88
416.936	139.88
417.159	129.88
417.382	155.88
417.605	134.88
417.828	127.88
418.051	124.88
418.274	111.88
418.497	120.88
418.72	133.88
418.943	137.88
419.166	121.88
419.389	137.88
419.611	130.88
419.834	125.88
420.057	119.88
420.28	125.88
420.503	130.88
420.726	139.88
420.948	134.88
421.171	117.88
421.394	147.88
421.617	146.88
421.839	126.88
422.062	131.88
422.285	134.88
422.507	136.88
422.73	142.88
422.953	118.88
423.175	127.88
423.398	128.88
423.621	136.88
423.843	128.88
424.066	137.88
424.288	156.88
424.511	130.88
424.733	151.88
424.956	137.88
425.178	127.88
425.401	119.88
425.623	138.88
425.846	131.88
426.068	133.88
426.291	126.88
426.513	121.88
426.735	127.88
426.958	126.88
427.18	128.88
427.402	137.88
427.625	123.88
427.847	120.88
428.069	128.88
428.292	130.88
428.514	141.88
428.736	132.88
428.958	129.88
429.181	138.88
429.403	120.88
429.625	123.88
429.847	114.88
430.069	128.88
430.292	115.88
430.514	122.88
430.736	121.88
430.958	130.88
431.18	131.88
431.402	119.88
431.624	113.88
431.846	91.88
432.068	88.88
432.29	100.88
432.512	108.88
432.734	116.88
432.956	131.88
433.178	138.88
433.4	146.88
433.622	136.88
433.844	134.88
434.066	126.88
434.287	121.88
434.509	95.88
434.731	102.88
434.953	115.88
435.175	107.88
435.397	122.88
435.618	117.88
435.84	107.88
436.062	117.88
436.284	119.88
436.505	130.88
436.727	123.88
436.949	111.88
437.17	134.88
437.392	133.88
437.614	119.88
437.835	107.88
438.057	97.88
438.278	103.88
438.5	110.88
438.721	145.88
438.943	134.88
439.165	131.88
439.386	137.88
439.608	144.88
439.829	133.88
440.05	141.88
440.272	144.88
440.493	153.88
440.715	131.88
440.936	132.88
441.158	141.88
441.379	143.88
441.6	157.88
441.822	144.88
442.043	127.88
442.264	122.88
442.486	148.88
442.707	140.88
442.928	136.88
443.149	129.88
443.371	129.88
443.592	124.88
443.813	138.88
444.034	151.88
444.255	148.88
444.476	155.88
444.698	155.88
444.919	135.88
445.14	222.88
445.361	169.88
445.582	142.88
445.803	136.88
446.024	139.88
446.245	143.88
446.466	139.88
446.687	153.88
446.908	164.88
447.129	143.88
447.35	154.88
447.571	123.88
447.792	162.88
448.013	147.88
448.234	167.88
448.455	129.88
448.675	131.88
448.896	145.88
449.117	139.88
449.338	140.88
449.559	145.88
449.779	141.88
450	143.88
450.221	137.88
450.442	130.88
450.662	142.88
450.883	137.88
451.104	129.88
451.324	122.88
451.545	120.88
451.766	127.88
451.986	125.88
452.207	113.88
452.428	129.88
452.648	123.88
452.869	133.88
453.089	119.88
453.31	123.88
453.53	121.88
453.751	115.88
453.971	93.88
454.192	101.88
454.412	102.88
454.633	124.88
454.853	111.88
455.073	117.88
455.294	126.88
455.514	137.88
455.734	124.88
455.955	106.88
456.175	113.88
456.395	123.88
456.616	120.88
456.836	108.88
457.056	101.88
457.276	117.88
457.497	114.88
457.717	112.88
457.937	104.88
458.157	112.88
458.377	107.88
458.598	96.88
458.818	98.88
459.038	94.88
459.258	85.88
459.478	87.88
459.698	79.88
459.918	108.88
460.138	114.88
460.358	122.88
460.578	115.88
460.798	108.88
461.018	126.88
461.238	105.88
461.458	119.88
461.678	104.88
461.898	101.88
462.118	113.88
462.338	99.88
462.558	117.88
462.777	133.88
462.997	120.88
463.217	115.88
463.437	109.88
463.657	115.88
463.876	119.88
464.096	113.88
464.316	107.88
464.536	127.88
464.755	109.88
464.975	121.88
465.195	111.88
465.414	97.88
465.634	99.88
465.854	108.88
466.073	113.88
466.293	121.88
466.512	125.88
466.732	123.88
466.951	132.88
467.171	150.88
467.391	136.88
467.61	128.88
467.829	145.88
468.049	135.88
468.268	135.88
468.488	141.88
468.707	135.88
468.927	134.88
469.146	141.88
469.365	146.88
469.585	133.88
469.804	125.88
470.023	139.88
470.243	140.88
470.462	137.88
470.681	138.88
470.901	152.88
471.12	140.88
471.339	150.88
471.558	128.88
471.777	129.88
471.997	124.88
472.216	129.88
472.435	126.88
472.654	105.88
472.873	109.88
473.092	115.88
473.311	131.88
473.53	133.88
473.749	127.88
473.968	118.88
474.187	119.88
474.406	124.88
474.625	118.88
474.844	124.88
475.063	109.88
475.282	126.88
475.501	137.88
475.72	101.88
475.939	122.88
476.158	115.88
476.377	121.88
476.596	113.88
476.814	110.88
477.033	102.88
477.252	124.88
477.471	116.88
477.69	134.88
477.908	138.88
478.127	139.88
478.346	132.88
478.564	139.88
478.783	132.88
479.002	141.88
479.22	125.88
479.439	140.88
479.658	131.88
479.876	120.88
480.095	97.88
480.313	117.88
480.532	126.88
480.751	120.88
480.969	98.88
481.188	81.88
481.406	77.88
481.624	99.88
481.843	97.88
482.061	107.88
482.28	124.88
482.498	99.88
482.717	105.88
482.935	118.88
483.153	137.88
483.372	159.88
483.59	156.88
483.808	125.88
484.027	120.88
484.245	143.88
484.463	146.88
484.681	161.88
484.9	157.88
485.118	121.88
485.336	122.88
485.554	115.88
485.772	117.88
485.99	102.88
486.209	107.88
486.427	115.88
486.645	123.88
486.863	133.88
487.081	161.88
487.299	128.88
487.517	131.88
487.735	166.88
487.953	182.88
488.171	190.88
488.389	184.88
488.607	171.88
488.825	151.88
489.043	129.88
489.261	115.88
489.479	152.88
489.696	144.88
489.914	134.88
490.132	143.88
490.35	140.88
490.568	149.88
490.786	158.88
491.003	154.88
491.221	161.88
491.439	183.88
491.657	180.88
491.874	209.88
492.092	214.88
492.31	241.88
492.527	217.88
492.745	207.88
492.963	187.88
493.18	165.88
493.398	173.88
493.615	177.88
493.833	158.88
494.05	164.88
494.268	165.88
494.485	167.88
494.703	178.88
494.92	160.88
495.138	165.88
495.355	173.88
495.573	154.88
495.79	172.88
496.008	168.88
496.225	150.88
496.442	159.88
496.66	166.88
496.877	149.88
497.094	172.88
497.312	182.88
497.529	147.88
497.746	137.88
497.963	135.88
498.181	138.88
498.398	128.88
498.615	133.88
498.832	113.88
499.049	116.88
499.267	110.88
499.484	142.88
499.701	113.88
499.918	130.88
500.135	141.88
500.352	139.88
500.569	139.88
500.786	142.88
501.003	143.88
501.22	141.88
501.437	145.88
501.654	134.88
501.871	135.88
502.088	140.88
502.305	136.88
502.522	114.88
502.739	149.88
502.956	119.88
503.172	134.88
503.389	117.88
503.606	115.88
503.823	122.88
504.04	117.88
504.256	127.88
504.473	109.88
504.69	141.88
504.907	121.88
505.123	121.88
505.34	101.88
505.557	125.88
505.773	128.88
505.99	122.88
506.207	109.88
506.423	121.88
506.64	133.88
506.856	130.88
507.073	126.88
507.289	113.88
507.506	116.88
507.722	135.88
507.939	111.88
508.155	103.88
508.372	117.88
508.588	108.88
508.805	115.88
509.021	117.88
509.238	102.88
509.454	100.88
509.67	107.88
509.887	101.88
510.103	104.88
510.319	95.88
510.536	89.88
510.752	82.88
510.968	75.88
511.184	94.88
511.401	78.88
511.617	91.88
511.833	87.88
512.049	91.88
512.265	90.88
512.481	80.88
512.698	98.88
512.914	108.88
513.13	90.88
513.346	90.88
513.562	86.88
513.778	90.88
513.994	98.88
514.21	102.88
514.426	84.88
514.642	85.88
514.858	86.88
515.074	99.88
515.29	100.88
515.506	105.88
515.721	101.88
515.937	98.88
516.153	74.88
516.369	79.88
516.585	83.88
516.801	76.88
517.016	96.88
517.232	99.88
517.448	83.88
517.664	89.88
517.879	103.88
518.095	104.88
518.311	94.88
518.527	91.88
518.742	109.88
518.958	93.88
519.173	98.88
519.389	119.88
519.605	97.88
519.82	110.88
520.036	115.88
520.251	114.88
520.467	110.88
520.682	104.88
520.898	91.88
521.113	90.88
521.329	91.88
521.544	103.88
521.76	93.88
521.975	92.88
522.19	97.88
522.406	94.88
522.621	99.88
522.836	99.88
523.052	105.88
523.267	105.88
523.482	119.88
523.698	105.88
523.913	116.88
524.128	108.88
524.343	135.88
524.559	120.88
524.774	121.88
524.989	133.88
525.204	124.88
525.419	108.88
525.634	113.88
525.849	121.88
526.064	113.88
526.28	100.88
526.495	94.88
526.71	94.88
526.925	85.88
527.14	95.88
527.355	73.88
527.57	89.88
527.785	107.88
527.999	90.88
528.214	119.88
528.429	114.88
528.644	111.88
528.859	135.88
529.074	146.88
529.289	165.88
529.503	161.88
529.718	142.88
529.933	126.88
530.148	105.88
530.363	97.88
530.577	98.88
530.792	78.88
531.007	93.88
531.221	87.88
531.436	98.88
531.651	96.88
531.865	79.88
532.08	88.88
532.295	77.88
532.509	81.88
532.724	95.88
532.938	97.88
533.153	108.88
533.367	102.88
533.582	121.88
533.796	129.88
534.011	108.88
534.225	110.88
534.44	86.88
534.654	104.88
534.868	94.88
535.083	79.88
535.297	105.88
535.511	104.88
535.726	98.88
535.94	86.88
536.154	87.88
536.369	90.88
536.583	91.88
536.797	97.88
537.011	86.88
537.225	89.88
537.44	85.88
537.654	105.88
537.868	109.88
538.082	100.88
538.296	81.88
538.51	89.88
538.724	105.88
538.938	114.88
539.153	130.88
539.367	126.88
539.581	103.88
539.795	89.88
540.009	91.88
540.222	100.88
540.436	112.88
540.65	113.88
540.864	125.88
541.078	129.88
541.292	151.88
541.506	161.88
541.72	164.88
541.934	179.88
542.147	181.88
542.361	170.88
542.575	166.88
542.789	142.88
543.002	149.88
543.216	125.88
543.43	122.88
543.644	131.88
543.857	132.88
544.071	151.88
544.285	165.88
544.498	164.88
544.712	150.88
544.925	154.88
545.139	146.88
545.352	159.88
545.566	162.88
545.779	135.88
545.993	143.88
546.206	174.88
546.42	171.88
546.633	164.88
546.847	160.88
547.06	166.88
547.274	161.88
547.487	183.88
547.7	180.88
547.914	174.88
548.127	162.88
548.34	161.88
548.554	168.88
548.767	140.88
548.98	145.88
549.193	141.88
549.407	155.88
549.62	155.88
549.833	147.88
550.046	157.88
550.259	139.88
550.473	150.88
550.686	142.88
550.899	147.88
551.112	145.88
551.325	126.88
551.538	137.88
551.751	131.88
551.964	113.88
552.177	121.88
552.39	123.88
552.603	140.88
552.816	150.88
553.029	137.88
553.242	146.88
553.455	156.88
553.667	148.88
553.88	150.88
554.093	131.88
554.306	142.88
554.519	144.88
554.732	143.88
554.944	152.88
555.157	163.88
555.37	123.88
555.583	138.88
555.795	129.88
556.008	148.88
556.221	125.88
556.433	120.88
556.646	121.88
556.859	126.88
557.071	130.88
557.284	133.88
557.496	128.88
557.709	136.88
557.921	136.88
558.134	134.88
558.346	140.88
558.559	135.88
558.771	143.88
558.984	127.88
559.196	136.88
559.409	124.88
559.621	141.88
559.833	123.88
560.046	117.88
560.258	135.88
560.47	124.88
560.683	139.88
560.895	126.88
561.107	135.88
561.32	130.88
561.532	118.88
561.744	126.88
561.956	146.88
562.168	111.88
562.381	125.88
562.593	130.88
562.805	126.88
563.017	119.88
563.229	133.88
563.441	133.88
563.653	126.88
563.865	128.88
564.077	115.88
564.289	117.88
564.501	140.88
564.713	126.88
564.925	113.88
565.137	113.88
565.349	114.88
565.561	126.88
565.773	112.88
565.985	122.88
566.197	123.88
566.408	123.88
566.62	110.88
566.832	127.88
567.044	121.88
567.255	115.88
567.467	121.88
567.679	102.88
567.891	113.88
568.102	100.88
568.314	79.88
568.526	88.88
568.737	102.88
568.949	94.88
569.161	74.88
569.372	74.88
569.584	74.88
569.795	92.88
570.007	85.88
570.218	83.88
570.43	88.88
570.641	95.88
570.853	88.88
571.064	96.88
571.276	90.88
571.487	90.88
571.698	120.88
571.91	107.88
572.121	99.88
572.333	103.88
572.544	80.88
572.755	101.88
572.966	105.88
573.178	83.88
573.389	100.88
573.6	77.88
573.811	87.88
574.023	91.88
574.234	85.88
574.445	103.88
574.656	100.88
574.867	102.88
575.078	96.88
575.289	108.88
575.501	102.88
575.712	97.88
575.923	99.88
576.134	74.88
576.345	115.88
576.556	117.88
576.767	106.88
576.978	98.88
577.188	100.88
577.399	101.88
577.61	96.88
577.821	91.88
578.032	88.88
578.243	98.88
578.454	83.88
578.665	93.88
578.875	102.88
579.086	81.88
579.297	90.88
579.508	74.88
579.718	81.88
579.929	84.88
580.14	85.88
580.35	85.88
580.561	86.88
580.772	109.88
580.982	92.88
581.193	107.88
581.403	101.88
581.614	98.88
581.825	105.88
582.035	92.88
582.246	86.88
582.456	80.88
582.667	94.88
582.877	102.88
583.087	85.88
583.298	88.88
583.508	77.88
583.719	86.88
583.929	86.88
584.139	88.88
584.35	94.88
584.56	62.88
584.77	85.88
584.981	81.88
585.191	91.88
585.401	91.88
585.611	81.88
585.821	83.88
586.032	79.88
586.242	84.88
586.452	91.88
586.662	84.88
586.872	74.88
587.082	78.88
587.292	91.88
587.502	83.88
587.713	85.88
587.923	91.88
588.133	79.88
588.343	90.88
588.553	82.88
588.762	94.88
588.972	73.88
589.182	87.88
589.392	97.88
589.602	84.88
589.812	85.88
590.022	85.88
590.232	105.88
590.441	103.88
590.651	83.88
590.861	94.88
591.071	78.88
591.281	96.88
591.49	84.88
591.7	86.88
591.91	86.88
592.119	74.88
592.329	86.88
592.539	86.88
592.748	85.88
592.958	85.88
593.167	87.88
593.377	86.88
593.587	84.88
593.796	72.88
594.006	75.88
594.215	71.88
594.424	94.88
594.634	79.88
594.843	97.88
595.053	96.88
595.262	93.88
595.472	95.88
595.681	88.88
595.89	96.88
596.1	76.88
596.309	101.88
596.518	96.88
596.727	103.88
596.937	92.88
597.146	92.88
597.355	91.88
597.564	102.88
597.774	102.88
597.983	90.88
598.192	91.88
598.401	92.88
598.61	77.88
598.819	78.88
599.028	91.88
599.237	93.88
599.446	85.88
599.655	91.88
599.864	95.88
600.073	78.88
600.282	90.88
600.491	101.88
600.7	92.88
600.909	99.88
601.118	105.88
601.327	114.88
601.536	97.88
601.745	117.88
601.953	102.88
602.162	112.88
602.371	116.88
602.58	113.88
602.789	119.88
602.997	114.88
603.206	104.88
603.415	113.88
603.623	119.88
603.832	106.88
604.041	115.88
604.249	93.88
604.458	110.88
604.666	97.88
604.875	85.88
605.084	96.88
605.292	104.88
605.501	101.88
605.709	118.88
605.918	111.88
606.126	119.88
606.334	119.88
606.543	124.88
606.751	122.88
606.96	105.88
607.168	110.88
607.376	101.88
607.585	115.88
607.793	97.88
608.001	110.88
608.21	113.88
608.418	121.88
608.626	113.88
608.834	108.88
609.043	108.88
609.251	109.88
609.459	116.88
609.667	112.88
609.875	116.88
610.083	124.88
610.291	106.88
610.499	107.88
610.707	129.88
610.916	119.88
611.124	116.88
611.332	121.88
611.54	116.88
611.748	109.88
611.955	111.88
612.163	109.88
612.371	110.88
612.579	116.88
612.787	103.88
612.995	120.88
613.203	109.88
613.411	114.88
613.618	113.88
613.826	98.88
614.034	105.88
614.242	109.88
614.449	101.88
614.657	102.88
614.865	114.88
615.072	101.88
615.28	117.88
615.488	101.88
615.695	102.88
615.903	107.88
616.111	107.88
616.318	116.88
616.526	131.88
616.733	114.88
616.941	121.88
617.148	108.88
617.356	126.88
617.563	105.88
617.771	104.88
617.978	102.88
618.185	107.88
618.393	108.88
618.6	103.88
618.807	113.88
619.015	115.88
619.222	106.88
619.429	102.88
619.637	129.88
619.844	93.88
620.051	96.88
620.258	103.88
620.466	110.88
620.673	91.88
620.88	106.88
621.087	102.88
621.294	107.88
621.501	106.88
621.708	97.88
621.915	116.88
622.122	102.88
622.329	109.88
622.536	110.88
622.743	112.88
622.95	108.88
623.157	109.88
623.364	120.88
623.571	104.88
623.778	104.88
623.985	110.88
624.192	106.88
624.399	119.88
624.606	107.88
624.812	116.88
625.019	103.88
625.226	110.88
625.433	112.88
625.639	104.88
625.846	97.88
626.053	104.88
626.259	105.88
626.466	98.88
626.673	96.88
626.879	82.88
627.086	92.88
627.293	92.88
627.499	94.88
627.706	113.88
627.912	108.88
628.119	103.88
628.325	108.88
628.532	104.88
628.738	88.88
628.945	108.88
629.151	94.88
629.357	82.88
629.564	93.88
629.77	92.88
629.976	92.88
630.183	91.88
630.389	91.88
630.595	101.88
630.802	106.88
631.008	104.88
631.214	94.88
631.42	123.88
631.627	101.88
631.833	101.88
632.039	98.88
632.245	92.88
632.451	100.88
632.657	112.88
632.863	113.88
633.069	108.88
633.275	85.88
633.481	86.88
633.688	89.88
633.893	97.88
634.099	96.88
634.305	91.88
634.511	97.88
634.717	103.88
634.923	105.88
635.129	106.88
635.335	97.88
635.541	99.88
635.747	104.88
635.952	107.88
636.158	102.88
636.364	113.88
636.57	102.88
636.775	107.88
636.981	96.88
637.187	113.88
637.392	115.88
637.598	101.88
637.804	111.88
638.009	126.88
638.215	96.88
638.421	108.88
638.626	97.88
638.832	95.88
639.037	101.88
639.243	100.88
639.448	105.88
639.654	102.88
639.859	103.88
640.065	104.88
640.27	118.88
640.475	94.88
640.681	99.88
640.886	100.88
641.091	94.88
641.297	99.88
641.502	99.88
641.707	96.88
641.913	94.88
642.118	104.88
642.323	90.88
642.528	103.88
642.733	99.88
642.939	103.88
643.144	117.88
643.349	103.88
643.554	116.88
643.759	105.88
643.964	96.88
644.169	84.88
644.374	96.88
644.579	104.88
644.784	98.88
644.989	98.88
645.194	99.88
645.399	94.88
645.604	96.88
645.809	116.88
646.014	86.88
646.219	100.88
646.423	94.88
646.628	98.88
646.833	97.88
647.038	99.88
647.243	107.88
647.447	92.88
647.652	95.88
647.857	100.88
648.062	87.88
648.266	92.88
648.471	93.88
648.676	100.88
648.88	96.88
649.085	110.88
649.289	106.88
649.494	97.88
649.698	107.88
649.903	86.88
650.107	91.88
650.312	94.88
650.516	85.88
650.721	104.88
650.925	81.88
651.13	101.88
651.334	93.88
651.539	96.88
651.743	86.88
651.947	90.88
652.152	104.88
652.356	98.88
652.56	84.88
652.764	79.88
652.969	95.88
653.173	90.88
653.377	84.88
653.581	111.88
653.785	92.88
653.99	97.88
654.194	83.88
654.398	85.88
654.602	98.88
654.806	94.88
655.01	107.88
655.214	85.88
655.418	86.88
655.622	86.88
655.826	79.88
656.03	92.88
656.234	98.88
656.438	89.88
656.642	75.88
656.846	96.88
657.049	86.88
657.253	95.88
657.457	87.88
657.661	101.88
657.865	82.88
658.068	90.88
658.272	95.88
658.476	90.88
658.68	87.88
658.883	79.88
659.087	85.88
659.291	91.88
659.494	90.88
659.698	80.88
659.901	87.88
660.105	91.88
660.309	77.88
660.512	82.88
660.716	81.88
660.919	75.88
661.123	99.88
661.326	99.88
661.53	85.88
661.733	87.88
661.936	84.88
662.14	93.88
662.343	92.88
662.546	82.88
662.75	79.88
662.953	91.88
663.156	100.88
663.36	95.88
663.563	93.88
663.766	85.88
663.969	98.88
664.173	91.88
664.376	75.88
664.579	84.88
664.782	80.88
664.985	95.88
665.188	103.88
665.391	85.88
665.594	81.88
665.797	75.88
666	86.88
666.203	78.88
666.406	74.88
666.609	100.88
666.812	78.88
667.015	82.88
667.218	82.88
667.421	79.88
667.624	76.88
667.827	88.88
668.03	81.88
668.232	74.88
668.435	94.88
668.638	86.88
668.841	80.88
669.043	71.88
669.246	82.88
669.449	89.88
669.651	93.88
669.854	85.88
670.057	82.88
670.259	76.88
670.462	79.88
670.665	80.88
670.867	74.88
671.07	81.88
671.272	78.88
671.475	83.88
671.677	83.88
671.88	101.88
672.082	85.88
672.284	70.88
672.487	81.88
672.689	65.88
672.892	80.88
