Data from Location1.07152019.Energy5.Lamp.07192019.3%Agarose_HRD10591_14-33-29-016.txt Node
Date: Fri Jul 19 14:33:29 EDT 2019
User: cochatt
Spectrometer: HR+D1059
Trigger mode: 1
Integration Time (sec): 1.000000E-1
Scans to average: 1
Electric dark correction enabled: true
Nonlinearity correction enabled: false
Boxcar width: 0
XAxis mode: Wavelengths
Number of Pixels in Spectrum: 2048
>>>>>Begin Spectral Data<<<<<
223.165	-21.62
223.4	-21.62
223.635	-21.62
223.869	-13.62
224.104	-14.62
224.338	-17.62
224.573	-19.62
224.808	-18.62
225.042	1.38
225.277	-9.62
225.511	-7.62
225.746	-5.62
225.98	19.38
226.215	26.38
226.449	8.38
226.683	15.38
226.918	33.38
227.152	24.38
227.387	22.38
227.621	40.38
227.856	64.38
228.09	57.38
228.324	53.38
228.559	37.38
228.793	43.38
229.027	68.38
229.262	68.38
229.496	60.38
229.73	55.38
229.964	85.38
230.199	71.38
230.433	88.38
230.667	70.38
230.901	77.38
231.136	72.38
231.37	72.38
231.604	64.38
231.838	65.38
232.072	74.38
232.306	76.38
232.541	77.38
232.775	73.38
233.009	86.38
233.243	97.38
233.477	75.38
233.711	74.38
233.945	84.38
234.179	85.38
234.413	88.38
234.647	82.38
234.881	92.38
235.115	83.38
235.349	77.38
235.583	76.38
235.817	69.38
236.051	75.38
236.285	84.38
236.519	88.38
236.753	53.38
236.987	69.38
237.221	90.38
237.455	90.38
237.689	74.38
237.922	70.38
238.156	73.38
238.39	85.38
238.624	72.38
238.858	67.38
239.091	75.38
239.325	57.38
239.559	86.38
239.793	69.38
240.027	73.38
240.26	62.38
240.494	76.38
240.728	65.38
240.961	75.38
241.195	75.38
241.429	66.38
241.662	78.38
241.896	72.38
242.13	72.38
242.363	75.38
242.597	66.38
242.83	65.38
243.064	80.38
243.298	81.38
243.531	72.38
243.765	77.38
243.998	77.38
244.232	70.38
244.465	81.38
244.699	73.38
244.932	83.38
245.166	87.38
245.399	75.38
245.633	82.38
245.866	64.38
246.099	83.38
246.333	77.38
246.566	86.38
246.8	76.38
247.033	76.38
247.266	64.38
247.5	87.38
247.733	68.38
247.966	71.38
248.2	87.38
248.433	91.38
248.666	88.38
248.899	86.38
249.133	67.38
249.366	80.38
249.599	84.38
249.832	85.38
250.066	76.38
250.299	68.38
250.532	63.38
250.765	84.38
250.998	80.38
251.231	70.38
251.465	74.38
251.698	84.38
251.931	58.38
252.164	78.38
252.397	70.38
252.63	83.38
252.863	75.38
253.096	79.38
253.329	84.38
253.562	69.38
253.795	80.38
254.028	98.38
254.261	76.38
254.494	68.38
254.727	78.38
254.96	89.38
255.193	97.38
255.426	84.38
255.659	88.38
255.892	74.38
256.124	73.38
256.357	75.38
256.59	70.38
256.823	68.38
257.056	77.38
257.289	90.38
257.521	81.38
257.754	94.38
257.987	88.38
258.22	84.38
258.452	89.38
258.685	91.38
258.918	72.38
259.151	84.38
259.383	82.38
259.616	85.38
259.849	84.38
260.081	77.38
260.314	93.38
260.547	86.38
260.779	76.38
261.012	95.38
261.244	73.38
261.477	76.38
261.71	77.38
261.942	74.38
262.175	89.38
262.407	75.38
262.64	91.38
262.872	90.38
263.105	74.38
263.337	83.38
263.57	84.38
263.802	77.38
264.035	91.38
264.267	84.38
264.499	79.38
264.732	85.38
264.964	78.38
265.197	76.38
265.429	94.38
265.661	86.38
265.894	86.38
266.126	70.38
266.358	79.38
266.591	90.38
266.823	92.38
267.055	69.38
267.287	95.38
267.52	91.38
267.752	83.38
267.984	86.38
268.216	76.38
268.448	99.38
268.681	98.38
268.913	83.38
269.145	80.38
269.377	81.38
269.609	89.38
269.841	84.38
270.073	85.38
270.306	87.38
270.538	76.38
270.77	78.38
271.002	75.38
271.234	96.38
271.466	89.38
271.698	76.38
271.93	82.38
272.162	91.38
272.394	76.38
272.626	73.38
272.858	84.38
273.09	96.38
273.322	88.38
273.553	91.38
273.785	81.38
274.017	76.38
274.249	87.38
274.481	79.38
274.713	90.38
274.945	89.38
275.176	86.38
275.408	73.38
275.64	87.38
275.872	92.38
276.104	84.38
276.335	89.38
276.567	84.38
276.799	92.38
277.031	74.38
277.262	86.38
277.494	86.38
277.726	94.38
277.957	84.38
278.189	87.38
278.421	66.38
278.652	80.38
278.884	76.38
279.115	91.38
279.347	92.38
279.579	92.38
279.81	67.38
280.042	80.38
280.273	77.38
280.505	82.38
280.736	75.38
280.968	89.38
281.199	68.38
281.431	85.38
281.662	89.38
281.894	76.38
282.125	82.38
282.356	79.38
282.588	75.38
282.819	70.38
283.051	84.38
283.282	89.38
283.513	99.38
283.745	83.38
283.976	101.38
284.207	87.38
284.439	76.38
284.67	85.38
284.901	89.38
285.132	91.38
285.364	98.38
285.595	93.38
285.826	80.38
286.057	84.38
286.288	88.38
286.52	89.38
286.751	73.38
286.982	83.38
287.213	82.38
287.444	77.38
287.675	78.38
287.906	85.38
288.138	84.38
288.369	81.38
288.6	86.38
288.831	77.38
289.062	79.38
289.293	81.38
289.524	92.38
289.755	96.38
289.986	71.38
290.217	85.38
290.448	94.38
290.679	81.38
290.91	96.38
291.141	79.38
291.371	86.38
291.602	89.38
291.833	94.38
292.064	89.38
292.295	84.38
292.526	68.38
292.757	82.38
292.987	84.38
293.218	86.38
293.449	84.38
293.68	87.38
293.91	75.38
294.141	89.38
294.372	85.38
294.603	78.38
294.833	85.38
295.064	89.38
295.295	89.38
295.525	87.38
295.756	83.38
295.987	81.38
296.217	81.38
296.448	84.38
296.679	81.38
296.909	92.38
297.14	90.38
297.37	85.38
297.601	86.38
297.831	77.38
298.062	78.38
298.292	74.38
298.523	98.38
298.753	87.38
298.984	99.38
299.214	79.38
299.445	81.38
299.675	90.38
299.905	80.38
300.136	78.38
300.366	87.38
300.597	77.38
300.827	89.38
301.057	88.38
301.288	84.38
301.518	86.38
301.748	72.38
301.979	86.38
302.209	77.38
302.439	88.38
302.669	77.38
302.9	100.38
303.13	81.38
303.36	88.38
303.59	77.38
303.82	82.38
304.051	86.38
304.281	91.38
304.511	91.38
304.741	76.38
304.971	90.38
305.201	94.38
305.431	88.38
305.661	93.38
305.891	87.38
306.121	84.38
306.352	88.38
306.582	84.38
306.812	75.38
307.042	71.38
307.272	97.38
307.502	74.38
307.731	79.38
307.961	90.38
308.191	83.38
308.421	83.38
308.651	86.38
308.881	87.38
309.111	81.38
309.341	87.38
309.571	88.38
309.8	81.38
310.03	76.38
310.26	104.38
310.49	89.38
310.72	80.38
310.949	74.38
311.179	72.38
311.409	90.38
311.639	92.38
311.868	79.38
312.098	72.38
312.328	71.38
312.557	87.38
312.787	81.38
313.017	86.38
313.246	73.38
313.476	84.38
313.706	78.38
313.935	75.38
314.165	84.38
314.394	74.38
314.624	85.38
314.853	94.38
315.083	89.38
315.312	89.38
315.542	81.38
315.771	76.38
316.001	74.38
316.23	89.38
316.46	78.38
316.689	89.38
316.919	78.38
317.148	86.38
317.377	82.38
317.607	83.38
317.836	89.38
318.065	84.38
318.295	67.38
318.524	82.38
318.753	90.38
318.983	71.38
319.212	69.38
319.441	76.38
319.67	84.38
319.9	93.38
320.129	77.38
320.358	79.38
320.587	78.38
320.816	85.38
321.046	91.38
321.275	85.38
321.504	90.38
321.733	75.38
321.962	79.38
322.191	77.38
322.42	84.38
322.649	91.38
322.878	77.38
323.108	79.38
323.337	89.38
323.566	90.38
323.795	95.38
324.024	83.38
324.253	84.38
324.482	88.38
324.71	80.38
324.939	81.38
325.168	89.38
325.397	83.38
325.626	77.38
325.855	92.38
326.084	82.38
326.313	77.38
326.542	85.38
326.77	80.38
326.999	83.38
327.228	84.38
327.457	88.38
327.686	80.38
327.914	83.38
328.143	80.38
328.372	90.38
328.6	78.38
328.829	78.38
329.058	91.38
329.287	65.38
329.515	78.38
329.744	75.38
329.972	89.38
330.201	86.38
330.43	87.38
330.658	76.38
330.887	85.38
331.115	95.38
331.344	88.38
331.572	85.38
331.801	79.38
332.03	75.38
332.258	79.38
332.486	98.38
332.715	90.38
332.943	78.38
333.172	85.38
333.4	85.38
333.629	86.38
333.857	88.38
334.085	70.38
334.314	90.38
334.542	81.38
334.771	93.38
334.999	79.38
335.227	84.38
335.455	84.38
335.684	96.38
335.912	74.38
336.14	88.38
336.369	87.38
336.597	77.38
336.825	88.38
337.053	89.38
337.281	100.38
337.51	88.38
337.738	91.38
337.966	81.38
338.194	84.38
338.422	79.38
338.65	77.38
338.878	82.38
339.106	78.38
339.334	85.38
339.562	82.38
339.79	84.38
340.018	83.38
340.246	89.38
340.474	81.38
340.702	93.38
340.93	79.38
341.158	82.38
341.386	85.38
341.614	78.38
341.842	79.38
342.07	76.38
342.298	70.38
342.526	69.38
342.754	78.38
342.981	81.38
343.209	73.38
343.437	98.38
343.665	81.38
343.893	74.38
344.12	94.38
344.348	82.38
344.576	94.38
344.804	69.38
345.031	97.38
345.259	71.38
345.487	93.38
345.714	81.38
345.942	80.38
346.17	86.38
346.397	82.38
346.625	82.38
346.853	90.38
347.08	87.38
347.308	88.38
347.535	82.38
347.763	85.38
347.99	80.38
348.218	88.38
348.445	82.38
348.673	82.38
348.9	85.38
349.128	89.38
349.355	89.38
349.583	76.38
349.81	75.38
350.037	74.38
350.265	86.38
350.492	97.38
350.72	73.38
350.947	88.38
351.174	96.38
351.402	77.38
351.629	82.38
351.856	78.38
352.083	68.38
352.311	88.38
352.538	81.38
352.765	83.38
352.992	94.38
353.22	84.38
353.447	82.38
353.674	82.38
353.901	84.38
354.128	71.38
354.355	77.38
354.583	92.38
354.81	76.38
355.037	90.38
355.264	86.38
355.491	96.38
355.718	75.38
355.945	82.38
356.172	83.38
356.399	75.38
356.626	88.38
356.853	70.38
357.08	74.38
357.307	73.38
357.534	89.38
357.761	89.38
357.988	103.38
358.215	86.38
358.441	86.38
358.668	80.38
358.895	85.38
359.122	78.38
359.349	84.38
359.576	85.38
359.802	74.38
360.029	89.38
360.256	82.38
360.483	98.38
360.709	85.38
360.936	84.38
361.163	98.38
361.39	82.38
361.616	83.38
361.843	80.38
362.07	83.38
362.296	82.38
362.523	89.38
362.749	80.38
362.976	64.38
363.203	87.38
363.429	76.38
363.656	79.38
363.882	84.38
364.109	78.38
364.335	90.38
364.562	81.38
364.788	100.38
365.015	94.38
365.241	74.38
365.468	75.38
365.694	86.38
365.92	72.38
366.147	77.38
366.373	86.38
366.599	73.38
366.826	76.38
367.052	85.38
367.278	94.38
367.505	94.38
367.731	90.38
367.957	90.38
368.184	70.38
368.41	88.38
368.636	88.38
368.862	94.38
369.089	73.38
369.315	86.38
369.541	84.38
369.767	93.38
369.993	97.38
370.219	87.38
370.445	103.38
370.672	100.38
370.898	87.38
371.124	89.38
371.35	94.38
371.576	88.38
371.802	86.38
372.028	88.38
372.254	82.38
372.48	81.38
372.706	86.38
372.932	82.38
373.158	102.38
373.384	96.38
373.61	98.38
373.835	78.38
374.061	86.38
374.287	93.38
374.513	79.38
374.739	94.38
374.965	85.38
375.191	94.38
375.416	92.38
375.642	95.38
375.868	89.38
376.094	90.38
376.319	81.38
376.545	85.38
376.771	83.38
376.997	97.38
377.222	90.38
377.448	74.38
377.674	88.38
377.899	93.38
378.125	85.38
378.35	93.38
378.576	99.38
378.802	91.38
379.027	72.38
379.253	92.38
379.478	92.38
379.704	87.38
379.929	101.38
380.155	83.38
380.38	98.38
380.606	87.38
380.831	100.38
381.057	99.38
381.282	92.38
381.507	96.38
381.733	82.38
381.958	93.38
382.184	102.38
382.409	99.38
382.634	88.38
382.86	80.38
383.085	92.38
383.31	98.38
383.535	102.38
383.761	99.38
383.986	93.38
384.211	93.38
384.436	92.38
384.662	89.38
384.887	94.38
385.112	99.38
385.337	101.38
385.562	93.38
385.787	110.38
386.013	97.38
386.238	100.38
386.463	113.38
386.688	99.38
386.913	99.38
387.138	98.38
387.363	99.38
387.588	91.38
387.813	101.38
388.038	99.38
388.263	94.38
388.488	86.38
388.713	101.38
388.938	90.38
389.163	101.38
389.387	104.38
389.612	95.38
389.837	90.38
390.062	100.38
390.287	108.38
390.512	96.38
390.736	97.38
390.961	105.38
391.186	97.38
391.411	116.38
391.636	100.38
391.86	109.38
392.085	99.38
392.31	107.38
392.534	109.38
392.759	94.38
392.984	92.38
393.208	111.38
393.433	106.38
393.658	109.38
393.882	105.38
394.107	103.38
394.331	117.38
394.556	90.38
394.78	99.38
395.005	112.38
395.229	108.38
395.454	100.38
395.678	110.38
395.903	99.38
396.127	103.38
396.352	109.38
396.576	106.38
396.801	109.38
397.025	93.38
397.249	104.38
397.474	110.38
397.698	120.38
397.922	118.38
398.147	125.38
398.371	102.38
398.595	101.38
398.82	106.38
399.044	109.38
399.268	107.38
399.492	100.38
399.717	116.38
399.941	110.38
400.165	110.38
400.389	118.38
400.613	128.38
400.837	109.38
401.062	117.38
401.286	110.38
401.51	94.38
401.734	102.38
401.958	106.38
402.182	118.38
402.406	112.38
402.63	120.38
402.854	109.38
403.078	127.38
403.302	110.38
403.526	115.38
403.75	99.38
403.974	112.38
404.198	117.38
404.422	101.38
404.645	101.38
404.869	117.38
405.093	109.38
405.317	110.38
405.541	108.38
405.765	115.38
405.988	128.38
406.212	103.38
406.436	97.38
406.66	104.38
406.883	105.38
407.107	118.38
407.331	110.38
407.555	118.38
407.778	110.38
408.002	113.38
408.226	126.38
408.449	118.38
408.673	108.38
408.896	106.38
409.12	120.38
409.344	117.38
409.567	113.38
409.791	122.38
410.014	112.38
410.238	108.38
410.461	114.38
410.685	125.38
410.908	118.38
411.132	127.38
411.355	116.38
411.578	116.38
411.802	123.38
412.025	118.38
412.249	121.38
412.472	109.38
412.695	109.38
412.919	125.38
413.142	120.38
413.365	109.38
413.589	114.38
413.812	119.38
414.035	111.38
414.258	127.38
414.482	122.38
414.705	129.38
414.928	124.38
415.151	120.38
415.374	115.38
415.597	121.38
415.821	117.38
416.044	125.38
416.267	122.38
416.49	146.38
416.713	130.38
416.936	117.38
417.159	121.38
417.382	112.38
417.605	128.38
417.828	127.38
418.051	128.38
418.274	125.38
418.497	135.38
418.72	125.38
418.943	130.38
419.166	131.38
419.389	116.38
419.611	122.38
419.834	129.38
420.057	122.38
420.28	134.38
420.503	142.38
420.726	135.38
420.948	133.38
421.171	123.38
421.394	122.38
421.617	147.38
421.839	129.38
422.062	144.38
422.285	128.38
422.507	109.38
422.73	118.38
422.953	125.38
423.175	131.38
423.398	119.38
423.621	128.38
423.843	133.38
424.066	130.38
424.288	145.38
424.511	146.38
424.733	146.38
424.956	150.38
425.178	137.38
425.401	144.38
425.623	124.38
425.846	131.38
426.068	121.38
426.291	108.38
426.513	122.38
426.735	136.38
426.958	134.38
427.18	128.38
427.402	114.38
427.625	125.38
427.847	121.38
428.069	132.38
428.292	138.38
428.514	132.38
428.736	123.38
428.958	133.38
429.181	128.38
429.403	126.38
429.625	116.38
429.847	106.38
430.069	132.38
430.292	116.38
430.514	122.38
430.736	123.38
430.958	128.38
431.18	137.38
431.402	126.38
431.624	129.38
431.846	121.38
432.068	102.38
432.29	106.38
432.512	112.38
432.734	117.38
432.956	137.38
433.178	128.38
433.4	129.38
433.622	132.38
433.844	145.38
434.066	103.38
434.287	96.38
434.509	96.38
434.731	101.38
434.953	100.38
435.175	121.38
435.397	122.38
435.618	119.38
435.84	111.38
436.062	123.38
436.284	133.38
436.505	126.38
436.727	114.38
436.949	125.38
437.17	130.38
437.392	119.38
437.614	132.38
437.835	124.38
438.057	103.38
438.278	118.38
438.5	111.38
438.721	120.38
438.943	128.38
439.165	122.38
439.386	117.38
439.608	138.38
439.829	132.38
440.05	147.38
440.272	138.38
440.493	124.38
440.715	148.38
440.936	143.38
441.158	140.38
441.379	134.38
441.6	135.38
441.822	137.38
442.043	142.38
442.264	141.38
442.486	129.38
442.707	135.38
442.928	125.38
443.149	132.38
443.371	126.38
443.592	130.38
443.813	133.38
444.034	140.38
444.255	139.38
444.476	145.38
444.698	151.38
444.919	145.38
445.14	230.38
445.361	178.38
445.582	152.38
445.803	154.38
446.024	143.38
446.245	145.38
446.466	160.38
446.687	143.38
446.908	150.38
447.129	157.38
447.35	126.38
447.571	143.38
447.792	153.38
448.013	146.38
448.234	137.38
448.455	130.38
448.675	131.38
448.896	136.38
449.117	124.38
449.338	127.38
449.559	116.38
449.779	137.38
450	129.38
450.221	133.38
450.442	138.38
450.662	114.38
450.883	139.38
451.104	118.38
451.324	138.38
451.545	132.38
451.766	128.38
451.986	120.38
452.207	130.38
452.428	123.38
452.648	114.38
452.869	116.38
453.089	109.38
453.31	101.38
453.53	119.38
453.751	91.38
453.971	114.38
454.192	110.38
454.412	105.38
454.633	119.38
454.853	112.38
455.073	117.38
455.294	117.38
455.514	125.38
455.734	134.38
455.955	112.38
456.175	114.38
456.395	105.38
456.616	122.38
456.836	99.38
457.056	88.38
457.276	102.38
457.497	115.38
457.717	100.38
457.937	104.38
458.157	126.38
458.377	113.38
458.598	99.38
458.818	87.38
459.038	86.38
459.258	70.38
459.478	88.38
459.698	101.38
459.918	107.38
460.138	99.38
460.358	105.38
460.578	116.38
460.798	116.38
461.018	108.38
461.238	113.38
461.458	108.38
461.678	112.38
461.898	112.38
462.118	108.38
462.338	117.38
462.558	111.38
462.777	123.38
462.997	118.38
463.217	115.38
463.437	114.38
463.657	105.38
463.876	102.38
464.096	109.38
464.316	94.38
464.536	100.38
464.755	105.38
464.975	116.38
465.195	113.38
465.414	132.38
465.634	101.38
465.854	105.38
466.073	111.38
466.293	113.38
466.512	104.38
466.732	111.38
466.951	128.38
467.171	132.38
467.391	130.38
467.61	129.38
467.829	136.38
468.049	132.38
468.268	118.38
468.488	137.38
468.707	136.38
468.927	128.38
469.146	143.38
469.365	126.38
469.585	133.38
469.804	132.38
470.023	136.38
470.243	129.38
470.462	138.38
470.681	140.38
470.901	133.38
471.12	148.38
471.339	132.38
471.558	135.38
471.777	130.38
471.997	136.38
472.216	115.38
472.435	110.38
472.654	97.38
472.873	112.38
473.092	105.38
473.311	123.38
473.53	118.38
473.749	115.38
473.968	117.38
474.187	137.38
474.406	113.38
474.625	126.38
474.844	133.38
475.063	129.38
475.282	130.38
475.501	119.38
475.72	122.38
475.939	122.38
476.158	120.38
476.377	138.38
476.596	133.38
476.814	118.38
477.033	99.38
477.252	132.38
477.471	135.38
477.69	137.38
477.908	131.38
478.127	136.38
478.346	128.38
478.564	124.38
478.783	134.38
479.002	148.38
479.22	139.38
479.439	125.38
479.658	122.38
479.876	131.38
480.095	117.38
480.313	105.38
480.532	126.38
480.751	113.38
480.969	94.38
481.188	96.38
481.406	98.38
481.624	96.38
481.843	95.38
482.061	104.38
482.28	104.38
482.498	113.38
482.717	101.38
482.935	105.38
483.153	148.38
483.372	137.38
483.59	142.38
483.808	126.38
484.027	135.38
484.245	135.38
484.463	142.38
484.681	138.38
484.9	150.38
485.118	140.38
485.336	116.38
485.554	102.38
485.772	107.38
485.99	102.38
486.209	102.38
486.427	114.38
486.645	113.38
486.863	148.38
487.081	136.38
487.299	130.38
487.517	146.38
487.735	180.38
487.953	203.38
488.171	185.38
488.389	183.38
488.607	162.38
488.825	148.38
489.043	132.38
489.261	131.38
489.479	136.38
489.696	148.38
489.914	142.38
490.132	152.38
490.35	152.38
490.568	156.38
490.786	157.38
491.003	174.38
491.221	193.38
491.439	167.38
491.657	184.38
491.874	196.38
492.092	214.38
492.31	234.38
492.527	224.38
492.745	203.38
492.963	208.38
493.18	196.38
493.398	195.38
493.615	177.38
493.833	161.38
494.05	166.38
494.268	188.38
494.485	181.38
494.703	175.38
494.92	179.38
495.138	161.38
495.355	158.38
495.573	168.38
495.79	157.38
496.008	164.38
496.225	157.38
496.442	153.38
496.66	155.38
496.877	165.38
497.094	164.38
497.312	156.38
497.529	159.38
497.746	144.38
497.963	141.38
498.181	128.38
498.398	128.38
498.615	127.38
498.832	125.38
499.049	114.38
499.267	112.38
499.484	136.38
499.701	134.38
499.918	137.38
500.135	132.38
500.352	141.38
500.569	147.38
500.786	144.38
501.003	140.38
501.22	137.38
501.437	141.38
501.654	131.38
501.871	118.38
502.088	125.38
502.305	123.38
502.522	129.38
502.739	129.38
502.956	139.38
503.172	126.38
503.389	118.38
503.606	118.38
503.823	122.38
504.04	127.38
504.256	126.38
504.473	125.38
504.69	116.38
504.907	138.38
505.123	111.38
505.34	111.38
505.557	116.38
505.773	113.38
505.99	123.38
506.207	116.38
506.423	114.38
506.64	135.38
506.856	108.38
507.073	106.38
507.289	112.38
507.506	121.38
507.722	122.38
507.939	102.38
508.155	101.38
508.372	112.38
508.588	114.38
508.805	115.38
509.021	104.38
509.238	100.38
509.454	108.38
509.67	96.38
509.887	90.38
510.103	96.38
510.319	90.38
510.536	112.38
510.752	92.38
510.968	90.38
511.184	82.38
511.401	90.38
511.617	101.38
511.833	81.38
512.049	89.38
512.265	102.38
512.481	90.38
512.698	104.38
512.914	107.38
513.13	87.38
513.346	81.38
513.562	86.38
513.778	79.38
513.994	89.38
514.21	105.38
514.426	90.38
514.642	80.38
514.858	78.38
515.074	105.38
515.29	90.38
515.506	91.38
515.721	84.38
515.937	90.38
516.153	85.38
516.369	70.38
516.585	104.38
516.801	76.38
517.016	91.38
517.232	76.38
517.448	100.38
517.664	101.38
517.879	102.38
518.095	99.38
518.311	92.38
518.527	99.38
518.742	102.38
518.958	88.38
519.173	107.38
519.389	109.38
519.605	114.38
519.82	116.38
520.036	89.38
520.251	112.38
520.467	109.38
520.682	102.38
520.898	106.38
521.113	96.38
521.329	87.38
521.544	90.38
521.76	105.38
521.975	101.38
522.19	98.38
522.406	107.38
522.621	99.38
522.836	110.38
523.052	84.38
523.267	108.38
523.482	103.38
523.698	112.38
523.913	116.38
524.128	118.38
524.343	121.38
524.559	124.38
524.774	108.38
524.989	132.38
525.204	106.38
525.419	119.38
525.634	110.38
525.849	94.38
526.064	108.38
526.28	107.38
526.495	90.38
526.71	76.38
526.925	78.38
527.14	85.38
527.355	86.38
527.57	78.38
527.785	90.38
527.999	89.38
528.214	100.38
528.429	112.38
528.644	114.38
528.859	134.38
529.074	155.38
529.289	163.38
529.503	161.38
529.718	134.38
529.933	115.38
530.148	97.38
530.363	95.38
530.577	94.38
530.792	94.38
531.007	75.38
531.221	97.38
531.436	97.38
531.651	88.38
531.865	89.38
532.08	86.38
532.295	95.38
532.509	81.38
532.724	96.38
532.938	92.38
533.153	96.38
533.367	110.38
533.582	125.38
533.796	116.38
534.011	114.38
534.225	96.38
534.44	90.38
534.654	97.38
534.868	93.38
535.083	104.38
535.297	102.38
535.511	88.38
535.726	103.38
535.94	96.38
536.154	99.38
536.369	89.38
536.583	83.38
536.797	81.38
537.011	81.38
537.225	88.38
537.44	94.38
537.654	100.38
537.868	87.38
538.082	91.38
538.296	88.38
538.51	101.38
538.724	115.38
538.938	123.38
539.153	125.38
539.367	133.38
539.581	117.38
539.795	96.38
540.009	99.38
540.222	105.38
540.436	95.38
540.65	118.38
540.864	120.38
541.078	145.38
541.292	160.38
541.506	147.38
541.72	173.38
541.934	174.38
542.147	198.38
542.361	188.38
542.575	150.38
542.789	125.38
543.002	142.38
543.216	122.38
543.43	122.38
543.644	141.38
543.857	142.38
544.071	144.38
544.285	145.38
544.498	142.38
544.712	160.38
544.925	154.38
545.139	149.38
545.352	153.38
545.566	168.38
545.779	159.38
545.993	148.38
546.206	177.38
546.42	145.38
546.633	154.38
546.847	151.38
547.06	162.38
547.274	176.38
547.487	181.38
547.7	169.38
547.914	180.38
548.127	157.38
548.34	162.38
548.554	164.38
548.767	153.38
548.98	152.38
549.193	163.38
549.407	155.38
549.62	156.38
549.833	160.38
550.046	142.38
550.259	161.38
550.473	130.38
550.686	156.38
550.899	147.38
551.112	143.38
551.325	144.38
551.538	139.38
551.751	135.38
551.964	114.38
552.177	128.38
552.39	141.38
552.603	146.38
552.816	142.38
553.029	162.38
553.242	168.38
553.455	159.38
553.667	156.38
553.88	146.38
554.093	139.38
554.306	145.38
554.519	153.38
554.732	160.38
554.944	140.38
555.157	134.38
555.37	160.38
555.583	129.38
555.795	132.38
556.008	136.38
556.221	128.38
556.433	131.38
556.646	130.38
556.859	131.38
557.071	132.38
557.284	148.38
557.496	119.38
557.709	145.38
557.921	142.38
558.134	134.38
558.346	128.38
558.559	136.38
558.771	125.38
558.984	139.38
559.196	125.38
559.409	117.38
559.621	130.38
559.833	121.38
560.046	118.38
560.258	126.38
560.47	129.38
560.683	132.38
560.895	116.38
561.107	127.38
561.32	124.38
561.532	135.38
561.744	128.38
561.956	125.38
562.168	132.38
562.381	132.38
562.593	130.38
562.805	123.38
563.017	134.38
563.229	128.38
563.441	118.38
563.653	112.38
563.865	128.38
564.077	125.38
564.289	116.38
564.501	123.38
564.713	131.38
564.925	128.38
565.137	125.38
565.349	124.38
565.561	120.38
565.773	113.38
565.985	128.38
566.197	125.38
566.408	105.38
566.62	116.38
566.832	106.38
567.044	115.38
567.255	112.38
567.467	125.38
567.679	103.38
567.891	120.38
568.102	97.38
568.314	100.38
568.526	82.38
568.737	86.38
568.949	87.38
569.161	86.38
569.372	76.38
569.584	87.38
569.795	78.38
570.007	78.38
570.218	103.38
570.43	88.38
570.641	83.38
570.853	78.38
571.064	96.38
571.276	89.38
571.487	98.38
571.698	107.38
571.91	107.38
572.121	98.38
572.333	97.38
572.544	86.38
572.755	81.38
572.966	89.38
573.178	97.38
573.389	98.38
573.6	92.38
573.811	94.38
574.023	69.38
574.234	97.38
574.445	80.38
574.656	87.38
574.867	104.38
575.078	91.38
575.289	93.38
575.501	101.38
575.712	101.38
575.923	87.38
576.134	93.38
576.345	89.38
576.556	98.38
576.767	100.38
576.978	94.38
577.188	99.38
577.399	99.38
577.61	86.38
577.821	91.38
578.032	90.38
578.243	94.38
578.454	89.38
578.665	100.38
578.875	88.38
579.086	76.38
579.297	96.38
579.508	84.38
579.718	89.38
579.929	96.38
580.14	83.38
580.35	85.38
580.561	84.38
580.772	78.38
580.982	99.38
581.193	108.38
581.403	94.38
581.614	94.38
581.825	84.38
582.035	102.38
582.246	97.38
582.456	95.38
582.667	101.38
582.877	105.38
583.087	105.38
583.298	83.38
583.508	81.38
583.719	90.38
583.929	81.38
584.139	77.38
584.35	82.38
584.56	78.38
584.77	88.38
584.981	84.38
585.191	74.38
585.401	94.38
585.611	86.38
585.821	92.38
586.032	95.38
586.242	92.38
586.452	93.38
586.662	79.38
586.872	91.38
587.082	77.38
587.292	79.38
587.502	71.38
587.713	74.38
587.923	88.38
588.133	92.38
588.343	96.38
588.553	69.38
588.762	86.38
588.972	60.38
589.182	80.38
589.392	67.38
589.602	79.38
589.812	86.38
590.022	81.38
590.232	81.38
590.441	79.38
590.651	89.38
590.861	81.38
591.071	88.38
591.281	76.38
591.49	82.38
591.7	84.38
591.91	84.38
592.119	87.38
592.329	93.38
592.539	89.38
592.748	83.38
592.958	82.38
593.167	75.38
593.377	96.38
593.587	85.38
593.796	75.38
594.006	72.38
594.215	87.38
594.424	88.38
594.634	112.38
594.843	85.38
595.053	99.38
595.262	93.38
595.472	94.38
595.681	83.38
595.89	88.38
596.1	89.38
596.309	85.38
596.518	85.38
596.727	110.38
596.937	99.38
597.146	83.38
597.355	85.38
597.564	98.38
597.774	102.38
597.983	75.38
598.192	102.38
598.401	88.38
598.61	93.38
598.819	101.38
599.028	95.38
599.237	82.38
599.446	83.38
599.655	94.38
599.864	106.38
600.073	105.38
600.282	102.38
600.491	96.38
600.7	101.38
600.909	85.38
601.118	91.38
601.327	105.38
601.536	98.38
601.745	119.38
601.953	112.38
602.162	114.38
602.371	117.38
602.58	102.38
602.789	101.38
602.997	117.38
603.206	102.38
603.415	107.38
603.623	108.38
603.832	101.38
604.041	103.38
604.249	91.38
604.458	103.38
604.666	95.38
604.875	106.38
605.084	99.38
605.292	101.38
605.501	103.38
605.709	116.38
605.918	99.38
606.126	110.38
606.334	118.38
606.543	105.38
606.751	91.38
606.96	107.38
607.168	112.38
607.376	110.38
607.585	109.38
607.793	113.38
608.001	102.38
608.21	120.38
608.418	114.38
608.626	112.38
608.834	109.38
609.043	119.38
609.251	104.38
609.459	95.38
609.667	113.38
609.875	109.38
610.083	128.38
610.291	128.38
610.499	110.38
610.707	119.38
610.916	118.38
611.124	124.38
611.332	125.38
611.54	116.38
611.748	89.38
611.955	123.38
612.163	94.38
612.371	115.38
612.579	126.38
612.787	121.38
612.995	107.38
613.203	119.38
613.411	103.38
613.618	108.38
613.826	116.38
614.034	105.38
614.242	94.38
614.449	114.38
614.657	122.38
614.865	118.38
615.072	106.38
615.28	109.38
615.488	115.38
615.695	109.38
615.903	121.38
616.111	116.38
616.318	108.38
616.526	117.38
616.733	107.38
616.941	102.38
617.148	116.38
617.356	109.38
617.563	108.38
617.771	106.38
617.978	98.38
618.185	123.38
618.393	113.38
618.6	97.38
618.807	106.38
619.015	102.38
619.222	94.38
619.429	116.38
619.637	98.38
619.844	104.38
620.051	117.38
620.258	104.38
620.466	104.38
620.673	107.38
620.88	108.38
621.087	96.38
621.294	92.38
621.501	115.38
621.708	103.38
621.915	101.38
622.122	122.38
622.329	110.38
622.536	108.38
622.743	105.38
622.95	119.38
623.157	128.38
623.364	103.38
623.571	101.38
623.778	108.38
623.985	101.38
624.192	116.38
624.399	107.38
624.606	100.38
624.812	116.38
625.019	105.38
625.226	110.38
625.433	95.38
625.639	101.38
625.846	98.38
626.053	91.38
626.259	97.38
626.466	107.38
626.673	80.38
626.879	92.38
627.086	108.38
627.293	101.38
627.499	105.38
627.706	108.38
627.912	100.38
628.119	109.38
628.325	104.38
628.532	94.38
628.738	105.38
628.945	114.38
629.151	93.38
629.357	103.38
629.564	100.38
629.77	88.38
629.976	77.38
630.183	101.38
630.389	92.38
630.595	96.38
630.802	112.38
631.008	96.38
631.214	91.38
631.42	107.38
631.627	116.38
631.833	97.38
632.039	91.38
632.245	124.38
632.451	108.38
632.657	115.38
632.863	105.38
633.069	109.38
633.275	98.38
633.481	91.38
633.688	87.38
633.893	88.38
634.099	91.38
634.305	68.38
634.511	100.38
634.717	97.38
634.923	99.38
635.129	105.38
635.335	85.38
635.541	98.38
635.747	86.38
635.952	100.38
636.158	90.38
636.364	104.38
636.57	98.38
636.775	89.38
636.981	102.38
637.187	100.38
637.392	103.38
637.598	92.38
637.804	90.38
638.009	112.38
638.215	105.38
638.421	101.38
638.626	92.38
638.832	102.38
639.037	105.38
639.243	92.38
639.448	85.38
639.654	104.38
639.859	92.38
640.065	94.38
640.27	92.38
640.475	89.38
640.681	91.38
640.886	100.38
641.091	90.38
641.297	90.38
641.502	89.38
641.707	103.38
641.913	96.38
642.118	95.38
642.323	84.38
642.528	95.38
642.733	103.38
642.939	113.38
643.144	101.38
643.349	92.38
643.554	100.38
643.759	95.38
643.964	93.38
644.169	88.38
644.374	95.38
644.579	108.38
644.784	98.38
644.989	83.38
645.194	96.38
645.399	95.38
645.604	108.38
645.809	97.38
646.014	97.38
646.219	97.38
646.423	92.38
646.628	88.38
646.833	90.38
647.038	97.38
647.243	92.38
647.447	105.38
647.652	108.38
647.857	103.38
648.062	105.38
648.266	99.38
648.471	94.38
648.676	91.38
648.88	91.38
649.085	87.38
649.289	92.38
649.494	96.38
649.698	96.38
649.903	101.38
650.107	101.38
650.312	97.38
650.516	97.38
650.721	91.38
650.925	102.38
651.13	90.38
651.334	91.38
651.539	103.38
651.743	102.38
651.947	85.38
652.152	88.38
652.356	106.38
652.56	93.38
652.764	81.38
652.969	103.38
653.173	99.38
653.377	93.38
653.581	86.38
653.785	95.38
653.99	104.38
654.194	77.38
654.398	86.38
654.602	86.38
654.806	95.38
655.01	80.38
655.214	94.38
655.418	86.38
655.622	85.38
655.826	92.38
656.03	96.38
656.234	90.38
656.438	93.38
656.642	82.38
656.846	70.38
657.049	88.38
657.253	92.38
657.457	79.38
657.661	95.38
657.865	92.38
658.068	80.38
658.272	74.38
658.476	85.38
658.68	86.38
658.883	91.38
659.087	90.38
659.291	91.38
659.494	84.38
659.698	74.38
659.901	82.38
660.105	77.38
660.309	86.38
660.512	87.38
660.716	80.38
660.919	85.38
661.123	82.38
661.326	75.38
661.53	74.38
661.733	101.38
661.936	87.38
662.14	100.38
662.343	93.38
662.546	83.38
662.75	94.38
662.953	76.38
663.156	73.38
663.36	89.38
663.563	88.38
663.766	88.38
663.969	85.38
664.173	73.38
664.376	81.38
664.579	83.38
664.782	86.38
664.985	86.38
665.188	83.38
665.391	89.38
665.594	81.38
665.797	86.38
666	75.38
666.203	91.38
666.406	76.38
666.609	79.38
666.812	89.38
667.015	76.38
667.218	92.38
667.421	89.38
667.624	85.38
667.827	92.38
668.03	80.38
668.232	83.38
668.435	68.38
668.638	76.38
668.841	68.38
669.043	78.38
669.246	90.38
669.449	72.38
669.651	82.38
669.854	77.38
670.057	101.38
670.259	72.38
670.462	96.38
670.665	76.38
670.867	68.38
671.07	77.38
671.272	83.38
671.475	64.38
671.677	91.38
671.88	79.38
672.082	88.38
672.284	90.38
672.487	91.38
672.689	76.38
672.892	82.38
