Data from Location1.07152019.Energy5.Lamp.07192019.3%Agarose_HRD10591_14-31-38-016.txt Node
Date: Fri Jul 19 14:31:38 EDT 2019
User: cochatt
Spectrometer: HR+D1059
Trigger mode: 1
Integration Time (sec): 1.000000E-1
Scans to average: 1
Electric dark correction enabled: true
Nonlinearity correction enabled: false
Boxcar width: 0
XAxis mode: Wavelengths
Number of Pixels in Spectrum: 2048
>>>>>Begin Spectral Data<<<<<
223.165	-10.62
223.4	-10.62
223.635	-10.62
223.869	-19.62
224.104	-19.62
224.338	-10.62
224.573	-12.62
224.808	-15.62
225.042	-5.62
225.277	-15.62
225.511	-10.62
225.746	-6.62
225.98	12.38
226.215	13.38
226.449	24.38
226.683	23.38
226.918	22.38
227.152	31.38
227.387	30.38
227.621	32.38
227.856	47.38
228.09	45.38
228.324	41.38
228.559	57.38
228.793	56.38
229.027	71.38
229.262	63.38
229.496	70.38
229.73	69.38
229.964	81.38
230.199	78.38
230.433	73.38
230.667	72.38
230.901	89.38
231.136	81.38
231.37	91.38
231.604	92.38
231.838	64.38
232.072	77.38
232.306	81.38
232.541	84.38
232.775	85.38
233.009	91.38
233.243	64.38
233.477	84.38
233.711	101.38
233.945	90.38
234.179	94.38
234.413	88.38
234.647	85.38
234.881	77.38
235.115	78.38
235.349	86.38
235.583	86.38
235.817	85.38
236.051	70.38
236.285	89.38
236.519	75.38
236.753	73.38
236.987	83.38
237.221	80.38
237.455	69.38
237.689	89.38
237.922	91.38
238.156	83.38
238.39	82.38
238.624	75.38
238.858	72.38
239.091	68.38
239.325	89.38
239.559	75.38
239.793	78.38
240.027	70.38
240.26	80.38
240.494	76.38
240.728	71.38
240.961	71.38
241.195	67.38
241.429	72.38
241.662	74.38
241.896	76.38
242.13	85.38
242.363	77.38
242.597	72.38
242.83	81.38
243.064	79.38
243.298	76.38
243.531	74.38
243.765	69.38
243.998	74.38
244.232	70.38
244.465	68.38
244.699	81.38
244.932	75.38
245.166	91.38
245.399	85.38
245.633	83.38
245.866	76.38
246.099	81.38
246.333	79.38
246.566	87.38
246.8	77.38
247.033	87.38
247.266	65.38
247.5	89.38
247.733	83.38
247.966	81.38
248.2	87.38
248.433	83.38
248.666	78.38
248.899	82.38
249.133	75.38
249.366	92.38
249.599	83.38
249.832	79.38
250.066	92.38
250.299	83.38
250.532	76.38
250.765	81.38
250.998	85.38
251.231	86.38
251.465	91.38
251.698	64.38
251.931	70.38
252.164	85.38
252.397	87.38
252.63	79.38
252.863	80.38
253.096	95.38
253.329	62.38
253.562	89.38
253.795	91.38
254.028	88.38
254.261	76.38
254.494	76.38
254.727	70.38
254.96	64.38
255.193	81.38
255.426	81.38
255.659	70.38
255.892	81.38
256.124	101.38
256.357	89.38
256.59	80.38
256.823	72.38
257.056	70.38
257.289	81.38
257.521	80.38
257.754	81.38
257.987	86.38
258.22	87.38
258.452	69.38
258.685	76.38
258.918	80.38
259.151	86.38
259.383	89.38
259.616	84.38
259.849	85.38
260.081	71.38
260.314	76.38
260.547	85.38
260.779	86.38
261.012	82.38
261.244	86.38
261.477	79.38
261.71	88.38
261.942	90.38
262.175	95.38
262.407	77.38
262.64	89.38
262.872	96.38
263.105	86.38
263.337	85.38
263.57	89.38
263.802	82.38
264.035	81.38
264.267	75.38
264.499	88.38
264.732	88.38
264.964	76.38
265.197	76.38
265.429	82.38
265.661	97.38
265.894	101.38
266.126	86.38
266.358	86.38
266.591	79.38
266.823	71.38
267.055	89.38
267.287	73.38
267.52	81.38
267.752	91.38
267.984	81.38
268.216	91.38
268.448	94.38
268.681	85.38
268.913	75.38
269.145	72.38
269.377	73.38
269.609	71.38
269.841	89.38
270.073	85.38
270.306	85.38
270.538	86.38
270.77	85.38
271.002	82.38
271.234	80.38
271.466	73.38
271.698	73.38
271.93	76.38
272.162	82.38
272.394	85.38
272.626	89.38
272.858	85.38
273.09	83.38
273.322	86.38
273.553	73.38
273.785	83.38
274.017	84.38
274.249	81.38
274.481	85.38
274.713	83.38
274.945	86.38
275.176	92.38
275.408	87.38
275.64	75.38
275.872	93.38
276.104	78.38
276.335	88.38
276.567	68.38
276.799	81.38
277.031	90.38
277.262	87.38
277.494	68.38
277.726	83.38
277.957	85.38
278.189	85.38
278.421	76.38
278.652	84.38
278.884	81.38
279.115	92.38
279.347	79.38
279.579	78.38
279.81	86.38
280.042	87.38
280.273	82.38
280.505	91.38
280.736	96.38
280.968	83.38
281.199	86.38
281.431	79.38
281.662	70.38
281.894	95.38
282.125	92.38
282.356	93.38
282.588	80.38
282.819	81.38
283.051	89.38
283.282	81.38
283.513	87.38
283.745	75.38
283.976	77.38
284.207	82.38
284.439	85.38
284.67	86.38
284.901	87.38
285.132	71.38
285.364	74.38
285.595	88.38
285.826	89.38
286.057	104.38
286.288	84.38
286.52	78.38
286.751	71.38
286.982	94.38
287.213	101.38
287.444	88.38
287.675	95.38
287.906	76.38
288.138	81.38
288.369	75.38
288.6	76.38
288.831	95.38
289.062	104.38
289.293	86.38
289.524	87.38
289.755	86.38
289.986	90.38
290.217	84.38
290.448	94.38
290.679	94.38
290.91	101.38
291.141	81.38
291.371	94.38
291.602	87.38
291.833	87.38
292.064	77.38
292.295	85.38
292.526	84.38
292.757	85.38
292.987	101.38
293.218	87.38
293.449	113.38
293.68	85.38
293.91	84.38
294.141	77.38
294.372	95.38
294.603	89.38
294.833	93.38
295.064	99.38
295.295	95.38
295.525	87.38
295.756	93.38
295.987	78.38
296.217	78.38
296.448	78.38
296.679	78.38
296.909	84.38
297.14	89.38
297.37	78.38
297.601	89.38
297.831	71.38
298.062	85.38
298.292	91.38
298.523	76.38
298.753	83.38
298.984	66.38
299.214	81.38
299.445	90.38
299.675	82.38
299.905	73.38
300.136	81.38
300.366	76.38
300.597	91.38
300.827	86.38
301.057	84.38
301.288	77.38
301.518	86.38
301.748	81.38
301.979	78.38
302.209	96.38
302.439	80.38
302.669	87.38
302.9	96.38
303.13	80.38
303.36	75.38
303.59	82.38
303.82	95.38
304.051	85.38
304.281	94.38
304.511	92.38
304.741	88.38
304.971	100.38
305.201	96.38
305.431	115.38
305.661	96.38
305.891	92.38
306.121	81.38
306.352	82.38
306.582	72.38
306.812	75.38
307.042	87.38
307.272	93.38
307.502	86.38
307.731	75.38
307.961	83.38
308.191	74.38
308.421	73.38
308.651	94.38
308.881	108.38
309.111	82.38
309.341	80.38
309.571	102.38
309.8	91.38
310.03	89.38
310.26	92.38
310.49	93.38
310.72	84.38
310.949	80.38
311.179	88.38
311.409	84.38
311.639	84.38
311.868	87.38
312.098	90.38
312.328	85.38
312.557	82.38
312.787	99.38
313.017	82.38
313.246	80.38
313.476	85.38
313.706	91.38
313.935	89.38
314.165	100.38
314.394	87.38
314.624	88.38
314.853	83.38
315.083	96.38
315.312	95.38
315.542	97.38
315.771	94.38
316.001	74.38
316.23	85.38
316.46	87.38
316.689	74.38
316.919	96.38
317.148	75.38
317.377	88.38
317.607	92.38
317.836	76.38
318.065	83.38
318.295	80.38
318.524	84.38
318.753	96.38
318.983	88.38
319.212	82.38
319.441	70.38
319.67	92.38
319.9	71.38
320.129	83.38
320.358	87.38
320.587	99.38
320.816	77.38
321.046	89.38
321.275	89.38
321.504	104.38
321.733	78.38
321.962	86.38
322.191	80.38
322.42	89.38
322.649	94.38
322.878	88.38
323.108	92.38
323.337	78.38
323.566	89.38
323.795	85.38
324.024	76.38
324.253	84.38
324.482	81.38
324.71	89.38
324.939	69.38
325.168	80.38
325.397	87.38
325.626	95.38
325.855	86.38
326.084	69.38
326.313	75.38
326.542	78.38
326.77	87.38
326.999	89.38
327.228	71.38
327.457	80.38
327.686	88.38
327.914	84.38
328.143	92.38
328.372	88.38
328.6	92.38
328.829	76.38
329.058	88.38
329.287	89.38
329.515	89.38
329.744	91.38
329.972	91.38
330.201	76.38
330.43	64.38
330.658	86.38
330.887	83.38
331.115	100.38
331.344	82.38
331.572	92.38
331.801	83.38
332.03	86.38
332.258	94.38
332.486	91.38
332.715	82.38
332.943	78.38
333.172	71.38
333.4	85.38
333.629	80.38
333.857	92.38
334.085	99.38
334.314	86.38
334.542	95.38
334.771	81.38
334.999	78.38
335.227	86.38
335.455	91.38
335.684	82.38
335.912	84.38
336.14	72.38
336.369	84.38
336.597	93.38
336.825	81.38
337.053	87.38
337.281	78.38
337.51	93.38
337.738	80.38
337.966	70.38
338.194	75.38
338.422	77.38
338.65	82.38
338.878	91.38
339.106	95.38
339.334	89.38
339.562	88.38
339.79	98.38
340.018	84.38
340.246	89.38
340.474	89.38
340.702	85.38
340.93	86.38
341.158	91.38
341.386	90.38
341.614	90.38
341.842	79.38
342.07	62.38
342.298	82.38
342.526	80.38
342.754	81.38
342.981	82.38
343.209	78.38
343.437	86.38
343.665	96.38
343.893	87.38
344.12	84.38
344.348	79.38
344.576	59.38
344.804	93.38
345.031	89.38
345.259	79.38
345.487	93.38
345.714	89.38
345.942	91.38
346.17	77.38
346.397	95.38
346.625	78.38
346.853	76.38
347.08	78.38
347.308	84.38
347.535	79.38
347.763	74.38
347.99	77.38
348.218	80.38
348.445	72.38
348.673	77.38
348.9	89.38
349.128	89.38
349.355	90.38
349.583	85.38
349.81	87.38
350.037	97.38
350.265	86.38
350.492	71.38
350.72	79.38
350.947	76.38
351.174	92.38
351.402	91.38
351.629	95.38
351.856	90.38
352.083	67.38
352.311	71.38
352.538	89.38
352.765	82.38
352.992	85.38
353.22	80.38
353.447	67.38
353.674	90.38
353.901	102.38
354.128	100.38
354.355	95.38
354.583	88.38
354.81	95.38
355.037	79.38
355.264	87.38
355.491	88.38
355.718	88.38
355.945	82.38
356.172	95.38
356.399	81.38
356.626	90.38
356.853	87.38
357.08	85.38
357.307	93.38
357.534	81.38
357.761	68.38
357.988	97.38
358.215	88.38
358.441	95.38
358.668	93.38
358.895	95.38
359.122	85.38
359.349	74.38
359.576	91.38
359.802	88.38
360.029	86.38
360.256	74.38
360.483	88.38
360.709	90.38
360.936	79.38
361.163	88.38
361.39	91.38
361.616	87.38
361.843	82.38
362.07	76.38
362.296	81.38
362.523	84.38
362.749	76.38
362.976	92.38
363.203	79.38
363.429	90.38
363.656	109.38
363.882	87.38
364.109	88.38
364.335	98.38
364.562	80.38
364.788	91.38
365.015	75.38
365.241	95.38
365.468	77.38
365.694	81.38
365.92	84.38
366.147	92.38
366.373	84.38
366.599	85.38
366.826	80.38
367.052	83.38
367.278	87.38
367.505	71.38
367.731	94.38
367.957	94.38
368.184	85.38
368.41	87.38
368.636	101.38
368.862	90.38
369.089	93.38
369.315	78.38
369.541	89.38
369.767	102.38
369.993	104.38
370.219	89.38
370.445	87.38
370.672	90.38
370.898	93.38
371.124	92.38
371.35	81.38
371.576	85.38
371.802	93.38
372.028	92.38
372.254	87.38
372.48	95.38
372.706	94.38
372.932	97.38
373.158	83.38
373.384	74.38
373.61	93.38
373.835	77.38
374.061	82.38
374.287	92.38
374.513	93.38
374.739	105.38
374.965	101.38
375.191	112.38
375.416	103.38
375.642	89.38
375.868	90.38
376.094	80.38
376.319	87.38
376.545	91.38
376.771	91.38
376.997	73.38
377.222	101.38
377.448	91.38
377.674	89.38
377.899	106.38
378.125	101.38
378.35	88.38
378.576	97.38
378.802	92.38
379.027	94.38
379.253	96.38
379.478	100.38
379.704	98.38
379.929	104.38
380.155	107.38
380.38	99.38
380.606	101.38
380.831	75.38
381.057	111.38
381.282	88.38
381.507	94.38
381.733	107.38
381.958	101.38
382.184	87.38
382.409	89.38
382.634	94.38
382.86	109.38
383.085	85.38
383.31	96.38
383.535	99.38
383.761	98.38
383.986	93.38
384.211	112.38
384.436	92.38
384.662	91.38
384.887	86.38
385.112	92.38
385.337	99.38
385.562	104.38
385.787	94.38
386.013	99.38
386.238	97.38
386.463	110.38
386.688	95.38
386.913	107.38
387.138	105.38
387.363	100.38
387.588	108.38
387.813	99.38
388.038	99.38
388.263	117.38
388.488	91.38
388.713	103.38
388.938	103.38
389.163	97.38
389.387	108.38
389.612	105.38
389.837	103.38
390.062	84.38
390.287	108.38
390.512	92.38
390.736	90.38
390.961	84.38
391.186	90.38
391.411	99.38
391.636	109.38
391.86	97.38
392.085	107.38
392.31	109.38
392.534	110.38
392.759	105.38
392.984	93.38
393.208	121.38
393.433	110.38
393.658	117.38
393.882	97.38
394.107	115.38
394.331	101.38
394.556	98.38
394.78	97.38
395.005	115.38
395.229	107.38
395.454	107.38
395.678	112.38
395.903	112.38
396.127	92.38
396.352	101.38
396.576	101.38
396.801	117.38
397.025	99.38
397.249	109.38
397.474	112.38
397.698	101.38
397.922	112.38
398.147	121.38
398.371	101.38
398.595	109.38
398.82	108.38
399.044	96.38
399.268	100.38
399.492	117.38
399.717	120.38
399.941	124.38
400.165	109.38
400.389	97.38
400.613	120.38
400.837	109.38
401.062	115.38
401.286	116.38
401.51	100.38
401.734	115.38
401.958	106.38
402.182	110.38
402.406	111.38
402.63	107.38
402.854	109.38
403.078	103.38
403.302	98.38
403.526	99.38
403.75	111.38
403.974	128.38
404.198	109.38
404.422	112.38
404.645	115.38
404.869	119.38
405.093	104.38
405.317	104.38
405.541	101.38
405.765	119.38
405.988	123.38
406.212	118.38
406.436	125.38
406.66	117.38
406.883	115.38
407.107	119.38
407.331	118.38
407.555	108.38
407.778	129.38
408.002	123.38
408.226	108.38
408.449	119.38
408.673	125.38
408.896	106.38
409.12	115.38
409.344	104.38
409.567	119.38
409.791	112.38
410.014	125.38
410.238	117.38
410.461	124.38
410.685	120.38
410.908	122.38
411.132	131.38
411.355	139.38
411.578	115.38
411.802	120.38
412.025	129.38
412.249	127.38
412.472	128.38
412.695	127.38
412.919	116.38
413.142	119.38
413.365	110.38
413.589	116.38
413.812	125.38
414.035	130.38
414.258	125.38
414.482	116.38
414.705	118.38
414.928	126.38
415.151	120.38
415.374	121.38
415.597	125.38
415.821	116.38
416.044	127.38
416.267	122.38
416.49	120.38
416.713	131.38
416.936	130.38
417.159	132.38
417.382	124.38
417.605	118.38
417.828	111.38
418.051	118.38
418.274	117.38
418.497	133.38
418.72	126.38
418.943	139.38
419.166	133.38
419.389	126.38
419.611	123.38
419.834	141.38
420.057	138.38
420.28	127.38
420.503	123.38
420.726	124.38
420.948	133.38
421.171	144.38
421.394	139.38
421.617	125.38
421.839	154.38
422.062	149.38
422.285	117.38
422.507	120.38
422.73	125.38
422.953	118.38
423.175	122.38
423.398	115.38
423.621	132.38
423.843	120.38
424.066	124.38
424.288	137.38
424.511	149.38
424.733	132.38
424.956	133.38
425.178	127.38
425.401	125.38
425.623	137.38
425.846	135.38
426.068	134.38
426.291	118.38
426.513	134.38
426.735	111.38
426.958	136.38
427.18	123.38
427.402	125.38
427.625	123.38
427.847	118.38
428.069	124.38
428.292	128.38
428.514	129.38
428.736	126.38
428.958	143.38
429.181	134.38
429.403	128.38
429.625	112.38
429.847	113.38
430.069	127.38
430.292	121.38
430.514	132.38
430.736	122.38
430.958	116.38
431.18	125.38
431.402	117.38
431.624	116.38
431.846	102.38
432.068	87.38
432.29	115.38
432.512	114.38
432.734	121.38
432.956	129.38
433.178	139.38
433.4	132.38
433.622	131.38
433.844	152.38
434.066	126.38
434.287	102.38
434.509	108.38
434.731	100.38
434.953	124.38
435.175	133.38
435.397	123.38
435.618	111.38
435.84	107.38
436.062	112.38
436.284	111.38
436.505	115.38
436.727	117.38
436.949	130.38
437.17	125.38
437.392	128.38
437.614	122.38
437.835	98.38
438.057	114.38
438.278	123.38
438.5	120.38
438.721	122.38
438.943	133.38
439.165	130.38
439.386	135.38
439.608	149.38
439.829	163.38
440.05	144.38
440.272	143.38
440.493	149.38
440.715	139.38
440.936	149.38
441.158	139.38
441.379	143.38
441.6	156.38
441.822	150.38
442.043	137.38
442.264	139.38
442.486	130.38
442.707	136.38
442.928	134.38
443.149	132.38
443.371	123.38
443.592	135.38
443.813	127.38
444.034	135.38
444.255	137.38
444.476	144.38
444.698	144.38
444.919	134.38
445.14	269.38
445.361	201.38
445.582	137.38
445.803	142.38
446.024	144.38
446.245	140.38
446.466	152.38
446.687	153.38
446.908	151.38
447.129	160.38
447.35	153.38
447.571	150.38
447.792	143.38
448.013	149.38
448.234	159.38
448.455	129.38
448.675	121.38
448.896	140.38
449.117	137.38
449.338	117.38
449.559	153.38
449.779	135.38
450	136.38
450.221	135.38
450.442	146.38
450.662	138.38
450.883	144.38
451.104	139.38
451.324	127.38
451.545	121.38
451.766	118.38
451.986	123.38
452.207	123.38
452.428	134.38
452.648	132.38
452.869	130.38
453.089	113.38
453.31	109.38
453.53	99.38
453.751	113.38
453.971	102.38
454.192	108.38
454.412	136.38
454.633	110.38
454.853	126.38
455.073	114.38
455.294	118.38
455.514	131.38
455.734	110.38
455.955	108.38
456.175	115.38
456.395	98.38
456.616	96.38
456.836	108.38
457.056	107.38
457.276	115.38
457.497	118.38
457.717	97.38
457.937	108.38
458.157	107.38
458.377	102.38
458.598	101.38
458.818	113.38
459.038	99.38
459.258	99.38
459.478	92.38
459.698	91.38
459.918	103.38
460.138	101.38
460.358	108.38
460.578	124.38
460.798	119.38
461.018	121.38
461.238	137.38
461.458	112.38
461.678	119.38
461.898	123.38
462.118	110.38
462.338	104.38
462.558	124.38
462.777	123.38
462.997	94.38
463.217	123.38
463.437	117.38
463.657	103.38
463.876	107.38
464.096	105.38
464.316	119.38
464.536	111.38
464.755	120.38
464.975	110.38
465.195	109.38
465.414	117.38
465.634	110.38
465.854	110.38
466.073	119.38
466.293	124.38
466.512	121.38
466.732	119.38
466.951	128.38
467.171	126.38
467.391	137.38
467.61	138.38
467.829	137.38
468.049	124.38
468.268	129.38
468.488	108.38
468.707	135.38
468.927	133.38
469.146	139.38
469.365	135.38
469.585	150.38
469.804	138.38
470.023	134.38
470.243	138.38
470.462	131.38
470.681	128.38
470.901	131.38
471.12	130.38
471.339	160.38
471.558	131.38
471.777	130.38
471.997	125.38
472.216	125.38
472.435	108.38
472.654	105.38
472.873	110.38
473.092	111.38
473.311	118.38
473.53	127.38
473.749	131.38
473.968	115.38
474.187	124.38
474.406	108.38
474.625	129.38
474.844	135.38
475.063	142.38
475.282	126.38
475.501	113.38
475.72	107.38
475.939	128.38
476.158	117.38
476.377	122.38
476.596	118.38
476.814	109.38
477.033	93.38
477.252	123.38
477.471	127.38
477.69	133.38
477.908	148.38
478.127	165.38
478.346	137.38
478.564	142.38
478.783	138.38
479.002	140.38
479.22	125.38
479.439	138.38
479.658	119.38
479.876	116.38
480.095	120.38
480.313	121.38
480.532	128.38
480.751	105.38
480.969	102.38
481.188	95.38
481.406	95.38
481.624	77.38
481.843	91.38
482.061	95.38
482.28	121.38
482.498	112.38
482.717	117.38
482.935	116.38
483.153	123.38
483.372	160.38
483.59	143.38
483.808	146.38
484.027	141.38
484.245	131.38
484.463	137.38
484.681	172.38
484.9	136.38
485.118	142.38
485.336	119.38
485.554	113.38
485.772	102.38
485.99	103.38
486.209	108.38
486.427	121.38
486.645	113.38
486.863	145.38
487.081	133.38
487.299	136.38
487.517	140.38
487.735	171.38
487.953	181.38
488.171	174.38
488.389	174.38
488.607	157.38
488.825	145.38
489.043	133.38
489.261	132.38
489.479	124.38
489.696	140.38
489.914	133.38
490.132	131.38
490.35	142.38
490.568	151.38
490.786	170.38
491.003	191.38
491.221	165.38
491.439	180.38
491.657	181.38
491.874	203.38
492.092	218.38
492.31	214.38
492.527	218.38
492.745	200.38
492.963	205.38
493.18	174.38
493.398	179.38
493.615	189.38
493.833	181.38
494.05	168.38
494.268	188.38
494.485	176.38
494.703	175.38
494.92	169.38
495.138	181.38
495.355	169.38
495.573	160.38
495.79	155.38
496.008	170.38
496.225	156.38
496.442	167.38
496.66	155.38
496.877	160.38
497.094	173.38
497.312	176.38
497.529	168.38
497.746	149.38
497.963	141.38
498.181	130.38
498.398	121.38
498.615	126.38
498.832	119.38
499.049	130.38
499.267	127.38
499.484	117.38
499.701	124.38
499.918	124.38
500.135	129.38
500.352	148.38
500.569	171.38
500.786	130.38
501.003	141.38
501.22	144.38
501.437	138.38
501.654	139.38
501.871	154.38
502.088	139.38
502.305	127.38
502.522	136.38
502.739	122.38
502.956	128.38
503.172	124.38
503.389	124.38
503.606	140.38
503.823	121.38
504.04	131.38
504.256	110.38
504.473	131.38
504.69	133.38
504.907	131.38
505.123	116.38
505.34	120.38
505.557	128.38
505.773	122.38
505.99	125.38
506.207	126.38
506.423	120.38
506.64	102.38
506.856	121.38
507.073	126.38
507.289	128.38
507.506	124.38
507.722	95.38
507.939	130.38
508.155	117.38
508.372	106.38
508.588	112.38
508.805	102.38
509.021	113.38
509.238	104.38
509.454	100.38
509.67	100.38
509.887	97.38
510.103	101.38
510.319	95.38
510.536	84.38
510.752	90.38
510.968	90.38
511.184	103.38
511.401	92.38
511.617	98.38
511.833	85.38
512.049	83.38
512.265	105.38
512.481	110.38
512.698	113.38
512.914	84.38
513.13	97.38
513.346	98.38
513.562	96.38
513.778	74.38
513.994	94.38
514.21	101.38
514.426	95.38
514.642	95.38
514.858	99.38
515.074	95.38
515.29	95.38
515.506	96.38
515.721	88.38
515.937	83.38
516.153	85.38
516.369	88.38
516.585	93.38
516.801	93.38
517.016	95.38
517.232	99.38
517.448	98.38
517.664	96.38
517.879	80.38
518.095	101.38
518.311	90.38
518.527	86.38
518.742	97.38
518.958	91.38
519.173	105.38
519.389	105.38
519.605	101.38
519.82	115.38
520.036	107.38
520.251	90.38
520.467	91.38
520.682	91.38
520.898	116.38
521.113	98.38
521.329	85.38
521.544	98.38
521.76	99.38
521.975	78.38
522.19	94.38
522.406	100.38
522.621	87.38
522.836	109.38
523.052	107.38
523.267	112.38
523.482	108.38
523.698	113.38
523.913	127.38
524.128	110.38
524.343	107.38
524.559	123.38
524.774	132.38
524.989	145.38
525.204	123.38
525.419	116.38
525.634	105.38
525.849	110.38
526.064	100.38
526.28	97.38
526.495	92.38
526.71	95.38
526.925	86.38
527.14	81.38
527.355	89.38
527.57	90.38
527.785	90.38
527.999	104.38
528.214	97.38
528.429	94.38
528.644	111.38
528.859	124.38
529.074	143.38
529.289	156.38
529.503	154.38
529.718	151.38
529.933	124.38
530.148	92.38
530.363	112.38
530.577	93.38
530.792	80.38
531.007	82.38
531.221	83.38
531.436	77.38
531.651	87.38
531.865	92.38
532.08	86.38
532.295	95.38
532.509	106.38
532.724	87.38
532.938	103.38
533.153	93.38
533.367	117.38
533.582	124.38
533.796	125.38
534.011	111.38
534.225	107.38
534.44	95.38
534.654	102.38
534.868	97.38
535.083	86.38
535.297	107.38
535.511	102.38
535.726	95.38
535.94	111.38
536.154	99.38
536.369	92.38
536.583	95.38
536.797	78.38
537.011	101.38
537.225	88.38
537.44	93.38
537.654	94.38
537.868	90.38
538.082	110.38
538.296	100.38
538.51	92.38
538.724	108.38
538.938	126.38
539.153	117.38
539.367	127.38
539.581	120.38
539.795	107.38
540.009	100.38
540.222	118.38
540.436	88.38
540.65	92.38
540.864	134.38
541.078	128.38
541.292	150.38
541.506	147.38
541.72	168.38
541.934	191.38
542.147	202.38
542.361	181.38
542.575	163.38
542.789	158.38
543.002	148.38
543.216	131.38
543.43	131.38
543.644	113.38
543.857	133.38
544.071	152.38
544.285	158.38
544.498	152.38
544.712	154.38
544.925	167.38
545.139	161.38
545.352	165.38
545.566	163.38
545.779	153.38
545.993	145.38
546.206	173.38
546.42	153.38
546.633	155.38
546.847	161.38
547.06	163.38
547.274	162.38
547.487	189.38
547.7	167.38
547.914	162.38
548.127	156.38
548.34	155.38
548.554	149.38
548.767	139.38
548.98	152.38
549.193	169.38
549.407	148.38
549.62	139.38
549.833	155.38
550.046	152.38
550.259	144.38
550.473	149.38
550.686	143.38
550.899	154.38
551.112	159.38
551.325	154.38
551.538	147.38
551.751	125.38
551.964	122.38
552.177	120.38
552.39	123.38
552.603	159.38
552.816	162.38
553.029	155.38
553.242	164.38
553.455	160.38
553.667	156.38
553.88	151.38
554.093	151.38
554.306	146.38
554.519	139.38
554.732	140.38
554.944	140.38
555.157	146.38
555.37	148.38
555.583	132.38
555.795	148.38
556.008	125.38
556.221	133.38
556.433	125.38
556.646	132.38
556.859	135.38
557.071	153.38
557.284	142.38
557.496	133.38
557.709	151.38
557.921	143.38
558.134	134.38
558.346	148.38
558.559	139.38
558.771	122.38
558.984	152.38
559.196	138.38
559.409	126.38
559.621	124.38
559.833	130.38
560.046	125.38
560.258	116.38
560.47	125.38
560.683	118.38
560.895	120.38
561.107	124.38
561.32	139.38
561.532	132.38
561.744	138.38
561.956	136.38
562.168	141.38
562.381	139.38
562.593	124.38
562.805	141.38
563.017	120.38
563.229	124.38
563.441	128.38
563.653	112.38
563.865	125.38
564.077	113.38
564.289	119.38
564.501	127.38
564.713	115.38
564.925	115.38
565.137	124.38
565.349	125.38
565.561	112.38
565.773	113.38
565.985	123.38
566.197	115.38
566.408	112.38
566.62	113.38
566.832	106.38
567.044	108.38
567.255	115.38
567.467	119.38
567.679	116.38
567.891	101.38
568.102	107.38
568.314	117.38
568.526	92.38
568.737	79.38
568.949	106.38
569.161	86.38
569.372	90.38
569.584	84.38
569.795	89.38
570.007	94.38
570.218	106.38
570.43	81.38
570.641	87.38
570.853	104.38
571.064	85.38
571.276	120.38
571.487	119.38
571.698	93.38
571.91	113.38
572.121	107.38
572.333	111.38
572.544	95.38
572.755	93.38
572.966	91.38
573.178	96.38
573.389	83.38
573.6	64.38
573.811	85.38
574.023	81.38
574.234	85.38
574.445	91.38
574.656	99.38
574.867	92.38
575.078	107.38
575.289	83.38
575.501	92.38
575.712	102.38
575.923	106.38
576.134	98.38
576.345	107.38
576.556	102.38
576.767	101.38
576.978	100.38
577.188	78.38
577.399	99.38
577.61	98.38
577.821	101.38
578.032	112.38
578.243	97.38
578.454	95.38
578.665	103.38
578.875	87.38
579.086	85.38
579.297	93.38
579.508	101.38
579.718	100.38
579.929	90.38
580.14	83.38
580.35	95.38
580.561	92.38
580.772	89.38
580.982	93.38
581.193	90.38
581.403	98.38
581.614	94.38
581.825	102.38
582.035	87.38
582.246	103.38
582.456	87.38
582.667	88.38
582.877	98.38
583.087	90.38
583.298	88.38
583.508	89.38
583.719	78.38
583.929	91.38
584.139	91.38
584.35	80.38
584.56	80.38
584.77	99.38
584.981	91.38
585.191	90.38
585.401	103.38
585.611	84.38
585.821	85.38
586.032	90.38
586.242	82.38
586.452	101.38
586.662	92.38
586.872	83.38
587.082	107.38
587.292	89.38
587.502	73.38
587.713	78.38
587.923	84.38
588.133	90.38
588.343	85.38
588.553	81.38
588.762	93.38
588.972	87.38
589.182	76.38
589.392	88.38
589.602	78.38
589.812	71.38
590.022	84.38
590.232	104.38
590.441	89.38
590.651	88.38
590.861	96.38
591.071	86.38
591.281	80.38
591.49	83.38
591.7	89.38
591.91	89.38
592.119	88.38
592.329	95.38
592.539	87.38
592.748	80.38
592.958	95.38
593.167	76.38
593.377	92.38
593.587	104.38
593.796	83.38
594.006	84.38
594.215	95.38
594.424	92.38
594.634	98.38
594.843	89.38
595.053	85.38
595.262	99.38
595.472	90.38
595.681	104.38
595.89	88.38
596.1	92.38
596.309	92.38
596.518	102.38
596.727	104.38
596.937	94.38
597.146	105.38
597.355	104.38
597.564	92.38
597.774	92.38
597.983	89.38
598.192	77.38
598.401	68.38
598.61	93.38
598.819	89.38
599.028	106.38
599.237	91.38
599.446	92.38
599.655	93.38
599.864	86.38
600.073	83.38
600.282	97.38
600.491	96.38
600.7	93.38
600.909	88.38
601.118	104.38
601.327	109.38
601.536	119.38
601.745	108.38
601.953	106.38
602.162	110.38
602.371	105.38
602.58	97.38
602.789	133.38
602.997	111.38
603.206	102.38
603.415	109.38
603.623	99.38
603.832	111.38
604.041	105.38
604.249	99.38
604.458	100.38
604.666	94.38
604.875	107.38
605.084	91.38
605.292	106.38
605.501	109.38
605.709	117.38
605.918	124.38
606.126	122.38
606.334	130.38
606.543	121.38
606.751	112.38
606.96	102.38
607.168	108.38
607.376	129.38
607.585	108.38
607.793	121.38
608.001	117.38
608.21	118.38
608.418	106.38
608.626	114.38
608.834	105.38
609.043	99.38
609.251	121.38
609.459	126.38
609.667	113.38
609.875	119.38
610.083	122.38
610.291	107.38
610.499	94.38
610.707	118.38
610.916	112.38
611.124	125.38
611.332	113.38
611.54	115.38
611.748	113.38
611.955	120.38
612.163	113.38
612.371	117.38
612.579	103.38
612.787	120.38
612.995	113.38
613.203	126.38
613.411	111.38
613.618	117.38
613.826	107.38
614.034	103.38
614.242	108.38
614.449	109.38
614.657	116.38
614.865	114.38
615.072	103.38
615.28	119.38
615.488	117.38
615.695	109.38
615.903	102.38
616.111	115.38
616.318	117.38
616.526	108.38
616.733	109.38
616.941	120.38
617.148	105.38
617.356	111.38
617.563	124.38
617.771	108.38
617.978	116.38
618.185	104.38
618.393	108.38
618.6	111.38
618.807	120.38
619.015	121.38
619.222	115.38
619.429	106.38
619.637	99.38
619.844	104.38
620.051	117.38
620.258	115.38
620.466	116.38
620.673	114.38
620.88	107.38
621.087	101.38
621.294	109.38
621.501	100.38
621.708	109.38
621.915	113.38
622.122	102.38
622.329	119.38
622.536	100.38
622.743	125.38
622.95	120.38
623.157	104.38
623.364	87.38
623.571	115.38
623.778	112.38
623.985	109.38
624.192	102.38
624.399	104.38
624.606	107.38
624.812	103.38
625.019	106.38
625.226	109.38
625.433	107.38
625.639	101.38
625.846	104.38
626.053	97.38
626.259	99.38
626.466	102.38
626.673	95.38
626.879	92.38
627.086	81.38
627.293	103.38
627.499	102.38
627.706	110.38
627.912	108.38
628.119	115.38
628.325	131.38
628.532	101.38
628.738	107.38
628.945	105.38
629.151	108.38
629.357	102.38
629.564	111.38
629.77	103.38
629.976	96.38
630.183	109.38
630.389	88.38
630.595	111.38
630.802	113.38
631.008	103.38
631.214	97.38
631.42	107.38
631.627	103.38
631.833	102.38
632.039	105.38
632.245	102.38
632.451	112.38
632.657	103.38
632.863	101.38
633.069	106.38
633.275	95.38
633.481	106.38
633.688	99.38
633.893	83.38
634.099	84.38
634.305	103.38
634.511	92.38
634.717	95.38
634.923	92.38
635.129	91.38
635.335	95.38
635.541	95.38
635.747	95.38
635.952	105.38
636.158	91.38
636.364	103.38
636.57	105.38
636.775	100.38
636.981	99.38
637.187	118.38
637.392	105.38
637.598	105.38
637.804	107.38
638.009	90.38
638.215	90.38
638.421	92.38
638.626	102.38
638.832	110.38
639.037	100.38
639.243	115.38
639.448	100.38
639.654	103.38
639.859	100.38
640.065	97.38
640.27	104.38
640.475	90.38
640.681	119.38
640.886	86.38
641.091	85.38
641.297	102.38
641.502	100.38
641.707	104.38
641.913	110.38
642.118	94.38
642.323	88.38
642.528	104.38
642.733	100.38
642.939	101.38
643.144	101.38
643.349	103.38
643.554	91.38
643.759	99.38
643.964	101.38
644.169	97.38
644.374	99.38
644.579	87.38
644.784	91.38
644.989	105.38
645.194	106.38
645.399	107.38
645.604	108.38
645.809	93.38
646.014	95.38
646.219	88.38
646.423	100.38
646.628	84.38
646.833	92.38
647.038	113.38
647.243	99.38
647.447	81.38
647.652	95.38
647.857	106.38
648.062	94.38
648.266	94.38
648.471	107.38
648.676	92.38
648.88	103.38
649.085	95.38
649.289	108.38
649.494	103.38
649.698	99.38
649.903	97.38
650.107	100.38
650.312	109.38
650.516	96.38
650.721	94.38
650.925	106.38
651.13	81.38
651.334	103.38
651.539	96.38
651.743	88.38
651.947	98.38
652.152	105.38
652.356	90.38
652.56	93.38
652.764	90.38
652.969	81.38
653.173	81.38
653.377	86.38
653.581	107.38
653.785	92.38
653.99	91.38
654.194	99.38
654.398	104.38
654.602	87.38
654.806	92.38
655.01	85.38
655.214	93.38
655.418	83.38
655.622	83.38
655.826	82.38
656.03	98.38
656.234	85.38
656.438	90.38
656.642	87.38
656.846	94.38
657.049	84.38
657.253	82.38
657.457	74.38
657.661	89.38
657.865	80.38
658.068	93.38
658.272	98.38
658.476	94.38
658.68	76.38
658.883	85.38
659.087	96.38
659.291	88.38
659.494	87.38
659.698	92.38
659.901	93.38
660.105	77.38
660.309	74.38
660.512	70.38
660.716	86.38
660.919	93.38
661.123	96.38
661.326	84.38
661.53	87.38
661.733	91.38
661.936	86.38
662.14	87.38
662.343	76.38
662.546	78.38
662.75	94.38
662.953	89.38
663.156	82.38
663.36	96.38
663.563	75.38
663.766	75.38
663.969	91.38
664.173	90.38
664.376	78.38
664.579	86.38
664.782	91.38
664.985	84.38
665.188	69.38
665.391	80.38
665.594	77.38
665.797	82.38
666	78.38
666.203	78.38
666.406	86.38
666.609	75.38
666.812	78.38
667.015	87.38
667.218	87.38
667.421	86.38
667.624	93.38
667.827	80.38
668.03	85.38
668.232	96.38
668.435	82.38
668.638	83.38
668.841	76.38
669.043	68.38
669.246	76.38
669.449	83.38
669.651	75.38
669.854	69.38
670.057	94.38
670.259	78.38
670.462	78.38
670.665	91.38
670.867	87.38
671.07	87.38
671.272	85.38
671.475	82.38
671.677	81.38
671.88	78.38
672.082	69.38
672.284	96.38
672.487	89.38
672.689	93.38
672.892	80.38
