Data from Location1.07152019.Energy5.Lamp.07192019.3%Agarose_HRD10591_14-33-19-016.txt Node
Date: Fri Jul 19 14:33:19 EDT 2019
User: cochatt
Spectrometer: HR+D1059
Trigger mode: 1
Integration Time (sec): 1.000000E-1
Scans to average: 1
Electric dark correction enabled: true
Nonlinearity correction enabled: false
Boxcar width: 0
XAxis mode: Wavelengths
Number of Pixels in Spectrum: 2048
>>>>>Begin Spectral Data<<<<<
223.165	-2.25
223.4	-2.25
223.635	-2.25
223.869	-24.25
224.104	-23.25
224.338	-8.25
224.573	-3.25
224.808	-14.25
225.042	-7.25
225.277	-1.25
225.511	-3.25
225.746	2.75
225.98	2.75
226.215	4.75
226.449	11.75
226.683	18.75
226.918	22.75
227.152	23.75
227.387	19.75
227.621	36.75
227.856	46.75
228.09	40.75
228.324	48.75
228.559	63.75
228.793	56.75
229.027	58.75
229.262	48.75
229.496	46.75
229.73	59.75
229.964	64.75
230.199	61.75
230.433	71.75
230.667	67.75
230.901	83.75
231.136	78.75
231.37	82.75
231.604	81.75
231.838	75.75
232.072	80.75
232.306	79.75
232.541	62.75
232.775	83.75
233.009	90.75
233.243	78.75
233.477	72.75
233.711	79.75
233.945	77.75
234.179	90.75
234.413	82.75
234.647	81.75
234.881	80.75
235.115	76.75
235.349	77.75
235.583	81.75
235.817	74.75
236.051	80.75
236.285	88.75
236.519	90.75
236.753	66.75
236.987	73.75
237.221	82.75
237.455	67.75
237.689	68.75
237.922	70.75
238.156	73.75
238.39	67.75
238.624	67.75
238.858	68.75
239.091	69.75
239.325	75.75
239.559	79.75
239.793	74.75
240.027	70.75
240.26	73.75
240.494	87.75
240.728	63.75
240.961	70.75
241.195	80.75
241.429	76.75
241.662	72.75
241.896	75.75
242.13	68.75
242.363	58.75
242.597	73.75
242.83	72.75
243.064	66.75
243.298	75.75
243.531	76.75
243.765	65.75
243.998	64.75
244.232	91.75
244.465	81.75
244.699	79.75
244.932	73.75
245.166	62.75
245.399	54.75
245.633	64.75
245.866	67.75
246.099	70.75
246.333	84.75
246.566	83.75
246.8	81.75
247.033	91.75
247.266	73.75
247.5	77.75
247.733	83.75
247.966	62.75
248.2	64.75
248.433	75.75
248.666	77.75
248.899	90.75
249.133	72.75
249.366	80.75
249.599	87.75
249.832	76.75
250.066	71.75
250.299	81.75
250.532	80.75
250.765	75.75
250.998	75.75
251.231	89.75
251.465	75.75
251.698	67.75
251.931	71.75
252.164	71.75
252.397	79.75
252.63	70.75
252.863	80.75
253.096	84.75
253.329	67.75
253.562	84.75
253.795	78.75
254.028	90.75
254.261	80.75
254.494	84.75
254.727	70.75
254.96	79.75
255.193	75.75
255.426	81.75
255.659	78.75
255.892	79.75
256.124	84.75
256.357	77.75
256.59	77.75
256.823	67.75
257.056	81.75
257.289	75.75
257.521	66.75
257.754	79.75
257.987	71.75
258.22	80.75
258.452	68.75
258.685	78.75
258.918	75.75
259.151	82.75
259.383	76.75
259.616	79.75
259.849	66.75
260.081	72.75
260.314	75.75
260.547	67.75
260.779	77.75
261.012	76.75
261.244	82.75
261.477	87.75
261.71	79.75
261.942	85.75
262.175	77.75
262.407	73.75
262.64	68.75
262.872	84.75
263.105	81.75
263.337	87.75
263.57	80.75
263.802	66.75
264.035	72.75
264.267	69.75
264.499	69.75
264.732	73.75
264.964	75.75
265.197	80.75
265.429	75.75
265.661	73.75
265.894	65.75
266.126	76.75
266.358	84.75
266.591	83.75
266.823	83.75
267.055	75.75
267.287	78.75
267.52	83.75
267.752	91.75
267.984	73.75
268.216	68.75
268.448	70.75
268.681	79.75
268.913	79.75
269.145	80.75
269.377	82.75
269.609	73.75
269.841	94.75
270.073	71.75
270.306	85.75
270.538	97.75
270.77	68.75
271.002	71.75
271.234	86.75
271.466	73.75
271.698	92.75
271.93	76.75
272.162	98.75
272.394	79.75
272.626	76.75
272.858	68.75
273.09	81.75
273.322	68.75
273.553	72.75
273.785	79.75
274.017	90.75
274.249	64.75
274.481	79.75
274.713	79.75
274.945	66.75
275.176	84.75
275.408	91.75
275.64	66.75
275.872	77.75
276.104	78.75
276.335	94.75
276.567	88.75
276.799	86.75
277.031	79.75
277.262	84.75
277.494	85.75
277.726	75.75
277.957	75.75
278.189	80.75
278.421	76.75
278.652	83.75
278.884	76.75
279.115	72.75
279.347	98.75
279.579	76.75
279.81	83.75
280.042	70.75
280.273	83.75
280.505	85.75
280.736	71.75
280.968	71.75
281.199	81.75
281.431	86.75
281.662	79.75
281.894	90.75
282.125	66.75
282.356	88.75
282.588	76.75
282.819	86.75
283.051	78.75
283.282	73.75
283.513	82.75
283.745	85.75
283.976	79.75
284.207	85.75
284.439	80.75
284.67	70.75
284.901	78.75
285.132	77.75
285.364	78.75
285.595	81.75
285.826	84.75
286.057	74.75
286.288	88.75
286.52	73.75
286.751	88.75
286.982	90.75
287.213	71.75
287.444	75.75
287.675	81.75
287.906	83.75
288.138	97.75
288.369	69.75
288.6	74.75
288.831	66.75
289.062	85.75
289.293	78.75
289.524	81.75
289.755	78.75
289.986	85.75
290.217	84.75
290.448	75.75
290.679	83.75
290.91	95.75
291.141	88.75
291.371	80.75
291.602	77.75
291.833	61.75
292.064	83.75
292.295	81.75
292.526	76.75
292.757	89.75
292.987	81.75
293.218	82.75
293.449	83.75
293.68	87.75
293.91	82.75
294.141	87.75
294.372	73.75
294.603	74.75
294.833	70.75
295.064	87.75
295.295	74.75
295.525	87.75
295.756	97.75
295.987	78.75
296.217	79.75
296.448	80.75
296.679	78.75
296.909	90.75
297.14	83.75
297.37	79.75
297.601	94.75
297.831	70.75
298.062	90.75
298.292	80.75
298.523	60.75
298.753	81.75
298.984	90.75
299.214	77.75
299.445	83.75
299.675	103.75
299.905	83.75
300.136	74.75
300.366	82.75
300.597	75.75
300.827	72.75
301.057	76.75
301.288	73.75
301.518	86.75
301.748	71.75
301.979	81.75
302.209	91.75
302.439	76.75
302.669	70.75
302.9	81.75
303.13	73.75
303.36	79.75
303.59	90.75
303.82	77.75
304.051	91.75
304.281	74.75
304.511	76.75
304.741	89.75
304.971	86.75
305.201	67.75
305.431	84.75
305.661	64.75
305.891	79.75
306.121	69.75
306.352	87.75
306.582	74.75
306.812	76.75
307.042	81.75
307.272	71.75
307.502	88.75
307.731	85.75
307.961	72.75
308.191	80.75
308.421	84.75
308.651	70.75
308.881	97.75
309.111	71.75
309.341	67.75
309.571	86.75
309.8	89.75
310.03	84.75
310.26	79.75
310.49	93.75
310.72	76.75
310.949	76.75
311.179	82.75
311.409	75.75
311.639	89.75
311.868	75.75
312.098	81.75
312.328	74.75
312.557	83.75
312.787	76.75
313.017	82.75
313.246	86.75
313.476	91.75
313.706	75.75
313.935	72.75
314.165	88.75
314.394	71.75
314.624	96.75
314.853	69.75
315.083	80.75
315.312	91.75
315.542	106.75
315.771	76.75
316.001	74.75
316.23	79.75
316.46	87.75
316.689	93.75
316.919	66.75
317.148	67.75
317.377	83.75
317.607	90.75
317.836	81.75
318.065	96.75
318.295	64.75
318.524	71.75
318.753	70.75
318.983	74.75
319.212	97.75
319.441	86.75
319.67	83.75
319.9	77.75
320.129	85.75
320.358	78.75
320.587	77.75
320.816	71.75
321.046	73.75
321.275	76.75
321.504	74.75
321.733	71.75
321.962	86.75
322.191	84.75
322.42	89.75
322.649	88.75
322.878	70.75
323.108	82.75
323.337	92.75
323.566	83.75
323.795	80.75
324.024	74.75
324.253	84.75
324.482	91.75
324.71	86.75
324.939	79.75
325.168	76.75
325.397	85.75
325.626	78.75
325.855	91.75
326.084	84.75
326.313	80.75
326.542	82.75
326.77	85.75
326.999	68.75
327.228	81.75
327.457	82.75
327.686	77.75
327.914	84.75
328.143	86.75
328.372	74.75
328.6	78.75
328.829	93.75
329.058	64.75
329.287	72.75
329.515	71.75
329.744	78.75
329.972	82.75
330.201	75.75
330.43	82.75
330.658	79.75
330.887	71.75
331.115	80.75
331.344	80.75
331.572	86.75
331.801	74.75
332.03	87.75
332.258	70.75
332.486	83.75
332.715	85.75
332.943	81.75
333.172	86.75
333.4	84.75
333.629	82.75
333.857	85.75
334.085	85.75
334.314	83.75
334.542	84.75
334.771	81.75
334.999	79.75
335.227	83.75
335.455	89.75
335.684	61.75
335.912	79.75
336.14	81.75
336.369	77.75
336.597	72.75
336.825	69.75
337.053	78.75
337.281	67.75
337.51	74.75
337.738	87.75
337.966	86.75
338.194	82.75
338.422	83.75
338.65	82.75
338.878	86.75
339.106	75.75
339.334	80.75
339.562	86.75
339.79	83.75
340.018	88.75
340.246	90.75
340.474	84.75
340.702	76.75
340.93	89.75
341.158	85.75
341.386	74.75
341.614	86.75
341.842	93.75
342.07	82.75
342.298	73.75
342.526	85.75
342.754	86.75
342.981	84.75
343.209	95.75
343.437	74.75
343.665	86.75
343.893	69.75
344.12	91.75
344.348	81.75
344.576	79.75
344.804	87.75
345.031	79.75
345.259	85.75
345.487	88.75
345.714	73.75
345.942	65.75
346.17	82.75
346.397	83.75
346.625	73.75
346.853	83.75
347.08	70.75
347.308	79.75
347.535	74.75
347.763	80.75
347.99	78.75
348.218	72.75
348.445	79.75
348.673	65.75
348.9	75.75
349.128	76.75
349.355	76.75
349.583	67.75
349.81	76.75
350.037	74.75
350.265	83.75
350.492	86.75
350.72	70.75
350.947	70.75
351.174	73.75
351.402	66.75
351.629	77.75
351.856	92.75
352.083	91.75
352.311	74.75
352.538	81.75
352.765	80.75
352.992	87.75
353.22	75.75
353.447	91.75
353.674	80.75
353.901	86.75
354.128	85.75
354.355	86.75
354.583	63.75
354.81	76.75
355.037	65.75
355.264	88.75
355.491	72.75
355.718	81.75
355.945	85.75
356.172	86.75
356.399	84.75
356.626	68.75
356.853	83.75
357.08	76.75
357.307	82.75
357.534	80.75
357.761	82.75
357.988	65.75
358.215	81.75
358.441	83.75
358.668	82.75
358.895	96.75
359.122	69.75
359.349	85.75
359.576	92.75
359.802	83.75
360.029	88.75
360.256	82.75
360.483	94.75
360.709	79.75
360.936	87.75
361.163	82.75
361.39	81.75
361.616	75.75
361.843	89.75
362.07	74.75
362.296	68.75
362.523	79.75
362.749	88.75
362.976	79.75
363.203	88.75
363.429	76.75
363.656	80.75
363.882	91.75
364.109	70.75
364.335	76.75
364.562	85.75
364.788	76.75
365.015	74.75
365.241	81.75
365.468	92.75
365.694	80.75
365.92	71.75
366.147	86.75
366.373	78.75
366.599	78.75
366.826	83.75
367.052	74.75
367.278	74.75
367.505	81.75
367.731	74.75
367.957	89.75
368.184	87.75
368.41	83.75
368.636	71.75
368.862	80.75
369.089	73.75
369.315	69.75
369.541	100.75
369.767	75.75
369.993	83.75
370.219	71.75
370.445	77.75
370.672	89.75
370.898	79.75
371.124	82.75
371.35	87.75
371.576	92.75
371.802	73.75
372.028	91.75
372.254	97.75
372.48	83.75
372.706	74.75
372.932	95.75
373.158	83.75
373.384	78.75
373.61	85.75
373.835	84.75
374.061	92.75
374.287	90.75
374.513	76.75
374.739	88.75
374.965	85.75
375.191	90.75
375.416	92.75
375.642	96.75
375.868	91.75
376.094	99.75
376.319	81.75
376.545	92.75
376.771	83.75
376.997	93.75
377.222	73.75
377.448	86.75
377.674	96.75
377.899	92.75
378.125	92.75
378.35	89.75
378.576	92.75
378.802	93.75
379.027	79.75
379.253	85.75
379.478	89.75
379.704	82.75
379.929	69.75
380.155	72.75
380.38	91.75
380.606	85.75
380.831	87.75
381.057	101.75
381.282	107.75
381.507	98.75
381.733	93.75
381.958	96.75
382.184	85.75
382.409	90.75
382.634	85.75
382.86	87.75
383.085	90.75
383.31	94.75
383.535	92.75
383.761	90.75
383.986	96.75
384.211	94.75
384.436	76.75
384.662	103.75
384.887	91.75
385.112	80.75
385.337	97.75
385.562	90.75
385.787	104.75
386.013	95.75
386.238	80.75
386.463	99.75
386.688	96.75
386.913	89.75
387.138	100.75
387.363	89.75
387.588	92.75
387.813	103.75
388.038	91.75
388.263	97.75
388.488	105.75
388.713	95.75
388.938	94.75
389.163	105.75
389.387	111.75
389.612	93.75
389.837	105.75
390.062	87.75
390.287	88.75
390.512	97.75
390.736	103.75
390.961	92.75
391.186	105.75
391.411	91.75
391.636	95.75
391.86	99.75
392.085	92.75
392.31	92.75
392.534	119.75
392.759	98.75
392.984	82.75
393.208	87.75
393.433	98.75
393.658	95.75
393.882	96.75
394.107	96.75
394.331	99.75
394.556	106.75
394.78	115.75
395.005	96.75
395.229	93.75
395.454	105.75
395.678	98.75
395.903	105.75
396.127	99.75
396.352	103.75
396.576	103.75
396.801	101.75
397.025	99.75
397.249	112.75
397.474	109.75
397.698	104.75
397.922	97.75
398.147	99.75
398.371	107.75
398.595	101.75
398.82	107.75
399.044	107.75
399.268	112.75
399.492	107.75
399.717	103.75
399.941	108.75
400.165	119.75
400.389	107.75
400.613	120.75
400.837	110.75
401.062	120.75
401.286	104.75
401.51	119.75
401.734	96.75
401.958	113.75
402.182	104.75
402.406	118.75
402.63	123.75
402.854	101.75
403.078	114.75
403.302	118.75
403.526	97.75
403.75	103.75
403.974	106.75
404.198	115.75
404.422	109.75
404.645	99.75
404.869	104.75
405.093	114.75
405.317	107.75
405.541	113.75
405.765	112.75
405.988	127.75
406.212	112.75
406.436	106.75
406.66	119.75
406.883	107.75
407.107	122.75
407.331	116.75
407.555	114.75
407.778	102.75
408.002	116.75
408.226	107.75
408.449	110.75
408.673	126.75
408.896	121.75
409.12	109.75
409.344	112.75
409.567	122.75
409.791	124.75
410.014	124.75
410.238	122.75
410.461	110.75
410.685	112.75
410.908	117.75
411.132	120.75
411.355	118.75
411.578	120.75
411.802	121.75
412.025	111.75
412.249	118.75
412.472	113.75
412.695	120.75
412.919	125.75
413.142	117.75
413.365	114.75
413.589	114.75
413.812	110.75
414.035	126.75
414.258	126.75
414.482	117.75
414.705	108.75
414.928	106.75
415.151	114.75
415.374	116.75
415.597	121.75
415.821	111.75
416.044	109.75
416.267	117.75
416.49	113.75
416.713	133.75
416.936	124.75
417.159	124.75
417.382	125.75
417.605	126.75
417.828	129.75
418.051	130.75
418.274	124.75
418.497	124.75
418.72	126.75
418.943	118.75
419.166	135.75
419.389	123.75
419.611	120.75
419.834	116.75
420.057	135.75
420.28	140.75
420.503	139.75
420.726	133.75
420.948	119.75
421.171	128.75
421.394	132.75
421.617	117.75
421.839	141.75
422.062	146.75
422.285	113.75
422.507	130.75
422.73	135.75
422.953	130.75
423.175	125.75
423.398	118.75
423.621	122.75
423.843	120.75
424.066	145.75
424.288	128.75
424.511	144.75
424.733	136.75
424.956	131.75
425.178	130.75
425.401	136.75
425.623	128.75
425.846	136.75
426.068	119.75
426.291	96.75
426.513	108.75
426.735	136.75
426.958	105.75
427.18	113.75
427.402	130.75
427.625	122.75
427.847	131.75
428.069	122.75
428.292	111.75
428.514	120.75
428.736	122.75
428.958	118.75
429.181	126.75
429.403	120.75
429.625	123.75
429.847	122.75
430.069	128.75
430.292	133.75
430.514	130.75
430.736	121.75
430.958	136.75
431.18	126.75
431.402	118.75
431.624	99.75
431.846	104.75
432.068	102.75
432.29	96.75
432.512	108.75
432.734	121.75
432.956	119.75
433.178	133.75
433.4	147.75
433.622	137.75
433.844	132.75
434.066	135.75
434.287	106.75
434.509	89.75
434.731	94.75
434.953	95.75
435.175	127.75
435.397	122.75
435.618	114.75
435.84	110.75
436.062	116.75
436.284	112.75
436.505	126.75
436.727	121.75
436.949	138.75
437.17	124.75
437.392	121.75
437.614	118.75
437.835	114.75
438.057	114.75
438.278	134.75
438.5	111.75
438.721	126.75
438.943	120.75
439.165	127.75
439.386	120.75
439.608	145.75
439.829	154.75
440.05	144.75
440.272	136.75
440.493	148.75
440.715	128.75
440.936	136.75
441.158	141.75
441.379	134.75
441.6	138.75
441.822	120.75
442.043	138.75
442.264	132.75
442.486	141.75
442.707	114.75
442.928	139.75
443.149	122.75
443.371	130.75
443.592	131.75
443.813	113.75
444.034	130.75
444.255	128.75
444.476	138.75
444.698	139.75
444.919	122.75
445.14	226.75
445.361	183.75
445.582	146.75
445.803	139.75
446.024	128.75
446.245	142.75
446.466	136.75
446.687	149.75
446.908	150.75
447.129	138.75
447.35	135.75
447.571	137.75
447.792	123.75
448.013	131.75
448.234	143.75
448.455	132.75
448.675	144.75
448.896	150.75
449.117	117.75
449.338	143.75
449.559	140.75
449.779	130.75
450	135.75
450.221	126.75
450.442	136.75
450.662	122.75
450.883	123.75
451.104	131.75
451.324	130.75
451.545	122.75
451.766	122.75
451.986	122.75
452.207	114.75
452.428	122.75
452.648	142.75
452.869	120.75
453.089	113.75
453.31	116.75
453.53	113.75
453.751	110.75
453.971	108.75
454.192	103.75
454.412	97.75
454.633	112.75
454.853	116.75
455.073	111.75
455.294	105.75
455.514	126.75
455.734	116.75
455.955	110.75
456.175	116.75
456.395	121.75
456.616	113.75
456.836	117.75
457.056	94.75
457.276	99.75
457.497	102.75
457.717	104.75
457.937	110.75
458.157	102.75
458.377	103.75
458.598	100.75
458.818	91.75
459.038	81.75
459.258	72.75
459.478	75.75
459.698	83.75
459.918	82.75
460.138	91.75
460.358	110.75
460.578	110.75
460.798	118.75
461.018	111.75
461.238	103.75
461.458	102.75
461.678	107.75
461.898	113.75
462.118	106.75
462.338	119.75
462.558	123.75
462.777	111.75
462.997	84.75
463.217	89.75
463.437	89.75
463.657	122.75
463.876	128.75
464.096	97.75
464.316	114.75
464.536	114.75
464.755	103.75
464.975	110.75
465.195	105.75
465.414	98.75
465.634	114.75
465.854	104.75
466.073	122.75
466.293	118.75
466.512	123.75
466.732	130.75
466.951	128.75
467.171	133.75
467.391	128.75
467.61	134.75
467.829	128.75
468.049	136.75
468.268	127.75
468.488	120.75
468.707	120.75
468.927	136.75
469.146	135.75
469.365	148.75
469.585	135.75
469.804	122.75
470.023	140.75
470.243	126.75
470.462	134.75
470.681	148.75
470.901	128.75
471.12	142.75
471.339	144.75
471.558	137.75
471.777	130.75
471.997	125.75
472.216	118.75
472.435	115.75
472.654	103.75
472.873	99.75
473.092	99.75
473.311	108.75
473.53	124.75
473.749	134.75
473.968	129.75
474.187	117.75
474.406	124.75
474.625	122.75
474.844	133.75
475.063	123.75
475.282	122.75
475.501	128.75
475.72	127.75
475.939	125.75
476.158	123.75
476.377	115.75
476.596	120.75
476.814	115.75
477.033	105.75
477.252	101.75
477.471	119.75
477.69	124.75
477.908	124.75
478.127	130.75
478.346	121.75
478.564	128.75
478.783	120.75
479.002	126.75
479.22	122.75
479.439	134.75
479.658	118.75
479.876	117.75
480.095	101.75
480.313	107.75
480.532	122.75
480.751	124.75
480.969	85.75
481.188	97.75
481.406	79.75
481.624	87.75
481.843	84.75
482.061	76.75
482.28	103.75
482.498	112.75
482.717	104.75
482.935	114.75
483.153	139.75
483.372	147.75
483.59	157.75
483.808	133.75
484.027	140.75
484.245	127.75
484.463	132.75
484.681	154.75
484.9	135.75
485.118	145.75
485.336	118.75
485.554	117.75
485.772	98.75
485.99	99.75
486.209	95.75
486.427	116.75
486.645	112.75
486.863	130.75
487.081	136.75
487.299	136.75
487.517	133.75
487.735	168.75
487.953	190.75
488.171	179.75
488.389	172.75
488.607	158.75
488.825	160.75
489.043	121.75
489.261	126.75
489.479	141.75
489.696	140.75
489.914	142.75
490.132	142.75
490.35	143.75
490.568	152.75
490.786	162.75
491.003	180.75
491.221	185.75
491.439	176.75
491.657	192.75
491.874	183.75
492.092	214.75
492.31	227.75
492.527	213.75
492.745	197.75
492.963	182.75
493.18	184.75
493.398	164.75
493.615	178.75
493.833	175.75
494.05	185.75
494.268	171.75
494.485	168.75
494.703	182.75
494.92	177.75
495.138	177.75
495.355	161.75
495.573	160.75
495.79	147.75
496.008	166.75
496.225	155.75
496.442	152.75
496.66	178.75
496.877	159.75
497.094	170.75
497.312	144.75
497.529	162.75
497.746	151.75
497.963	126.75
498.181	130.75
498.398	125.75
498.615	120.75
498.832	126.75
499.049	123.75
499.267	115.75
499.484	132.75
499.701	122.75
499.918	130.75
500.135	145.75
500.352	128.75
500.569	135.75
500.786	126.75
501.003	142.75
501.22	135.75
501.437	132.75
501.654	126.75
501.871	123.75
502.088	134.75
502.305	128.75
502.522	134.75
502.739	132.75
502.956	117.75
503.172	128.75
503.389	130.75
503.606	102.75
503.823	122.75
504.04	118.75
504.256	99.75
504.473	111.75
504.69	114.75
504.907	120.75
505.123	112.75
505.34	134.75
505.557	126.75
505.773	111.75
505.99	117.75
506.207	114.75
506.423	97.75
506.64	107.75
506.856	123.75
507.073	130.75
507.289	112.75
507.506	107.75
507.722	108.75
507.939	112.75
508.155	98.75
508.372	107.75
508.588	111.75
508.805	102.75
509.021	94.75
509.238	114.75
509.454	103.75
509.67	104.75
509.887	101.75
510.103	96.75
510.319	76.75
510.536	83.75
510.752	83.75
510.968	86.75
511.184	91.75
511.401	80.75
511.617	96.75
511.833	89.75
512.049	83.75
512.265	98.75
512.481	91.75
512.698	93.75
512.914	73.75
513.13	99.75
513.346	80.75
513.562	88.75
513.778	95.75
513.994	90.75
514.21	77.75
514.426	90.75
514.642	82.75
514.858	89.75
515.074	99.75
515.29	78.75
515.506	89.75
515.721	86.75
515.937	93.75
516.153	83.75
516.369	94.75
516.585	79.75
516.801	86.75
517.016	85.75
517.232	75.75
517.448	86.75
517.664	81.75
517.879	84.75
518.095	87.75
518.311	88.75
518.527	89.75
518.742	94.75
518.958	85.75
519.173	87.75
519.389	109.75
519.605	99.75
519.82	111.75
520.036	104.75
520.251	112.75
520.467	103.75
520.682	102.75
520.898	101.75
521.113	86.75
521.329	89.75
521.544	85.75
521.76	82.75
521.975	91.75
522.19	97.75
522.406	103.75
522.621	88.75
522.836	103.75
523.052	107.75
523.267	101.75
523.482	104.75
523.698	103.75
523.913	118.75
524.128	96.75
524.343	105.75
524.559	126.75
524.774	102.75
524.989	117.75
525.204	103.75
525.419	119.75
525.634	117.75
525.849	102.75
526.064	101.75
526.28	115.75
526.495	96.75
526.71	93.75
526.925	91.75
527.14	84.75
527.355	76.75
527.57	76.75
527.785	92.75
527.999	92.75
528.214	91.75
528.429	117.75
528.644	103.75
528.859	139.75
529.074	146.75
529.289	156.75
529.503	169.75
529.718	140.75
529.933	115.75
530.148	107.75
530.363	85.75
530.577	96.75
530.792	83.75
531.007	78.75
531.221	86.75
531.436	80.75
531.651	78.75
531.865	84.75
532.08	79.75
532.295	86.75
532.509	71.75
532.724	81.75
532.938	96.75
533.153	99.75
533.367	113.75
533.582	128.75
533.796	106.75
534.011	105.75
534.225	87.75
534.44	93.75
534.654	90.75
534.868	101.75
535.083	103.75
535.297	97.75
535.511	105.75
535.726	105.75
535.94	98.75
536.154	99.75
536.369	78.75
536.583	83.75
536.797	83.75
537.011	74.75
537.225	86.75
537.44	88.75
537.654	86.75
537.868	101.75
538.082	88.75
538.296	79.75
538.51	88.75
538.724	102.75
538.938	115.75
539.153	104.75
539.367	118.75
539.581	113.75
539.795	115.75
540.009	96.75
540.222	86.75
540.436	105.75
540.65	115.75
540.864	116.75
541.078	134.75
541.292	137.75
541.506	158.75
541.72	182.75
541.934	200.75
542.147	184.75
542.361	173.75
542.575	156.75
542.789	152.75
543.002	136.75
543.216	125.75
543.43	108.75
543.644	107.75
543.857	153.75
544.071	150.75
544.285	146.75
544.498	165.75
544.712	150.75
544.925	154.75
545.139	149.75
545.352	144.75
545.566	134.75
545.779	150.75
545.993	157.75
546.206	163.75
546.42	176.75
546.633	153.75
546.847	159.75
547.06	171.75
547.274	164.75
547.487	166.75
547.7	168.75
547.914	174.75
548.127	163.75
548.34	146.75
548.554	167.75
548.767	125.75
548.98	155.75
549.193	165.75
549.407	150.75
549.62	149.75
549.833	144.75
550.046	130.75
550.259	143.75
550.473	137.75
550.686	150.75
550.899	151.75
551.112	148.75
551.325	140.75
551.538	125.75
551.751	129.75
551.964	106.75
552.177	116.75
552.39	113.75
552.603	145.75
552.816	147.75
553.029	134.75
553.242	158.75
553.455	151.75
553.667	145.75
553.88	159.75
554.093	145.75
554.306	143.75
554.519	147.75
554.732	131.75
554.944	137.75
555.157	144.75
555.37	128.75
555.583	131.75
555.795	126.75
556.008	128.75
556.221	142.75
556.433	126.75
556.646	119.75
556.859	135.75
557.071	123.75
557.284	119.75
557.496	128.75
557.709	140.75
557.921	130.75
558.134	132.75
558.346	126.75
558.559	150.75
558.771	120.75
558.984	132.75
559.196	141.75
559.409	116.75
559.621	112.75
559.833	104.75
560.046	117.75
560.258	114.75
560.47	128.75
560.683	135.75
560.895	122.75
561.107	116.75
561.32	123.75
561.532	125.75
561.744	134.75
561.956	125.75
562.168	132.75
562.381	130.75
562.593	119.75
562.805	110.75
563.017	113.75
563.229	112.75
563.441	113.75
563.653	110.75
563.865	117.75
564.077	124.75
564.289	119.75
564.501	113.75
564.713	105.75
564.925	107.75
565.137	100.75
565.349	113.75
565.561	110.75
565.773	115.75
565.985	117.75
566.197	114.75
566.408	124.75
566.62	109.75
566.832	124.75
567.044	104.75
567.255	126.75
567.467	116.75
567.679	106.75
567.891	101.75
568.102	98.75
568.314	110.75
568.526	104.75
568.737	86.75
568.949	81.75
569.161	74.75
569.372	79.75
569.584	80.75
569.795	83.75
570.007	87.75
570.218	92.75
570.43	92.75
570.641	91.75
570.853	91.75
571.064	92.75
571.276	106.75
571.487	105.75
571.698	104.75
571.91	112.75
572.121	107.75
572.333	92.75
572.544	80.75
572.755	92.75
572.966	94.75
573.178	90.75
573.389	86.75
573.6	78.75
573.811	76.75
574.023	77.75
574.234	75.75
574.445	84.75
574.656	86.75
574.867	95.75
575.078	87.75
575.289	104.75
575.501	96.75
575.712	99.75
575.923	86.75
576.134	104.75
576.345	98.75
576.556	86.75
576.767	92.75
576.978	108.75
577.188	93.75
577.399	90.75
577.61	107.75
577.821	71.75
578.032	88.75
578.243	98.75
578.454	112.75
578.665	93.75
578.875	76.75
579.086	84.75
579.297	76.75
579.508	73.75
579.718	89.75
579.929	86.75
580.14	81.75
580.35	67.75
580.561	83.75
580.772	87.75
580.982	90.75
581.193	88.75
581.403	86.75
581.614	84.75
581.825	79.75
582.035	86.75
582.246	87.75
582.456	91.75
582.667	80.75
582.877	80.75
583.087	83.75
583.298	82.75
583.508	82.75
583.719	73.75
583.929	85.75
584.139	80.75
584.35	77.75
584.56	83.75
584.77	86.75
584.981	77.75
585.191	67.75
585.401	87.75
585.611	70.75
585.821	91.75
586.032	88.75
586.242	69.75
586.452	78.75
586.662	66.75
586.872	96.75
587.082	83.75
587.292	92.75
587.502	82.75
587.713	79.75
587.923	92.75
588.133	98.75
588.343	71.75
588.553	80.75
588.762	82.75
588.972	94.75
589.182	84.75
589.392	89.75
589.602	80.75
589.812	86.75
590.022	90.75
590.232	86.75
590.441	73.75
590.651	80.75
590.861	86.75
591.071	88.75
591.281	84.75
591.49	67.75
591.7	79.75
591.91	66.75
592.119	76.75
592.329	81.75
592.539	79.75
592.748	99.75
592.958	80.75
593.167	73.75
593.377	85.75
593.587	96.75
593.796	87.75
594.006	87.75
594.215	81.75
594.424	89.75
594.634	85.75
594.843	75.75
595.053	97.75
595.262	88.75
595.472	84.75
595.681	105.75
595.89	87.75
596.1	87.75
596.309	86.75
596.518	96.75
596.727	104.75
596.937	101.75
597.146	95.75
597.355	86.75
597.564	93.75
597.774	87.75
597.983	87.75
598.192	70.75
598.401	78.75
598.61	75.75
598.819	97.75
599.028	88.75
599.237	86.75
599.446	80.75
599.655	98.75
599.864	90.75
600.073	89.75
600.282	85.75
600.491	95.75
600.7	106.75
600.909	95.75
601.118	83.75
601.327	81.75
601.536	94.75
601.745	97.75
601.953	105.75
602.162	104.75
602.371	110.75
602.58	97.75
602.789	107.75
602.997	97.75
603.206	84.75
603.415	102.75
603.623	92.75
603.832	104.75
604.041	99.75
604.249	84.75
604.458	91.75
604.666	93.75
604.875	93.75
605.084	103.75
605.292	99.75
605.501	113.75
605.709	107.75
605.918	91.75
606.126	98.75
606.334	118.75
606.543	115.75
606.751	112.75
606.96	92.75
607.168	99.75
607.376	102.75
607.585	116.75
607.793	114.75
608.001	108.75
608.21	124.75
608.418	120.75
608.626	96.75
608.834	90.75
609.043	100.75
609.251	100.75
609.459	115.75
609.667	115.75
609.875	118.75
610.083	113.75
610.291	104.75
610.499	100.75
610.707	116.75
610.916	119.75
611.124	120.75
611.332	112.75
611.54	115.75
611.748	100.75
611.955	112.75
612.163	92.75
612.371	115.75
612.579	90.75
612.787	101.75
612.995	117.75
613.203	114.75
613.411	95.75
613.618	102.75
613.826	109.75
614.034	92.75
614.242	99.75
614.449	104.75
614.657	94.75
614.865	103.75
615.072	105.75
615.28	121.75
615.488	109.75
615.695	104.75
615.903	104.75
616.111	100.75
616.318	118.75
616.526	113.75
616.733	99.75
616.941	116.75
617.148	119.75
617.356	110.75
617.563	99.75
617.771	99.75
617.978	92.75
618.185	121.75
618.393	96.75
618.6	99.75
618.807	103.75
619.015	114.75
619.222	97.75
619.429	102.75
619.637	100.75
619.844	106.75
620.051	103.75
620.258	102.75
620.466	96.75
620.673	109.75
620.88	96.75
621.087	105.75
621.294	107.75
621.501	119.75
621.708	99.75
621.915	118.75
622.122	107.75
622.329	103.75
622.536	92.75
622.743	110.75
622.95	97.75
623.157	96.75
623.364	105.75
623.571	108.75
623.778	100.75
623.985	104.75
624.192	93.75
624.399	104.75
624.606	111.75
624.812	90.75
625.019	92.75
625.226	102.75
625.433	100.75
625.639	92.75
625.846	81.75
626.053	100.75
626.259	82.75
626.466	84.75
626.673	83.75
626.879	82.75
627.086	94.75
627.293	118.75
627.499	94.75
627.706	101.75
627.912	96.75
628.119	83.75
628.325	94.75
628.532	103.75
628.738	111.75
628.945	111.75
629.151	100.75
629.357	102.75
629.564	98.75
629.77	99.75
629.976	86.75
630.183	101.75
630.389	97.75
630.595	83.75
630.802	102.75
631.008	104.75
631.214	93.75
631.42	99.75
631.627	93.75
631.833	85.75
632.039	90.75
632.245	99.75
632.451	106.75
632.657	101.75
632.863	91.75
633.069	83.75
633.275	99.75
633.481	101.75
633.688	101.75
633.893	98.75
634.099	71.75
634.305	93.75
634.511	110.75
634.717	91.75
634.923	110.75
635.129	91.75
635.335	86.75
635.541	92.75
635.747	86.75
635.952	91.75
636.158	95.75
636.364	94.75
636.57	103.75
636.775	98.75
636.981	97.75
637.187	100.75
637.392	87.75
637.598	100.75
637.804	97.75
638.009	98.75
638.215	101.75
638.421	99.75
638.626	90.75
638.832	97.75
639.037	117.75
639.243	87.75
639.448	86.75
639.654	102.75
639.859	94.75
640.065	106.75
640.27	107.75
640.475	104.75
640.681	94.75
640.886	99.75
641.091	97.75
641.297	110.75
641.502	98.75
641.707	111.75
641.913	97.75
642.118	100.75
642.323	84.75
642.528	106.75
642.733	104.75
642.939	96.75
643.144	103.75
643.349	94.75
643.554	95.75
643.759	110.75
643.964	92.75
644.169	94.75
644.374	93.75
644.579	94.75
644.784	80.75
644.989	91.75
645.194	83.75
645.399	84.75
645.604	102.75
645.809	84.75
646.014	105.75
646.219	92.75
646.423	79.75
646.628	87.75
646.833	90.75
647.038	89.75
647.243	90.75
647.447	92.75
647.652	87.75
647.857	105.75
648.062	103.75
648.266	99.75
648.471	108.75
648.676	104.75
648.88	91.75
649.085	96.75
649.289	85.75
649.494	103.75
649.698	108.75
649.903	93.75
650.107	94.75
650.312	103.75
650.516	99.75
650.721	98.75
650.925	95.75
651.13	87.75
651.334	97.75
651.539	90.75
651.743	96.75
651.947	105.75
652.152	97.75
652.356	77.75
652.56	83.75
652.764	85.75
652.969	82.75
653.173	104.75
653.377	86.75
653.581	76.75
653.785	96.75
653.99	80.75
654.194	91.75
654.398	95.75
654.602	89.75
654.806	95.75
655.01	86.75
655.214	84.75
655.418	75.75
655.622	86.75
655.826	85.75
656.03	85.75
656.234	96.75
656.438	92.75
656.642	75.75
656.846	80.75
657.049	95.75
657.253	81.75
657.457	74.75
657.661	76.75
657.865	88.75
658.068	76.75
658.272	94.75
658.476	98.75
658.68	77.75
658.883	89.75
659.087	89.75
659.291	87.75
659.494	102.75
659.698	90.75
659.901	91.75
660.105	84.75
660.309	82.75
660.512	73.75
660.716	70.75
660.919	100.75
661.123	83.75
661.326	88.75
661.53	94.75
661.733	74.75
661.936	83.75
662.14	85.75
662.343	102.75
662.546	83.75
662.75	80.75
662.953	82.75
663.156	76.75
663.36	76.75
663.563	79.75
663.766	64.75
663.969	90.75
664.173	76.75
664.376	75.75
664.579	75.75
664.782	71.75
664.985	61.75
665.188	82.75
665.391	87.75
665.594	73.75
665.797	89.75
666	79.75
666.203	89.75
666.406	71.75
666.609	72.75
666.812	76.75
667.015	72.75
667.218	73.75
667.421	78.75
667.624	83.75
667.827	85.75
668.03	69.75
668.232	91.75
668.435	74.75
668.638	81.75
668.841	91.75
669.043	79.75
669.246	77.75
669.449	79.75
669.651	81.75
669.854	77.75
670.057	80.75
670.259	69.75
670.462	75.75
670.665	83.75
670.867	80.75
671.07	80.75
671.272	90.75
671.475	76.75
671.677	79.75
671.88	70.75
672.082	81.75
672.284	66.75
672.487	79.75
672.689	76.75
672.892	63.75
