Data from Location1.07152019.Energy5.Lamp.07192019.3%Agarose_HRD10591_14-32-24-015.txt Node
Date: Fri Jul 19 14:32:24 EDT 2019
User: cochatt
Spectrometer: HR+D1059
Trigger mode: 1
Integration Time (sec): 1.000000E-1
Scans to average: 1
Electric dark correction enabled: true
Nonlinearity correction enabled: false
Boxcar width: 0
XAxis mode: Wavelengths
Number of Pixels in Spectrum: 2048
>>>>>Begin Spectral Data<<<<<
223.165	1.75
223.4	1.75
223.635	1.75
223.869	-28.25
224.104	-9.25
224.338	-10.25
224.573	-5.25
224.808	-8.25
225.042	-16.25
225.277	-26.25
225.511	1.75
225.746	1.75
225.98	12.75
226.215	13.75
226.449	21.75
226.683	0.75
226.918	22.75
227.152	26.75
227.387	44.75
227.621	38.75
227.856	58.75
228.09	54.75
228.324	51.75
228.559	61.75
228.793	47.75
229.027	61.75
229.262	63.75
229.496	78.75
229.73	48.75
229.964	76.75
230.199	66.75
230.433	70.75
230.667	94.75
230.901	61.75
231.136	82.75
231.37	72.75
231.604	79.75
231.838	75.75
232.072	71.75
232.306	95.75
232.541	83.75
232.775	83.75
233.009	92.75
233.243	77.75
233.477	95.75
233.711	89.75
233.945	82.75
234.179	86.75
234.413	81.75
234.647	86.75
234.881	84.75
235.115	79.75
235.349	86.75
235.583	87.75
235.817	74.75
236.051	74.75
236.285	87.75
236.519	76.75
236.753	87.75
236.987	70.75
237.221	72.75
237.455	73.75
237.689	72.75
237.922	87.75
238.156	86.75
238.39	79.75
238.624	71.75
238.858	81.75
239.091	79.75
239.325	76.75
239.559	75.75
239.793	61.75
240.027	81.75
240.26	71.75
240.494	74.75
240.728	75.75
240.961	78.75
241.195	97.75
241.429	71.75
241.662	85.75
241.896	83.75
242.13	74.75
242.363	72.75
242.597	78.75
242.83	79.75
243.064	87.75
243.298	81.75
243.531	80.75
243.765	70.75
243.998	78.75
244.232	68.75
244.465	79.75
244.699	70.75
244.932	79.75
245.166	80.75
245.399	89.75
245.633	77.75
245.866	65.75
246.099	87.75
246.333	74.75
246.566	75.75
246.8	88.75
247.033	83.75
247.266	70.75
247.5	90.75
247.733	74.75
247.966	76.75
248.2	87.75
248.433	89.75
248.666	86.75
248.899	78.75
249.133	80.75
249.366	79.75
249.599	70.75
249.832	78.75
250.066	88.75
250.299	68.75
250.532	84.75
250.765	78.75
250.998	88.75
251.231	75.75
251.465	102.75
251.698	69.75
251.931	63.75
252.164	79.75
252.397	68.75
252.63	94.75
252.863	79.75
253.096	83.75
253.329	77.75
253.562	85.75
253.795	88.75
254.028	77.75
254.261	73.75
254.494	89.75
254.727	64.75
254.96	90.75
255.193	82.75
255.426	81.75
255.659	81.75
255.892	85.75
256.124	83.75
256.357	80.75
256.59	76.75
256.823	84.75
257.056	84.75
257.289	77.75
257.521	77.75
257.754	78.75
257.987	87.75
258.22	70.75
258.452	88.75
258.685	92.75
258.918	78.75
259.151	83.75
259.383	85.75
259.616	73.75
259.849	84.75
260.081	94.75
260.314	83.75
260.547	77.75
260.779	77.75
261.012	71.75
261.244	85.75
261.477	89.75
261.71	70.75
261.942	80.75
262.175	86.75
262.407	92.75
262.64	92.75
262.872	71.75
263.105	77.75
263.337	71.75
263.57	81.75
263.802	83.75
264.035	86.75
264.267	74.75
264.499	85.75
264.732	88.75
264.964	82.75
265.197	77.75
265.429	79.75
265.661	88.75
265.894	87.75
266.126	94.75
266.358	81.75
266.591	78.75
266.823	83.75
267.055	94.75
267.287	83.75
267.52	97.75
267.752	83.75
267.984	91.75
268.216	92.75
268.448	78.75
268.681	91.75
268.913	88.75
269.145	85.75
269.377	76.75
269.609	89.75
269.841	77.75
270.073	83.75
270.306	85.75
270.538	68.75
270.77	101.75
271.002	71.75
271.234	81.75
271.466	86.75
271.698	78.75
271.93	79.75
272.162	79.75
272.394	83.75
272.626	93.75
272.858	86.75
273.09	95.75
273.322	74.75
273.553	94.75
273.785	99.75
274.017	91.75
274.249	85.75
274.481	87.75
274.713	91.75
274.945	89.75
275.176	91.75
275.408	78.75
275.64	85.75
275.872	92.75
276.104	94.75
276.335	77.75
276.567	80.75
276.799	87.75
277.031	70.75
277.262	87.75
277.494	87.75
277.726	96.75
277.957	86.75
278.189	82.75
278.421	86.75
278.652	70.75
278.884	87.75
279.115	73.75
279.347	78.75
279.579	91.75
279.81	70.75
280.042	84.75
280.273	89.75
280.505	65.75
280.736	95.75
280.968	86.75
281.199	71.75
281.431	83.75
281.662	79.75
281.894	78.75
282.125	100.75
282.356	87.75
282.588	94.75
282.819	83.75
283.051	79.75
283.282	87.75
283.513	77.75
283.745	101.75
283.976	85.75
284.207	74.75
284.439	82.75
284.67	87.75
284.901	100.75
285.132	89.75
285.364	85.75
285.595	87.75
285.826	73.75
286.057	94.75
286.288	93.75
286.52	86.75
286.751	84.75
286.982	77.75
287.213	84.75
287.444	80.75
287.675	79.75
287.906	83.75
288.138	73.75
288.369	74.75
288.6	81.75
288.831	96.75
289.062	84.75
289.293	75.75
289.524	93.75
289.755	74.75
289.986	91.75
290.217	98.75
290.448	82.75
290.679	84.75
290.91	77.75
291.141	75.75
291.371	79.75
291.602	96.75
291.833	92.75
292.064	95.75
292.295	78.75
292.526	90.75
292.757	89.75
292.987	94.75
293.218	94.75
293.449	95.75
293.68	83.75
293.91	81.75
294.141	86.75
294.372	79.75
294.603	85.75
294.833	89.75
295.064	97.75
295.295	84.75
295.525	72.75
295.756	83.75
295.987	95.75
296.217	87.75
296.448	92.75
296.679	76.75
296.909	75.75
297.14	84.75
297.37	81.75
297.601	73.75
297.831	93.75
298.062	91.75
298.292	91.75
298.523	96.75
298.753	87.75
298.984	82.75
299.214	81.75
299.445	91.75
299.675	85.75
299.905	74.75
300.136	87.75
300.366	85.75
300.597	89.75
300.827	67.75
301.057	77.75
301.288	99.75
301.518	88.75
301.748	72.75
301.979	85.75
302.209	98.75
302.439	87.75
302.669	94.75
302.9	76.75
303.13	88.75
303.36	90.75
303.59	86.75
303.82	77.75
304.051	90.75
304.281	94.75
304.511	87.75
304.741	67.75
304.971	95.75
305.201	79.75
305.431	87.75
305.661	84.75
305.891	92.75
306.121	87.75
306.352	91.75
306.582	92.75
306.812	70.75
307.042	68.75
307.272	85.75
307.502	80.75
307.731	68.75
307.961	74.75
308.191	80.75
308.421	95.75
308.651	77.75
308.881	89.75
309.111	100.75
309.341	84.75
309.571	90.75
309.8	96.75
310.03	85.75
310.26	93.75
310.49	78.75
310.72	98.75
310.949	67.75
311.179	90.75
311.409	92.75
311.639	84.75
311.868	88.75
312.098	109.75
312.328	93.75
312.557	94.75
312.787	97.75
313.017	85.75
313.246	86.75
313.476	83.75
313.706	101.75
313.935	99.75
314.165	85.75
314.394	68.75
314.624	94.75
314.853	80.75
315.083	87.75
315.312	81.75
315.542	74.75
315.771	90.75
316.001	99.75
316.23	88.75
316.46	69.75
316.689	82.75
316.919	85.75
317.148	94.75
317.377	86.75
317.607	92.75
317.836	82.75
318.065	93.75
318.295	85.75
318.524	96.75
318.753	80.75
318.983	76.75
319.212	99.75
319.441	88.75
319.67	94.75
319.9	93.75
320.129	70.75
320.358	70.75
320.587	96.75
320.816	91.75
321.046	83.75
321.275	79.75
321.504	75.75
321.733	95.75
321.962	74.75
322.191	81.75
322.42	86.75
322.649	101.75
322.878	89.75
323.108	83.75
323.337	90.75
323.566	93.75
323.795	83.75
324.024	81.75
324.253	96.75
324.482	96.75
324.71	89.75
324.939	102.75
325.168	98.75
325.397	84.75
325.626	87.75
325.855	84.75
326.084	87.75
326.313	85.75
326.542	83.75
326.77	80.75
326.999	79.75
327.228	87.75
327.457	95.75
327.686	87.75
327.914	87.75
328.143	76.75
328.372	88.75
328.6	80.75
328.829	77.75
329.058	91.75
329.287	83.75
329.515	87.75
329.744	90.75
329.972	80.75
330.201	83.75
330.43	84.75
330.658	76.75
330.887	79.75
331.115	89.75
331.344	79.75
331.572	87.75
331.801	97.75
332.03	85.75
332.258	85.75
332.486	87.75
332.715	82.75
332.943	92.75
333.172	78.75
333.4	93.75
333.629	78.75
333.857	76.75
334.085	77.75
334.314	82.75
334.542	89.75
334.771	87.75
334.999	93.75
335.227	92.75
335.455	96.75
335.684	105.75
335.912	77.75
336.14	92.75
336.369	80.75
336.597	81.75
336.825	90.75
337.053	79.75
337.281	77.75
337.51	75.75
337.738	83.75
337.966	88.75
338.194	90.75
338.422	86.75
338.65	78.75
338.878	77.75
339.106	95.75
339.334	80.75
339.562	75.75
339.79	77.75
340.018	84.75
340.246	74.75
340.474	86.75
340.702	81.75
340.93	72.75
341.158	86.75
341.386	106.75
341.614	99.75
341.842	81.75
342.07	89.75
342.298	78.75
342.526	83.75
342.754	77.75
342.981	91.75
343.209	92.75
343.437	83.75
343.665	84.75
343.893	81.75
344.12	100.75
344.348	95.75
344.576	84.75
344.804	80.75
345.031	85.75
345.259	97.75
345.487	96.75
345.714	77.75
345.942	88.75
346.17	96.75
346.397	80.75
346.625	96.75
346.853	77.75
347.08	89.75
347.308	84.75
347.535	61.75
347.763	86.75
347.99	79.75
348.218	93.75
348.445	79.75
348.673	80.75
348.9	79.75
349.128	86.75
349.355	96.75
349.583	104.75
349.81	89.75
350.037	73.75
350.265	82.75
350.492	75.75
350.72	82.75
350.947	85.75
351.174	80.75
351.402	90.75
351.629	76.75
351.856	99.75
352.083	71.75
352.311	84.75
352.538	86.75
352.765	80.75
352.992	93.75
353.22	94.75
353.447	80.75
353.674	89.75
353.901	86.75
354.128	82.75
354.355	84.75
354.583	87.75
354.81	83.75
355.037	89.75
355.264	95.75
355.491	81.75
355.718	86.75
355.945	81.75
356.172	84.75
356.399	87.75
356.626	88.75
356.853	87.75
357.08	76.75
357.307	83.75
357.534	94.75
357.761	84.75
357.988	81.75
358.215	68.75
358.441	75.75
358.668	79.75
358.895	82.75
359.122	63.75
359.349	82.75
359.576	72.75
359.802	84.75
360.029	93.75
360.256	90.75
360.483	86.75
360.709	78.75
360.936	86.75
361.163	80.75
361.39	79.75
361.616	92.75
361.843	76.75
362.07	79.75
362.296	86.75
362.523	82.75
362.749	84.75
362.976	90.75
363.203	98.75
363.429	73.75
363.656	73.75
363.882	91.75
364.109	83.75
364.335	82.75
364.562	84.75
364.788	86.75
365.015	73.75
365.241	85.75
365.468	75.75
365.694	73.75
365.92	90.75
366.147	86.75
366.373	72.75
366.599	78.75
366.826	79.75
367.052	88.75
367.278	81.75
367.505	83.75
367.731	103.75
367.957	87.75
368.184	97.75
368.41	91.75
368.636	87.75
368.862	95.75
369.089	76.75
369.315	81.75
369.541	95.75
369.767	83.75
369.993	84.75
370.219	85.75
370.445	75.75
370.672	95.75
370.898	96.75
371.124	89.75
371.35	91.75
371.576	64.75
371.802	92.75
372.028	94.75
372.254	84.75
372.48	82.75
372.706	88.75
372.932	99.75
373.158	79.75
373.384	91.75
373.61	103.75
373.835	96.75
374.061	86.75
374.287	78.75
374.513	101.75
374.739	114.75
374.965	104.75
375.191	84.75
375.416	92.75
375.642	106.75
375.868	103.75
376.094	83.75
376.319	87.75
376.545	87.75
376.771	77.75
376.997	86.75
377.222	106.75
377.448	91.75
377.674	108.75
377.899	86.75
378.125	85.75
378.35	92.75
378.576	96.75
378.802	92.75
379.027	81.75
379.253	101.75
379.478	95.75
379.704	92.75
379.929	94.75
380.155	96.75
380.38	93.75
380.606	87.75
380.831	106.75
381.057	104.75
381.282	97.75
381.507	90.75
381.733	103.75
381.958	90.75
382.184	79.75
382.409	114.75
382.634	107.75
382.86	100.75
383.085	97.75
383.31	98.75
383.535	101.75
383.761	112.75
383.986	98.75
384.211	97.75
384.436	93.75
384.662	89.75
384.887	110.75
385.112	105.75
385.337	83.75
385.562	95.75
385.787	104.75
386.013	103.75
386.238	104.75
386.463	98.75
386.688	106.75
386.913	97.75
387.138	91.75
387.363	88.75
387.588	115.75
387.813	99.75
388.038	84.75
388.263	97.75
388.488	100.75
388.713	116.75
388.938	101.75
389.163	77.75
389.387	99.75
389.612	102.75
389.837	87.75
390.062	103.75
390.287	91.75
390.512	108.75
390.736	84.75
390.961	109.75
391.186	102.75
391.411	95.75
391.636	96.75
391.86	117.75
392.085	91.75
392.31	116.75
392.534	107.75
392.759	93.75
392.984	104.75
393.208	103.75
393.433	102.75
393.658	91.75
393.882	98.75
394.107	100.75
394.331	109.75
394.556	107.75
394.78	119.75
395.005	97.75
395.229	91.75
395.454	100.75
395.678	112.75
395.903	101.75
396.127	113.75
396.352	103.75
396.576	95.75
396.801	114.75
397.025	117.75
397.249	122.75
397.474	106.75
397.698	111.75
397.922	112.75
398.147	98.75
398.371	106.75
398.595	110.75
398.82	114.75
399.044	108.75
399.268	109.75
399.492	116.75
399.717	100.75
399.941	109.75
400.165	118.75
400.389	102.75
400.613	99.75
400.837	126.75
401.062	100.75
401.286	114.75
401.51	100.75
401.734	116.75
401.958	117.75
402.182	116.75
402.406	112.75
402.63	118.75
402.854	110.75
403.078	123.75
403.302	99.75
403.526	121.75
403.75	118.75
403.974	120.75
404.198	125.75
404.422	127.75
404.645	104.75
404.869	126.75
405.093	109.75
405.317	106.75
405.541	110.75
405.765	118.75
405.988	108.75
406.212	107.75
406.436	112.75
406.66	110.75
406.883	123.75
407.107	120.75
407.331	122.75
407.555	118.75
407.778	119.75
408.002	123.75
408.226	116.75
408.449	99.75
408.673	118.75
408.896	125.75
409.12	105.75
409.344	128.75
409.567	118.75
409.791	119.75
410.014	123.75
410.238	139.75
410.461	138.75
410.685	133.75
410.908	122.75
411.132	112.75
411.355	110.75
411.578	115.75
411.802	116.75
412.025	124.75
412.249	130.75
412.472	132.75
412.695	128.75
412.919	113.75
413.142	119.75
413.365	126.75
413.589	99.75
413.812	113.75
414.035	116.75
414.258	127.75
414.482	139.75
414.705	120.75
414.928	110.75
415.151	106.75
415.374	116.75
415.597	116.75
415.821	129.75
416.044	125.75
416.267	137.75
416.49	121.75
416.713	131.75
416.936	124.75
417.159	141.75
417.382	126.75
417.605	111.75
417.828	126.75
418.051	130.75
418.274	124.75
418.497	126.75
418.72	123.75
418.943	118.75
419.166	116.75
419.389	118.75
419.611	126.75
419.834	114.75
420.057	134.75
420.28	138.75
420.503	138.75
420.726	132.75
420.948	130.75
421.171	133.75
421.394	139.75
421.617	146.75
421.839	123.75
422.062	140.75
422.285	131.75
422.507	130.75
422.73	126.75
422.953	130.75
423.175	136.75
423.398	136.75
423.621	122.75
423.843	122.75
424.066	128.75
424.288	152.75
424.511	158.75
424.733	126.75
424.956	136.75
425.178	132.75
425.401	131.75
425.623	133.75
425.846	143.75
426.068	135.75
426.291	115.75
426.513	122.75
426.735	121.75
426.958	121.75
427.18	124.75
427.402	124.75
427.625	110.75
427.847	132.75
428.069	127.75
428.292	124.75
428.514	131.75
428.736	127.75
428.958	126.75
429.181	131.75
429.403	131.75
429.625	143.75
429.847	119.75
430.069	125.75
430.292	130.75
430.514	132.75
430.736	132.75
430.958	123.75
431.18	135.75
431.402	120.75
431.624	119.75
431.846	107.75
432.068	97.75
432.29	95.75
432.512	123.75
432.734	112.75
432.956	128.75
433.178	132.75
433.4	122.75
433.622	134.75
433.844	138.75
434.066	113.75
434.287	116.75
434.509	95.75
434.731	107.75
434.953	107.75
435.175	121.75
435.397	125.75
435.618	116.75
435.84	100.75
436.062	111.75
436.284	122.75
436.505	123.75
436.727	111.75
436.949	116.75
437.17	136.75
437.392	132.75
437.614	123.75
437.835	103.75
438.057	103.75
438.278	95.75
438.5	121.75
438.721	124.75
438.943	125.75
439.165	116.75
439.386	118.75
439.608	138.75
439.829	141.75
440.05	156.75
440.272	144.75
440.493	138.75
440.715	141.75
440.936	145.75
441.158	149.75
441.379	135.75
441.6	139.75
441.822	147.75
442.043	145.75
442.264	139.75
442.486	136.75
442.707	132.75
442.928	149.75
443.149	134.75
443.371	124.75
443.592	149.75
443.813	145.75
444.034	134.75
444.255	148.75
444.476	126.75
444.698	139.75
444.919	140.75
445.14	260.75
445.361	203.75
445.582	148.75
445.803	141.75
446.024	156.75
446.245	144.75
446.466	167.75
446.687	158.75
446.908	166.75
447.129	151.75
447.35	147.75
447.571	143.75
447.792	140.75
448.013	133.75
448.234	156.75
448.455	140.75
448.675	148.75
448.896	145.75
449.117	132.75
449.338	127.75
449.559	138.75
449.779	140.75
450	143.75
450.221	151.75
450.442	137.75
450.662	123.75
450.883	138.75
451.104	124.75
451.324	136.75
451.545	122.75
451.766	132.75
451.986	116.75
452.207	111.75
452.428	116.75
452.648	125.75
452.869	112.75
453.089	106.75
453.31	115.75
453.53	110.75
453.751	116.75
453.971	94.75
454.192	109.75
454.412	116.75
454.633	120.75
454.853	110.75
455.073	110.75
455.294	123.75
455.514	132.75
455.734	123.75
455.955	102.75
456.175	120.75
456.395	102.75
456.616	114.75
456.836	99.75
457.056	117.75
457.276	107.75
457.497	109.75
457.717	105.75
457.937	115.75
458.157	108.75
458.377	119.75
458.598	101.75
458.818	96.75
459.038	92.75
459.258	93.75
459.478	97.75
459.698	84.75
459.918	84.75
460.138	110.75
460.358	130.75
460.578	118.75
460.798	112.75
461.018	122.75
461.238	123.75
461.458	127.75
461.678	121.75
461.898	101.75
462.118	104.75
462.338	121.75
462.558	109.75
462.777	98.75
462.997	106.75
463.217	116.75
463.437	96.75
463.657	116.75
463.876	102.75
464.096	105.75
464.316	106.75
464.536	115.75
464.755	128.75
464.975	112.75
465.195	122.75
465.414	116.75
465.634	110.75
465.854	114.75
466.073	112.75
466.293	129.75
466.512	118.75
466.732	131.75
466.951	127.75
467.171	124.75
467.391	130.75
467.61	149.75
467.829	131.75
468.049	136.75
468.268	146.75
468.488	133.75
468.707	131.75
468.927	134.75
469.146	138.75
469.365	139.75
469.585	142.75
469.804	135.75
470.023	156.75
470.243	141.75
470.462	137.75
470.681	144.75
470.901	145.75
471.12	149.75
471.339	146.75
471.558	142.75
471.777	120.75
471.997	121.75
472.216	123.75
472.435	116.75
472.654	104.75
472.873	120.75
473.092	120.75
473.311	126.75
473.53	114.75
473.749	136.75
473.968	124.75
474.187	112.75
474.406	97.75
474.625	121.75
474.844	125.75
475.063	125.75
475.282	123.75
475.501	122.75
475.72	118.75
475.939	139.75
476.158	126.75
476.377	120.75
476.596	118.75
476.814	118.75
477.033	126.75
477.252	129.75
477.471	122.75
477.69	132.75
477.908	137.75
478.127	151.75
478.346	142.75
478.564	132.75
478.783	128.75
479.002	131.75
479.22	126.75
479.439	139.75
479.658	133.75
479.876	120.75
480.095	102.75
480.313	130.75
480.532	114.75
480.751	106.75
480.969	115.75
481.188	94.75
481.406	106.75
481.624	103.75
481.843	100.75
482.061	95.75
482.28	115.75
482.498	126.75
482.717	105.75
482.935	126.75
483.153	144.75
483.372	137.75
483.59	153.75
483.808	140.75
484.027	118.75
484.245	139.75
484.463	132.75
484.681	154.75
484.9	146.75
485.118	134.75
485.336	130.75
485.554	117.75
485.772	102.75
485.99	114.75
486.209	104.75
486.427	116.75
486.645	118.75
486.863	136.75
487.081	144.75
487.299	131.75
487.517	144.75
487.735	156.75
487.953	189.75
488.171	208.75
488.389	187.75
488.607	160.75
488.825	144.75
489.043	141.75
489.261	137.75
489.479	146.75
489.696	152.75
489.914	152.75
490.132	140.75
490.35	152.75
490.568	168.75
490.786	163.75
491.003	183.75
491.221	179.75
491.439	180.75
491.657	206.75
491.874	199.75
492.092	223.75
492.31	236.75
492.527	210.75
492.745	201.75
492.963	183.75
493.18	175.75
493.398	174.75
493.615	186.75
493.833	182.75
494.05	167.75
494.268	181.75
494.485	162.75
494.703	181.75
494.92	184.75
495.138	167.75
495.355	176.75
495.573	157.75
495.79	174.75
496.008	169.75
496.225	166.75
496.442	148.75
496.66	170.75
496.877	163.75
497.094	162.75
497.312	165.75
497.529	156.75
497.746	149.75
497.963	124.75
498.181	120.75
498.398	115.75
498.615	111.75
498.832	122.75
499.049	122.75
499.267	120.75
499.484	130.75
499.701	131.75
499.918	135.75
500.135	129.75
500.352	146.75
500.569	138.75
500.786	143.75
501.003	146.75
501.22	136.75
501.437	129.75
501.654	139.75
501.871	127.75
502.088	136.75
502.305	137.75
502.522	130.75
502.739	129.75
502.956	132.75
503.172	130.75
503.389	127.75
503.606	118.75
503.823	124.75
504.04	112.75
504.256	132.75
504.473	125.75
504.69	116.75
504.907	122.75
505.123	115.75
505.34	134.75
505.557	115.75
505.773	120.75
505.99	121.75
506.207	121.75
506.423	115.75
506.64	107.75
506.856	121.75
507.073	116.75
507.289	111.75
507.506	126.75
507.722	116.75
507.939	130.75
508.155	116.75
508.372	102.75
508.588	111.75
508.805	119.75
509.021	111.75
509.238	112.75
509.454	116.75
509.67	106.75
509.887	107.75
510.103	108.75
510.319	96.75
510.536	89.75
510.752	100.75
510.968	87.75
511.184	92.75
511.401	99.75
511.617	97.75
511.833	84.75
512.049	98.75
512.265	89.75
512.481	89.75
512.698	107.75
512.914	103.75
513.13	85.75
513.346	90.75
513.562	86.75
513.778	94.75
513.994	87.75
514.21	100.75
514.426	90.75
514.642	111.75
514.858	89.75
515.074	87.75
515.29	104.75
515.506	102.75
515.721	78.75
515.937	85.75
516.153	91.75
516.369	91.75
516.585	73.75
516.801	81.75
517.016	95.75
517.232	82.75
517.448	96.75
517.664	84.75
517.879	88.75
518.095	93.75
518.311	94.75
518.527	88.75
518.742	93.75
518.958	99.75
519.173	102.75
519.389	96.75
519.605	110.75
519.82	126.75
520.036	114.75
520.251	112.75
520.467	111.75
520.682	106.75
520.898	101.75
521.113	96.75
521.329	96.75
521.544	99.75
521.76	94.75
521.975	103.75
522.19	105.75
522.406	97.75
522.621	109.75
522.836	87.75
523.052	95.75
523.267	116.75
523.482	114.75
523.698	104.75
523.913	130.75
524.128	98.75
524.343	124.75
524.559	115.75
524.774	118.75
524.989	125.75
525.204	126.75
525.419	118.75
525.634	108.75
525.849	118.75
526.064	112.75
526.28	90.75
526.495	97.75
526.71	98.75
526.925	81.75
527.14	86.75
527.355	84.75
527.57	84.75
527.785	77.75
527.999	95.75
528.214	109.75
528.429	92.75
528.644	118.75
528.859	132.75
529.074	140.75
529.289	171.75
529.503	163.75
529.718	137.75
529.933	104.75
530.148	112.75
530.363	90.75
530.577	88.75
530.792	85.75
531.007	77.75
531.221	90.75
531.436	86.75
531.651	88.75
531.865	96.75
532.08	102.75
532.295	77.75
532.509	87.75
532.724	70.75
532.938	67.75
533.153	89.75
533.367	117.75
533.582	109.75
533.796	109.75
534.011	124.75
534.225	106.75
534.44	115.75
534.654	88.75
534.868	100.75
535.083	100.75
535.297	90.75
535.511	116.75
535.726	105.75
535.94	117.75
536.154	92.75
536.369	78.75
536.583	91.75
536.797	93.75
537.011	83.75
537.225	86.75
537.44	93.75
537.654	89.75
537.868	79.75
538.082	83.75
538.296	99.75
538.51	115.75
538.724	121.75
538.938	117.75
539.153	122.75
539.367	124.75
539.581	91.75
539.795	98.75
540.009	86.75
540.222	95.75
540.436	106.75
540.65	118.75
540.864	144.75
541.078	135.75
541.292	142.75
541.506	154.75
541.72	157.75
541.934	171.75
542.147	202.75
542.361	192.75
542.575	165.75
542.789	157.75
543.002	139.75
543.216	138.75
543.43	126.75
543.644	119.75
543.857	139.75
544.071	167.75
544.285	152.75
544.498	156.75
544.712	159.75
544.925	167.75
545.139	159.75
545.352	164.75
545.566	154.75
545.779	144.75
545.993	167.75
546.206	177.75
546.42	158.75
546.633	158.75
546.847	162.75
547.06	166.75
547.274	166.75
547.487	175.75
547.7	164.75
547.914	174.75
548.127	168.75
548.34	159.75
548.554	158.75
548.767	151.75
548.98	150.75
549.193	136.75
549.407	157.75
549.62	151.75
549.833	155.75
550.046	144.75
550.259	143.75
550.473	162.75
550.686	158.75
550.899	135.75
551.112	157.75
551.325	141.75
551.538	136.75
551.751	111.75
551.964	127.75
552.177	130.75
552.39	148.75
552.603	140.75
552.816	163.75
553.029	155.75
553.242	153.75
553.455	167.75
553.667	159.75
553.88	135.75
554.093	148.75
554.306	154.75
554.519	148.75
554.732	141.75
554.944	128.75
555.157	146.75
555.37	160.75
555.583	152.75
555.795	139.75
556.008	130.75
556.221	139.75
556.433	122.75
556.646	140.75
556.859	131.75
557.071	138.75
557.284	136.75
557.496	150.75
557.709	136.75
557.921	126.75
558.134	135.75
558.346	136.75
558.559	141.75
558.771	137.75
558.984	129.75
559.196	130.75
559.409	134.75
559.621	126.75
559.833	121.75
560.046	126.75
560.258	135.75
560.47	130.75
560.683	120.75
560.895	127.75
561.107	122.75
561.32	129.75
561.532	136.75
561.744	119.75
561.956	130.75
562.168	132.75
562.381	127.75
562.593	139.75
562.805	128.75
563.017	125.75
563.229	131.75
563.441	115.75
563.653	130.75
563.865	125.75
564.077	111.75
564.289	120.75
564.501	133.75
564.713	118.75
564.925	125.75
565.137	112.75
565.349	116.75
565.561	120.75
565.773	132.75
565.985	130.75
566.197	111.75
566.408	120.75
566.62	108.75
566.832	119.75
567.044	126.75
567.255	121.75
567.467	107.75
567.679	108.75
567.891	105.75
568.102	99.75
568.314	86.75
568.526	90.75
568.737	87.75
568.949	90.75
569.161	90.75
569.372	92.75
569.584	79.75
569.795	72.75
570.007	83.75
570.218	82.75
570.43	88.75
570.641	84.75
570.853	75.75
571.064	99.75
571.276	97.75
571.487	94.75
571.698	105.75
571.91	117.75
572.121	98.75
572.333	119.75
572.544	94.75
572.755	98.75
572.966	86.75
573.178	74.75
573.389	80.75
573.6	80.75
573.811	99.75
574.023	101.75
574.234	96.75
574.445	83.75
574.656	88.75
574.867	91.75
575.078	84.75
575.289	94.75
575.501	99.75
575.712	100.75
575.923	104.75
576.134	90.75
576.345	92.75
576.556	107.75
576.767	100.75
576.978	85.75
577.188	85.75
577.399	97.75
577.61	96.75
577.821	94.75
578.032	114.75
578.243	105.75
578.454	85.75
578.665	89.75
578.875	84.75
579.086	84.75
579.297	86.75
579.508	80.75
579.718	87.75
579.929	87.75
580.14	91.75
580.35	74.75
580.561	84.75
580.772	90.75
580.982	87.75
581.193	95.75
581.403	94.75
581.614	108.75
581.825	103.75
582.035	118.75
582.246	105.75
582.456	78.75
582.667	98.75
582.877	85.75
583.087	84.75
583.298	92.75
583.508	88.75
583.719	96.75
583.929	76.75
584.139	88.75
584.35	92.75
584.56	78.75
584.77	82.75
584.981	82.75
585.191	99.75
585.401	79.75
585.611	84.75
585.821	93.75
586.032	81.75
586.242	91.75
586.452	89.75
586.662	88.75
586.872	81.75
587.082	94.75
587.292	89.75
587.502	86.75
587.713	87.75
587.923	75.75
588.133	88.75
588.343	89.75
588.553	82.75
588.762	85.75
588.972	81.75
589.182	98.75
589.392	87.75
589.602	83.75
589.812	95.75
590.022	92.75
590.232	95.75
590.441	88.75
590.651	87.75
590.861	88.75
591.071	79.75
591.281	94.75
591.49	83.75
591.7	74.75
591.91	89.75
592.119	87.75
592.329	86.75
592.539	85.75
592.748	89.75
592.958	92.75
593.167	89.75
593.377	96.75
593.587	97.75
593.796	84.75
594.006	95.75
594.215	84.75
594.424	92.75
594.634	86.75
594.843	80.75
595.053	93.75
595.262	104.75
595.472	97.75
595.681	88.75
595.89	72.75
596.1	98.75
596.309	86.75
596.518	96.75
596.727	88.75
596.937	84.75
597.146	111.75
597.355	85.75
597.564	94.75
597.774	103.75
597.983	88.75
598.192	105.75
598.401	87.75
598.61	86.75
598.819	103.75
599.028	96.75
599.237	95.75
599.446	81.75
599.655	103.75
599.864	98.75
600.073	91.75
600.282	106.75
600.491	92.75
600.7	98.75
600.909	80.75
601.118	90.75
601.327	108.75
601.536	106.75
601.745	101.75
601.953	115.75
602.162	104.75
602.371	116.75
602.58	110.75
602.789	109.75
602.997	126.75
603.206	93.75
603.415	108.75
603.623	103.75
603.832	98.75
604.041	117.75
604.249	92.75
604.458	106.75
604.666	100.75
604.875	105.75
605.084	108.75
605.292	112.75
605.501	117.75
605.709	111.75
605.918	117.75
606.126	109.75
606.334	111.75
606.543	124.75
606.751	125.75
606.96	114.75
607.168	124.75
607.376	98.75
607.585	111.75
607.793	104.75
608.001	116.75
608.21	105.75
608.418	104.75
608.626	93.75
608.834	122.75
609.043	108.75
609.251	108.75
609.459	99.75
609.667	105.75
609.875	116.75
610.083	138.75
610.291	125.75
610.499	116.75
610.707	137.75
610.916	111.75
611.124	122.75
611.332	125.75
611.54	127.75
611.748	120.75
611.955	112.75
612.163	106.75
612.371	109.75
612.579	95.75
612.787	100.75
612.995	115.75
613.203	114.75
613.411	115.75
613.618	114.75
613.826	109.75
614.034	118.75
614.242	118.75
614.449	106.75
614.657	105.75
614.865	117.75
615.072	106.75
615.28	114.75
615.488	121.75
615.695	118.75
615.903	116.75
616.111	111.75
616.318	115.75
616.526	90.75
616.733	109.75
616.941	125.75
617.148	103.75
617.356	116.75
617.563	110.75
617.771	108.75
617.978	114.75
618.185	98.75
618.393	107.75
618.6	114.75
618.807	106.75
619.015	108.75
619.222	121.75
619.429	106.75
619.637	98.75
619.844	109.75
620.051	96.75
620.258	105.75
620.466	111.75
620.673	104.75
620.88	106.75
621.087	100.75
621.294	98.75
621.501	96.75
621.708	101.75
621.915	107.75
622.122	113.75
622.329	114.75
622.536	114.75
622.743	106.75
622.95	120.75
623.157	112.75
623.364	110.75
623.571	121.75
623.778	109.75
623.985	109.75
624.192	99.75
624.399	116.75
624.606	102.75
624.812	119.75
625.019	106.75
625.226	102.75
625.433	104.75
625.639	93.75
625.846	93.75
626.053	91.75
626.259	95.75
626.466	75.75
626.673	79.75
626.879	100.75
627.086	102.75
627.293	121.75
627.499	124.75
627.706	101.75
627.912	91.75
628.119	104.75
628.325	89.75
628.532	95.75
628.738	105.75
628.945	95.75
629.151	99.75
629.357	104.75
629.564	111.75
629.77	101.75
629.976	102.75
630.183	107.75
630.389	108.75
630.595	108.75
630.802	101.75
631.008	90.75
631.214	104.75
631.42	96.75
631.627	101.75
631.833	92.75
632.039	90.75
632.245	98.75
632.451	98.75
632.657	91.75
632.863	107.75
633.069	94.75
633.275	96.75
633.481	98.75
633.688	94.75
633.893	102.75
634.099	110.75
634.305	95.75
634.511	95.75
634.717	102.75
634.923	93.75
635.129	111.75
635.335	103.75
635.541	91.75
635.747	95.75
635.952	107.75
636.158	96.75
636.364	104.75
636.57	99.75
636.775	110.75
636.981	108.75
637.187	104.75
637.392	102.75
637.598	98.75
637.804	102.75
638.009	103.75
638.215	108.75
638.421	96.75
638.626	98.75
638.832	110.75
639.037	91.75
639.243	87.75
639.448	100.75
639.654	108.75
639.859	91.75
640.065	117.75
640.27	106.75
640.475	112.75
640.681	108.75
640.886	99.75
641.091	109.75
641.297	105.75
641.502	114.75
641.707	95.75
641.913	101.75
642.118	104.75
642.323	99.75
642.528	114.75
642.733	95.75
642.939	104.75
643.144	102.75
643.349	104.75
643.554	100.75
643.759	95.75
643.964	90.75
644.169	103.75
644.374	106.75
644.579	99.75
644.784	102.75
644.989	108.75
645.194	105.75
645.399	105.75
645.604	95.75
645.809	103.75
646.014	79.75
646.219	95.75
646.423	88.75
646.628	102.75
646.833	101.75
647.038	106.75
647.243	100.75
647.447	102.75
647.652	91.75
647.857	118.75
648.062	100.75
648.266	115.75
648.471	102.75
648.676	105.75
648.88	102.75
649.085	107.75
649.289	106.75
649.494	94.75
649.698	92.75
649.903	100.75
650.107	103.75
650.312	107.75
650.516	97.75
650.721	88.75
650.925	84.75
651.13	88.75
651.334	95.75
651.539	98.75
651.743	95.75
651.947	92.75
652.152	87.75
652.356	93.75
652.56	101.75
652.764	103.75
652.969	96.75
653.173	85.75
653.377	81.75
653.581	102.75
653.785	87.75
653.99	102.75
654.194	108.75
654.398	100.75
654.602	86.75
654.806	102.75
655.01	91.75
655.214	96.75
655.418	95.75
655.622	102.75
655.826	94.75
656.03	92.75
656.234	77.75
656.438	95.75
656.642	82.75
656.846	80.75
657.049	101.75
657.253	84.75
657.457	94.75
657.661	86.75
657.865	92.75
658.068	85.75
658.272	81.75
658.476	87.75
658.68	84.75
658.883	79.75
659.087	84.75
659.291	86.75
659.494	79.75
659.698	91.75
659.901	74.75
660.105	81.75
660.309	94.75
660.512	88.75
660.716	91.75
660.919	83.75
661.123	81.75
661.326	83.75
661.53	86.75
661.733	80.75
661.936	78.75
662.14	79.75
662.343	91.75
662.546	67.75
662.75	82.75
662.953	86.75
663.156	80.75
663.36	84.75
663.563	71.75
663.766	86.75
663.969	78.75
664.173	87.75
664.376	74.75
664.579	72.75
664.782	79.75
664.985	82.75
665.188	82.75
665.391	84.75
665.594	87.75
665.797	90.75
666	90.75
666.203	73.75
666.406	98.75
666.609	85.75
666.812	86.75
667.015	79.75
667.218	84.75
667.421	78.75
667.624	77.75
667.827	90.75
668.03	75.75
668.232	70.75
668.435	83.75
668.638	81.75
668.841	95.75
669.043	78.75
669.246	91.75
669.449	73.75
669.651	79.75
669.854	83.75
670.057	81.75
670.259	90.75
670.462	89.75
670.665	79.75
670.867	77.75
671.07	84.75
671.272	72.75
671.475	89.75
671.677	87.75
671.88	82.75
672.082	80.75
672.284	81.75
672.487	86.75
672.689	86.75
672.892	80.75
