Data from Location1.07152019.Energy5.Lamp.07192019.3%Agarose_HRD10591_14-32-48-017.txt Node
Date: Fri Jul 19 14:32:48 EDT 2019
User: cochatt
Spectrometer: HR+D1059
Trigger mode: 1
Integration Time (sec): 1.000000E-1
Scans to average: 1
Electric dark correction enabled: true
Nonlinearity correction enabled: false
Boxcar width: 0
XAxis mode: Wavelengths
Number of Pixels in Spectrum: 2048
>>>>>Begin Spectral Data<<<<<
223.165	-29.25
223.4	-29.25
223.635	-29.25
223.869	-20.25
224.104	-28.25
224.338	-1.25
224.573	-18.25
224.808	-0.25
225.042	-12.25
225.277	0.75
225.511	3.75
225.746	-2.25
225.98	8.75
226.215	22.75
226.449	19.75
226.683	16.75
226.918	17.75
227.152	21.75
227.387	53.75
227.621	37.75
227.856	36.75
228.09	40.75
228.324	39.75
228.559	56.75
228.793	62.75
229.027	59.75
229.262	61.75
229.496	79.75
229.73	73.75
229.964	66.75
230.199	74.75
230.433	64.75
230.667	76.75
230.901	77.75
231.136	81.75
231.37	72.75
231.604	72.75
231.838	77.75
232.072	86.75
232.306	86.75
232.541	86.75
232.775	73.75
233.009	89.75
233.243	83.75
233.477	92.75
233.711	90.75
233.945	80.75
234.179	91.75
234.413	92.75
234.647	85.75
234.881	98.75
235.115	100.75
235.349	66.75
235.583	81.75
235.817	91.75
236.051	88.75
236.285	75.75
236.519	81.75
236.753	87.75
236.987	82.75
237.221	82.75
237.455	86.75
237.689	73.75
237.922	79.75
238.156	78.75
238.39	77.75
238.624	71.75
238.858	82.75
239.091	85.75
239.325	76.75
239.559	63.75
239.793	72.75
240.027	79.75
240.26	90.75
240.494	87.75
240.728	79.75
240.961	80.75
241.195	67.75
241.429	75.75
241.662	85.75
241.896	81.75
242.13	75.75
242.363	85.75
242.597	57.75
242.83	70.75
243.064	89.75
243.298	80.75
243.531	93.75
243.765	76.75
243.998	80.75
244.232	87.75
244.465	79.75
244.699	76.75
244.932	92.75
245.166	67.75
245.399	83.75
245.633	78.75
245.866	89.75
246.099	77.75
246.333	63.75
246.566	78.75
246.8	85.75
247.033	79.75
247.266	82.75
247.5	87.75
247.733	70.75
247.966	81.75
248.2	86.75
248.433	81.75
248.666	63.75
248.899	78.75
249.133	70.75
249.366	76.75
249.599	101.75
249.832	80.75
250.066	77.75
250.299	90.75
250.532	68.75
250.765	76.75
250.998	77.75
251.231	81.75
251.465	87.75
251.698	82.75
251.931	82.75
252.164	88.75
252.397	71.75
252.63	85.75
252.863	72.75
253.096	78.75
253.329	92.75
253.562	80.75
253.795	87.75
254.028	93.75
254.261	78.75
254.494	81.75
254.727	82.75
254.96	82.75
255.193	90.75
255.426	82.75
255.659	62.75
255.892	74.75
256.124	79.75
256.357	68.75
256.59	92.75
256.823	81.75
257.056	81.75
257.289	83.75
257.521	81.75
257.754	78.75
257.987	89.75
258.22	92.75
258.452	95.75
258.685	87.75
258.918	78.75
259.151	88.75
259.383	86.75
259.616	90.75
259.849	71.75
260.081	93.75
260.314	92.75
260.547	79.75
260.779	81.75
261.012	92.75
261.244	83.75
261.477	98.75
261.71	85.75
261.942	90.75
262.175	78.75
262.407	77.75
262.64	85.75
262.872	80.75
263.105	78.75
263.337	76.75
263.57	92.75
263.802	87.75
264.035	87.75
264.267	100.75
264.499	85.75
264.732	91.75
264.964	85.75
265.197	81.75
265.429	88.75
265.661	73.75
265.894	94.75
266.126	103.75
266.358	86.75
266.591	87.75
266.823	71.75
267.055	78.75
267.287	87.75
267.52	84.75
267.752	90.75
267.984	84.75
268.216	91.75
268.448	83.75
268.681	90.75
268.913	82.75
269.145	71.75
269.377	84.75
269.609	76.75
269.841	87.75
270.073	87.75
270.306	77.75
270.538	86.75
270.77	93.75
271.002	103.75
271.234	92.75
271.466	95.75
271.698	100.75
271.93	93.75
272.162	83.75
272.394	90.75
272.626	87.75
272.858	80.75
273.09	76.75
273.322	73.75
273.553	94.75
273.785	90.75
274.017	81.75
274.249	80.75
274.481	88.75
274.713	80.75
274.945	91.75
275.176	76.75
275.408	75.75
275.64	78.75
275.872	74.75
276.104	83.75
276.335	85.75
276.567	81.75
276.799	77.75
277.031	77.75
277.262	82.75
277.494	77.75
277.726	88.75
277.957	80.75
278.189	86.75
278.421	81.75
278.652	88.75
278.884	82.75
279.115	93.75
279.347	97.75
279.579	84.75
279.81	84.75
280.042	82.75
280.273	91.75
280.505	91.75
280.736	75.75
280.968	72.75
281.199	77.75
281.431	98.75
281.662	88.75
281.894	73.75
282.125	101.75
282.356	77.75
282.588	83.75
282.819	104.75
283.051	82.75
283.282	85.75
283.513	90.75
283.745	78.75
283.976	86.75
284.207	96.75
284.439	78.75
284.67	87.75
284.901	72.75
285.132	90.75
285.364	84.75
285.595	91.75
285.826	70.75
286.057	92.75
286.288	94.75
286.52	81.75
286.751	85.75
286.982	93.75
287.213	93.75
287.444	93.75
287.675	87.75
287.906	75.75
288.138	78.75
288.369	88.75
288.6	98.75
288.831	73.75
289.062	86.75
289.293	92.75
289.524	88.75
289.755	92.75
289.986	86.75
290.217	93.75
290.448	95.75
290.679	89.75
290.91	96.75
291.141	87.75
291.371	88.75
291.602	89.75
291.833	79.75
292.064	85.75
292.295	79.75
292.526	101.75
292.757	87.75
292.987	83.75
293.218	81.75
293.449	87.75
293.68	87.75
293.91	97.75
294.141	97.75
294.372	99.75
294.603	87.75
294.833	88.75
295.064	88.75
295.295	96.75
295.525	94.75
295.756	87.75
295.987	100.75
296.217	77.75
296.448	92.75
296.679	90.75
296.909	77.75
297.14	83.75
297.37	102.75
297.601	99.75
297.831	96.75
298.062	94.75
298.292	81.75
298.523	75.75
298.753	95.75
298.984	94.75
299.214	90.75
299.445	93.75
299.675	80.75
299.905	92.75
300.136	92.75
300.366	88.75
300.597	99.75
300.827	86.75
301.057	80.75
301.288	78.75
301.518	96.75
301.748	84.75
301.979	108.75
302.209	109.75
302.439	89.75
302.669	86.75
302.9	92.75
303.13	86.75
303.36	94.75
303.59	79.75
303.82	88.75
304.051	89.75
304.281	87.75
304.511	98.75
304.741	87.75
304.971	89.75
305.201	85.75
305.431	87.75
305.661	85.75
305.891	74.75
306.121	89.75
306.352	79.75
306.582	85.75
306.812	74.75
307.042	83.75
307.272	82.75
307.502	93.75
307.731	89.75
307.961	91.75
308.191	88.75
308.421	79.75
308.651	91.75
308.881	92.75
309.111	73.75
309.341	81.75
309.571	85.75
309.8	91.75
310.03	83.75
310.26	81.75
310.49	87.75
310.72	97.75
310.949	85.75
311.179	89.75
311.409	84.75
311.639	79.75
311.868	93.75
312.098	87.75
312.328	86.75
312.557	89.75
312.787	98.75
313.017	91.75
313.246	89.75
313.476	86.75
313.706	84.75
313.935	93.75
314.165	86.75
314.394	94.75
314.624	88.75
314.853	91.75
315.083	82.75
315.312	95.75
315.542	89.75
315.771	84.75
316.001	80.75
316.23	84.75
316.46	96.75
316.689	97.75
316.919	98.75
317.148	94.75
317.377	82.75
317.607	98.75
317.836	104.75
318.065	90.75
318.295	72.75
318.524	83.75
318.753	90.75
318.983	93.75
319.212	74.75
319.441	96.75
319.67	93.75
319.9	84.75
320.129	79.75
320.358	85.75
320.587	90.75
320.816	90.75
321.046	81.75
321.275	83.75
321.504	98.75
321.733	97.75
321.962	92.75
322.191	88.75
322.42	84.75
322.649	89.75
322.878	91.75
323.108	90.75
323.337	87.75
323.566	72.75
323.795	85.75
324.024	87.75
324.253	87.75
324.482	85.75
324.71	82.75
324.939	86.75
325.168	101.75
325.397	82.75
325.626	82.75
325.855	82.75
326.084	74.75
326.313	94.75
326.542	81.75
326.77	76.75
326.999	93.75
327.228	86.75
327.457	90.75
327.686	93.75
327.914	93.75
328.143	91.75
328.372	93.75
328.6	82.75
328.829	88.75
329.058	88.75
329.287	86.75
329.515	79.75
329.744	89.75
329.972	86.75
330.201	94.75
330.43	88.75
330.658	88.75
330.887	97.75
331.115	87.75
331.344	89.75
331.572	83.75
331.801	80.75
332.03	81.75
332.258	102.75
332.486	83.75
332.715	96.75
332.943	86.75
333.172	70.75
333.4	82.75
333.629	82.75
333.857	88.75
334.085	81.75
334.314	83.75
334.542	90.75
334.771	95.75
334.999	75.75
335.227	89.75
335.455	82.75
335.684	88.75
335.912	86.75
336.14	102.75
336.369	94.75
336.597	90.75
336.825	93.75
337.053	86.75
337.281	95.75
337.51	74.75
337.738	110.75
337.966	80.75
338.194	82.75
338.422	89.75
338.65	88.75
338.878	97.75
339.106	95.75
339.334	92.75
339.562	91.75
339.79	88.75
340.018	90.75
340.246	98.75
340.474	98.75
340.702	94.75
340.93	87.75
341.158	91.75
341.386	88.75
341.614	95.75
341.842	79.75
342.07	86.75
342.298	89.75
342.526	78.75
342.754	86.75
342.981	86.75
343.209	96.75
343.437	84.75
343.665	90.75
343.893	91.75
344.12	82.75
344.348	72.75
344.576	82.75
344.804	89.75
345.031	72.75
345.259	101.75
345.487	88.75
345.714	88.75
345.942	101.75
346.17	97.75
346.397	84.75
346.625	89.75
346.853	92.75
347.08	91.75
347.308	91.75
347.535	75.75
347.763	77.75
347.99	82.75
348.218	99.75
348.445	90.75
348.673	77.75
348.9	81.75
349.128	78.75
349.355	92.75
349.583	93.75
349.81	81.75
350.037	103.75
350.265	96.75
350.492	78.75
350.72	83.75
350.947	89.75
351.174	86.75
351.402	85.75
351.629	93.75
351.856	93.75
352.083	92.75
352.311	100.75
352.538	85.75
352.765	83.75
352.992	95.75
353.22	99.75
353.447	88.75
353.674	76.75
353.901	102.75
354.128	89.75
354.355	78.75
354.583	92.75
354.81	88.75
355.037	83.75
355.264	87.75
355.491	72.75
355.718	88.75
355.945	82.75
356.172	83.75
356.399	90.75
356.626	79.75
356.853	80.75
357.08	87.75
357.307	94.75
357.534	76.75
357.761	103.75
357.988	83.75
358.215	90.75
358.441	77.75
358.668	73.75
358.895	78.75
359.122	89.75
359.349	81.75
359.576	107.75
359.802	100.75
360.029	84.75
360.256	97.75
360.483	89.75
360.709	94.75
360.936	85.75
361.163	93.75
361.39	90.75
361.616	90.75
361.843	93.75
362.07	92.75
362.296	78.75
362.523	87.75
362.749	98.75
362.976	89.75
363.203	79.75
363.429	97.75
363.656	86.75
363.882	87.75
364.109	99.75
364.335	83.75
364.562	82.75
364.788	90.75
365.015	81.75
365.241	88.75
365.468	106.75
365.694	88.75
365.92	91.75
366.147	103.75
366.373	92.75
366.599	78.75
366.826	95.75
367.052	96.75
367.278	81.75
367.505	87.75
367.731	95.75
367.957	104.75
368.184	97.75
368.41	76.75
368.636	102.75
368.862	96.75
369.089	76.75
369.315	93.75
369.541	84.75
369.767	86.75
369.993	117.75
370.219	91.75
370.445	87.75
370.672	88.75
370.898	92.75
371.124	88.75
371.35	93.75
371.576	93.75
371.802	86.75
372.028	95.75
372.254	79.75
372.48	98.75
372.706	91.75
372.932	101.75
373.158	99.75
373.384	105.75
373.61	95.75
373.835	111.75
374.061	92.75
374.287	89.75
374.513	103.75
374.739	80.75
374.965	94.75
375.191	106.75
375.416	97.75
375.642	82.75
375.868	98.75
376.094	97.75
376.319	94.75
376.545	90.75
376.771	87.75
376.997	100.75
377.222	94.75
377.448	101.75
377.674	99.75
377.899	94.75
378.125	86.75
378.35	110.75
378.576	103.75
378.802	93.75
379.027	95.75
379.253	106.75
379.478	95.75
379.704	92.75
379.929	106.75
380.155	96.75
380.38	90.75
380.606	96.75
380.831	99.75
381.057	108.75
381.282	91.75
381.507	102.75
381.733	111.75
381.958	100.75
382.184	90.75
382.409	95.75
382.634	92.75
382.86	87.75
383.085	111.75
383.31	91.75
383.535	110.75
383.761	103.75
383.986	100.75
384.211	103.75
384.436	100.75
384.662	106.75
384.887	90.75
385.112	85.75
385.337	112.75
385.562	96.75
385.787	109.75
386.013	101.75
386.238	97.75
386.463	103.75
386.688	97.75
386.913	109.75
387.138	117.75
387.363	99.75
387.588	100.75
387.813	107.75
388.038	96.75
388.263	105.75
388.488	95.75
388.713	95.75
388.938	113.75
389.163	107.75
389.387	92.75
389.612	106.75
389.837	93.75
390.062	104.75
390.287	107.75
390.512	97.75
390.736	102.75
390.961	98.75
391.186	110.75
391.411	108.75
391.636	108.75
391.86	116.75
392.085	106.75
392.31	92.75
392.534	93.75
392.759	105.75
392.984	105.75
393.208	100.75
393.433	118.75
393.658	111.75
393.882	97.75
394.107	107.75
394.331	113.75
394.556	102.75
394.78	114.75
395.005	104.75
395.229	116.75
395.454	111.75
395.678	113.75
395.903	107.75
396.127	108.75
396.352	116.75
396.576	104.75
396.801	114.75
397.025	115.75
397.249	100.75
397.474	105.75
397.698	119.75
397.922	122.75
398.147	116.75
398.371	106.75
398.595	106.75
398.82	117.75
399.044	105.75
399.268	113.75
399.492	120.75
399.717	114.75
399.941	120.75
400.165	111.75
400.389	112.75
400.613	112.75
400.837	119.75
401.062	104.75
401.286	108.75
401.51	97.75
401.734	108.75
401.958	103.75
402.182	108.75
402.406	116.75
402.63	104.75
402.854	119.75
403.078	116.75
403.302	132.75
403.526	124.75
403.75	121.75
403.974	112.75
404.198	112.75
404.422	122.75
404.645	119.75
404.869	121.75
405.093	112.75
405.317	116.75
405.541	124.75
405.765	122.75
405.988	106.75
406.212	104.75
406.436	130.75
406.66	124.75
406.883	122.75
407.107	118.75
407.331	108.75
407.555	126.75
407.778	125.75
408.002	124.75
408.226	111.75
408.449	123.75
408.673	112.75
408.896	116.75
409.12	126.75
409.344	119.75
409.567	122.75
409.791	119.75
410.014	120.75
410.238	123.75
410.461	125.75
410.685	125.75
410.908	121.75
411.132	106.75
411.355	124.75
411.578	121.75
411.802	124.75
412.025	128.75
412.249	111.75
412.472	140.75
412.695	133.75
412.919	122.75
413.142	128.75
413.365	126.75
413.589	125.75
413.812	126.75
414.035	125.75
414.258	125.75
414.482	115.75
414.705	118.75
414.928	129.75
415.151	124.75
415.374	115.75
415.597	120.75
415.821	125.75
416.044	125.75
416.267	121.75
416.49	119.75
416.713	118.75
416.936	132.75
417.159	115.75
417.382	127.75
417.605	131.75
417.828	132.75
418.051	124.75
418.274	141.75
418.497	138.75
418.72	132.75
418.943	132.75
419.166	155.75
419.389	130.75
419.611	146.75
419.834	137.75
420.057	130.75
420.28	138.75
420.503	125.75
420.726	124.75
420.948	127.75
421.171	128.75
421.394	149.75
421.617	148.75
421.839	122.75
422.062	141.75
422.285	137.75
422.507	134.75
422.73	121.75
422.953	113.75
423.175	138.75
423.398	136.75
423.621	117.75
423.843	139.75
424.066	135.75
424.288	138.75
424.511	140.75
424.733	150.75
424.956	146.75
425.178	125.75
425.401	149.75
425.623	146.75
425.846	137.75
426.068	138.75
426.291	133.75
426.513	130.75
426.735	125.75
426.958	128.75
427.18	115.75
427.402	108.75
427.625	124.75
427.847	127.75
428.069	138.75
428.292	132.75
428.514	135.75
428.736	133.75
428.958	124.75
429.181	132.75
429.403	122.75
429.625	120.75
429.847	118.75
430.069	131.75
430.292	128.75
430.514	125.75
430.736	123.75
430.958	136.75
431.18	136.75
431.402	132.75
431.624	125.75
431.846	116.75
432.068	93.75
432.29	94.75
432.512	111.75
432.734	115.75
432.956	157.75
433.178	150.75
433.4	141.75
433.622	148.75
433.844	123.75
434.066	118.75
434.287	114.75
434.509	105.75
434.731	102.75
434.953	103.75
435.175	122.75
435.397	122.75
435.618	131.75
435.84	106.75
436.062	102.75
436.284	124.75
436.505	129.75
436.727	133.75
436.949	130.75
437.17	113.75
437.392	138.75
437.614	126.75
437.835	126.75
438.057	117.75
438.278	113.75
438.5	130.75
438.721	131.75
438.943	132.75
439.165	135.75
439.386	141.75
439.608	146.75
439.829	130.75
440.05	146.75
440.272	153.75
440.493	128.75
440.715	148.75
440.936	138.75
441.158	148.75
441.379	134.75
441.6	151.75
441.822	153.75
442.043	149.75
442.264	134.75
442.486	145.75
442.707	144.75
442.928	146.75
443.149	147.75
443.371	133.75
443.592	145.75
443.813	139.75
444.034	152.75
444.255	144.75
444.476	136.75
444.698	128.75
444.919	139.75
445.14	254.75
445.361	208.75
445.582	157.75
445.803	154.75
446.024	134.75
446.245	145.75
446.466	152.75
446.687	160.75
446.908	172.75
447.129	144.75
447.35	147.75
447.571	142.75
447.792	134.75
448.013	145.75
448.234	137.75
448.455	141.75
448.675	141.75
448.896	135.75
449.117	154.75
449.338	139.75
449.559	124.75
449.779	129.75
450	144.75
450.221	134.75
450.442	134.75
450.662	143.75
450.883	129.75
451.104	128.75
451.324	137.75
451.545	127.75
451.766	140.75
451.986	151.75
452.207	139.75
452.428	126.75
452.648	125.75
452.869	129.75
453.089	118.75
453.31	132.75
453.53	107.75
453.751	110.75
453.971	120.75
454.192	105.75
454.412	98.75
454.633	124.75
454.853	114.75
455.073	111.75
455.294	147.75
455.514	130.75
455.734	131.75
455.955	126.75
456.175	113.75
456.395	126.75
456.616	104.75
456.836	122.75
457.056	100.75
457.276	104.75
457.497	118.75
457.717	108.75
457.937	123.75
458.157	99.75
458.377	110.75
458.598	97.75
458.818	86.75
459.038	96.75
459.258	107.75
459.478	92.75
459.698	83.75
459.918	103.75
460.138	118.75
460.358	113.75
460.578	126.75
460.798	116.75
461.018	119.75
461.238	128.75
461.458	118.75
461.678	124.75
461.898	129.75
462.118	124.75
462.338	109.75
462.558	113.75
462.777	113.75
462.997	106.75
463.217	100.75
463.437	103.75
463.657	114.75
463.876	113.75
464.096	104.75
464.316	120.75
464.536	116.75
464.755	120.75
464.975	113.75
465.195	124.75
465.414	109.75
465.634	118.75
465.854	127.75
466.073	120.75
466.293	131.75
466.512	130.75
466.732	138.75
466.951	153.75
467.171	151.75
467.391	138.75
467.61	143.75
467.829	128.75
468.049	135.75
468.268	145.75
468.488	147.75
468.707	134.75
468.927	130.75
469.146	130.75
469.365	145.75
469.585	130.75
469.804	135.75
470.023	135.75
470.243	144.75
470.462	139.75
470.681	132.75
470.901	148.75
471.12	138.75
471.339	143.75
471.558	137.75
471.777	138.75
471.997	136.75
472.216	132.75
472.435	116.75
472.654	109.75
472.873	123.75
473.092	117.75
473.311	132.75
473.53	125.75
473.749	130.75
473.968	138.75
474.187	118.75
474.406	128.75
474.625	125.75
474.844	140.75
475.063	129.75
475.282	122.75
475.501	127.75
475.72	117.75
475.939	124.75
476.158	137.75
476.377	145.75
476.596	133.75
476.814	120.75
477.033	115.75
477.252	126.75
477.471	106.75
477.69	118.75
477.908	124.75
478.127	143.75
478.346	138.75
478.564	152.75
478.783	141.75
479.002	140.75
479.22	123.75
479.439	130.75
479.658	114.75
479.876	125.75
480.095	124.75
480.313	124.75
480.532	119.75
480.751	113.75
480.969	108.75
481.188	95.75
481.406	100.75
481.624	98.75
481.843	95.75
482.061	87.75
482.28	107.75
482.498	121.75
482.717	99.75
482.935	126.75
483.153	152.75
483.372	159.75
483.59	160.75
483.808	134.75
484.027	128.75
484.245	124.75
484.463	152.75
484.681	164.75
484.9	155.75
485.118	144.75
485.336	126.75
485.554	94.75
485.772	108.75
485.99	109.75
486.209	115.75
486.427	112.75
486.645	112.75
486.863	137.75
487.081	137.75
487.299	145.75
487.517	144.75
487.735	163.75
487.953	176.75
488.171	184.75
488.389	174.75
488.607	161.75
488.825	156.75
489.043	145.75
489.261	142.75
489.479	133.75
489.696	142.75
489.914	143.75
490.132	151.75
490.35	153.75
490.568	153.75
490.786	165.75
491.003	186.75
491.221	173.75
491.439	176.75
491.657	190.75
491.874	200.75
492.092	218.75
492.31	238.75
492.527	219.75
492.745	210.75
492.963	199.75
493.18	194.75
493.398	189.75
493.615	199.75
493.833	178.75
494.05	162.75
494.268	167.75
494.485	177.75
494.703	164.75
494.92	172.75
495.138	168.75
495.355	166.75
495.573	172.75
495.79	174.75
496.008	172.75
496.225	158.75
496.442	164.75
496.66	186.75
496.877	171.75
497.094	162.75
497.312	169.75
497.529	169.75
497.746	145.75
497.963	139.75
498.181	122.75
498.398	120.75
498.615	116.75
498.832	127.75
499.049	118.75
499.267	121.75
499.484	121.75
499.701	125.75
499.918	138.75
500.135	129.75
500.352	143.75
500.569	132.75
500.786	142.75
501.003	129.75
501.22	138.75
501.437	128.75
501.654	126.75
501.871	125.75
502.088	143.75
502.305	135.75
502.522	135.75
502.739	120.75
502.956	127.75
503.172	138.75
503.389	121.75
503.606	131.75
503.823	113.75
504.04	112.75
504.256	128.75
504.473	112.75
504.69	125.75
504.907	114.75
505.123	126.75
505.34	111.75
505.557	136.75
505.773	122.75
505.99	120.75
506.207	118.75
506.423	122.75
506.64	125.75
506.856	123.75
507.073	122.75
507.289	136.75
507.506	141.75
507.722	112.75
507.939	122.75
508.155	124.75
508.372	116.75
508.588	106.75
508.805	127.75
509.021	120.75
509.238	119.75
509.454	110.75
509.67	104.75
509.887	102.75
510.103	95.75
510.319	100.75
510.536	105.75
510.752	92.75
510.968	96.75
511.184	90.75
511.401	100.75
511.617	91.75
511.833	91.75
512.049	104.75
512.265	97.75
512.481	104.75
512.698	104.75
512.914	97.75
513.13	97.75
513.346	108.75
513.562	95.75
513.778	92.75
513.994	96.75
514.21	108.75
514.426	105.75
514.642	99.75
514.858	104.75
515.074	92.75
515.29	87.75
515.506	110.75
515.721	80.75
515.937	94.75
516.153	89.75
516.369	95.75
516.585	73.75
516.801	91.75
517.016	106.75
517.232	112.75
517.448	89.75
517.664	79.75
517.879	101.75
518.095	94.75
518.311	102.75
518.527	99.75
518.742	92.75
518.958	83.75
519.173	105.75
519.389	114.75
519.605	101.75
519.82	106.75
520.036	106.75
520.251	116.75
520.467	102.75
520.682	98.75
520.898	99.75
521.113	93.75
521.329	97.75
521.544	87.75
521.76	94.75
521.975	96.75
522.19	104.75
522.406	111.75
522.621	107.75
522.836	110.75
523.052	104.75
523.267	123.75
523.482	108.75
523.698	116.75
523.913	128.75
524.128	122.75
524.343	120.75
524.559	129.75
524.774	119.75
524.989	120.75
525.204	109.75
525.419	108.75
525.634	116.75
525.849	116.75
526.064	124.75
526.28	110.75
526.495	94.75
526.71	101.75
526.925	92.75
527.14	94.75
527.355	90.75
527.57	84.75
527.785	86.75
527.999	98.75
528.214	88.75
528.429	99.75
528.644	119.75
528.859	135.75
529.074	140.75
529.289	150.75
529.503	160.75
529.718	143.75
529.933	135.75
530.148	112.75
530.363	97.75
530.577	91.75
530.792	110.75
531.007	83.75
531.221	89.75
531.436	91.75
531.651	92.75
531.865	89.75
532.08	95.75
532.295	92.75
532.509	77.75
532.724	110.75
532.938	96.75
533.153	101.75
533.367	109.75
533.582	127.75
533.796	109.75
534.011	126.75
534.225	107.75
534.44	101.75
534.654	95.75
534.868	96.75
535.083	107.75
535.297	104.75
535.511	104.75
535.726	103.75
535.94	99.75
536.154	91.75
536.369	85.75
536.583	80.75
536.797	103.75
537.011	101.75
537.225	91.75
537.44	80.75
537.654	99.75
537.868	91.75
538.082	101.75
538.296	92.75
538.51	96.75
538.724	118.75
538.938	129.75
539.153	126.75
539.367	124.75
539.581	115.75
539.795	101.75
540.009	94.75
540.222	113.75
540.436	121.75
540.65	126.75
540.864	127.75
541.078	136.75
541.292	164.75
541.506	145.75
541.72	180.75
541.934	186.75
542.147	210.75
542.361	182.75
542.575	164.75
542.789	157.75
543.002	138.75
543.216	137.75
543.43	126.75
543.644	131.75
543.857	145.75
544.071	159.75
544.285	157.75
544.498	168.75
544.712	169.75
544.925	155.75
545.139	146.75
545.352	146.75
545.566	156.75
545.779	161.75
545.993	162.75
546.206	161.75
546.42	163.75
546.633	166.75
546.847	173.75
547.06	161.75
547.274	168.75
547.487	155.75
547.7	168.75
547.914	173.75
548.127	159.75
548.34	134.75
548.554	152.75
548.767	151.75
548.98	161.75
549.193	146.75
549.407	160.75
549.62	174.75
549.833	165.75
550.046	174.75
550.259	143.75
550.473	147.75
550.686	152.75
550.899	157.75
551.112	158.75
551.325	158.75
551.538	143.75
551.751	138.75
551.964	126.75
552.177	138.75
552.39	133.75
552.603	138.75
552.816	149.75
553.029	149.75
553.242	167.75
553.455	166.75
553.667	168.75
553.88	154.75
554.093	178.75
554.306	152.75
554.519	161.75
554.732	146.75
554.944	134.75
555.157	138.75
555.37	144.75
555.583	159.75
555.795	150.75
556.008	134.75
556.221	139.75
556.433	145.75
556.646	138.75
556.859	118.75
557.071	155.75
557.284	141.75
557.496	143.75
557.709	134.75
557.921	129.75
558.134	121.75
558.346	136.75
558.559	149.75
558.771	128.75
558.984	145.75
559.196	127.75
559.409	132.75
559.621	134.75
559.833	139.75
560.046	122.75
560.258	128.75
560.47	135.75
560.683	137.75
560.895	122.75
561.107	126.75
561.32	138.75
561.532	133.75
561.744	135.75
561.956	142.75
562.168	129.75
562.381	135.75
562.593	125.75
562.805	139.75
563.017	136.75
563.229	120.75
563.441	121.75
563.653	128.75
563.865	126.75
564.077	124.75
564.289	125.75
564.501	112.75
564.713	134.75
564.925	118.75
565.137	134.75
565.349	127.75
565.561	110.75
565.773	124.75
565.985	122.75
566.197	121.75
566.408	126.75
566.62	108.75
566.832	118.75
567.044	125.75
567.255	118.75
567.467	127.75
567.679	111.75
567.891	92.75
568.102	106.75
568.314	109.75
568.526	93.75
568.737	79.75
568.949	83.75
569.161	84.75
569.372	69.75
569.584	82.75
569.795	89.75
570.007	91.75
570.218	94.75
570.43	84.75
570.641	106.75
570.853	104.75
571.064	115.75
571.276	99.75
571.487	90.75
571.698	112.75
571.91	103.75
572.121	99.75
572.333	104.75
572.544	93.75
572.755	96.75
572.966	93.75
573.178	86.75
573.389	102.75
573.6	92.75
573.811	84.75
574.023	86.75
574.234	92.75
574.445	99.75
574.656	109.75
574.867	104.75
575.078	96.75
575.289	98.75
575.501	92.75
575.712	100.75
575.923	92.75
576.134	99.75
576.345	88.75
576.556	94.75
576.767	94.75
576.978	109.75
577.188	100.75
577.399	94.75
577.61	92.75
577.821	107.75
578.032	97.75
578.243	110.75
578.454	101.75
578.665	110.75
578.875	93.75
579.086	81.75
579.297	98.75
579.508	77.75
579.718	93.75
579.929	87.75
580.14	111.75
580.35	81.75
580.561	93.75
580.772	85.75
580.982	95.75
581.193	85.75
581.403	99.75
581.614	93.75
581.825	93.75
582.035	110.75
582.246	102.75
582.456	101.75
582.667	94.75
582.877	103.75
583.087	94.75
583.298	100.75
583.508	93.75
583.719	106.75
583.929	105.75
584.139	90.75
584.35	87.75
584.56	90.75
584.77	88.75
584.981	93.75
585.191	92.75
585.401	104.75
585.611	104.75
585.821	81.75
586.032	95.75
586.242	76.75
586.452	97.75
586.662	97.75
586.872	105.75
587.082	88.75
587.292	81.75
587.502	90.75
587.713	86.75
587.923	102.75
588.133	92.75
588.343	85.75
588.553	91.75
588.762	98.75
588.972	85.75
589.182	76.75
589.392	92.75
589.602	76.75
589.812	77.75
590.022	82.75
590.232	82.75
590.441	81.75
590.651	104.75
590.861	90.75
591.071	85.75
591.281	86.75
591.49	87.75
591.7	83.75
591.91	87.75
592.119	78.75
592.329	90.75
592.539	97.75
592.748	87.75
592.958	85.75
593.167	82.75
593.377	76.75
593.587	98.75
593.796	107.75
594.006	83.75
594.215	89.75
594.424	86.75
594.634	104.75
594.843	102.75
595.053	96.75
595.262	98.75
595.472	96.75
595.681	85.75
595.89	79.75
596.1	95.75
596.309	88.75
596.518	98.75
596.727	101.75
596.937	108.75
597.146	108.75
597.355	108.75
597.564	103.75
597.774	104.75
597.983	103.75
598.192	90.75
598.401	87.75
598.61	94.75
598.819	97.75
599.028	88.75
599.237	90.75
599.446	107.75
599.655	97.75
599.864	93.75
600.073	102.75
600.282	98.75
600.491	110.75
600.7	97.75
600.909	89.75
601.118	105.75
601.327	97.75
601.536	100.75
601.745	118.75
601.953	108.75
602.162	106.75
602.371	105.75
602.58	112.75
602.789	117.75
602.997	113.75
603.206	111.75
603.415	102.75
603.623	120.75
603.832	113.75
604.041	114.75
604.249	117.75
604.458	97.75
604.666	103.75
604.875	112.75
605.084	97.75
605.292	108.75
605.501	108.75
605.709	98.75
605.918	138.75
606.126	109.75
606.334	110.75
606.543	102.75
606.751	105.75
606.96	94.75
607.168	118.75
607.376	104.75
607.585	97.75
607.793	103.75
608.001	116.75
608.21	123.75
608.418	118.75
608.626	114.75
608.834	112.75
609.043	125.75
609.251	109.75
609.459	116.75
609.667	110.75
609.875	124.75
610.083	110.75
610.291	109.75
610.499	112.75
610.707	108.75
610.916	125.75
611.124	113.75
611.332	104.75
611.54	113.75
611.748	113.75
611.955	113.75
612.163	118.75
612.371	105.75
612.579	124.75
612.787	132.75
612.995	120.75
613.203	124.75
613.411	112.75
613.618	125.75
613.826	115.75
614.034	110.75
614.242	124.75
614.449	110.75
614.657	107.75
614.865	121.75
615.072	107.75
615.28	116.75
615.488	105.75
615.695	112.75
615.903	121.75
616.111	128.75
616.318	128.75
616.526	109.75
616.733	102.75
616.941	112.75
617.148	99.75
617.356	120.75
617.563	117.75
617.771	105.75
617.978	116.75
618.185	98.75
618.393	111.75
618.6	102.75
618.807	121.75
619.015	104.75
619.222	113.75
619.429	106.75
619.637	104.75
619.844	117.75
620.051	106.75
620.258	109.75
620.466	115.75
620.673	101.75
620.88	111.75
621.087	119.75
621.294	104.75
621.501	117.75
621.708	114.75
621.915	101.75
622.122	128.75
622.329	104.75
622.536	110.75
622.743	109.75
622.95	110.75
623.157	105.75
623.364	92.75
623.571	108.75
623.778	111.75
623.985	107.75
624.192	122.75
624.399	109.75
624.606	100.75
624.812	108.75
625.019	101.75
625.226	108.75
625.433	88.75
625.639	107.75
625.846	118.75
626.053	104.75
626.259	102.75
626.466	105.75
626.673	92.75
626.879	102.75
627.086	100.75
627.293	111.75
627.499	113.75
627.706	111.75
627.912	125.75
628.119	112.75
628.325	107.75
628.532	123.75
628.738	100.75
628.945	109.75
629.151	105.75
629.357	112.75
629.564	97.75
629.77	108.75
629.976	119.75
630.183	98.75
630.389	116.75
630.595	91.75
630.802	90.75
631.008	97.75
631.214	104.75
631.42	84.75
631.627	113.75
631.833	98.75
632.039	104.75
632.245	82.75
632.451	103.75
632.657	96.75
632.863	116.75
633.069	113.75
633.275	104.75
633.481	95.75
633.688	92.75
633.893	101.75
634.099	103.75
634.305	106.75
634.511	96.75
634.717	104.75
634.923	74.75
635.129	104.75
635.335	103.75
635.541	86.75
635.747	105.75
635.952	97.75
636.158	99.75
636.364	114.75
636.57	122.75
636.775	103.75
636.981	130.75
637.187	108.75
637.392	109.75
637.598	103.75
637.804	94.75
638.009	93.75
638.215	104.75
638.421	113.75
638.626	105.75
638.832	108.75
639.037	111.75
639.243	115.75
639.448	93.75
639.654	100.75
639.859	98.75
640.065	92.75
640.27	107.75
640.475	95.75
640.681	99.75
640.886	96.75
641.091	99.75
641.297	92.75
641.502	93.75
641.707	98.75
641.913	96.75
642.118	101.75
642.323	96.75
642.528	100.75
642.733	86.75
642.939	112.75
643.144	96.75
643.349	105.75
643.554	111.75
643.759	100.75
643.964	104.75
644.169	94.75
644.374	89.75
644.579	108.75
644.784	110.75
644.989	110.75
645.194	112.75
645.399	98.75
645.604	101.75
645.809	104.75
646.014	102.75
646.219	103.75
646.423	89.75
646.628	100.75
646.833	95.75
647.038	116.75
647.243	103.75
647.447	98.75
647.652	86.75
647.857	103.75
648.062	100.75
648.266	101.75
648.471	116.75
648.676	108.75
648.88	101.75
649.085	101.75
649.289	104.75
649.494	102.75
649.698	111.75
649.903	113.75
650.107	113.75
650.312	120.75
650.516	98.75
650.721	104.75
650.925	101.75
651.13	102.75
651.334	106.75
651.539	88.75
651.743	100.75
651.947	104.75
652.152	105.75
652.356	92.75
652.56	95.75
652.764	91.75
652.969	94.75
653.173	101.75
653.377	83.75
653.581	97.75
653.785	87.75
653.99	97.75
654.194	88.75
654.398	96.75
654.602	93.75
654.806	107.75
655.01	105.75
655.214	97.75
655.418	81.75
655.622	98.75
655.826	87.75
656.03	93.75
656.234	91.75
656.438	98.75
656.642	86.75
656.846	92.75
657.049	89.75
657.253	95.75
657.457	94.75
657.661	87.75
657.865	98.75
658.068	85.75
658.272	89.75
658.476	78.75
658.68	98.75
658.883	105.75
659.087	80.75
659.291	99.75
659.494	90.75
659.698	81.75
659.901	79.75
660.105	82.75
660.309	97.75
660.512	94.75
660.716	101.75
660.919	80.75
661.123	103.75
661.326	92.75
661.53	101.75
661.733	85.75
661.936	86.75
662.14	75.75
662.343	74.75
662.546	81.75
662.75	80.75
662.953	93.75
663.156	83.75
663.36	81.75
663.563	80.75
663.766	93.75
663.969	86.75
664.173	84.75
664.376	87.75
664.579	79.75
664.782	102.75
664.985	82.75
665.188	86.75
665.391	97.75
665.594	80.75
665.797	80.75
666	90.75
666.203	92.75
666.406	89.75
666.609	70.75
666.812	85.75
667.015	86.75
667.218	96.75
667.421	93.75
667.624	77.75
667.827	80.75
668.03	77.75
668.232	89.75
668.435	81.75
668.638	94.75
668.841	77.75
669.043	83.75
669.246	74.75
669.449	79.75
669.651	78.75
669.854	80.75
670.057	79.75
670.259	86.75
670.462	86.75
670.665	64.75
670.867	93.75
671.07	75.75
671.272	89.75
671.475	77.75
671.677	86.75
671.88	83.75
672.082	85.75
672.284	79.75
672.487	84.75
672.689	90.75
672.892	90.75
