Data from Location1.07152019.Energy5.Lamp.07192019.3%Agarose_HRD10591_14-31-13-015.txt Node
Date: Fri Jul 19 14:31:13 EDT 2019
User: cochatt
Spectrometer: HR+D1059
Trigger mode: 1
Integration Time (sec): 1.000000E-1
Scans to average: 1
Electric dark correction enabled: true
Nonlinearity correction enabled: false
Boxcar width: 0
XAxis mode: Wavelengths
Number of Pixels in Spectrum: 2048
>>>>>Begin Spectral Data<<<<<
223.165	-14.94
223.4	-14.94
223.635	-14.94
223.869	-9.94
224.104	-21.94
224.338	-15.94
224.573	-0.94
224.808	-2.94
225.042	-10.94
225.277	-7.94
225.511	4.06
225.746	14.06
225.98	-0.94
226.215	9.06
226.449	8.06
226.683	29.06
226.918	3.06
227.152	19.06
227.387	38.06
227.621	40.06
227.856	27.06
228.09	49.06
228.324	40.06
228.559	52.06
228.793	69.06
229.027	78.06
229.262	52.06
229.496	58.06
229.73	71.06
229.964	67.06
230.199	69.06
230.433	78.06
230.667	75.06
230.901	73.06
231.136	79.06
231.37	79.06
231.604	81.06
231.838	61.06
232.072	65.06
232.306	74.06
232.541	84.06
232.775	68.06
233.009	83.06
233.243	84.06
233.477	71.06
233.711	84.06
233.945	76.06
234.179	90.06
234.413	88.06
234.647	81.06
234.881	85.06
235.115	76.06
235.349	69.06
235.583	98.06
235.817	83.06
236.051	71.06
236.285	89.06
236.519	61.06
236.753	75.06
236.987	92.06
237.221	81.06
237.455	90.06
237.689	78.06
237.922	77.06
238.156	75.06
238.39	82.06
238.624	78.06
238.858	75.06
239.091	71.06
239.325	73.06
239.559	83.06
239.793	77.06
240.027	76.06
240.26	65.06
240.494	61.06
240.728	68.06
240.961	77.06
241.195	81.06
241.429	70.06
241.662	80.06
241.896	69.06
242.13	77.06
242.363	89.06
242.597	62.06
242.83	66.06
243.064	72.06
243.298	61.06
243.531	77.06
243.765	74.06
243.998	67.06
244.232	72.06
244.465	78.06
244.699	72.06
244.932	71.06
245.166	80.06
245.399	84.06
245.633	73.06
245.866	82.06
246.099	74.06
246.333	82.06
246.566	80.06
246.8	83.06
247.033	55.06
247.266	59.06
247.5	70.06
247.733	82.06
247.966	71.06
248.2	71.06
248.433	69.06
248.666	72.06
248.899	82.06
249.133	79.06
249.366	62.06
249.599	85.06
249.832	62.06
250.066	74.06
250.299	70.06
250.532	84.06
250.765	80.06
250.998	72.06
251.231	79.06
251.465	75.06
251.698	81.06
251.931	77.06
252.164	83.06
252.397	74.06
252.63	81.06
252.863	75.06
253.096	83.06
253.329	73.06
253.562	86.06
253.795	78.06
254.028	65.06
254.261	75.06
254.494	81.06
254.727	84.06
254.96	78.06
255.193	78.06
255.426	95.06
255.659	72.06
255.892	57.06
256.124	76.06
256.357	91.06
256.59	77.06
256.823	77.06
257.056	72.06
257.289	86.06
257.521	91.06
257.754	75.06
257.987	54.06
258.22	82.06
258.452	103.06
258.685	73.06
258.918	106.06
259.151	86.06
259.383	91.06
259.616	63.06
259.849	79.06
260.081	77.06
260.314	93.06
260.547	72.06
260.779	70.06
261.012	83.06
261.244	89.06
261.477	72.06
261.71	92.06
261.942	83.06
262.175	83.06
262.407	82.06
262.64	79.06
262.872	74.06
263.105	75.06
263.337	79.06
263.57	78.06
263.802	82.06
264.035	85.06
264.267	80.06
264.499	85.06
264.732	81.06
264.964	76.06
265.197	88.06
265.429	87.06
265.661	86.06
265.894	90.06
266.126	98.06
266.358	87.06
266.591	67.06
266.823	64.06
267.055	84.06
267.287	78.06
267.52	76.06
267.752	79.06
267.984	102.06
268.216	83.06
268.448	76.06
268.681	83.06
268.913	72.06
269.145	85.06
269.377	78.06
269.609	88.06
269.841	90.06
270.073	95.06
270.306	62.06
270.538	89.06
270.77	79.06
271.002	78.06
271.234	87.06
271.466	100.06
271.698	95.06
271.93	86.06
272.162	90.06
272.394	86.06
272.626	75.06
272.858	72.06
273.09	82.06
273.322	82.06
273.553	73.06
273.785	85.06
274.017	84.06
274.249	89.06
274.481	82.06
274.713	70.06
274.945	86.06
275.176	80.06
275.408	80.06
275.64	83.06
275.872	82.06
276.104	86.06
276.335	90.06
276.567	76.06
276.799	83.06
277.031	73.06
277.262	79.06
277.494	81.06
277.726	82.06
277.957	80.06
278.189	89.06
278.421	76.06
278.652	84.06
278.884	73.06
279.115	81.06
279.347	99.06
279.579	84.06
279.81	74.06
280.042	73.06
280.273	92.06
280.505	84.06
280.736	83.06
280.968	89.06
281.199	88.06
281.431	84.06
281.662	91.06
281.894	82.06
282.125	84.06
282.356	83.06
282.588	70.06
282.819	81.06
283.051	84.06
283.282	84.06
283.513	92.06
283.745	86.06
283.976	76.06
284.207	72.06
284.439	75.06
284.67	79.06
284.901	81.06
285.132	87.06
285.364	89.06
285.595	81.06
285.826	73.06
286.057	85.06
286.288	83.06
286.52	89.06
286.751	79.06
286.982	74.06
287.213	70.06
287.444	89.06
287.675	86.06
287.906	89.06
288.138	78.06
288.369	84.06
288.6	77.06
288.831	82.06
289.062	94.06
289.293	83.06
289.524	88.06
289.755	91.06
289.986	81.06
290.217	81.06
290.448	83.06
290.679	89.06
290.91	93.06
291.141	74.06
291.371	91.06
291.602	78.06
291.833	71.06
292.064	78.06
292.295	84.06
292.526	82.06
292.757	92.06
292.987	85.06
293.218	87.06
293.449	81.06
293.68	68.06
293.91	79.06
294.141	92.06
294.372	78.06
294.603	92.06
294.833	78.06
295.064	80.06
295.295	78.06
295.525	72.06
295.756	75.06
295.987	84.06
296.217	90.06
296.448	85.06
296.679	94.06
296.909	97.06
297.14	85.06
297.37	78.06
297.601	79.06
297.831	80.06
298.062	95.06
298.292	71.06
298.523	85.06
298.753	72.06
298.984	85.06
299.214	84.06
299.445	89.06
299.675	97.06
299.905	93.06
300.136	81.06
300.366	67.06
300.597	72.06
300.827	95.06
301.057	83.06
301.288	84.06
301.518	87.06
301.748	83.06
301.979	84.06
302.209	77.06
302.439	80.06
302.669	71.06
302.9	83.06
303.13	93.06
303.36	72.06
303.59	91.06
303.82	89.06
304.051	85.06
304.281	90.06
304.511	87.06
304.741	86.06
304.971	74.06
305.201	87.06
305.431	91.06
305.661	66.06
305.891	76.06
306.121	77.06
306.352	78.06
306.582	89.06
306.812	83.06
307.042	77.06
307.272	79.06
307.502	77.06
307.731	82.06
307.961	80.06
308.191	91.06
308.421	94.06
308.651	74.06
308.881	94.06
309.111	80.06
309.341	75.06
309.571	64.06
309.8	76.06
310.03	84.06
310.26	92.06
310.49	94.06
310.72	96.06
310.949	90.06
311.179	76.06
311.409	92.06
311.639	91.06
311.868	90.06
312.098	93.06
312.328	91.06
312.557	96.06
312.787	90.06
313.017	96.06
313.246	83.06
313.476	70.06
313.706	78.06
313.935	77.06
314.165	79.06
314.394	81.06
314.624	86.06
314.853	86.06
315.083	82.06
315.312	85.06
315.542	77.06
315.771	78.06
316.001	77.06
316.23	74.06
316.46	79.06
316.689	84.06
316.919	89.06
317.148	74.06
317.377	95.06
317.607	82.06
317.836	87.06
318.065	69.06
318.295	83.06
318.524	81.06
318.753	81.06
318.983	76.06
319.212	86.06
319.441	84.06
319.67	96.06
319.9	100.06
320.129	85.06
320.358	85.06
320.587	82.06
320.816	85.06
321.046	83.06
321.275	77.06
321.504	90.06
321.733	95.06
321.962	91.06
322.191	91.06
322.42	74.06
322.649	95.06
322.878	87.06
323.108	76.06
323.337	91.06
323.566	81.06
323.795	85.06
324.024	85.06
324.253	84.06
324.482	81.06
324.71	80.06
324.939	99.06
325.168	94.06
325.397	85.06
325.626	94.06
325.855	84.06
326.084	88.06
326.313	91.06
326.542	70.06
326.77	88.06
326.999	86.06
327.228	77.06
327.457	82.06
327.686	84.06
327.914	78.06
328.143	80.06
328.372	75.06
328.6	83.06
328.829	96.06
329.058	72.06
329.287	80.06
329.515	85.06
329.744	90.06
329.972	74.06
330.201	88.06
330.43	98.06
330.658	85.06
330.887	84.06
331.115	95.06
331.344	83.06
331.572	88.06
331.801	70.06
332.03	90.06
332.258	75.06
332.486	85.06
332.715	90.06
332.943	71.06
333.172	87.06
333.4	81.06
333.629	88.06
333.857	86.06
334.085	90.06
334.314	92.06
334.542	91.06
334.771	77.06
334.999	69.06
335.227	83.06
335.455	85.06
335.684	81.06
335.912	87.06
336.14	76.06
336.369	82.06
336.597	95.06
336.825	85.06
337.053	99.06
337.281	77.06
337.51	96.06
337.738	98.06
337.966	76.06
338.194	104.06
338.422	96.06
338.65	94.06
338.878	88.06
339.106	86.06
339.334	80.06
339.562	95.06
339.79	85.06
340.018	81.06
340.246	76.06
340.474	82.06
340.702	88.06
340.93	85.06
341.158	73.06
341.386	92.06
341.614	77.06
341.842	74.06
342.07	82.06
342.298	82.06
342.526	80.06
342.754	93.06
342.981	73.06
343.209	72.06
343.437	90.06
343.665	86.06
343.893	75.06
344.12	80.06
344.348	91.06
344.576	95.06
344.804	82.06
345.031	86.06
345.259	81.06
345.487	81.06
345.714	80.06
345.942	88.06
346.17	93.06
346.397	84.06
346.625	70.06
346.853	82.06
347.08	73.06
347.308	90.06
347.535	81.06
347.763	89.06
347.99	101.06
348.218	80.06
348.445	76.06
348.673	87.06
348.9	83.06
349.128	78.06
349.355	73.06
349.583	92.06
349.81	88.06
350.037	85.06
350.265	82.06
350.492	79.06
350.72	89.06
350.947	83.06
351.174	73.06
351.402	83.06
351.629	71.06
351.856	78.06
352.083	85.06
352.311	91.06
352.538	88.06
352.765	79.06
352.992	69.06
353.22	80.06
353.447	79.06
353.674	87.06
353.901	76.06
354.128	85.06
354.355	77.06
354.583	67.06
354.81	73.06
355.037	79.06
355.264	90.06
355.491	78.06
355.718	91.06
355.945	92.06
356.172	67.06
356.399	86.06
356.626	80.06
356.853	73.06
357.08	74.06
357.307	84.06
357.534	84.06
357.761	82.06
357.988	78.06
358.215	87.06
358.441	84.06
358.668	77.06
358.895	90.06
359.122	86.06
359.349	88.06
359.576	84.06
359.802	76.06
360.029	71.06
360.256	82.06
360.483	79.06
360.709	77.06
360.936	83.06
361.163	75.06
361.39	79.06
361.616	80.06
361.843	93.06
362.07	76.06
362.296	82.06
362.523	79.06
362.749	76.06
362.976	76.06
363.203	92.06
363.429	84.06
363.656	83.06
363.882	77.06
364.109	91.06
364.335	98.06
364.562	81.06
364.788	88.06
365.015	85.06
365.241	84.06
365.468	84.06
365.694	78.06
365.92	81.06
366.147	97.06
366.373	98.06
366.599	71.06
366.826	83.06
367.052	87.06
367.278	80.06
367.505	76.06
367.731	91.06
367.957	87.06
368.184	89.06
368.41	79.06
368.636	100.06
368.862	77.06
369.089	87.06
369.315	93.06
369.541	77.06
369.767	76.06
369.993	91.06
370.219	88.06
370.445	78.06
370.672	82.06
370.898	81.06
371.124	80.06
371.35	81.06
371.576	83.06
371.802	84.06
372.028	108.06
372.254	90.06
372.48	95.06
372.706	99.06
372.932	74.06
373.158	89.06
373.384	80.06
373.61	97.06
373.835	99.06
374.061	87.06
374.287	82.06
374.513	89.06
374.739	82.06
374.965	83.06
375.191	75.06
375.416	84.06
375.642	101.06
375.868	106.06
376.094	110.06
376.319	77.06
376.545	93.06
376.771	102.06
376.997	87.06
377.222	83.06
377.448	84.06
377.674	85.06
377.899	97.06
378.125	91.06
378.35	88.06
378.576	98.06
378.802	85.06
379.027	94.06
379.253	95.06
379.478	87.06
379.704	88.06
379.929	89.06
380.155	96.06
380.38	89.06
380.606	95.06
380.831	86.06
381.057	94.06
381.282	97.06
381.507	90.06
381.733	103.06
381.958	103.06
382.184	117.06
382.409	89.06
382.634	76.06
382.86	90.06
383.085	88.06
383.31	90.06
383.535	82.06
383.761	84.06
383.986	96.06
384.211	87.06
384.436	83.06
384.662	99.06
384.887	89.06
385.112	97.06
385.337	95.06
385.562	112.06
385.787	85.06
386.013	111.06
386.238	91.06
386.463	90.06
386.688	99.06
386.913	115.06
387.138	98.06
387.363	104.06
387.588	112.06
387.813	80.06
388.038	100.06
388.263	94.06
388.488	85.06
388.713	93.06
388.938	92.06
389.163	105.06
389.387	103.06
389.612	95.06
389.837	105.06
390.062	101.06
390.287	91.06
390.512	103.06
390.736	104.06
390.961	98.06
391.186	99.06
391.411	93.06
391.636	108.06
391.86	119.06
392.085	96.06
392.31	88.06
392.534	115.06
392.759	107.06
392.984	95.06
393.208	100.06
393.433	113.06
393.658	104.06
393.882	109.06
394.107	104.06
394.331	104.06
394.556	102.06
394.78	105.06
395.005	91.06
395.229	98.06
395.454	112.06
395.678	109.06
395.903	119.06
396.127	96.06
396.352	100.06
396.576	114.06
396.801	92.06
397.025	100.06
397.249	108.06
397.474	114.06
397.698	112.06
397.922	105.06
398.147	115.06
398.371	117.06
398.595	109.06
398.82	114.06
399.044	107.06
399.268	107.06
399.492	100.06
399.717	110.06
399.941	94.06
400.165	115.06
400.389	117.06
400.613	104.06
400.837	101.06
401.062	115.06
401.286	116.06
401.51	104.06
401.734	107.06
401.958	111.06
402.182	116.06
402.406	112.06
402.63	109.06
402.854	99.06
403.078	113.06
403.302	111.06
403.526	117.06
403.75	130.06
403.974	121.06
404.198	106.06
404.422	115.06
404.645	91.06
404.869	113.06
405.093	115.06
405.317	122.06
405.541	120.06
405.765	111.06
405.988	113.06
406.212	119.06
406.436	98.06
406.66	127.06
406.883	114.06
407.107	114.06
407.331	125.06
407.555	123.06
407.778	123.06
408.002	106.06
408.226	107.06
408.449	119.06
408.673	115.06
408.896	120.06
409.12	102.06
409.344	125.06
409.567	124.06
409.791	112.06
410.014	117.06
410.238	114.06
410.461	101.06
410.685	120.06
410.908	117.06
411.132	107.06
411.355	127.06
411.578	125.06
411.802	121.06
412.025	119.06
412.249	114.06
412.472	127.06
412.695	101.06
412.919	108.06
413.142	120.06
413.365	117.06
413.589	107.06
413.812	118.06
414.035	131.06
414.258	124.06
414.482	125.06
414.705	112.06
414.928	98.06
415.151	111.06
415.374	112.06
415.597	129.06
415.821	111.06
416.044	131.06
416.267	114.06
416.49	120.06
416.713	127.06
416.936	125.06
417.159	119.06
417.382	124.06
417.605	124.06
417.828	120.06
418.051	112.06
418.274	143.06
418.497	147.06
418.72	122.06
418.943	129.06
419.166	117.06
419.389	124.06
419.611	125.06
419.834	125.06
420.057	109.06
420.28	136.06
420.503	137.06
420.726	137.06
420.948	132.06
421.171	139.06
421.394	135.06
421.617	134.06
421.839	142.06
422.062	137.06
422.285	132.06
422.507	123.06
422.73	124.06
422.953	121.06
423.175	128.06
423.398	120.06
423.621	119.06
423.843	117.06
424.066	131.06
424.288	118.06
424.511	136.06
424.733	134.06
424.956	147.06
425.178	142.06
425.401	148.06
425.623	146.06
425.846	128.06
426.068	124.06
426.291	115.06
426.513	127.06
426.735	127.06
426.958	134.06
427.18	123.06
427.402	131.06
427.625	137.06
427.847	130.06
428.069	123.06
428.292	115.06
428.514	122.06
428.736	119.06
428.958	115.06
429.181	121.06
429.403	121.06
429.625	132.06
429.847	112.06
430.069	136.06
430.292	117.06
430.514	128.06
430.736	126.06
430.958	127.06
431.18	116.06
431.402	123.06
431.624	111.06
431.846	104.06
432.068	91.06
432.29	96.06
432.512	95.06
432.734	112.06
432.956	133.06
433.178	133.06
433.4	142.06
433.622	142.06
433.844	125.06
434.066	119.06
434.287	115.06
434.509	90.06
434.731	104.06
434.953	105.06
435.175	108.06
435.397	118.06
435.618	120.06
435.84	100.06
436.062	119.06
436.284	125.06
436.505	131.06
436.727	124.06
436.949	127.06
437.17	127.06
437.392	118.06
437.614	109.06
437.835	104.06
438.057	112.06
438.278	124.06
438.5	115.06
438.721	103.06
438.943	119.06
439.165	111.06
439.386	153.06
439.608	138.06
439.829	147.06
440.05	139.06
440.272	140.06
440.493	136.06
440.715	128.06
440.936	134.06
441.158	148.06
441.379	147.06
441.6	130.06
441.822	138.06
442.043	137.06
442.264	146.06
442.486	135.06
442.707	131.06
442.928	151.06
443.149	139.06
443.371	147.06
443.592	149.06
443.813	130.06
444.034	131.06
444.255	155.06
444.476	144.06
444.698	139.06
444.919	137.06
445.14	257.06
445.361	184.06
445.582	143.06
445.803	147.06
446.024	164.06
446.245	152.06
446.466	144.06
446.687	153.06
446.908	145.06
447.129	151.06
447.35	141.06
447.571	143.06
447.792	142.06
448.013	140.06
448.234	157.06
448.455	130.06
448.675	137.06
448.896	137.06
449.117	137.06
449.338	124.06
449.559	133.06
449.779	139.06
450	121.06
450.221	141.06
450.442	133.06
450.662	132.06
450.883	130.06
451.104	138.06
451.324	143.06
451.545	131.06
451.766	116.06
451.986	130.06
452.207	125.06
452.428	111.06
452.648	126.06
452.869	115.06
453.089	114.06
453.31	127.06
453.53	106.06
453.751	111.06
453.971	101.06
454.192	111.06
454.412	104.06
454.633	107.06
454.853	123.06
455.073	114.06
455.294	125.06
455.514	121.06
455.734	110.06
455.955	118.06
456.175	116.06
456.395	107.06
456.616	103.06
456.836	104.06
457.056	101.06
457.276	102.06
457.497	108.06
457.717	112.06
457.937	107.06
458.157	97.06
458.377	96.06
458.598	99.06
458.818	88.06
459.038	90.06
459.258	87.06
459.478	74.06
459.698	90.06
459.918	97.06
460.138	121.06
460.358	124.06
460.578	113.06
460.798	101.06
461.018	123.06
461.238	116.06
461.458	115.06
461.678	117.06
461.898	111.06
462.118	111.06
462.338	109.06
462.558	97.06
462.777	118.06
462.997	115.06
463.217	96.06
463.437	104.06
463.657	120.06
463.876	104.06
464.096	117.06
464.316	105.06
464.536	102.06
464.755	121.06
464.975	115.06
465.195	112.06
465.414	108.06
465.634	101.06
465.854	99.06
466.073	112.06
466.293	116.06
466.512	123.06
466.732	131.06
466.951	131.06
467.171	122.06
467.391	125.06
467.61	127.06
467.829	127.06
468.049	137.06
468.268	144.06
468.488	136.06
468.707	132.06
468.927	140.06
469.146	142.06
469.365	131.06
469.585	120.06
469.804	131.06
470.023	142.06
470.243	147.06
470.462	134.06
470.681	146.06
470.901	124.06
471.12	131.06
471.339	140.06
471.558	155.06
471.777	132.06
471.997	113.06
472.216	123.06
472.435	112.06
472.654	97.06
472.873	99.06
473.092	112.06
473.311	115.06
473.53	129.06
473.749	135.06
473.968	124.06
474.187	126.06
474.406	125.06
474.625	140.06
474.844	137.06
475.063	138.06
475.282	135.06
475.501	110.06
475.72	118.06
475.939	128.06
476.158	127.06
476.377	136.06
476.596	113.06
476.814	104.06
477.033	101.06
477.252	92.06
477.471	118.06
477.69	123.06
477.908	138.06
478.127	141.06
478.346	127.06
478.564	133.06
478.783	124.06
479.002	130.06
479.22	136.06
479.439	136.06
479.658	117.06
479.876	112.06
480.095	115.06
480.313	107.06
480.532	115.06
480.751	113.06
480.969	80.06
481.188	91.06
481.406	91.06
481.624	98.06
481.843	90.06
482.061	85.06
482.28	105.06
482.498	106.06
482.717	100.06
482.935	135.06
483.153	123.06
483.372	154.06
483.59	150.06
483.808	145.06
484.027	121.06
484.245	149.06
484.463	133.06
484.681	151.06
484.9	139.06
485.118	153.06
485.336	135.06
485.554	107.06
485.772	101.06
485.99	95.06
486.209	125.06
486.427	122.06
486.645	119.06
486.863	130.06
487.081	137.06
487.299	141.06
487.517	132.06
487.735	152.06
487.953	181.06
488.171	194.06
488.389	157.06
488.607	167.06
488.825	144.06
489.043	139.06
489.261	121.06
489.479	131.06
489.696	137.06
489.914	133.06
490.132	133.06
490.35	135.06
490.568	161.06
490.786	170.06
491.003	172.06
491.221	175.06
491.439	195.06
491.657	176.06
491.874	199.06
492.092	207.06
492.31	210.06
492.527	224.06
492.745	200.06
492.963	197.06
493.18	201.06
493.398	168.06
493.615	175.06
493.833	163.06
494.05	167.06
494.268	152.06
494.485	164.06
494.703	161.06
494.92	171.06
495.138	169.06
495.355	153.06
495.573	171.06
495.79	159.06
496.008	150.06
496.225	162.06
496.442	162.06
496.66	170.06
496.877	154.06
497.094	164.06
497.312	152.06
497.529	161.06
497.746	155.06
497.963	125.06
498.181	128.06
498.398	119.06
498.615	123.06
498.832	119.06
499.049	115.06
499.267	122.06
499.484	135.06
499.701	131.06
499.918	123.06
500.135	135.06
500.352	136.06
500.569	147.06
500.786	149.06
501.003	128.06
501.22	137.06
501.437	140.06
501.654	129.06
501.871	119.06
502.088	126.06
502.305	138.06
502.522	118.06
502.739	137.06
502.956	118.06
503.172	131.06
503.389	124.06
503.606	117.06
503.823	113.06
504.04	120.06
504.256	105.06
504.473	109.06
504.69	124.06
504.907	123.06
505.123	120.06
505.34	116.06
505.557	130.06
505.773	128.06
505.99	105.06
506.207	123.06
506.423	117.06
506.64	149.06
506.856	116.06
507.073	108.06
507.289	120.06
507.506	122.06
507.722	116.06
507.939	120.06
508.155	124.06
508.372	90.06
508.588	111.06
508.805	114.06
509.021	103.06
509.238	102.06
509.454	96.06
509.67	104.06
509.887	89.06
510.103	105.06
510.319	88.06
510.536	97.06
510.752	87.06
510.968	73.06
511.184	81.06
511.401	77.06
511.617	80.06
511.833	90.06
512.049	99.06
512.265	92.06
512.481	104.06
512.698	97.06
512.914	96.06
513.13	112.06
513.346	79.06
513.562	99.06
513.778	97.06
513.994	87.06
514.21	91.06
514.426	97.06
514.642	84.06
514.858	105.06
515.074	96.06
515.29	97.06
515.506	94.06
515.721	75.06
515.937	88.06
516.153	89.06
516.369	91.06
516.585	92.06
516.801	85.06
517.016	82.06
517.232	82.06
517.448	92.06
517.664	102.06
517.879	86.06
518.095	93.06
518.311	101.06
518.527	102.06
518.742	102.06
518.958	90.06
519.173	103.06
519.389	104.06
519.605	98.06
519.82	84.06
520.036	96.06
520.251	119.06
520.467	104.06
520.682	112.06
520.898	96.06
521.113	90.06
521.329	85.06
521.544	87.06
521.76	102.06
521.975	96.06
522.19	100.06
522.406	98.06
522.621	105.06
522.836	111.06
523.052	95.06
523.267	102.06
523.482	95.06
523.698	104.06
523.913	116.06
524.128	111.06
524.343	119.06
524.559	106.06
524.774	132.06
524.989	123.06
525.204	111.06
525.419	102.06
525.634	111.06
525.849	101.06
526.064	107.06
526.28	116.06
526.495	90.06
526.71	91.06
526.925	84.06
527.14	89.06
527.355	91.06
527.57	87.06
527.785	100.06
527.999	87.06
528.214	103.06
528.429	113.06
528.644	129.06
528.859	116.06
529.074	145.06
529.289	173.06
529.503	170.06
529.718	153.06
529.933	118.06
530.148	108.06
530.363	76.06
530.577	93.06
530.792	92.06
531.007	90.06
531.221	91.06
531.436	77.06
531.651	90.06
531.865	83.06
532.08	88.06
532.295	89.06
532.509	85.06
532.724	80.06
532.938	88.06
533.153	101.06
533.367	116.06
533.582	115.06
533.796	120.06
534.011	104.06
534.225	90.06
534.44	104.06
534.654	88.06
534.868	97.06
535.083	89.06
535.297	100.06
535.511	104.06
535.726	93.06
535.94	96.06
536.154	102.06
536.369	97.06
536.583	86.06
536.797	91.06
537.011	88.06
537.225	99.06
537.44	80.06
537.654	96.06
537.868	98.06
538.082	94.06
538.296	97.06
538.51	90.06
538.724	113.06
538.938	123.06
539.153	118.06
539.367	119.06
539.581	109.06
539.795	96.06
540.009	88.06
540.222	93.06
540.436	99.06
540.65	98.06
540.864	119.06
541.078	145.06
541.292	143.06
541.506	158.06
541.72	147.06
541.934	199.06
542.147	165.06
542.361	183.06
542.575	156.06
542.789	161.06
543.002	136.06
543.216	123.06
543.43	136.06
543.644	121.06
543.857	152.06
544.071	155.06
544.285	165.06
544.498	157.06
544.712	144.06
544.925	160.06
545.139	147.06
545.352	157.06
545.566	168.06
545.779	167.06
545.993	163.06
546.206	148.06
546.42	160.06
546.633	157.06
546.847	157.06
547.06	144.06
547.274	163.06
547.487	169.06
547.7	177.06
547.914	164.06
548.127	159.06
548.34	141.06
548.554	154.06
548.767	151.06
548.98	141.06
549.193	149.06
549.407	142.06
549.62	155.06
549.833	147.06
550.046	161.06
550.259	132.06
550.473	135.06
550.686	145.06
550.899	135.06
551.112	151.06
551.325	137.06
551.538	130.06
551.751	121.06
551.964	122.06
552.177	138.06
552.39	140.06
552.603	138.06
552.816	152.06
553.029	145.06
553.242	136.06
553.455	161.06
553.667	162.06
553.88	151.06
554.093	153.06
554.306	146.06
554.519	139.06
554.732	144.06
554.944	144.06
555.157	135.06
555.37	149.06
555.583	144.06
555.795	142.06
556.008	126.06
556.221	121.06
556.433	130.06
556.646	137.06
556.859	123.06
557.071	131.06
557.284	133.06
557.496	138.06
557.709	142.06
557.921	143.06
558.134	122.06
558.346	137.06
558.559	133.06
558.771	121.06
558.984	137.06
559.196	131.06
559.409	117.06
559.621	132.06
559.833	127.06
560.046	113.06
560.258	127.06
560.47	124.06
560.683	129.06
560.895	132.06
561.107	132.06
561.32	130.06
561.532	127.06
561.744	125.06
561.956	126.06
562.168	140.06
562.381	124.06
562.593	116.06
562.805	147.06
563.017	124.06
563.229	136.06
563.441	129.06
563.653	127.06
563.865	116.06
564.077	127.06
564.289	115.06
564.501	125.06
564.713	114.06
564.925	107.06
565.137	119.06
565.349	121.06
565.561	95.06
565.773	109.06
565.985	119.06
566.197	127.06
566.408	107.06
566.62	122.06
566.832	120.06
567.044	117.06
567.255	107.06
567.467	108.06
567.679	119.06
567.891	116.06
568.102	97.06
568.314	92.06
568.526	73.06
568.737	96.06
568.949	78.06
569.161	93.06
569.372	83.06
569.584	81.06
569.795	84.06
570.007	84.06
570.218	88.06
570.43	83.06
570.641	100.06
570.853	90.06
571.064	98.06
571.276	96.06
571.487	117.06
571.698	121.06
571.91	108.06
572.121	90.06
572.333	98.06
572.544	71.06
572.755	99.06
572.966	86.06
573.178	89.06
573.389	88.06
573.6	85.06
573.811	100.06
574.023	79.06
574.234	83.06
574.445	91.06
574.656	94.06
574.867	98.06
575.078	97.06
575.289	95.06
575.501	98.06
575.712	97.06
575.923	86.06
576.134	91.06
576.345	91.06
576.556	100.06
576.767	89.06
576.978	93.06
577.188	83.06
577.399	99.06
577.61	93.06
577.821	85.06
578.032	81.06
578.243	90.06
578.454	103.06
578.665	90.06
578.875	94.06
579.086	85.06
579.297	97.06
579.508	84.06
579.718	88.06
579.929	76.06
580.14	91.06
580.35	90.06
580.561	95.06
580.772	84.06
580.982	91.06
581.193	99.06
581.403	84.06
581.614	91.06
581.825	85.06
582.035	83.06
582.246	89.06
582.456	91.06
582.667	95.06
582.877	90.06
583.087	78.06
583.298	98.06
583.508	87.06
583.719	99.06
583.929	104.06
584.139	96.06
584.35	83.06
584.56	82.06
584.77	76.06
584.981	88.06
585.191	92.06
585.401	96.06
585.611	73.06
585.821	87.06
586.032	80.06
586.242	97.06
586.452	90.06
586.662	73.06
586.872	81.06
587.082	68.06
587.292	88.06
587.502	78.06
587.713	76.06
587.923	84.06
588.133	89.06
588.343	93.06
588.553	77.06
588.762	88.06
588.972	90.06
589.182	90.06
589.392	86.06
589.602	102.06
589.812	85.06
590.022	89.06
590.232	85.06
590.441	91.06
590.651	77.06
590.861	80.06
591.071	74.06
591.281	88.06
591.49	88.06
591.7	86.06
591.91	93.06
592.119	88.06
592.329	81.06
592.539	83.06
592.748	85.06
592.958	83.06
593.167	66.06
593.377	86.06
593.587	81.06
593.796	85.06
594.006	95.06
594.215	97.06
594.424	80.06
594.634	81.06
594.843	77.06
595.053	90.06
595.262	94.06
595.472	81.06
595.681	78.06
595.89	98.06
596.1	99.06
596.309	94.06
596.518	81.06
596.727	106.06
596.937	96.06
597.146	98.06
597.355	110.06
597.564	90.06
597.774	93.06
597.983	82.06
598.192	93.06
598.401	93.06
598.61	92.06
598.819	104.06
599.028	98.06
599.237	75.06
599.446	86.06
599.655	94.06
599.864	87.06
600.073	97.06
600.282	75.06
600.491	81.06
600.7	89.06
600.909	96.06
601.118	85.06
601.327	108.06
601.536	89.06
601.745	109.06
601.953	111.06
602.162	93.06
602.371	97.06
602.58	99.06
602.789	103.06
602.997	113.06
603.206	100.06
603.415	92.06
603.623	99.06
603.832	98.06
604.041	103.06
604.249	103.06
604.458	89.06
604.666	95.06
604.875	104.06
605.084	112.06
605.292	102.06
605.501	108.06
605.709	88.06
605.918	103.06
606.126	127.06
606.334	107.06
606.543	113.06
606.751	103.06
606.96	114.06
607.168	108.06
607.376	121.06
607.585	119.06
607.793	106.06
608.001	94.06
608.21	113.06
608.418	127.06
608.626	104.06
608.834	109.06
609.043	110.06
609.251	120.06
609.459	117.06
609.667	106.06
609.875	127.06
610.083	107.06
610.291	120.06
610.499	111.06
610.707	113.06
610.916	124.06
611.124	109.06
611.332	116.06
611.54	119.06
611.748	104.06
611.955	103.06
612.163	115.06
612.371	121.06
612.579	114.06
612.787	117.06
612.995	106.06
613.203	120.06
613.411	99.06
613.618	111.06
613.826	95.06
614.034	103.06
614.242	101.06
614.449	107.06
614.657	119.06
614.865	98.06
615.072	112.06
615.28	115.06
615.488	97.06
615.695	112.06
615.903	105.06
616.111	114.06
616.318	117.06
616.526	107.06
616.733	129.06
616.941	102.06
617.148	122.06
617.356	114.06
617.563	107.06
617.771	96.06
617.978	107.06
618.185	91.06
618.393	118.06
618.6	104.06
618.807	115.06
619.015	109.06
619.222	102.06
619.429	108.06
619.637	96.06
619.844	88.06
620.051	114.06
620.258	107.06
620.466	108.06
620.673	103.06
620.88	84.06
621.087	107.06
621.294	104.06
621.501	103.06
621.708	98.06
621.915	92.06
622.122	106.06
622.329	108.06
622.536	95.06
622.743	98.06
622.95	106.06
623.157	95.06
623.364	105.06
623.571	106.06
623.778	101.06
623.985	111.06
624.192	111.06
624.399	106.06
624.606	117.06
624.812	121.06
625.019	103.06
625.226	109.06
625.433	112.06
625.639	99.06
625.846	101.06
626.053	111.06
626.259	96.06
626.466	112.06
626.673	88.06
626.879	90.06
627.086	112.06
627.293	93.06
627.499	97.06
627.706	116.06
627.912	107.06
628.119	109.06
628.325	108.06
628.532	80.06
628.738	115.06
628.945	101.06
629.151	98.06
629.357	93.06
629.564	104.06
629.77	88.06
629.976	98.06
630.183	99.06
630.389	95.06
630.595	100.06
630.802	99.06
631.008	97.06
631.214	101.06
631.42	96.06
631.627	100.06
631.833	86.06
632.039	82.06
632.245	91.06
632.451	87.06
632.657	100.06
632.863	98.06
633.069	92.06
633.275	93.06
633.481	97.06
633.688	95.06
633.893	103.06
634.099	93.06
634.305	89.06
634.511	98.06
634.717	105.06
634.923	111.06
635.129	98.06
635.335	95.06
635.541	95.06
635.747	105.06
635.952	84.06
636.158	86.06
636.364	96.06
636.57	103.06
636.775	97.06
636.981	105.06
637.187	89.06
637.392	107.06
637.598	116.06
637.804	99.06
638.009	118.06
638.215	99.06
638.421	87.06
638.626	112.06
638.832	109.06
639.037	95.06
639.243	104.06
639.448	101.06
639.654	108.06
639.859	95.06
640.065	100.06
640.27	95.06
640.475	93.06
640.681	97.06
640.886	94.06
641.091	100.06
641.297	106.06
641.502	99.06
641.707	102.06
641.913	88.06
642.118	84.06
642.323	115.06
642.528	106.06
642.733	100.06
642.939	101.06
643.144	88.06
643.349	97.06
643.554	97.06
643.759	89.06
643.964	108.06
644.169	90.06
644.374	82.06
644.579	99.06
644.784	94.06
644.989	92.06
645.194	84.06
645.399	111.06
645.604	96.06
645.809	100.06
646.014	108.06
646.219	87.06
646.423	96.06
646.628	95.06
646.833	95.06
647.038	91.06
647.243	105.06
647.447	100.06
647.652	111.06
647.857	90.06
648.062	102.06
648.266	97.06
648.471	87.06
648.676	94.06
648.88	101.06
649.085	97.06
649.289	94.06
649.494	95.06
649.698	80.06
649.903	100.06
650.107	86.06
650.312	105.06
650.516	107.06
650.721	100.06
650.925	94.06
651.13	87.06
651.334	97.06
651.539	90.06
651.743	97.06
651.947	98.06
652.152	94.06
652.356	92.06
652.56	83.06
652.764	98.06
652.969	101.06
653.173	99.06
653.377	76.06
653.581	96.06
653.785	102.06
653.99	95.06
654.194	90.06
654.398	73.06
654.602	95.06
654.806	91.06
655.01	88.06
655.214	91.06
655.418	98.06
655.622	65.06
655.826	87.06
656.03	97.06
656.234	93.06
656.438	88.06
656.642	87.06
656.846	93.06
657.049	77.06
657.253	75.06
657.457	83.06
657.661	111.06
657.865	86.06
658.068	92.06
658.272	76.06
658.476	75.06
658.68	93.06
658.883	71.06
659.087	80.06
659.291	73.06
659.494	99.06
659.698	79.06
659.901	95.06
660.105	75.06
660.309	79.06
660.512	87.06
660.716	76.06
660.919	102.06
661.123	86.06
661.326	83.06
661.53	81.06
661.733	93.06
661.936	83.06
662.14	83.06
662.343	92.06
662.546	76.06
662.75	83.06
662.953	88.06
663.156	101.06
663.36	82.06
663.563	99.06
663.766	79.06
663.969	85.06
664.173	86.06
664.376	83.06
664.579	88.06
664.782	77.06
664.985	76.06
665.188	78.06
665.391	68.06
665.594	83.06
665.797	76.06
666	84.06
666.203	79.06
666.406	84.06
666.609	90.06
666.812	83.06
667.015	95.06
667.218	80.06
667.421	76.06
667.624	83.06
667.827	74.06
668.03	82.06
668.232	77.06
668.435	96.06
668.638	79.06
668.841	84.06
669.043	66.06
669.246	91.06
669.449	75.06
669.651	76.06
669.854	83.06
670.057	84.06
670.259	79.06
670.462	81.06
670.665	81.06
670.867	83.06
671.07	72.06
671.272	81.06
671.475	87.06
671.677	76.06
671.88	77.06
672.082	87.06
672.284	85.06
672.487	67.06
672.689	82.06
672.892	85.06
