Data from Location1.07152019.Energy5.Lamp.07192019.3%Agarose_HRD10591_14-32-09-018.txt Node
Date: Fri Jul 19 14:32:09 EDT 2019
User: cochatt
Spectrometer: HR+D1059
Trigger mode: 1
Integration Time (sec): 1.000000E-1
Scans to average: 1
Electric dark correction enabled: true
Nonlinearity correction enabled: false
Boxcar width: 0
XAxis mode: Wavelengths
Number of Pixels in Spectrum: 2048
>>>>>Begin Spectral Data<<<<<
223.165	-11.25
223.4	-11.25
223.635	-11.25
223.869	-17.25
224.104	-11.25
224.338	-22.25
224.573	-7.25
224.808	-18.25
225.042	-9.25
225.277	-5.25
225.511	-1.25
225.746	9.75
225.98	-3.25
226.215	7.75
226.449	21.75
226.683	23.75
226.918	11.75
227.152	31.75
227.387	31.75
227.621	39.75
227.856	37.75
228.09	54.75
228.324	55.75
228.559	63.75
228.793	67.75
229.027	82.75
229.262	61.75
229.496	71.75
229.73	76.75
229.964	67.75
230.199	77.75
230.433	85.75
230.667	81.75
230.901	89.75
231.136	83.75
231.37	82.75
231.604	94.75
231.838	69.75
232.072	73.75
232.306	78.75
232.541	83.75
232.775	82.75
233.009	82.75
233.243	93.75
233.477	90.75
233.711	86.75
233.945	65.75
234.179	64.75
234.413	89.75
234.647	78.75
234.881	73.75
235.115	88.75
235.349	79.75
235.583	92.75
235.817	80.75
236.051	74.75
236.285	80.75
236.519	79.75
236.753	76.75
236.987	87.75
237.221	82.75
237.455	80.75
237.689	81.75
237.922	85.75
238.156	70.75
238.39	98.75
238.624	92.75
238.858	70.75
239.091	75.75
239.325	78.75
239.559	76.75
239.793	90.75
240.027	98.75
240.26	96.75
240.494	76.75
240.728	80.75
240.961	87.75
241.195	75.75
241.429	89.75
241.662	81.75
241.896	86.75
242.13	76.75
242.363	62.75
242.597	87.75
242.83	81.75
243.064	93.75
243.298	80.75
243.531	79.75
243.765	82.75
243.998	83.75
244.232	79.75
244.465	83.75
244.699	80.75
244.932	87.75
245.166	69.75
245.399	76.75
245.633	89.75
245.866	73.75
246.099	82.75
246.333	83.75
246.566	92.75
246.8	93.75
247.033	96.75
247.266	74.75
247.5	83.75
247.733	73.75
247.966	81.75
248.2	82.75
248.433	71.75
248.666	75.75
248.899	84.75
249.133	95.75
249.366	75.75
249.599	80.75
249.832	80.75
250.066	83.75
250.299	93.75
250.532	76.75
250.765	68.75
250.998	92.75
251.231	86.75
251.465	85.75
251.698	80.75
251.931	76.75
252.164	85.75
252.397	86.75
252.63	79.75
252.863	86.75
253.096	85.75
253.329	83.75
253.562	92.75
253.795	92.75
254.028	65.75
254.261	85.75
254.494	85.75
254.727	77.75
254.96	71.75
255.193	86.75
255.426	84.75
255.659	75.75
255.892	78.75
256.124	71.75
256.357	94.75
256.59	83.75
256.823	76.75
257.056	86.75
257.289	88.75
257.521	82.75
257.754	83.75
257.987	90.75
258.22	90.75
258.452	76.75
258.685	89.75
258.918	89.75
259.151	82.75
259.383	83.75
259.616	81.75
259.849	79.75
260.081	87.75
260.314	81.75
260.547	92.75
260.779	80.75
261.012	83.75
261.244	69.75
261.477	90.75
261.71	79.75
261.942	87.75
262.175	96.75
262.407	92.75
262.64	95.75
262.872	69.75
263.105	82.75
263.337	81.75
263.57	87.75
263.802	82.75
264.035	88.75
264.267	76.75
264.499	90.75
264.732	71.75
264.964	76.75
265.197	69.75
265.429	93.75
265.661	76.75
265.894	84.75
266.126	88.75
266.358	90.75
266.591	87.75
266.823	85.75
267.055	86.75
267.287	83.75
267.52	91.75
267.752	73.75
267.984	90.75
268.216	89.75
268.448	83.75
268.681	77.75
268.913	91.75
269.145	85.75
269.377	89.75
269.609	93.75
269.841	86.75
270.073	92.75
270.306	90.75
270.538	86.75
270.77	97.75
271.002	95.75
271.234	77.75
271.466	78.75
271.698	77.75
271.93	91.75
272.162	93.75
272.394	83.75
272.626	95.75
272.858	77.75
273.09	86.75
273.322	93.75
273.553	81.75
273.785	79.75
274.017	90.75
274.249	84.75
274.481	86.75
274.713	87.75
274.945	83.75
275.176	78.75
275.408	81.75
275.64	89.75
275.872	83.75
276.104	100.75
276.335	76.75
276.567	78.75
276.799	95.75
277.031	91.75
277.262	93.75
277.494	79.75
277.726	81.75
277.957	80.75
278.189	90.75
278.421	72.75
278.652	87.75
278.884	92.75
279.115	83.75
279.347	80.75
279.579	78.75
279.81	86.75
280.042	98.75
280.273	87.75
280.505	85.75
280.736	95.75
280.968	83.75
281.199	95.75
281.431	92.75
281.662	103.75
281.894	93.75
282.125	93.75
282.356	87.75
282.588	73.75
282.819	95.75
283.051	83.75
283.282	101.75
283.513	89.75
283.745	79.75
283.976	85.75
284.207	96.75
284.439	86.75
284.67	86.75
284.901	102.75
285.132	85.75
285.364	93.75
285.595	88.75
285.826	83.75
286.057	83.75
286.288	91.75
286.52	82.75
286.751	89.75
286.982	83.75
287.213	95.75
287.444	85.75
287.675	91.75
287.906	90.75
288.138	86.75
288.369	104.75
288.6	74.75
288.831	89.75
289.062	96.75
289.293	84.75
289.524	84.75
289.755	89.75
289.986	91.75
290.217	82.75
290.448	95.75
290.679	99.75
290.91	80.75
291.141	87.75
291.371	88.75
291.602	85.75
291.833	89.75
292.064	79.75
292.295	95.75
292.526	81.75
292.757	80.75
292.987	80.75
293.218	88.75
293.449	87.75
293.68	99.75
293.91	90.75
294.141	76.75
294.372	91.75
294.603	115.75
294.833	70.75
295.064	91.75
295.295	92.75
295.525	80.75
295.756	83.75
295.987	87.75
296.217	77.75
296.448	82.75
296.679	92.75
296.909	86.75
297.14	91.75
297.37	90.75
297.601	90.75
297.831	78.75
298.062	81.75
298.292	91.75
298.523	98.75
298.753	84.75
298.984	97.75
299.214	86.75
299.445	89.75
299.675	78.75
299.905	92.75
300.136	84.75
300.366	87.75
300.597	91.75
300.827	96.75
301.057	92.75
301.288	96.75
301.518	83.75
301.748	93.75
301.979	90.75
302.209	99.75
302.439	96.75
302.669	83.75
302.9	93.75
303.13	101.75
303.36	83.75
303.59	71.75
303.82	86.75
304.051	79.75
304.281	78.75
304.511	93.75
304.741	77.75
304.971	95.75
305.201	89.75
305.431	92.75
305.661	81.75
305.891	81.75
306.121	94.75
306.352	98.75
306.582	91.75
306.812	71.75
307.042	90.75
307.272	100.75
307.502	75.75
307.731	95.75
307.961	91.75
308.191	70.75
308.421	79.75
308.651	84.75
308.881	91.75
309.111	93.75
309.341	84.75
309.571	93.75
309.8	90.75
310.03	96.75
310.26	86.75
310.49	87.75
310.72	90.75
310.949	91.75
311.179	88.75
311.409	85.75
311.639	101.75
311.868	77.75
312.098	94.75
312.328	84.75
312.557	78.75
312.787	89.75
313.017	91.75
313.246	79.75
313.476	74.75
313.706	98.75
313.935	81.75
314.165	86.75
314.394	90.75
314.624	83.75
314.853	83.75
315.083	94.75
315.312	81.75
315.542	98.75
315.771	100.75
316.001	90.75
316.23	80.75
316.46	83.75
316.689	77.75
316.919	98.75
317.148	101.75
317.377	95.75
317.607	92.75
317.836	90.75
318.065	90.75
318.295	104.75
318.524	86.75
318.753	87.75
318.983	75.75
319.212	83.75
319.441	84.75
319.67	93.75
319.9	89.75
320.129	91.75
320.358	101.75
320.587	92.75
320.816	94.75
321.046	104.75
321.275	109.75
321.504	83.75
321.733	100.75
321.962	88.75
322.191	105.75
322.42	88.75
322.649	97.75
322.878	89.75
323.108	84.75
323.337	92.75
323.566	84.75
323.795	77.75
324.024	94.75
324.253	83.75
324.482	97.75
324.71	94.75
324.939	84.75
325.168	98.75
325.397	106.75
325.626	103.75
325.855	82.75
326.084	76.75
326.313	90.75
326.542	84.75
326.77	107.75
326.999	81.75
327.228	94.75
327.457	79.75
327.686	82.75
327.914	83.75
328.143	95.75
328.372	90.75
328.6	80.75
328.829	91.75
329.058	94.75
329.287	88.75
329.515	94.75
329.744	89.75
329.972	73.75
330.201	88.75
330.43	89.75
330.658	82.75
330.887	93.75
331.115	80.75
331.344	79.75
331.572	96.75
331.801	91.75
332.03	74.75
332.258	89.75
332.486	87.75
332.715	87.75
332.943	89.75
333.172	84.75
333.4	90.75
333.629	97.75
333.857	92.75
334.085	81.75
334.314	76.75
334.542	90.75
334.771	93.75
334.999	84.75
335.227	81.75
335.455	90.75
335.684	84.75
335.912	95.75
336.14	106.75
336.369	83.75
336.597	88.75
336.825	85.75
337.053	89.75
337.281	102.75
337.51	90.75
337.738	90.75
337.966	103.75
338.194	82.75
338.422	89.75
338.65	99.75
338.878	84.75
339.106	78.75
339.334	81.75
339.562	81.75
339.79	91.75
340.018	85.75
340.246	81.75
340.474	83.75
340.702	80.75
340.93	97.75
341.158	100.75
341.386	79.75
341.614	82.75
341.842	93.75
342.07	80.75
342.298	79.75
342.526	90.75
342.754	88.75
342.981	86.75
343.209	85.75
343.437	91.75
343.665	79.75
343.893	100.75
344.12	99.75
344.348	89.75
344.576	92.75
344.804	73.75
345.031	78.75
345.259	92.75
345.487	89.75
345.714	102.75
345.942	94.75
346.17	82.75
346.397	62.75
346.625	98.75
346.853	92.75
347.08	92.75
347.308	90.75
347.535	85.75
347.763	90.75
347.99	95.75
348.218	82.75
348.445	82.75
348.673	98.75
348.9	74.75
349.128	91.75
349.355	84.75
349.583	99.75
349.81	82.75
350.037	78.75
350.265	84.75
350.492	81.75
350.72	82.75
350.947	101.75
351.174	96.75
351.402	80.75
351.629	77.75
351.856	80.75
352.083	74.75
352.311	87.75
352.538	88.75
352.765	91.75
352.992	91.75
353.22	101.75
353.447	85.75
353.674	88.75
353.901	99.75
354.128	89.75
354.355	81.75
354.583	76.75
354.81	91.75
355.037	85.75
355.264	82.75
355.491	96.75
355.718	95.75
355.945	91.75
356.172	85.75
356.399	81.75
356.626	89.75
356.853	85.75
357.08	89.75
357.307	73.75
357.534	84.75
357.761	73.75
357.988	79.75
358.215	91.75
358.441	87.75
358.668	95.75
358.895	88.75
359.122	85.75
359.349	77.75
359.576	95.75
359.802	90.75
360.029	92.75
360.256	97.75
360.483	85.75
360.709	94.75
360.936	83.75
361.163	83.75
361.39	72.75
361.616	94.75
361.843	75.75
362.07	83.75
362.296	96.75
362.523	86.75
362.749	82.75
362.976	81.75
363.203	85.75
363.429	87.75
363.656	93.75
363.882	70.75
364.109	98.75
364.335	93.75
364.562	86.75
364.788	78.75
365.015	73.75
365.241	91.75
365.468	96.75
365.694	77.75
365.92	88.75
366.147	108.75
366.373	93.75
366.599	86.75
366.826	93.75
367.052	101.75
367.278	88.75
367.505	80.75
367.731	97.75
367.957	89.75
368.184	98.75
368.41	99.75
368.636	84.75
368.862	99.75
369.089	93.75
369.315	84.75
369.541	93.75
369.767	87.75
369.993	107.75
370.219	81.75
370.445	101.75
370.672	112.75
370.898	82.75
371.124	94.75
371.35	91.75
371.576	90.75
371.802	97.75
372.028	92.75
372.254	98.75
372.48	83.75
372.706	98.75
372.932	102.75
373.158	108.75
373.384	101.75
373.61	82.75
373.835	93.75
374.061	90.75
374.287	89.75
374.513	97.75
374.739	92.75
374.965	101.75
375.191	89.75
375.416	108.75
375.642	112.75
375.868	86.75
376.094	106.75
376.319	94.75
376.545	107.75
376.771	105.75
376.997	103.75
377.222	95.75
377.448	102.75
377.674	93.75
377.899	92.75
378.125	97.75
378.35	99.75
378.576	86.75
378.802	100.75
379.027	104.75
379.253	93.75
379.478	107.75
379.704	107.75
379.929	104.75
380.155	94.75
380.38	103.75
380.606	80.75
380.831	106.75
381.057	113.75
381.282	100.75
381.507	99.75
381.733	88.75
381.958	87.75
382.184	97.75
382.409	96.75
382.634	88.75
382.86	93.75
383.085	91.75
383.31	113.75
383.535	111.75
383.761	99.75
383.986	91.75
384.211	114.75
384.436	97.75
384.662	101.75
384.887	96.75
385.112	96.75
385.337	110.75
385.562	98.75
385.787	80.75
386.013	105.75
386.238	104.75
386.463	105.75
386.688	81.75
386.913	90.75
387.138	91.75
387.363	102.75
387.588	113.75
387.813	97.75
388.038	93.75
388.263	108.75
388.488	116.75
388.713	101.75
388.938	89.75
389.163	82.75
389.387	110.75
389.612	114.75
389.837	111.75
390.062	105.75
390.287	82.75
390.512	110.75
390.736	96.75
390.961	112.75
391.186	115.75
391.411	97.75
391.636	110.75
391.86	107.75
392.085	106.75
392.31	95.75
392.534	110.75
392.759	109.75
392.984	105.75
393.208	105.75
393.433	111.75
393.658	118.75
393.882	101.75
394.107	106.75
394.331	96.75
394.556	104.75
394.78	99.75
395.005	123.75
395.229	104.75
395.454	100.75
395.678	104.75
395.903	112.75
396.127	113.75
396.352	110.75
396.576	108.75
396.801	109.75
397.025	123.75
397.249	112.75
397.474	120.75
397.698	132.75
397.922	109.75
398.147	78.75
398.371	105.75
398.595	109.75
398.82	116.75
399.044	109.75
399.268	97.75
399.492	114.75
399.717	112.75
399.941	106.75
400.165	105.75
400.389	98.75
400.613	111.75
400.837	109.75
401.062	110.75
401.286	120.75
401.51	115.75
401.734	124.75
401.958	109.75
402.182	105.75
402.406	109.75
402.63	107.75
402.854	115.75
403.078	127.75
403.302	102.75
403.526	112.75
403.75	109.75
403.974	103.75
404.198	114.75
404.422	113.75
404.645	112.75
404.869	107.75
405.093	131.75
405.317	109.75
405.541	129.75
405.765	125.75
405.988	117.75
406.212	130.75
406.436	123.75
406.66	111.75
406.883	119.75
407.107	121.75
407.331	109.75
407.555	105.75
407.778	121.75
408.002	114.75
408.226	117.75
408.449	121.75
408.673	118.75
408.896	123.75
409.12	130.75
409.344	128.75
409.567	125.75
409.791	113.75
410.014	127.75
410.238	127.75
410.461	125.75
410.685	136.75
410.908	110.75
411.132	114.75
411.355	124.75
411.578	131.75
411.802	125.75
412.025	122.75
412.249	117.75
412.472	135.75
412.695	127.75
412.919	123.75
413.142	126.75
413.365	119.75
413.589	119.75
413.812	123.75
414.035	126.75
414.258	130.75
414.482	128.75
414.705	124.75
414.928	124.75
415.151	122.75
415.374	121.75
415.597	124.75
415.821	117.75
416.044	121.75
416.267	127.75
416.49	129.75
416.713	114.75
416.936	127.75
417.159	135.75
417.382	134.75
417.605	129.75
417.828	146.75
418.051	126.75
418.274	126.75
418.497	129.75
418.72	115.75
418.943	131.75
419.166	141.75
419.389	142.75
419.611	134.75
419.834	134.75
420.057	122.75
420.28	134.75
420.503	133.75
420.726	121.75
420.948	125.75
421.171	136.75
421.394	136.75
421.617	142.75
421.839	147.75
422.062	132.75
422.285	127.75
422.507	117.75
422.73	117.75
422.953	121.75
423.175	122.75
423.398	137.75
423.621	131.75
423.843	126.75
424.066	131.75
424.288	146.75
424.511	139.75
424.733	145.75
424.956	150.75
425.178	145.75
425.401	139.75
425.623	145.75
425.846	152.75
426.068	127.75
426.291	127.75
426.513	130.75
426.735	117.75
426.958	141.75
427.18	132.75
427.402	130.75
427.625	131.75
427.847	136.75
428.069	129.75
428.292	145.75
428.514	145.75
428.736	122.75
428.958	128.75
429.181	121.75
429.403	132.75
429.625	125.75
429.847	129.75
430.069	130.75
430.292	135.75
430.514	145.75
430.736	113.75
430.958	133.75
431.18	125.75
431.402	129.75
431.624	119.75
431.846	103.75
432.068	96.75
432.29	93.75
432.512	123.75
432.734	129.75
432.956	133.75
433.178	137.75
433.4	131.75
433.622	145.75
433.844	142.75
434.066	136.75
434.287	117.75
434.509	95.75
434.731	113.75
434.953	121.75
435.175	108.75
435.397	142.75
435.618	92.75
435.84	123.75
436.062	105.75
436.284	129.75
436.505	133.75
436.727	124.75
436.949	141.75
437.17	131.75
437.392	125.75
437.614	102.75
437.835	111.75
438.057	101.75
438.278	100.75
438.5	125.75
438.721	122.75
438.943	136.75
439.165	124.75
439.386	146.75
439.608	154.75
439.829	139.75
440.05	147.75
440.272	148.75
440.493	153.75
440.715	145.75
440.936	142.75
441.158	145.75
441.379	133.75
441.6	133.75
441.822	145.75
442.043	145.75
442.264	137.75
442.486	147.75
442.707	129.75
442.928	137.75
443.149	141.75
443.371	137.75
443.592	129.75
443.813	136.75
444.034	133.75
444.255	141.75
444.476	142.75
444.698	152.75
444.919	141.75
445.14	279.75
445.361	209.75
445.582	163.75
445.803	153.75
446.024	168.75
446.245	146.75
446.466	145.75
446.687	135.75
446.908	156.75
447.129	154.75
447.35	155.75
447.571	146.75
447.792	157.75
448.013	152.75
448.234	155.75
448.455	147.75
448.675	138.75
448.896	138.75
449.117	141.75
449.338	129.75
449.559	145.75
449.779	135.75
450	140.75
450.221	132.75
450.442	130.75
450.662	131.75
450.883	134.75
451.104	127.75
451.324	155.75
451.545	128.75
451.766	134.75
451.986	122.75
452.207	137.75
452.428	117.75
452.648	126.75
452.869	111.75
453.089	118.75
453.31	129.75
453.53	107.75
453.751	109.75
453.971	100.75
454.192	109.75
454.412	114.75
454.633	126.75
454.853	147.75
455.073	122.75
455.294	122.75
455.514	108.75
455.734	130.75
455.955	119.75
456.175	115.75
456.395	111.75
456.616	113.75
456.836	101.75
457.056	120.75
457.276	103.75
457.497	115.75
457.717	108.75
457.937	100.75
458.157	99.75
458.377	110.75
458.598	114.75
458.818	96.75
459.038	83.75
459.258	91.75
459.478	99.75
459.698	113.75
459.918	98.75
460.138	110.75
460.358	108.75
460.578	125.75
460.798	121.75
461.018	117.75
461.238	121.75
461.458	126.75
461.678	119.75
461.898	99.75
462.118	111.75
462.338	101.75
462.558	108.75
462.777	99.75
462.997	106.75
463.217	123.75
463.437	98.75
463.657	111.75
463.876	98.75
464.096	118.75
464.316	120.75
464.536	100.75
464.755	121.75
464.975	142.75
465.195	120.75
465.414	108.75
465.634	108.75
465.854	122.75
466.073	125.75
466.293	118.75
466.512	130.75
466.732	142.75
466.951	132.75
467.171	135.75
467.391	130.75
467.61	129.75
467.829	144.75
468.049	123.75
468.268	130.75
468.488	130.75
468.707	126.75
468.927	137.75
469.146	144.75
469.365	136.75
469.585	139.75
469.804	134.75
470.023	144.75
470.243	133.75
470.462	133.75
470.681	152.75
470.901	149.75
471.12	137.75
471.339	126.75
471.558	136.75
471.777	134.75
471.997	141.75
472.216	123.75
472.435	127.75
472.654	99.75
472.873	119.75
473.092	130.75
473.311	133.75
473.53	126.75
473.749	134.75
473.968	133.75
474.187	126.75
474.406	130.75
474.625	125.75
474.844	122.75
475.063	126.75
475.282	131.75
475.501	127.75
475.72	127.75
475.939	130.75
476.158	121.75
476.377	119.75
476.596	125.75
476.814	125.75
477.033	117.75
477.252	112.75
477.471	130.75
477.69	145.75
477.908	146.75
478.127	138.75
478.346	135.75
478.564	141.75
478.783	133.75
479.002	137.75
479.22	131.75
479.439	129.75
479.658	127.75
479.876	114.75
480.095	102.75
480.313	124.75
480.532	123.75
480.751	110.75
480.969	91.75
481.188	96.75
481.406	105.75
481.624	88.75
481.843	78.75
482.061	105.75
482.28	121.75
482.498	119.75
482.717	118.75
482.935	144.75
483.153	128.75
483.372	148.75
483.59	147.75
483.808	141.75
484.027	135.75
484.245	143.75
484.463	154.75
484.681	169.75
484.9	158.75
485.118	143.75
485.336	137.75
485.554	117.75
485.772	97.75
485.99	103.75
486.209	109.75
486.427	115.75
486.645	141.75
486.863	140.75
487.081	136.75
487.299	135.75
487.517	152.75
487.735	161.75
487.953	185.75
488.171	156.75
488.389	181.75
488.607	170.75
488.825	133.75
489.043	126.75
489.261	135.75
489.479	137.75
489.696	142.75
489.914	135.75
490.132	137.75
490.35	151.75
490.568	158.75
490.786	164.75
491.003	176.75
491.221	169.75
491.439	196.75
491.657	189.75
491.874	189.75
492.092	215.75
492.31	236.75
492.527	226.75
492.745	197.75
492.963	211.75
493.18	188.75
493.398	187.75
493.615	183.75
493.833	162.75
494.05	165.75
494.268	153.75
494.485	173.75
494.703	193.75
494.92	175.75
495.138	170.75
495.355	174.75
495.573	175.75
495.79	163.75
496.008	177.75
496.225	171.75
496.442	149.75
496.66	170.75
496.877	165.75
497.094	168.75
497.312	157.75
497.529	160.75
497.746	142.75
497.963	138.75
498.181	129.75
498.398	125.75
498.615	125.75
498.832	114.75
499.049	109.75
499.267	122.75
499.484	123.75
499.701	130.75
499.918	145.75
500.135	142.75
500.352	144.75
500.569	145.75
500.786	156.75
501.003	135.75
501.22	123.75
501.437	140.75
501.654	143.75
501.871	129.75
502.088	131.75
502.305	137.75
502.522	120.75
502.739	141.75
502.956	142.75
503.172	115.75
503.389	134.75
503.606	109.75
503.823	126.75
504.04	130.75
504.256	120.75
504.473	126.75
504.69	113.75
504.907	123.75
505.123	113.75
505.34	124.75
505.557	122.75
505.773	126.75
505.99	132.75
506.207	108.75
506.423	121.75
506.64	121.75
506.856	125.75
507.073	118.75
507.289	118.75
507.506	122.75
507.722	110.75
507.939	121.75
508.155	119.75
508.372	120.75
508.588	117.75
508.805	111.75
509.021	114.75
509.238	98.75
509.454	94.75
509.67	96.75
509.887	95.75
510.103	109.75
510.319	80.75
510.536	90.75
510.752	85.75
510.968	77.75
511.184	89.75
511.401	88.75
511.617	106.75
511.833	93.75
512.049	96.75
512.265	78.75
512.481	98.75
512.698	102.75
512.914	104.75
513.13	95.75
513.346	104.75
513.562	96.75
513.778	106.75
513.994	102.75
514.21	76.75
514.426	91.75
514.642	94.75
514.858	97.75
515.074	76.75
515.29	86.75
515.506	96.75
515.721	97.75
515.937	102.75
516.153	96.75
516.369	95.75
516.585	89.75
516.801	75.75
517.016	78.75
517.232	89.75
517.448	108.75
517.664	93.75
517.879	102.75
518.095	108.75
518.311	96.75
518.527	87.75
518.742	95.75
518.958	102.75
519.173	106.75
519.389	91.75
519.605	110.75
519.82	98.75
520.036	120.75
520.251	99.75
520.467	121.75
520.682	92.75
520.898	100.75
521.113	104.75
521.329	88.75
521.544	94.75
521.76	114.75
521.975	96.75
522.19	108.75
522.406	99.75
522.621	97.75
522.836	95.75
523.052	112.75
523.267	108.75
523.482	118.75
523.698	121.75
523.913	119.75
524.128	108.75
524.343	117.75
524.559	112.75
524.774	112.75
524.989	130.75
525.204	119.75
525.419	123.75
525.634	115.75
525.849	122.75
526.064	118.75
526.28	114.75
526.495	95.75
526.71	104.75
526.925	77.75
527.14	84.75
527.355	87.75
527.57	95.75
527.785	105.75
527.999	90.75
528.214	105.75
528.429	104.75
528.644	112.75
528.859	130.75
529.074	143.75
529.289	155.75
529.503	154.75
529.718	141.75
529.933	121.75
530.148	93.75
530.363	98.75
530.577	98.75
530.792	87.75
531.007	94.75
531.221	77.75
531.436	80.75
531.651	88.75
531.865	88.75
532.08	99.75
532.295	107.75
532.509	98.75
532.724	80.75
532.938	102.75
533.153	106.75
533.367	108.75
533.582	115.75
533.796	124.75
534.011	119.75
534.225	97.75
534.44	89.75
534.654	100.75
534.868	90.75
535.083	90.75
535.297	99.75
535.511	99.75
535.726	105.75
535.94	99.75
536.154	111.75
536.369	93.75
536.583	89.75
536.797	101.75
537.011	89.75
537.225	104.75
537.44	96.75
537.654	83.75
537.868	106.75
538.082	97.75
538.296	97.75
538.51	103.75
538.724	112.75
538.938	110.75
539.153	138.75
539.367	136.75
539.581	106.75
539.795	117.75
540.009	95.75
540.222	100.75
540.436	115.75
540.65	122.75
540.864	137.75
541.078	128.75
541.292	167.75
541.506	152.75
541.72	171.75
541.934	182.75
542.147	211.75
542.361	178.75
542.575	168.75
542.789	142.75
543.002	140.75
543.216	134.75
543.43	118.75
543.644	118.75
543.857	131.75
544.071	157.75
544.285	153.75
544.498	156.75
544.712	157.75
544.925	157.75
545.139	142.75
545.352	161.75
545.566	141.75
545.779	143.75
545.993	155.75
546.206	173.75
546.42	164.75
546.633	169.75
546.847	167.75
547.06	167.75
547.274	170.75
547.487	158.75
547.7	169.75
547.914	157.75
548.127	153.75
548.34	164.75
548.554	147.75
548.767	158.75
548.98	136.75
549.193	151.75
549.407	162.75
549.62	146.75
549.833	144.75
550.046	154.75
550.259	145.75
550.473	175.75
550.686	171.75
550.899	150.75
551.112	150.75
551.325	138.75
551.538	131.75
551.751	123.75
551.964	113.75
552.177	131.75
552.39	143.75
552.603	131.75
552.816	147.75
553.029	157.75
553.242	165.75
553.455	150.75
553.667	149.75
553.88	160.75
554.093	152.75
554.306	140.75
554.519	144.75
554.732	142.75
554.944	146.75
555.157	140.75
555.37	163.75
555.583	147.75
555.795	147.75
556.008	136.75
556.221	120.75
556.433	147.75
556.646	138.75
556.859	134.75
557.071	138.75
557.284	148.75
557.496	139.75
557.709	126.75
557.921	125.75
558.134	150.75
558.346	145.75
558.559	131.75
558.771	133.75
558.984	140.75
559.196	144.75
559.409	138.75
559.621	146.75
559.833	120.75
560.046	126.75
560.258	143.75
560.47	137.75
560.683	127.75
560.895	129.75
561.107	124.75
561.32	134.75
561.532	127.75
561.744	133.75
561.956	147.75
562.168	129.75
562.381	128.75
562.593	123.75
562.805	131.75
563.017	120.75
563.229	125.75
563.441	132.75
563.653	132.75
563.865	123.75
564.077	131.75
564.289	127.75
564.501	126.75
564.713	107.75
564.925	123.75
565.137	112.75
565.349	118.75
565.561	117.75
565.773	108.75
565.985	109.75
566.197	128.75
566.408	139.75
566.62	127.75
566.832	129.75
567.044	118.75
567.255	120.75
567.467	111.75
567.679	125.75
567.891	102.75
568.102	102.75
568.314	98.75
568.526	92.75
568.737	97.75
568.949	76.75
569.161	85.75
569.372	93.75
569.584	95.75
569.795	82.75
570.007	78.75
570.218	84.75
570.43	94.75
570.641	93.75
570.853	96.75
571.064	112.75
571.276	113.75
571.487	117.75
571.698	104.75
571.91	109.75
572.121	104.75
572.333	98.75
572.544	94.75
572.755	95.75
572.966	96.75
573.178	83.75
573.389	102.75
573.6	73.75
573.811	78.75
574.023	91.75
574.234	87.75
574.445	85.75
574.656	120.75
574.867	106.75
575.078	94.75
575.289	108.75
575.501	102.75
575.712	99.75
575.923	104.75
576.134	87.75
576.345	96.75
576.556	113.75
576.767	107.75
576.978	94.75
577.188	101.75
577.399	91.75
577.61	99.75
577.821	91.75
578.032	96.75
578.243	98.75
578.454	104.75
578.665	92.75
578.875	88.75
579.086	94.75
579.297	78.75
579.508	89.75
579.718	91.75
579.929	91.75
580.14	92.75
580.35	89.75
580.561	83.75
580.772	91.75
580.982	98.75
581.193	98.75
581.403	102.75
581.614	104.75
581.825	98.75
582.035	93.75
582.246	88.75
582.456	96.75
582.667	90.75
582.877	93.75
583.087	104.75
583.298	80.75
583.508	74.75
583.719	88.75
583.929	90.75
584.139	97.75
584.35	96.75
584.56	92.75
584.77	107.75
584.981	76.75
585.191	82.75
585.401	93.75
585.611	76.75
585.821	102.75
586.032	95.75
586.242	83.75
586.452	102.75
586.662	90.75
586.872	98.75
587.082	93.75
587.292	97.75
587.502	90.75
587.713	84.75
587.923	90.75
588.133	94.75
588.343	91.75
588.553	86.75
588.762	98.75
588.972	88.75
589.182	89.75
589.392	86.75
589.602	93.75
589.812	97.75
590.022	98.75
590.232	76.75
590.441	87.75
590.651	75.75
590.861	94.75
591.071	95.75
591.281	83.75
591.49	83.75
591.7	86.75
591.91	89.75
592.119	96.75
592.329	94.75
592.539	82.75
592.748	101.75
592.958	94.75
593.167	77.75
593.377	72.75
593.587	81.75
593.796	82.75
594.006	85.75
594.215	89.75
594.424	84.75
594.634	92.75
594.843	91.75
595.053	90.75
595.262	96.75
595.472	79.75
595.681	93.75
595.89	93.75
596.1	70.75
596.309	89.75
596.518	98.75
596.727	97.75
596.937	107.75
597.146	105.75
597.355	96.75
597.564	105.75
597.774	101.75
597.983	96.75
598.192	103.75
598.401	83.75
598.61	80.75
598.819	105.75
599.028	108.75
599.237	105.75
599.446	86.75
599.655	100.75
599.864	100.75
600.073	99.75
600.282	96.75
600.491	96.75
600.7	86.75
600.909	104.75
601.118	117.75
601.327	112.75
601.536	116.75
601.745	114.75
601.953	123.75
602.162	121.75
602.371	99.75
602.58	94.75
602.789	106.75
602.997	127.75
603.206	112.75
603.415	110.75
603.623	117.75
603.832	113.75
604.041	89.75
604.249	103.75
604.458	82.75
604.666	85.75
604.875	89.75
605.084	106.75
605.292	118.75
605.501	111.75
605.709	105.75
605.918	126.75
606.126	125.75
606.334	113.75
606.543	124.75
606.751	119.75
606.96	129.75
607.168	104.75
607.376	98.75
607.585	120.75
607.793	123.75
608.001	119.75
608.21	108.75
608.418	123.75
608.626	124.75
608.834	127.75
609.043	105.75
609.251	95.75
609.459	109.75
609.667	127.75
609.875	129.75
610.083	127.75
610.291	125.75
610.499	105.75
610.707	111.75
610.916	129.75
611.124	123.75
611.332	127.75
611.54	107.75
611.748	98.75
611.955	114.75
612.163	117.75
612.371	107.75
612.579	106.75
612.787	105.75
612.995	108.75
613.203	108.75
613.411	125.75
613.618	114.75
613.826	112.75
614.034	103.75
614.242	103.75
614.449	97.75
614.657	114.75
614.865	114.75
615.072	111.75
615.28	122.75
615.488	123.75
615.695	128.75
615.903	123.75
616.111	126.75
616.318	112.75
616.526	122.75
616.733	118.75
616.941	112.75
617.148	106.75
617.356	121.75
617.563	124.75
617.771	103.75
617.978	99.75
618.185	98.75
618.393	119.75
618.6	109.75
618.807	100.75
619.015	103.75
619.222	104.75
619.429	115.75
619.637	113.75
619.844	110.75
620.051	95.75
620.258	106.75
620.466	102.75
620.673	121.75
620.88	121.75
621.087	90.75
621.294	116.75
621.501	115.75
621.708	117.75
621.915	87.75
622.122	123.75
622.329	112.75
622.536	94.75
622.743	105.75
622.95	117.75
623.157	121.75
623.364	120.75
623.571	120.75
623.778	108.75
623.985	128.75
624.192	114.75
624.399	108.75
624.606	126.75
624.812	110.75
625.019	107.75
625.226	96.75
625.433	111.75
625.639	121.75
625.846	106.75
626.053	100.75
626.259	99.75
626.466	91.75
626.673	82.75
626.879	94.75
627.086	106.75
627.293	106.75
627.499	102.75
627.706	101.75
627.912	122.75
628.119	107.75
628.325	103.75
628.532	113.75
628.738	105.75
628.945	105.75
629.151	105.75
629.357	94.75
629.564	96.75
629.77	103.75
629.976	98.75
630.183	87.75
630.389	110.75
630.595	112.75
630.802	92.75
631.008	100.75
631.214	103.75
631.42	90.75
631.627	105.75
631.833	105.75
632.039	108.75
632.245	101.75
632.451	110.75
632.657	99.75
632.863	104.75
633.069	84.75
633.275	86.75
633.481	80.75
633.688	105.75
633.893	111.75
634.099	108.75
634.305	97.75
634.511	102.75
634.717	107.75
634.923	102.75
635.129	109.75
635.335	77.75
635.541	87.75
635.747	107.75
635.952	102.75
636.158	96.75
636.364	112.75
636.57	101.75
636.775	103.75
636.981	81.75
637.187	95.75
637.392	103.75
637.598	102.75
637.804	93.75
638.009	102.75
638.215	91.75
638.421	93.75
638.626	102.75
638.832	101.75
639.037	98.75
639.243	105.75
639.448	106.75
639.654	99.75
639.859	97.75
640.065	90.75
640.27	105.75
640.475	92.75
640.681	93.75
640.886	102.75
641.091	107.75
641.297	96.75
641.502	103.75
641.707	101.75
641.913	107.75
642.118	105.75
642.323	103.75
642.528	97.75
642.733	106.75
642.939	107.75
643.144	106.75
643.349	105.75
643.554	106.75
643.759	87.75
643.964	102.75
644.169	96.75
644.374	101.75
644.579	123.75
644.784	93.75
644.989	109.75
645.194	103.75
645.399	97.75
645.604	112.75
645.809	111.75
646.014	102.75
646.219	103.75
646.423	91.75
646.628	104.75
646.833	113.75
647.038	95.75
647.243	99.75
647.447	99.75
647.652	98.75
647.857	91.75
648.062	99.75
648.266	108.75
648.471	100.75
648.676	108.75
648.88	94.75
649.085	103.75
649.289	95.75
649.494	100.75
649.698	98.75
649.903	106.75
650.107	97.75
650.312	104.75
650.516	93.75
650.721	110.75
650.925	93.75
651.13	95.75
651.334	101.75
651.539	95.75
651.743	92.75
651.947	89.75
652.152	112.75
652.356	91.75
652.56	100.75
652.764	104.75
652.969	95.75
653.173	104.75
653.377	95.75
653.581	106.75
653.785	89.75
653.99	77.75
654.194	90.75
654.398	78.75
654.602	99.75
654.806	103.75
655.01	91.75
655.214	93.75
655.418	95.75
655.622	93.75
655.826	95.75
656.03	78.75
656.234	89.75
656.438	95.75
656.642	79.75
656.846	93.75
657.049	86.75
657.253	98.75
657.457	81.75
657.661	80.75
657.865	98.75
658.068	82.75
658.272	89.75
658.476	89.75
658.68	101.75
658.883	79.75
659.087	85.75
659.291	88.75
659.494	89.75
659.698	81.75
659.901	95.75
660.105	91.75
660.309	93.75
660.512	82.75
660.716	103.75
660.919	80.75
661.123	92.75
661.326	85.75
661.53	91.75
661.733	94.75
661.936	81.75
662.14	85.75
662.343	76.75
662.546	88.75
662.75	79.75
662.953	95.75
663.156	85.75
663.36	91.75
663.563	69.75
663.766	81.75
663.969	94.75
664.173	91.75
664.376	86.75
664.579	82.75
664.782	84.75
664.985	91.75
665.188	81.75
665.391	78.75
665.594	85.75
665.797	82.75
666	79.75
666.203	73.75
666.406	85.75
666.609	94.75
666.812	93.75
667.015	83.75
667.218	77.75
667.421	73.75
667.624	81.75
667.827	86.75
668.03	89.75
668.232	72.75
668.435	89.75
668.638	88.75
668.841	81.75
669.043	83.75
669.246	93.75
669.449	89.75
669.651	104.75
669.854	80.75
670.057	89.75
670.259	77.75
670.462	76.75
670.665	77.75
670.867	81.75
671.07	80.75
671.272	81.75
671.475	93.75
671.677	87.75
671.88	91.75
672.082	82.75
672.284	91.75
672.487	100.75
672.689	79.75
672.892	80.75
