Data from Location1.07152019.Energy5.Lamp.07192019.3%Agarose_HRD10591_14-30-15-015.txt Node
Date: Fri Jul 19 14:30:15 EDT 2019
User: cochatt
Spectrometer: HR+D1059
Trigger mode: 1
Integration Time (sec): 1.000000E-1
Scans to average: 1
Electric dark correction enabled: true
Nonlinearity correction enabled: false
Boxcar width: 0
XAxis mode: Wavelengths
Number of Pixels in Spectrum: 2048
>>>>>Begin Spectral Data<<<<<
223.165	-18.94
223.4	-18.94
223.635	-18.94
223.869	-21.94
224.104	-35.94
224.338	-9.94
224.573	-9.94
224.808	-19.94
225.042	-6.94
225.277	6.06
225.511	-8.94
225.746	-13.94
225.98	6.06
226.215	15.06
226.449	25.06
226.683	21.06
226.918	36.06
227.152	37.06
227.387	26.06
227.621	31.06
227.856	48.06
228.09	45.06
228.324	54.06
228.559	50.06
228.793	61.06
229.027	68.06
229.262	70.06
229.496	56.06
229.73	58.06
229.964	74.06
230.199	60.06
230.433	69.06
230.667	70.06
230.901	63.06
231.136	73.06
231.37	78.06
231.604	76.06
231.838	62.06
232.072	90.06
232.306	81.06
232.541	78.06
232.775	77.06
233.009	68.06
233.243	83.06
233.477	90.06
233.711	81.06
233.945	83.06
234.179	95.06
234.413	82.06
234.647	87.06
234.881	63.06
235.115	78.06
235.349	77.06
235.583	71.06
235.817	90.06
236.051	86.06
236.285	76.06
236.519	60.06
236.753	75.06
236.987	74.06
237.221	77.06
237.455	69.06
237.689	85.06
237.922	83.06
238.156	69.06
238.39	78.06
238.624	77.06
238.858	77.06
239.091	82.06
239.325	66.06
239.559	77.06
239.793	67.06
240.027	76.06
240.26	76.06
240.494	63.06
240.728	70.06
240.961	71.06
241.195	68.06
241.429	77.06
241.662	94.06
241.896	78.06
242.13	70.06
242.363	86.06
242.597	67.06
242.83	81.06
243.064	88.06
243.298	73.06
243.531	72.06
243.765	72.06
243.998	75.06
244.232	86.06
244.465	85.06
244.699	63.06
244.932	78.06
245.166	81.06
245.399	98.06
245.633	83.06
245.866	80.06
246.099	85.06
246.333	90.06
246.566	68.06
246.8	70.06
247.033	83.06
247.266	93.06
247.5	84.06
247.733	72.06
247.966	77.06
248.2	74.06
248.433	60.06
248.666	71.06
248.899	70.06
249.133	83.06
249.366	77.06
249.599	70.06
249.832	66.06
250.066	87.06
250.299	84.06
250.532	74.06
250.765	78.06
250.998	79.06
251.231	80.06
251.465	74.06
251.698	84.06
251.931	73.06
252.164	94.06
252.397	70.06
252.63	80.06
252.863	71.06
253.096	83.06
253.329	78.06
253.562	81.06
253.795	78.06
254.028	81.06
254.261	87.06
254.494	84.06
254.727	86.06
254.96	87.06
255.193	89.06
255.426	79.06
255.659	78.06
255.892	95.06
256.124	84.06
256.357	87.06
256.59	92.06
256.823	79.06
257.056	94.06
257.289	86.06
257.521	95.06
257.754	76.06
257.987	71.06
258.22	93.06
258.452	94.06
258.685	74.06
258.918	80.06
259.151	76.06
259.383	74.06
259.616	74.06
259.849	81.06
260.081	71.06
260.314	91.06
260.547	86.06
260.779	78.06
261.012	85.06
261.244	78.06
261.477	88.06
261.71	78.06
261.942	75.06
262.175	96.06
262.407	80.06
262.64	80.06
262.872	78.06
263.105	71.06
263.337	81.06
263.57	88.06
263.802	82.06
264.035	77.06
264.267	83.06
264.499	77.06
264.732	76.06
264.964	89.06
265.197	78.06
265.429	81.06
265.661	78.06
265.894	77.06
266.126	66.06
266.358	81.06
266.591	79.06
266.823	77.06
267.055	85.06
267.287	83.06
267.52	79.06
267.752	95.06
267.984	88.06
268.216	79.06
268.448	87.06
268.681	99.06
268.913	82.06
269.145	79.06
269.377	99.06
269.609	76.06
269.841	90.06
270.073	76.06
270.306	79.06
270.538	83.06
270.77	67.06
271.002	92.06
271.234	80.06
271.466	73.06
271.698	79.06
271.93	81.06
272.162	96.06
272.394	83.06
272.626	86.06
272.858	80.06
273.09	87.06
273.322	83.06
273.553	84.06
273.785	81.06
274.017	74.06
274.249	89.06
274.481	87.06
274.713	91.06
274.945	82.06
275.176	84.06
275.408	92.06
275.64	84.06
275.872	87.06
276.104	86.06
276.335	95.06
276.567	84.06
276.799	84.06
277.031	80.06
277.262	78.06
277.494	84.06
277.726	83.06
277.957	77.06
278.189	80.06
278.421	91.06
278.652	84.06
278.884	89.06
279.115	89.06
279.347	91.06
279.579	86.06
279.81	93.06
280.042	89.06
280.273	89.06
280.505	84.06
280.736	87.06
280.968	75.06
281.199	79.06
281.431	80.06
281.662	83.06
281.894	86.06
282.125	79.06
282.356	83.06
282.588	74.06
282.819	76.06
283.051	70.06
283.282	66.06
283.513	92.06
283.745	68.06
283.976	76.06
284.207	74.06
284.439	92.06
284.67	85.06
284.901	65.06
285.132	84.06
285.364	75.06
285.595	90.06
285.826	88.06
286.057	75.06
286.288	81.06
286.52	76.06
286.751	68.06
286.982	103.06
287.213	81.06
287.444	87.06
287.675	80.06
287.906	87.06
288.138	94.06
288.369	99.06
288.6	82.06
288.831	91.06
289.062	95.06
289.293	90.06
289.524	86.06
289.755	85.06
289.986	70.06
290.217	79.06
290.448	86.06
290.679	88.06
290.91	82.06
291.141	80.06
291.371	80.06
291.602	73.06
291.833	90.06
292.064	85.06
292.295	96.06
292.526	76.06
292.757	96.06
292.987	76.06
293.218	78.06
293.449	73.06
293.68	75.06
293.91	93.06
294.141	79.06
294.372	84.06
294.603	88.06
294.833	84.06
295.064	86.06
295.295	90.06
295.525	88.06
295.756	88.06
295.987	86.06
296.217	79.06
296.448	78.06
296.679	81.06
296.909	84.06
297.14	97.06
297.37	89.06
297.601	91.06
297.831	79.06
298.062	84.06
298.292	68.06
298.523	99.06
298.753	79.06
298.984	87.06
299.214	101.06
299.445	92.06
299.675	93.06
299.905	93.06
300.136	79.06
300.366	70.06
300.597	78.06
300.827	86.06
301.057	87.06
301.288	92.06
301.518	83.06
301.748	83.06
301.979	75.06
302.209	80.06
302.439	79.06
302.669	80.06
302.9	82.06
303.13	93.06
303.36	76.06
303.59	82.06
303.82	78.06
304.051	84.06
304.281	90.06
304.511	81.06
304.741	95.06
304.971	80.06
305.201	81.06
305.431	88.06
305.661	71.06
305.891	90.06
306.121	77.06
306.352	86.06
306.582	79.06
306.812	88.06
307.042	79.06
307.272	96.06
307.502	102.06
307.731	94.06
307.961	86.06
308.191	84.06
308.421	73.06
308.651	93.06
308.881	84.06
309.111	81.06
309.341	76.06
309.571	79.06
309.8	72.06
310.03	90.06
310.26	94.06
310.49	85.06
310.72	98.06
310.949	74.06
311.179	99.06
311.409	90.06
311.639	75.06
311.868	93.06
312.098	91.06
312.328	76.06
312.557	81.06
312.787	90.06
313.017	92.06
313.246	95.06
313.476	84.06
313.706	72.06
313.935	78.06
314.165	94.06
314.394	75.06
314.624	94.06
314.853	73.06
315.083	91.06
315.312	87.06
315.542	72.06
315.771	83.06
316.001	80.06
316.23	85.06
316.46	81.06
316.689	98.06
316.919	81.06
317.148	71.06
317.377	73.06
317.607	79.06
317.836	89.06
318.065	94.06
318.295	79.06
318.524	75.06
318.753	71.06
318.983	79.06
319.212	74.06
319.441	92.06
319.67	76.06
319.9	94.06
320.129	85.06
320.358	91.06
320.587	87.06
320.816	85.06
321.046	92.06
321.275	90.06
321.504	82.06
321.733	95.06
321.962	80.06
322.191	83.06
322.42	70.06
322.649	94.06
322.878	80.06
323.108	89.06
323.337	90.06
323.566	75.06
323.795	71.06
324.024	88.06
324.253	99.06
324.482	80.06
324.71	86.06
324.939	86.06
325.168	81.06
325.397	92.06
325.626	91.06
325.855	83.06
326.084	86.06
326.313	84.06
326.542	69.06
326.77	66.06
326.999	78.06
327.228	93.06
327.457	86.06
327.686	90.06
327.914	77.06
328.143	82.06
328.372	75.06
328.6	84.06
328.829	77.06
329.058	91.06
329.287	61.06
329.515	74.06
329.744	90.06
329.972	86.06
330.201	80.06
330.43	86.06
330.658	83.06
330.887	78.06
331.115	86.06
331.344	85.06
331.572	92.06
331.801	90.06
332.03	73.06
332.258	75.06
332.486	74.06
332.715	79.06
332.943	89.06
333.172	81.06
333.4	74.06
333.629	91.06
333.857	66.06
334.085	87.06
334.314	84.06
334.542	85.06
334.771	86.06
334.999	73.06
335.227	79.06
335.455	80.06
335.684	80.06
335.912	77.06
336.14	77.06
336.369	78.06
336.597	80.06
336.825	99.06
337.053	74.06
337.281	86.06
337.51	73.06
337.738	84.06
337.966	74.06
338.194	77.06
338.422	87.06
338.65	80.06
338.878	99.06
339.106	86.06
339.334	87.06
339.562	96.06
339.79	74.06
340.018	88.06
340.246	75.06
340.474	89.06
340.702	81.06
340.93	84.06
341.158	69.06
341.386	71.06
341.614	75.06
341.842	95.06
342.07	92.06
342.298	90.06
342.526	79.06
342.754	80.06
342.981	80.06
343.209	83.06
343.437	86.06
343.665	101.06
343.893	83.06
344.12	88.06
344.348	84.06
344.576	87.06
344.804	85.06
345.031	83.06
345.259	66.06
345.487	92.06
345.714	84.06
345.942	82.06
346.17	96.06
346.397	103.06
346.625	88.06
346.853	87.06
347.08	74.06
347.308	97.06
347.535	92.06
347.763	87.06
347.99	85.06
348.218	83.06
348.445	77.06
348.673	86.06
348.9	79.06
349.128	90.06
349.355	89.06
349.583	76.06
349.81	75.06
350.037	86.06
350.265	81.06
350.492	70.06
350.72	89.06
350.947	95.06
351.174	87.06
351.402	83.06
351.629	74.06
351.856	74.06
352.083	85.06
352.311	83.06
352.538	84.06
352.765	90.06
352.992	76.06
353.22	92.06
353.447	75.06
353.674	86.06
353.901	83.06
354.128	87.06
354.355	92.06
354.583	84.06
354.81	83.06
355.037	94.06
355.264	89.06
355.491	83.06
355.718	78.06
355.945	98.06
356.172	95.06
356.399	79.06
356.626	83.06
356.853	89.06
357.08	78.06
357.307	89.06
357.534	78.06
357.761	78.06
357.988	91.06
358.215	92.06
358.441	78.06
358.668	81.06
358.895	74.06
359.122	82.06
359.349	87.06
359.576	79.06
359.802	86.06
360.029	88.06
360.256	85.06
360.483	63.06
360.709	85.06
360.936	90.06
361.163	81.06
361.39	78.06
361.616	88.06
361.843	83.06
362.07	99.06
362.296	86.06
362.523	72.06
362.749	77.06
362.976	90.06
363.203	88.06
363.429	77.06
363.656	92.06
363.882	87.06
364.109	87.06
364.335	91.06
364.562	94.06
364.788	79.06
365.015	86.06
365.241	84.06
365.468	91.06
365.694	92.06
365.92	89.06
366.147	67.06
366.373	81.06
366.599	94.06
366.826	76.06
367.052	70.06
367.278	73.06
367.505	86.06
367.731	92.06
367.957	100.06
368.184	104.06
368.41	91.06
368.636	98.06
368.862	94.06
369.089	103.06
369.315	86.06
369.541	84.06
369.767	104.06
369.993	100.06
370.219	90.06
370.445	103.06
370.672	90.06
370.898	85.06
371.124	83.06
371.35	77.06
371.576	101.06
371.802	86.06
372.028	92.06
372.254	98.06
372.48	75.06
372.706	89.06
372.932	83.06
373.158	106.06
373.384	86.06
373.61	88.06
373.835	83.06
374.061	91.06
374.287	81.06
374.513	95.06
374.739	88.06
374.965	75.06
375.191	82.06
375.416	95.06
375.642	93.06
375.868	89.06
376.094	84.06
376.319	88.06
376.545	78.06
376.771	81.06
376.997	94.06
377.222	96.06
377.448	86.06
377.674	79.06
377.899	86.06
378.125	103.06
378.35	106.06
378.576	92.06
378.802	99.06
379.027	99.06
379.253	99.06
379.478	95.06
379.704	93.06
379.929	95.06
380.155	92.06
380.38	101.06
380.606	99.06
380.831	92.06
381.057	88.06
381.282	99.06
381.507	108.06
381.733	100.06
381.958	101.06
382.184	101.06
382.409	101.06
382.634	98.06
382.86	79.06
383.085	106.06
383.31	88.06
383.535	96.06
383.761	107.06
383.986	94.06
384.211	118.06
384.436	103.06
384.662	104.06
384.887	92.06
385.112	92.06
385.337	94.06
385.562	90.06
385.787	98.06
386.013	97.06
386.238	98.06
386.463	104.06
386.688	104.06
386.913	108.06
387.138	92.06
387.363	84.06
387.588	121.06
387.813	106.06
388.038	101.06
388.263	98.06
388.488	104.06
388.713	98.06
388.938	110.06
389.163	93.06
389.387	102.06
389.612	91.06
389.837	95.06
390.062	99.06
390.287	109.06
390.512	109.06
390.736	95.06
390.961	104.06
391.186	79.06
391.411	119.06
391.636	102.06
391.86	100.06
392.085	106.06
392.31	105.06
392.534	119.06
392.759	111.06
392.984	102.06
393.208	98.06
393.433	123.06
393.658	101.06
393.882	107.06
394.107	103.06
394.331	115.06
394.556	105.06
394.78	129.06
395.005	103.06
395.229	100.06
395.454	107.06
395.678	106.06
395.903	99.06
396.127	101.06
396.352	92.06
396.576	100.06
396.801	126.06
397.025	124.06
397.249	108.06
397.474	95.06
397.698	117.06
397.922	110.06
398.147	111.06
398.371	99.06
398.595	106.06
398.82	101.06
399.044	93.06
399.268	106.06
399.492	116.06
399.717	115.06
399.941	121.06
400.165	107.06
400.389	105.06
400.613	105.06
400.837	110.06
401.062	114.06
401.286	98.06
401.51	108.06
401.734	114.06
401.958	108.06
402.182	103.06
402.406	105.06
402.63	116.06
402.854	120.06
403.078	111.06
403.302	101.06
403.526	124.06
403.75	114.06
403.974	111.06
404.198	106.06
404.422	126.06
404.645	114.06
404.869	127.06
405.093	114.06
405.317	111.06
405.541	124.06
405.765	114.06
405.988	117.06
406.212	119.06
406.436	128.06
406.66	127.06
406.883	123.06
407.107	125.06
407.331	110.06
407.555	116.06
407.778	124.06
408.002	128.06
408.226	122.06
408.449	108.06
408.673	116.06
408.896	110.06
409.12	105.06
409.344	115.06
409.567	120.06
409.791	117.06
410.014	130.06
410.238	121.06
410.461	127.06
410.685	117.06
410.908	122.06
411.132	114.06
411.355	118.06
411.578	115.06
411.802	103.06
412.025	122.06
412.249	119.06
412.472	115.06
412.695	115.06
412.919	108.06
413.142	128.06
413.365	130.06
413.589	128.06
413.812	122.06
414.035	118.06
414.258	117.06
414.482	123.06
414.705	134.06
414.928	128.06
415.151	120.06
415.374	121.06
415.597	107.06
415.821	111.06
416.044	119.06
416.267	111.06
416.49	138.06
416.713	127.06
416.936	119.06
417.159	126.06
417.382	114.06
417.605	120.06
417.828	121.06
418.051	126.06
418.274	129.06
418.497	153.06
418.72	126.06
418.943	126.06
419.166	140.06
419.389	152.06
419.611	136.06
419.834	133.06
420.057	127.06
420.28	131.06
420.503	118.06
420.726	126.06
420.948	116.06
421.171	123.06
421.394	141.06
421.617	141.06
421.839	143.06
422.062	151.06
422.285	138.06
422.507	121.06
422.73	128.06
422.953	120.06
423.175	119.06
423.398	121.06
423.621	141.06
423.843	117.06
424.066	127.06
424.288	138.06
424.511	140.06
424.733	148.06
424.956	142.06
425.178	118.06
425.401	127.06
425.623	130.06
425.846	145.06
426.068	113.06
426.291	110.06
426.513	111.06
426.735	131.06
426.958	131.06
427.18	125.06
427.402	130.06
427.625	118.06
427.847	133.06
428.069	135.06
428.292	116.06
428.514	121.06
428.736	132.06
428.958	124.06
429.181	136.06
429.403	120.06
429.625	130.06
429.847	125.06
430.069	130.06
430.292	127.06
430.514	122.06
430.736	126.06
430.958	121.06
431.18	125.06
431.402	120.06
431.624	112.06
431.846	120.06
432.068	88.06
432.29	104.06
432.512	104.06
432.734	124.06
432.956	124.06
433.178	129.06
433.4	143.06
433.622	128.06
433.844	139.06
434.066	119.06
434.287	95.06
434.509	99.06
434.731	95.06
434.953	97.06
435.175	124.06
435.397	128.06
435.618	113.06
435.84	107.06
436.062	120.06
436.284	126.06
436.505	111.06
436.727	128.06
436.949	131.06
437.17	132.06
437.392	129.06
437.614	128.06
437.835	107.06
438.057	101.06
438.278	127.06
438.5	124.06
438.721	139.06
438.943	146.06
439.165	146.06
439.386	139.06
439.608	128.06
439.829	136.06
440.05	139.06
440.272	134.06
440.493	153.06
440.715	157.06
440.936	134.06
441.158	144.06
441.379	131.06
441.6	146.06
441.822	137.06
442.043	151.06
442.264	130.06
442.486	149.06
442.707	148.06
442.928	130.06
443.149	129.06
443.371	125.06
443.592	120.06
443.813	135.06
444.034	144.06
444.255	151.06
444.476	142.06
444.698	136.06
444.919	137.06
445.14	280.06
445.361	199.06
445.582	143.06
445.803	150.06
446.024	141.06
446.245	138.06
446.466	148.06
446.687	163.06
446.908	165.06
447.129	158.06
447.35	141.06
447.571	160.06
447.792	166.06
448.013	128.06
448.234	137.06
448.455	142.06
448.675	159.06
448.896	140.06
449.117	142.06
449.338	141.06
449.559	141.06
449.779	114.06
450	134.06
450.221	142.06
450.442	134.06
450.662	127.06
450.883	125.06
451.104	131.06
451.324	118.06
451.545	141.06
451.766	144.06
451.986	131.06
452.207	119.06
452.428	132.06
452.648	119.06
452.869	118.06
453.089	109.06
453.31	108.06
453.53	105.06
453.751	100.06
453.971	98.06
454.192	113.06
454.412	106.06
454.633	108.06
454.853	123.06
455.073	122.06
455.294	125.06
455.514	105.06
455.734	126.06
455.955	131.06
456.175	104.06
456.395	111.06
456.616	107.06
456.836	106.06
457.056	118.06
457.276	110.06
457.497	118.06
457.717	108.06
457.937	107.06
458.157	104.06
458.377	108.06
458.598	102.06
458.818	104.06
459.038	101.06
459.258	86.06
459.478	80.06
459.698	90.06
459.918	87.06
460.138	105.06
460.358	112.06
460.578	106.06
460.798	109.06
461.018	125.06
461.238	114.06
461.458	120.06
461.678	116.06
461.898	100.06
462.118	99.06
462.338	102.06
462.558	118.06
462.777	100.06
462.997	106.06
463.217	119.06
463.437	118.06
463.657	106.06
463.876	92.06
464.096	104.06
464.316	106.06
464.536	101.06
464.755	112.06
464.975	126.06
465.195	117.06
465.414	128.06
465.634	121.06
465.854	120.06
466.073	119.06
466.293	110.06
466.512	127.06
466.732	130.06
466.951	124.06
467.171	133.06
467.391	126.06
467.61	149.06
467.829	131.06
468.049	124.06
468.268	125.06
468.488	120.06
468.707	133.06
468.927	132.06
469.146	143.06
469.365	134.06
469.585	136.06
469.804	125.06
470.023	136.06
470.243	138.06
470.462	139.06
470.681	139.06
470.901	141.06
471.12	140.06
471.339	139.06
471.558	130.06
471.777	142.06
471.997	130.06
472.216	133.06
472.435	138.06
472.654	126.06
472.873	109.06
473.092	111.06
473.311	104.06
473.53	126.06
473.749	119.06
473.968	125.06
474.187	123.06
474.406	122.06
474.625	142.06
474.844	126.06
475.063	127.06
475.282	132.06
475.501	130.06
475.72	128.06
475.939	121.06
476.158	118.06
476.377	127.06
476.596	122.06
476.814	116.06
477.033	120.06
477.252	110.06
477.471	122.06
477.69	133.06
477.908	136.06
478.127	150.06
478.346	126.06
478.564	127.06
478.783	124.06
479.002	130.06
479.22	149.06
479.439	126.06
479.658	108.06
479.876	99.06
480.095	100.06
480.313	119.06
480.532	126.06
480.751	111.06
480.969	96.06
481.188	86.06
481.406	77.06
481.624	81.06
481.843	94.06
482.061	97.06
482.28	114.06
482.498	118.06
482.717	114.06
482.935	125.06
483.153	142.06
483.372	126.06
483.59	129.06
483.808	125.06
484.027	125.06
484.245	134.06
484.463	148.06
484.681	148.06
484.9	158.06
485.118	145.06
485.336	114.06
485.554	126.06
485.772	99.06
485.99	107.06
486.209	96.06
486.427	109.06
486.645	122.06
486.863	146.06
487.081	140.06
487.299	139.06
487.517	135.06
487.735	167.06
487.953	187.06
488.171	180.06
488.389	174.06
488.607	164.06
488.825	151.06
489.043	128.06
489.261	128.06
489.479	118.06
489.696	131.06
489.914	122.06
490.132	139.06
490.35	148.06
490.568	158.06
490.786	156.06
491.003	176.06
491.221	176.06
491.439	194.06
491.657	188.06
491.874	194.06
492.092	207.06
492.31	249.06
492.527	225.06
492.745	214.06
492.963	192.06
493.18	172.06
493.398	184.06
493.615	177.06
493.833	167.06
494.05	168.06
494.268	183.06
494.485	170.06
494.703	178.06
494.92	167.06
495.138	178.06
495.355	179.06
495.573	178.06
495.79	177.06
496.008	166.06
496.225	180.06
496.442	163.06
496.66	175.06
496.877	160.06
497.094	139.06
497.312	157.06
497.529	158.06
497.746	153.06
497.963	146.06
498.181	127.06
498.398	125.06
498.615	121.06
498.832	122.06
499.049	116.06
499.267	129.06
499.484	116.06
499.701	130.06
499.918	136.06
500.135	134.06
500.352	155.06
500.569	140.06
500.786	143.06
501.003	130.06
501.22	123.06
501.437	123.06
501.654	139.06
501.871	132.06
502.088	139.06
502.305	131.06
502.522	130.06
502.739	124.06
502.956	139.06
503.172	124.06
503.389	115.06
503.606	128.06
503.823	114.06
504.04	106.06
504.256	116.06
504.473	114.06
504.69	110.06
504.907	116.06
505.123	114.06
505.34	118.06
505.557	124.06
505.773	118.06
505.99	132.06
506.207	126.06
506.423	121.06
506.64	124.06
506.856	108.06
507.073	128.06
507.289	134.06
507.506	123.06
507.722	124.06
507.939	124.06
508.155	127.06
508.372	128.06
508.588	124.06
508.805	117.06
509.021	114.06
509.238	105.06
509.454	120.06
509.67	88.06
509.887	95.06
510.103	84.06
510.319	84.06
510.536	98.06
510.752	93.06
510.968	96.06
511.184	76.06
511.401	74.06
511.617	77.06
511.833	79.06
512.049	73.06
512.265	86.06
512.481	88.06
512.698	102.06
512.914	105.06
513.13	98.06
513.346	79.06
513.562	86.06
513.778	95.06
513.994	98.06
514.21	104.06
514.426	91.06
514.642	72.06
514.858	91.06
515.074	88.06
515.29	100.06
515.506	85.06
515.721	93.06
515.937	95.06
516.153	79.06
516.369	80.06
516.585	81.06
516.801	91.06
517.016	88.06
517.232	93.06
517.448	90.06
517.664	100.06
517.879	105.06
518.095	82.06
518.311	105.06
518.527	98.06
518.742	90.06
518.958	85.06
519.173	99.06
519.389	101.06
519.605	105.06
519.82	119.06
520.036	125.06
520.251	107.06
520.467	104.06
520.682	94.06
520.898	99.06
521.113	95.06
521.329	90.06
521.544	95.06
521.76	90.06
521.975	91.06
522.19	106.06
522.406	99.06
522.621	95.06
522.836	101.06
523.052	118.06
523.267	110.06
523.482	108.06
523.698	109.06
523.913	110.06
524.128	119.06
524.343	121.06
524.559	116.06
524.774	104.06
524.989	126.06
525.204	116.06
525.419	120.06
525.634	109.06
525.849	116.06
526.064	105.06
526.28	111.06
526.495	95.06
526.71	92.06
526.925	71.06
527.14	75.06
527.355	80.06
527.57	83.06
527.785	90.06
527.999	99.06
528.214	109.06
528.429	108.06
528.644	120.06
528.859	138.06
529.074	150.06
529.289	148.06
529.503	145.06
529.718	127.06
529.933	110.06
530.148	98.06
530.363	103.06
530.577	69.06
530.792	92.06
531.007	95.06
531.221	66.06
531.436	84.06
531.651	85.06
531.865	88.06
532.08	85.06
532.295	89.06
532.509	81.06
532.724	81.06
532.938	95.06
533.153	103.06
533.367	105.06
533.582	119.06
533.796	121.06
534.011	111.06
534.225	99.06
534.44	95.06
534.654	101.06
534.868	92.06
535.083	103.06
535.297	90.06
535.511	103.06
535.726	110.06
535.94	95.06
536.154	112.06
536.369	89.06
536.583	84.06
536.797	90.06
537.011	99.06
537.225	89.06
537.44	96.06
537.654	96.06
537.868	84.06
538.082	94.06
538.296	100.06
538.51	121.06
538.724	92.06
538.938	116.06
539.153	126.06
539.367	125.06
539.581	101.06
539.795	108.06
540.009	92.06
540.222	99.06
540.436	100.06
540.65	117.06
540.864	134.06
541.078	132.06
541.292	133.06
541.506	153.06
541.72	176.06
541.934	175.06
542.147	180.06
542.361	190.06
542.575	154.06
542.789	136.06
543.002	127.06
543.216	112.06
543.43	126.06
543.644	154.06
543.857	148.06
544.071	151.06
544.285	157.06
544.498	135.06
544.712	145.06
544.925	157.06
545.139	154.06
545.352	170.06
545.566	161.06
545.779	158.06
545.993	154.06
546.206	158.06
546.42	170.06
546.633	149.06
546.847	139.06
547.06	168.06
547.274	164.06
547.487	176.06
547.7	166.06
547.914	158.06
548.127	148.06
548.34	163.06
548.554	150.06
548.767	166.06
548.98	160.06
549.193	156.06
549.407	152.06
549.62	153.06
549.833	149.06
550.046	142.06
550.259	147.06
550.473	135.06
550.686	155.06
550.899	154.06
551.112	166.06
551.325	147.06
551.538	132.06
551.751	122.06
551.964	130.06
552.177	110.06
552.39	130.06
552.603	148.06
552.816	140.06
553.029	145.06
553.242	152.06
553.455	144.06
553.667	162.06
553.88	138.06
554.093	146.06
554.306	164.06
554.519	131.06
554.732	160.06
554.944	148.06
555.157	132.06
555.37	151.06
555.583	152.06
555.795	143.06
556.008	126.06
556.221	121.06
556.433	128.06
556.646	130.06
556.859	134.06
557.071	145.06
557.284	124.06
557.496	145.06
557.709	146.06
557.921	154.06
558.134	128.06
558.346	126.06
558.559	142.06
558.771	133.06
558.984	127.06
559.196	134.06
559.409	126.06
559.621	123.06
559.833	124.06
560.046	125.06
560.258	126.06
560.47	124.06
560.683	140.06
560.895	126.06
561.107	115.06
561.32	118.06
561.532	118.06
561.744	121.06
561.956	136.06
562.168	135.06
562.381	135.06
562.593	121.06
562.805	132.06
563.017	120.06
563.229	121.06
563.441	117.06
563.653	115.06
563.865	118.06
564.077	124.06
564.289	121.06
564.501	126.06
564.713	126.06
564.925	108.06
565.137	115.06
565.349	110.06
565.561	125.06
565.773	130.06
565.985	98.06
566.197	95.06
566.408	112.06
566.62	118.06
566.832	101.06
567.044	120.06
567.255	112.06
567.467	103.06
567.679	106.06
567.891	107.06
568.102	118.06
568.314	93.06
568.526	90.06
568.737	103.06
568.949	86.06
569.161	78.06
569.372	82.06
569.584	70.06
569.795	83.06
570.007	87.06
570.218	88.06
570.43	86.06
570.641	100.06
570.853	104.06
571.064	93.06
571.276	95.06
571.487	106.06
571.698	99.06
571.91	98.06
572.121	94.06
572.333	115.06
572.544	102.06
572.755	87.06
572.966	98.06
573.178	95.06
573.389	94.06
573.6	95.06
573.811	84.06
574.023	75.06
574.234	82.06
574.445	89.06
574.656	90.06
574.867	102.06
575.078	107.06
575.289	82.06
575.501	115.06
575.712	103.06
575.923	96.06
576.134	93.06
576.345	91.06
576.556	105.06
576.767	99.06
576.978	97.06
577.188	103.06
577.399	105.06
577.61	93.06
577.821	96.06
578.032	92.06
578.243	89.06
578.454	101.06
578.665	90.06
578.875	79.06
579.086	88.06
579.297	82.06
579.508	75.06
579.718	85.06
579.929	72.06
580.14	86.06
580.35	87.06
580.561	91.06
580.772	93.06
580.982	94.06
581.193	105.06
581.403	96.06
581.614	92.06
581.825	92.06
582.035	100.06
582.246	85.06
582.456	80.06
582.667	78.06
582.877	103.06
583.087	89.06
583.298	93.06
583.508	103.06
583.719	102.06
583.929	89.06
584.139	63.06
584.35	74.06
584.56	76.06
584.77	95.06
584.981	82.06
585.191	88.06
585.401	88.06
585.611	80.06
585.821	101.06
586.032	98.06
586.242	81.06
586.452	95.06
586.662	87.06
586.872	98.06
587.082	96.06
587.292	90.06
587.502	88.06
587.713	91.06
587.923	86.06
588.133	82.06
588.343	94.06
588.553	72.06
588.762	86.06
588.972	79.06
589.182	72.06
589.392	74.06
589.602	77.06
589.812	91.06
590.022	95.06
590.232	88.06
590.441	99.06
590.651	78.06
590.861	73.06
591.071	78.06
591.281	95.06
591.49	71.06
591.7	81.06
591.91	89.06
592.119	84.06
592.329	88.06
592.539	83.06
592.748	80.06
592.958	99.06
593.167	81.06
593.377	76.06
593.587	87.06
593.796	64.06
594.006	98.06
594.215	88.06
594.424	76.06
594.634	87.06
594.843	92.06
595.053	94.06
595.262	98.06
595.472	101.06
595.681	86.06
595.89	88.06
596.1	97.06
596.309	86.06
596.518	92.06
596.727	96.06
596.937	98.06
597.146	97.06
597.355	99.06
597.564	77.06
597.774	96.06
597.983	95.06
598.192	61.06
598.401	86.06
598.61	77.06
598.819	83.06
599.028	84.06
599.237	83.06
599.446	82.06
599.655	93.06
599.864	92.06
600.073	91.06
600.282	99.06
600.491	94.06
600.7	95.06
600.909	98.06
601.118	95.06
601.327	118.06
601.536	103.06
601.745	107.06
601.953	102.06
602.162	123.06
602.371	96.06
602.58	97.06
602.789	109.06
602.997	100.06
603.206	117.06
603.415	103.06
603.623	116.06
603.832	98.06
604.041	106.06
604.249	112.06
604.458	98.06
604.666	92.06
604.875	103.06
605.084	93.06
605.292	106.06
605.501	88.06
605.709	111.06
605.918	92.06
606.126	109.06
606.334	107.06
606.543	117.06
606.751	111.06
606.96	94.06
607.168	118.06
607.376	109.06
607.585	105.06
607.793	98.06
608.001	103.06
608.21	103.06
608.418	104.06
608.626	119.06
608.834	121.06
609.043	107.06
609.251	95.06
609.459	110.06
609.667	113.06
609.875	114.06
610.083	106.06
610.291	119.06
610.499	122.06
610.707	103.06
610.916	114.06
611.124	111.06
611.332	113.06
611.54	116.06
611.748	124.06
611.955	122.06
612.163	118.06
612.371	108.06
612.579	116.06
612.787	124.06
612.995	119.06
613.203	106.06
613.411	105.06
613.618	115.06
613.826	126.06
614.034	106.06
614.242	112.06
614.449	108.06
614.657	110.06
614.865	116.06
615.072	116.06
615.28	98.06
615.488	116.06
615.695	120.06
615.903	111.06
616.111	102.06
616.318	123.06
616.526	107.06
616.733	111.06
616.941	108.06
617.148	127.06
617.356	111.06
617.563	111.06
617.771	123.06
617.978	110.06
618.185	99.06
618.393	102.06
618.6	105.06
618.807	115.06
619.015	121.06
619.222	111.06
619.429	107.06
619.637	109.06
619.844	112.06
620.051	116.06
620.258	87.06
620.466	108.06
620.673	109.06
620.88	105.06
621.087	116.06
621.294	91.06
621.501	105.06
621.708	99.06
621.915	125.06
622.122	112.06
622.329	118.06
622.536	104.06
622.743	118.06
622.95	107.06
623.157	87.06
623.364	103.06
623.571	114.06
623.778	115.06
623.985	112.06
624.192	114.06
624.399	116.06
624.606	110.06
624.812	110.06
625.019	119.06
625.226	110.06
625.433	93.06
625.639	100.06
625.846	96.06
626.053	97.06
626.259	84.06
626.466	93.06
626.673	100.06
626.879	100.06
627.086	108.06
627.293	93.06
627.499	110.06
627.706	110.06
627.912	121.06
628.119	109.06
628.325	111.06
628.532	116.06
628.738	102.06
628.945	102.06
629.151	103.06
629.357	111.06
629.564	109.06
629.77	81.06
629.976	100.06
630.183	102.06
630.389	106.06
630.595	102.06
630.802	86.06
631.008	109.06
631.214	102.06
631.42	109.06
631.627	102.06
631.833	111.06
632.039	109.06
632.245	96.06
632.451	101.06
632.657	104.06
632.863	99.06
633.069	98.06
633.275	103.06
633.481	110.06
633.688	104.06
633.893	121.06
634.099	99.06
634.305	97.06
634.511	107.06
634.717	112.06
634.923	90.06
635.129	89.06
635.335	90.06
635.541	93.06
635.747	103.06
635.952	89.06
636.158	92.06
636.364	107.06
636.57	99.06
636.775	86.06
636.981	96.06
637.187	102.06
637.392	101.06
637.598	101.06
637.804	98.06
638.009	99.06
638.215	92.06
638.421	93.06
638.626	127.06
638.832	108.06
639.037	105.06
639.243	112.06
639.448	97.06
639.654	101.06
639.859	103.06
640.065	90.06
640.27	108.06
640.475	102.06
640.681	102.06
640.886	96.06
641.091	84.06
641.297	105.06
641.502	105.06
641.707	95.06
641.913	99.06
642.118	106.06
642.323	104.06
642.528	100.06
642.733	120.06
642.939	94.06
643.144	103.06
643.349	101.06
643.554	110.06
643.759	71.06
643.964	99.06
644.169	88.06
644.374	94.06
644.579	97.06
644.784	98.06
644.989	91.06
645.194	106.06
645.399	95.06
645.604	114.06
645.809	98.06
646.014	95.06
646.219	98.06
646.423	96.06
646.628	111.06
646.833	99.06
647.038	99.06
647.243	100.06
647.447	98.06
647.652	92.06
647.857	96.06
648.062	102.06
648.266	88.06
648.471	101.06
648.676	112.06
648.88	97.06
649.085	106.06
649.289	98.06
649.494	102.06
649.698	101.06
649.903	93.06
650.107	87.06
650.312	102.06
650.516	110.06
650.721	90.06
650.925	100.06
651.13	99.06
651.334	92.06
651.539	102.06
651.743	109.06
651.947	96.06
652.152	98.06
652.356	98.06
652.56	97.06
652.764	87.06
652.969	107.06
653.173	92.06
653.377	98.06
653.581	104.06
653.785	87.06
653.99	90.06
654.194	90.06
654.398	95.06
654.602	84.06
654.806	101.06
655.01	90.06
655.214	94.06
655.418	85.06
655.622	83.06
655.826	91.06
656.03	93.06
656.234	85.06
656.438	81.06
656.642	92.06
656.846	94.06
657.049	95.06
657.253	92.06
657.457	88.06
657.661	87.06
657.865	85.06
658.068	78.06
658.272	89.06
658.476	89.06
658.68	92.06
658.883	78.06
659.087	79.06
659.291	91.06
659.494	86.06
659.698	85.06
659.901	85.06
660.105	79.06
660.309	80.06
660.512	80.06
660.716	88.06
660.919	79.06
661.123	92.06
661.326	83.06
661.53	88.06
661.733	85.06
661.936	84.06
662.14	64.06
662.343	81.06
662.546	81.06
662.75	99.06
662.953	73.06
663.156	85.06
663.36	78.06
663.563	91.06
663.766	85.06
663.969	72.06
664.173	87.06
664.376	91.06
664.579	89.06
664.782	80.06
664.985	92.06
665.188	75.06
665.391	92.06
665.594	70.06
665.797	73.06
666	85.06
666.203	79.06
666.406	77.06
666.609	79.06
666.812	72.06
667.015	85.06
667.218	89.06
667.421	80.06
667.624	82.06
667.827	71.06
668.03	83.06
668.232	84.06
668.435	86.06
668.638	80.06
668.841	69.06
669.043	93.06
669.246	87.06
669.449	74.06
669.651	79.06
669.854	80.06
670.057	83.06
670.259	86.06
670.462	96.06
670.665	79.06
670.867	88.06
671.07	90.06
671.272	73.06
671.475	82.06
671.677	66.06
671.88	85.06
672.082	80.06
672.284	84.06
672.487	78.06
672.689	86.06
672.892	92.06
