Data from Location1.07152019.Energy5.Lamp.07192019.3%Agarose_HRD10591_14-33-07-016.txt Node
Date: Fri Jul 19 14:33:07 EDT 2019
User: cochatt
Spectrometer: HR+D1059
Trigger mode: 1
Integration Time (sec): 1.000000E-1
Scans to average: 1
Electric dark correction enabled: true
Nonlinearity correction enabled: false
Boxcar width: 0
XAxis mode: Wavelengths
Number of Pixels in Spectrum: 2048
>>>>>Begin Spectral Data<<<<<
223.165	-3.62
223.4	-3.62
223.635	-3.62
223.869	-21.62
224.104	-8.62
224.338	-6.62
224.573	-16.62
224.808	-13.62
225.042	-16.62
225.277	-8.62
225.511	-20.62
225.746	13.38
225.98	14.38
226.215	22.38
226.449	19.38
226.683	12.38
226.918	13.38
227.152	21.38
227.387	38.38
227.621	23.38
227.856	45.38
228.09	53.38
228.324	53.38
228.559	60.38
228.793	64.38
229.027	54.38
229.262	73.38
229.496	71.38
229.73	62.38
229.964	81.38
230.199	75.38
230.433	69.38
230.667	78.38
230.901	79.38
231.136	75.38
231.37	83.38
231.604	81.38
231.838	86.38
232.072	74.38
232.306	82.38
232.541	84.38
232.775	85.38
233.009	83.38
233.243	102.38
233.477	89.38
233.711	82.38
233.945	98.38
234.179	86.38
234.413	81.38
234.647	90.38
234.881	102.38
235.115	91.38
235.349	85.38
235.583	91.38
235.817	78.38
236.051	76.38
236.285	76.38
236.519	79.38
236.753	80.38
236.987	81.38
237.221	66.38
237.455	79.38
237.689	80.38
237.922	83.38
238.156	75.38
238.39	99.38
238.624	87.38
238.858	80.38
239.091	69.38
239.325	82.38
239.559	81.38
239.793	84.38
240.027	86.38
240.26	81.38
240.494	83.38
240.728	79.38
240.961	87.38
241.195	73.38
241.429	66.38
241.662	84.38
241.896	77.38
242.13	71.38
242.363	82.38
242.597	75.38
242.83	85.38
243.064	74.38
243.298	79.38
243.531	95.38
243.765	67.38
243.998	80.38
244.232	74.38
244.465	66.38
244.699	75.38
244.932	88.38
245.166	82.38
245.399	85.38
245.633	85.38
245.866	83.38
246.099	74.38
246.333	83.38
246.566	85.38
246.8	72.38
247.033	68.38
247.266	73.38
247.5	70.38
247.733	77.38
247.966	91.38
248.2	77.38
248.433	83.38
248.666	91.38
248.899	80.38
249.133	67.38
249.366	77.38
249.599	98.38
249.832	89.38
250.066	93.38
250.299	75.38
250.532	86.38
250.765	95.38
250.998	77.38
251.231	79.38
251.465	88.38
251.698	98.38
251.931	82.38
252.164	74.38
252.397	70.38
252.63	85.38
252.863	79.38
253.096	80.38
253.329	85.38
253.562	91.38
253.795	70.38
254.028	91.38
254.261	94.38
254.494	75.38
254.727	87.38
254.96	88.38
255.193	70.38
255.426	87.38
255.659	77.38
255.892	71.38
256.124	84.38
256.357	79.38
256.59	75.38
256.823	70.38
257.056	80.38
257.289	79.38
257.521	83.38
257.754	85.38
257.987	89.38
258.22	96.38
258.452	75.38
258.685	88.38
258.918	86.38
259.151	67.38
259.383	98.38
259.616	86.38
259.849	82.38
260.081	92.38
260.314	98.38
260.547	64.38
260.779	66.38
261.012	77.38
261.244	84.38
261.477	97.38
261.71	83.38
261.942	88.38
262.175	82.38
262.407	77.38
262.64	82.38
262.872	85.38
263.105	101.38
263.337	86.38
263.57	89.38
263.802	81.38
264.035	80.38
264.267	90.38
264.499	63.38
264.732	75.38
264.964	72.38
265.197	78.38
265.429	81.38
265.661	90.38
265.894	88.38
266.126	102.38
266.358	93.38
266.591	80.38
266.823	82.38
267.055	100.38
267.287	85.38
267.52	84.38
267.752	83.38
267.984	86.38
268.216	88.38
268.448	96.38
268.681	79.38
268.913	81.38
269.145	89.38
269.377	92.38
269.609	81.38
269.841	82.38
270.073	93.38
270.306	87.38
270.538	80.38
270.77	90.38
271.002	91.38
271.234	85.38
271.466	84.38
271.698	103.38
271.93	94.38
272.162	81.38
272.394	85.38
272.626	80.38
272.858	89.38
273.09	81.38
273.322	80.38
273.553	91.38
273.785	80.38
274.017	88.38
274.249	91.38
274.481	93.38
274.713	76.38
274.945	96.38
275.176	93.38
275.408	97.38
275.64	86.38
275.872	87.38
276.104	101.38
276.335	74.38
276.567	74.38
276.799	88.38
277.031	84.38
277.262	79.38
277.494	91.38
277.726	78.38
277.957	73.38
278.189	76.38
278.421	83.38
278.652	100.38
278.884	89.38
279.115	89.38
279.347	82.38
279.579	78.38
279.81	87.38
280.042	80.38
280.273	87.38
280.505	73.38
280.736	87.38
280.968	74.38
281.199	90.38
281.431	85.38
281.662	86.38
281.894	91.38
282.125	89.38
282.356	83.38
282.588	87.38
282.819	92.38
283.051	74.38
283.282	106.38
283.513	89.38
283.745	77.38
283.976	83.38
284.207	96.38
284.439	81.38
284.67	84.38
284.901	85.38
285.132	100.38
285.364	78.38
285.595	84.38
285.826	65.38
286.057	99.38
286.288	96.38
286.52	80.38
286.751	93.38
286.982	95.38
287.213	81.38
287.444	96.38
287.675	90.38
287.906	88.38
288.138	76.38
288.369	81.38
288.6	93.38
288.831	92.38
289.062	88.38
289.293	97.38
289.524	79.38
289.755	82.38
289.986	81.38
290.217	101.38
290.448	98.38
290.679	81.38
290.91	95.38
291.141	80.38
291.371	80.38
291.602	75.38
291.833	100.38
292.064	94.38
292.295	88.38
292.526	76.38
292.757	78.38
292.987	92.38
293.218	99.38
293.449	88.38
293.68	79.38
293.91	85.38
294.141	95.38
294.372	86.38
294.603	88.38
294.833	89.38
295.064	86.38
295.295	86.38
295.525	78.38
295.756	89.38
295.987	91.38
296.217	75.38
296.448	81.38
296.679	83.38
296.909	94.38
297.14	79.38
297.37	90.38
297.601	96.38
297.831	96.38
298.062	96.38
298.292	86.38
298.523	94.38
298.753	87.38
298.984	66.38
299.214	85.38
299.445	95.38
299.675	94.38
299.905	98.38
300.136	94.38
300.366	90.38
300.597	94.38
300.827	93.38
301.057	92.38
301.288	84.38
301.518	84.38
301.748	94.38
301.979	83.38
302.209	81.38
302.439	88.38
302.669	93.38
302.9	81.38
303.13	92.38
303.36	85.38
303.59	91.38
303.82	91.38
304.051	80.38
304.281	88.38
304.511	93.38
304.741	85.38
304.971	68.38
305.201	90.38
305.431	83.38
305.661	73.38
305.891	95.38
306.121	74.38
306.352	92.38
306.582	80.38
306.812	91.38
307.042	88.38
307.272	91.38
307.502	91.38
307.731	91.38
307.961	98.38
308.191	79.38
308.421	87.38
308.651	79.38
308.881	80.38
309.111	95.38
309.341	79.38
309.571	102.38
309.8	82.38
310.03	92.38
310.26	94.38
310.49	69.38
310.72	87.38
310.949	86.38
311.179	94.38
311.409	90.38
311.639	91.38
311.868	92.38
312.098	89.38
312.328	94.38
312.557	77.38
312.787	83.38
313.017	91.38
313.246	98.38
313.476	84.38
313.706	82.38
313.935	86.38
314.165	82.38
314.394	88.38
314.624	103.38
314.853	95.38
315.083	103.38
315.312	82.38
315.542	75.38
315.771	89.38
316.001	79.38
316.23	92.38
316.46	79.38
316.689	88.38
316.919	97.38
317.148	102.38
317.377	79.38
317.607	105.38
317.836	91.38
318.065	90.38
318.295	94.38
318.524	103.38
318.753	89.38
318.983	78.38
319.212	86.38
319.441	78.38
319.67	92.38
319.9	99.38
320.129	88.38
320.358	82.38
320.587	90.38
320.816	92.38
321.046	77.38
321.275	95.38
321.504	80.38
321.733	81.38
321.962	95.38
322.191	82.38
322.42	87.38
322.649	89.38
322.878	91.38
323.108	98.38
323.337	96.38
323.566	87.38
323.795	86.38
324.024	86.38
324.253	95.38
324.482	107.38
324.71	90.38
324.939	87.38
325.168	98.38
325.397	82.38
325.626	81.38
325.855	75.38
326.084	80.38
326.313	94.38
326.542	91.38
326.77	102.38
326.999	88.38
327.228	85.38
327.457	80.38
327.686	92.38
327.914	87.38
328.143	108.38
328.372	79.38
328.6	79.38
328.829	82.38
329.058	75.38
329.287	106.38
329.515	92.38
329.744	101.38
329.972	81.38
330.201	80.38
330.43	86.38
330.658	83.38
330.887	96.38
331.115	85.38
331.344	86.38
331.572	103.38
331.801	88.38
332.03	82.38
332.258	82.38
332.486	85.38
332.715	104.38
332.943	91.38
333.172	79.38
333.4	83.38
333.629	82.38
333.857	104.38
334.085	85.38
334.314	89.38
334.542	74.38
334.771	79.38
334.999	80.38
335.227	95.38
335.455	85.38
335.684	79.38
335.912	93.38
336.14	99.38
336.369	83.38
336.597	97.38
336.825	79.38
337.053	74.38
337.281	76.38
337.51	93.38
337.738	81.38
337.966	91.38
338.194	98.38
338.422	86.38
338.65	89.38
338.878	99.38
339.106	94.38
339.334	90.38
339.562	105.38
339.79	89.38
340.018	86.38
340.246	97.38
340.474	82.38
340.702	88.38
340.93	92.38
341.158	82.38
341.386	86.38
341.614	92.38
341.842	81.38
342.07	89.38
342.298	71.38
342.526	78.38
342.754	89.38
342.981	87.38
343.209	83.38
343.437	89.38
343.665	78.38
343.893	81.38
344.12	86.38
344.348	91.38
344.576	78.38
344.804	81.38
345.031	86.38
345.259	94.38
345.487	94.38
345.714	78.38
345.942	72.38
346.17	83.38
346.397	103.38
346.625	84.38
346.853	86.38
347.08	83.38
347.308	89.38
347.535	72.38
347.763	91.38
347.99	84.38
348.218	87.38
348.445	96.38
348.673	76.38
348.9	82.38
349.128	97.38
349.355	77.38
349.583	92.38
349.81	88.38
350.037	91.38
350.265	86.38
350.492	90.38
350.72	67.38
350.947	82.38
351.174	76.38
351.402	83.38
351.629	96.38
351.856	89.38
352.083	102.38
352.311	88.38
352.538	90.38
352.765	68.38
352.992	94.38
353.22	86.38
353.447	78.38
353.674	93.38
353.901	99.38
354.128	96.38
354.355	86.38
354.583	90.38
354.81	86.38
355.037	92.38
355.264	93.38
355.491	72.38
355.718	82.38
355.945	91.38
356.172	77.38
356.399	95.38
356.626	91.38
356.853	85.38
357.08	93.38
357.307	78.38
357.534	93.38
357.761	84.38
357.988	74.38
358.215	93.38
358.441	82.38
358.668	89.38
358.895	83.38
359.122	89.38
359.349	80.38
359.576	101.38
359.802	89.38
360.029	78.38
360.256	91.38
360.483	85.38
360.709	88.38
360.936	99.38
361.163	72.38
361.39	92.38
361.616	83.38
361.843	90.38
362.07	80.38
362.296	86.38
362.523	92.38
362.749	99.38
362.976	103.38
363.203	96.38
363.429	88.38
363.656	83.38
363.882	94.38
364.109	92.38
364.335	100.38
364.562	70.38
364.788	91.38
365.015	86.38
365.241	90.38
365.468	90.38
365.694	81.38
365.92	89.38
366.147	101.38
366.373	90.38
366.599	77.38
366.826	79.38
367.052	90.38
367.278	101.38
367.505	100.38
367.731	106.38
367.957	98.38
368.184	100.38
368.41	92.38
368.636	99.38
368.862	97.38
369.089	77.38
369.315	96.38
369.541	99.38
369.767	95.38
369.993	91.38
370.219	92.38
370.445	91.38
370.672	83.38
370.898	102.38
371.124	87.38
371.35	89.38
371.576	97.38
371.802	91.38
372.028	96.38
372.254	101.38
372.48	86.38
372.706	91.38
372.932	73.38
373.158	87.38
373.384	89.38
373.61	88.38
373.835	99.38
374.061	92.38
374.287	106.38
374.513	89.38
374.739	96.38
374.965	106.38
375.191	99.38
375.416	97.38
375.642	100.38
375.868	97.38
376.094	89.38
376.319	68.38
376.545	92.38
376.771	97.38
376.997	86.38
377.222	92.38
377.448	97.38
377.674	96.38
377.899	106.38
378.125	92.38
378.35	89.38
378.576	102.38
378.802	90.38
379.027	97.38
379.253	96.38
379.478	96.38
379.704	90.38
379.929	99.38
380.155	78.38
380.38	114.38
380.606	95.38
380.831	99.38
381.057	105.38
381.282	106.38
381.507	101.38
381.733	103.38
381.958	107.38
382.184	104.38
382.409	104.38
382.634	87.38
382.86	95.38
383.085	94.38
383.31	109.38
383.535	113.38
383.761	110.38
383.986	94.38
384.211	93.38
384.436	112.38
384.662	110.38
384.887	111.38
385.112	112.38
385.337	105.38
385.562	101.38
385.787	93.38
386.013	97.38
386.238	105.38
386.463	112.38
386.688	103.38
386.913	93.38
387.138	93.38
387.363	98.38
387.588	110.38
387.813	93.38
388.038	106.38
388.263	112.38
388.488	95.38
388.713	108.38
388.938	110.38
389.163	83.38
389.387	103.38
389.612	111.38
389.837	108.38
390.062	109.38
390.287	105.38
390.512	102.38
390.736	121.38
390.961	108.38
391.186	108.38
391.411	113.38
391.636	96.38
391.86	121.38
392.085	102.38
392.31	110.38
392.534	104.38
392.759	111.38
392.984	99.38
393.208	104.38
393.433	99.38
393.658	108.38
393.882	92.38
394.107	105.38
394.331	115.38
394.556	113.38
394.78	109.38
395.005	103.38
395.229	122.38
395.454	97.38
395.678	86.38
395.903	122.38
396.127	103.38
396.352	121.38
396.576	103.38
396.801	104.38
397.025	99.38
397.249	95.38
397.474	120.38
397.698	125.38
397.922	102.38
398.147	101.38
398.371	117.38
398.595	94.38
398.82	114.38
399.044	106.38
399.268	118.38
399.492	118.38
399.717	122.38
399.941	106.38
400.165	108.38
400.389	105.38
400.613	105.38
400.837	120.38
401.062	121.38
401.286	129.38
401.51	103.38
401.734	105.38
401.958	118.38
402.182	121.38
402.406	106.38
402.63	115.38
402.854	123.38
403.078	112.38
403.302	114.38
403.526	113.38
403.75	136.38
403.974	126.38
404.198	109.38
404.422	112.38
404.645	125.38
404.869	111.38
405.093	123.38
405.317	120.38
405.541	107.38
405.765	116.38
405.988	137.38
406.212	121.38
406.436	114.38
406.66	116.38
406.883	129.38
407.107	119.38
407.331	113.38
407.555	114.38
407.778	120.38
408.002	117.38
408.226	117.38
408.449	138.38
408.673	115.38
408.896	108.38
409.12	126.38
409.344	127.38
409.567	130.38
409.791	128.38
410.014	127.38
410.238	123.38
410.461	115.38
410.685	123.38
410.908	112.38
411.132	138.38
411.355	110.38
411.578	131.38
411.802	120.38
412.025	127.38
412.249	123.38
412.472	117.38
412.695	128.38
412.919	122.38
413.142	133.38
413.365	125.38
413.589	118.38
413.812	126.38
414.035	136.38
414.258	124.38
414.482	123.38
414.705	118.38
414.928	135.38
415.151	126.38
415.374	125.38
415.597	133.38
415.821	130.38
416.044	131.38
416.267	126.38
416.49	129.38
416.713	134.38
416.936	132.38
417.159	138.38
417.382	129.38
417.605	126.38
417.828	136.38
418.051	136.38
418.274	140.38
418.497	133.38
418.72	145.38
418.943	143.38
419.166	138.38
419.389	140.38
419.611	133.38
419.834	131.38
420.057	138.38
420.28	120.38
420.503	124.38
420.726	134.38
420.948	130.38
421.171	146.38
421.394	142.38
421.617	137.38
421.839	136.38
422.062	148.38
422.285	134.38
422.507	130.38
422.73	130.38
422.953	132.38
423.175	125.38
423.398	124.38
423.621	129.38
423.843	129.38
424.066	137.38
424.288	143.38
424.511	133.38
424.733	147.38
424.956	149.38
425.178	149.38
425.401	136.38
425.623	141.38
425.846	137.38
426.068	139.38
426.291	133.38
426.513	122.38
426.735	139.38
426.958	131.38
427.18	137.38
427.402	131.38
427.625	126.38
427.847	125.38
428.069	134.38
428.292	152.38
428.514	119.38
428.736	122.38
428.958	126.38
429.181	136.38
429.403	131.38
429.625	127.38
429.847	138.38
430.069	129.38
430.292	124.38
430.514	130.38
430.736	132.38
430.958	128.38
431.18	147.38
431.402	114.38
431.624	117.38
431.846	110.38
432.068	105.38
432.29	103.38
432.512	120.38
432.734	127.38
432.956	132.38
433.178	139.38
433.4	145.38
433.622	141.38
433.844	134.38
434.066	137.38
434.287	118.38
434.509	107.38
434.731	106.38
434.953	126.38
435.175	131.38
435.397	119.38
435.618	127.38
435.84	129.38
436.062	112.38
436.284	131.38
436.505	130.38
436.727	129.38
436.949	148.38
437.17	147.38
437.392	129.38
437.614	117.38
437.835	115.38
438.057	103.38
438.278	118.38
438.5	114.38
438.721	129.38
438.943	136.38
439.165	144.38
439.386	123.38
439.608	145.38
439.829	147.38
440.05	150.38
440.272	145.38
440.493	166.38
440.715	137.38
440.936	155.38
441.158	153.38
441.379	154.38
441.6	155.38
441.822	154.38
442.043	150.38
442.264	139.38
442.486	146.38
442.707	133.38
442.928	131.38
443.149	137.38
443.371	129.38
443.592	151.38
443.813	143.38
444.034	147.38
444.255	139.38
444.476	141.38
444.698	150.38
444.919	143.38
445.14	229.38
445.361	196.38
445.582	157.38
445.803	141.38
446.024	150.38
446.245	160.38
446.466	163.38
446.687	146.38
446.908	161.38
447.129	165.38
447.35	161.38
447.571	158.38
447.792	152.38
448.013	145.38
448.234	139.38
448.455	145.38
448.675	148.38
448.896	153.38
449.117	141.38
449.338	153.38
449.559	138.38
449.779	145.38
450	143.38
450.221	145.38
450.442	137.38
450.662	129.38
450.883	138.38
451.104	137.38
451.324	129.38
451.545	124.38
451.766	131.38
451.986	136.38
452.207	151.38
452.428	129.38
452.648	118.38
452.869	127.38
453.089	118.38
453.31	121.38
453.53	122.38
453.751	108.38
453.971	112.38
454.192	122.38
454.412	115.38
454.633	113.38
454.853	127.38
455.073	117.38
455.294	111.38
455.514	122.38
455.734	131.38
455.955	134.38
456.175	110.38
456.395	117.38
456.616	111.38
456.836	102.38
457.056	117.38
457.276	110.38
457.497	117.38
457.717	103.38
457.937	102.38
458.157	99.38
458.377	106.38
458.598	94.38
458.818	92.38
459.038	91.38
459.258	95.38
459.478	81.38
459.698	97.38
459.918	104.38
460.138	113.38
460.358	111.38
460.578	124.38
460.798	141.38
461.018	132.38
461.238	137.38
461.458	126.38
461.678	130.38
461.898	124.38
462.118	123.38
462.338	116.38
462.558	118.38
462.777	113.38
462.997	120.38
463.217	96.38
463.437	104.38
463.657	106.38
463.876	99.38
464.096	116.38
464.316	107.38
464.536	103.38
464.755	105.38
464.975	117.38
465.195	134.38
465.414	113.38
465.634	107.38
465.854	121.38
466.073	126.38
466.293	123.38
466.512	126.38
466.732	138.38
466.951	139.38
467.171	140.38
467.391	140.38
467.61	146.38
467.829	133.38
468.049	143.38
468.268	141.38
468.488	129.38
468.707	133.38
468.927	155.38
469.146	147.38
469.365	143.38
469.585	139.38
469.804	135.38
470.023	134.38
470.243	127.38
470.462	153.38
470.681	130.38
470.901	143.38
471.12	141.38
471.339	157.38
471.558	138.38
471.777	129.38
471.997	136.38
472.216	142.38
472.435	99.38
472.654	110.38
472.873	105.38
473.092	117.38
473.311	125.38
473.53	130.38
473.749	138.38
473.968	131.38
474.187	129.38
474.406	111.38
474.625	118.38
474.844	131.38
475.063	136.38
475.282	139.38
475.501	130.38
475.72	120.38
475.939	110.38
476.158	126.38
476.377	133.38
476.596	135.38
476.814	133.38
477.033	93.38
477.252	121.38
477.471	121.38
477.69	127.38
477.908	139.38
478.127	141.38
478.346	143.38
478.564	135.38
478.783	140.38
479.002	137.38
479.22	148.38
479.439	122.38
479.658	133.38
479.876	118.38
480.095	106.38
480.313	111.38
480.532	126.38
480.751	102.38
480.969	98.38
481.188	97.38
481.406	88.38
481.624	80.38
481.843	105.38
482.061	103.38
482.28	104.38
482.498	115.38
482.717	114.38
482.935	125.38
483.153	152.38
483.372	145.38
483.59	141.38
483.808	138.38
484.027	145.38
484.245	143.38
484.463	140.38
484.681	154.38
484.9	149.38
485.118	153.38
485.336	127.38
485.554	117.38
485.772	106.38
485.99	110.38
486.209	118.38
486.427	119.38
486.645	125.38
486.863	130.38
487.081	161.38
487.299	129.38
487.517	133.38
487.735	159.38
487.953	188.38
488.171	189.38
488.389	172.38
488.607	170.38
488.825	157.38
489.043	147.38
489.261	161.38
489.479	135.38
489.696	143.38
489.914	146.38
490.132	138.38
490.35	160.38
490.568	157.38
490.786	150.38
491.003	173.38
491.221	196.38
491.439	175.38
491.657	209.38
491.874	192.38
492.092	223.38
492.31	239.38
492.527	216.38
492.745	209.38
492.963	189.38
493.18	182.38
493.398	183.38
493.615	183.38
493.833	188.38
494.05	168.38
494.268	174.38
494.485	153.38
494.703	173.38
494.92	154.38
495.138	171.38
495.355	175.38
495.573	183.38
495.79	176.38
496.008	168.38
496.225	165.38
496.442	171.38
496.66	173.38
496.877	157.38
497.094	170.38
497.312	163.38
497.529	166.38
497.746	161.38
497.963	147.38
498.181	127.38
498.398	123.38
498.615	130.38
498.832	129.38
499.049	121.38
499.267	125.38
499.484	111.38
499.701	113.38
499.918	143.38
500.135	151.38
500.352	155.38
500.569	164.38
500.786	143.38
501.003	127.38
501.22	141.38
501.437	150.38
501.654	156.38
501.871	150.38
502.088	123.38
502.305	129.38
502.522	127.38
502.739	145.38
502.956	129.38
503.172	110.38
503.389	119.38
503.606	136.38
503.823	125.38
504.04	114.38
504.256	124.38
504.473	123.38
504.69	117.38
504.907	129.38
505.123	124.38
505.34	119.38
505.557	122.38
505.773	114.38
505.99	137.38
506.207	131.38
506.423	122.38
506.64	114.38
506.856	112.38
507.073	126.38
507.289	108.38
507.506	130.38
507.722	123.38
507.939	119.38
508.155	114.38
508.372	102.38
508.588	113.38
508.805	119.38
509.021	106.38
509.238	107.38
509.454	106.38
509.67	104.38
509.887	104.38
510.103	97.38
510.319	101.38
510.536	88.38
510.752	75.38
510.968	94.38
511.184	85.38
511.401	94.38
511.617	94.38
511.833	103.38
512.049	90.38
512.265	85.38
512.481	90.38
512.698	92.38
512.914	102.38
513.13	85.38
513.346	97.38
513.562	85.38
513.778	81.38
513.994	79.38
514.21	91.38
514.426	93.38
514.642	102.38
514.858	106.38
515.074	100.38
515.29	99.38
515.506	101.38
515.721	92.38
515.937	89.38
516.153	86.38
516.369	78.38
516.585	96.38
516.801	82.38
517.016	90.38
517.232	86.38
517.448	96.38
517.664	86.38
517.879	94.38
518.095	85.38
518.311	92.38
518.527	101.38
518.742	89.38
518.958	104.38
519.173	97.38
519.389	94.38
519.605	113.38
519.82	122.38
520.036	112.38
520.251	111.38
520.467	104.38
520.682	108.38
520.898	98.38
521.113	95.38
521.329	89.38
521.544	90.38
521.76	105.38
521.975	102.38
522.19	101.38
522.406	99.38
522.621	95.38
522.836	98.38
523.052	121.38
523.267	113.38
523.482	106.38
523.698	119.38
523.913	119.38
524.128	114.38
524.343	118.38
524.559	111.38
524.774	115.38
524.989	135.38
525.204	130.38
525.419	119.38
525.634	114.38
525.849	110.38
526.064	108.38
526.28	123.38
526.495	88.38
526.71	86.38
526.925	79.38
527.14	89.38
527.355	89.38
527.57	94.38
527.785	95.38
527.999	90.38
528.214	106.38
528.429	128.38
528.644	126.38
528.859	126.38
529.074	149.38
529.289	153.38
529.503	153.38
529.718	132.38
529.933	119.38
530.148	112.38
530.363	104.38
530.577	80.38
530.792	77.38
531.007	94.38
531.221	84.38
531.436	82.38
531.651	85.38
531.865	92.38
532.08	95.38
532.295	89.38
532.509	87.38
532.724	85.38
532.938	87.38
533.153	103.38
533.367	102.38
533.582	120.38
533.796	119.38
534.011	121.38
534.225	105.38
534.44	103.38
534.654	98.38
534.868	96.38
535.083	105.38
535.297	109.38
535.511	95.38
535.726	110.38
535.94	108.38
536.154	90.38
536.369	83.38
536.583	80.38
536.797	96.38
537.011	85.38
537.225	102.38
537.44	101.38
537.654	102.38
537.868	103.38
538.082	102.38
538.296	97.38
538.51	107.38
538.724	119.38
538.938	126.38
539.153	130.38
539.367	144.38
539.581	134.38
539.795	105.38
540.009	95.38
540.222	105.38
540.436	108.38
540.65	123.38
540.864	133.38
541.078	146.38
541.292	164.38
541.506	153.38
541.72	171.38
541.934	179.38
542.147	205.38
542.361	178.38
542.575	157.38
542.789	149.38
543.002	131.38
543.216	139.38
543.43	124.38
543.644	135.38
543.857	147.38
544.071	157.38
544.285	158.38
544.498	144.38
544.712	146.38
544.925	143.38
545.139	162.38
545.352	159.38
545.566	163.38
545.779	141.38
545.993	157.38
546.206	165.38
546.42	183.38
546.633	164.38
546.847	154.38
547.06	169.38
547.274	165.38
547.487	167.38
547.7	165.38
547.914	154.38
548.127	161.38
548.34	169.38
548.554	163.38
548.767	150.38
548.98	152.38
549.193	146.38
549.407	155.38
549.62	158.38
549.833	152.38
550.046	171.38
550.259	158.38
550.473	148.38
550.686	139.38
550.899	148.38
551.112	159.38
551.325	138.38
551.538	149.38
551.751	125.38
551.964	118.38
552.177	135.38
552.39	143.38
552.603	139.38
552.816	148.38
553.029	162.38
553.242	156.38
553.455	167.38
553.667	178.38
553.88	154.38
554.093	160.38
554.306	169.38
554.519	167.38
554.732	153.38
554.944	144.38
555.157	150.38
555.37	142.38
555.583	141.38
555.795	149.38
556.008	129.38
556.221	130.38
556.433	133.38
556.646	139.38
556.859	129.38
557.071	144.38
557.284	137.38
557.496	141.38
557.709	141.38
557.921	140.38
558.134	141.38
558.346	139.38
558.559	147.38
558.771	138.38
558.984	129.38
559.196	119.38
559.409	133.38
559.621	129.38
559.833	121.38
560.046	135.38
560.258	155.38
560.47	135.38
560.683	126.38
560.895	137.38
561.107	131.38
561.32	137.38
561.532	132.38
561.744	137.38
561.956	130.38
562.168	131.38
562.381	132.38
562.593	128.38
562.805	129.38
563.017	130.38
563.229	132.38
563.441	136.38
563.653	121.38
563.865	112.38
564.077	122.38
564.289	121.38
564.501	112.38
564.713	123.38
564.925	128.38
565.137	117.38
565.349	119.38
565.561	123.38
565.773	123.38
565.985	136.38
566.197	117.38
566.408	125.38
566.62	112.38
566.832	125.38
567.044	114.38
567.255	121.38
567.467	108.38
567.679	117.38
567.891	95.38
568.102	99.38
568.314	93.38
568.526	105.38
568.737	97.38
568.949	104.38
569.161	96.38
569.372	80.38
569.584	74.38
569.795	94.38
570.007	74.38
570.218	100.38
570.43	93.38
570.641	91.38
570.853	98.38
571.064	96.38
571.276	104.38
571.487	114.38
571.698	109.38
571.91	102.38
572.121	117.38
572.333	101.38
572.544	102.38
572.755	97.38
572.966	97.38
573.178	86.38
573.389	103.38
573.6	91.38
573.811	93.38
574.023	86.38
574.234	88.38
574.445	77.38
574.656	92.38
574.867	95.38
575.078	87.38
575.289	97.38
575.501	103.38
575.712	103.38
575.923	95.38
576.134	107.38
576.345	99.38
576.556	105.38
576.767	81.38
576.978	81.38
577.188	91.38
577.399	89.38
577.61	101.38
577.821	98.38
578.032	89.38
578.243	95.38
578.454	102.38
578.665	101.38
578.875	105.38
579.086	98.38
579.297	88.38
579.508	95.38
579.718	81.38
579.929	90.38
580.14	101.38
580.35	82.38
580.561	85.38
580.772	91.38
580.982	103.38
581.193	78.38
581.403	81.38
581.614	99.38
581.825	93.38
582.035	98.38
582.246	95.38
582.456	101.38
582.667	96.38
582.877	91.38
583.087	82.38
583.298	90.38
583.508	97.38
583.719	95.38
583.929	91.38
584.139	84.38
584.35	98.38
584.56	92.38
584.77	109.38
584.981	87.38
585.191	79.38
585.401	101.38
585.611	93.38
585.821	80.38
586.032	75.38
586.242	84.38
586.452	74.38
586.662	78.38
586.872	95.38
587.082	96.38
587.292	91.38
587.502	86.38
587.713	78.38
587.923	81.38
588.133	94.38
588.343	85.38
588.553	83.38
588.762	87.38
588.972	81.38
589.182	92.38
589.392	90.38
589.602	94.38
589.812	97.38
590.022	86.38
590.232	82.38
590.441	85.38
590.651	93.38
590.861	94.38
591.071	82.38
591.281	85.38
591.49	87.38
591.7	81.38
591.91	84.38
592.119	94.38
592.329	78.38
592.539	92.38
592.748	95.38
592.958	88.38
593.167	71.38
593.377	98.38
593.587	87.38
593.796	78.38
594.006	84.38
594.215	75.38
594.424	91.38
594.634	105.38
594.843	103.38
595.053	81.38
595.262	99.38
595.472	113.38
595.681	87.38
595.89	94.38
596.1	76.38
596.309	96.38
596.518	104.38
596.727	96.38
596.937	93.38
597.146	95.38
597.355	117.38
597.564	87.38
597.774	97.38
597.983	99.38
598.192	85.38
598.401	75.38
598.61	79.38
598.819	86.38
599.028	91.38
599.237	98.38
599.446	99.38
599.655	89.38
599.864	94.38
600.073	88.38
600.282	82.38
600.491	103.38
600.7	95.38
600.909	102.38
601.118	94.38
601.327	108.38
601.536	114.38
601.745	112.38
601.953	110.38
602.162	114.38
602.371	118.38
602.58	115.38
602.789	115.38
602.997	110.38
603.206	107.38
603.415	124.38
603.623	104.38
603.832	112.38
604.041	118.38
604.249	112.38
604.458	99.38
604.666	102.38
604.875	93.38
605.084	114.38
605.292	114.38
605.501	119.38
605.709	124.38
605.918	107.38
606.126	127.38
606.334	109.38
606.543	111.38
606.751	129.38
606.96	119.38
607.168	121.38
607.376	119.38
607.585	115.38
607.793	108.38
608.001	109.38
608.21	107.38
608.418	124.38
608.626	111.38
608.834	110.38
609.043	121.38
609.251	116.38
609.459	126.38
609.667	115.38
609.875	114.38
610.083	121.38
610.291	110.38
610.499	109.38
610.707	110.38
610.916	118.38
611.124	103.38
611.332	118.38
611.54	114.38
611.748	115.38
611.955	125.38
612.163	106.38
612.371	117.38
612.579	102.38
612.787	118.38
612.995	106.38
613.203	127.38
613.411	114.38
613.618	119.38
613.826	121.38
614.034	134.38
614.242	130.38
614.449	118.38
614.657	113.38
614.865	115.38
615.072	111.38
615.28	110.38
615.488	120.38
615.695	108.38
615.903	115.38
616.111	108.38
616.318	120.38
616.526	91.38
616.733	117.38
616.941	116.38
617.148	118.38
617.356	118.38
617.563	115.38
617.771	106.38
617.978	105.38
618.185	108.38
618.393	104.38
618.6	109.38
618.807	101.38
619.015	109.38
619.222	107.38
619.429	115.38
619.637	109.38
619.844	103.38
620.051	109.38
620.258	112.38
620.466	98.38
620.673	106.38
620.88	113.38
621.087	109.38
621.294	102.38
621.501	102.38
621.708	107.38
621.915	112.38
622.122	103.38
622.329	105.38
622.536	102.38
622.743	114.38
622.95	110.38
623.157	113.38
623.364	128.38
623.571	113.38
623.778	106.38
623.985	108.38
624.192	124.38
624.399	106.38
624.606	121.38
624.812	108.38
625.019	101.38
625.226	107.38
625.433	115.38
625.639	106.38
625.846	98.38
626.053	85.38
626.259	85.38
626.466	99.38
626.673	94.38
626.879	104.38
627.086	96.38
627.293	112.38
627.499	102.38
627.706	107.38
627.912	99.38
628.119	104.38
628.325	113.38
628.532	96.38
628.738	89.38
628.945	109.38
629.151	103.38
629.357	99.38
629.564	111.38
629.77	112.38
629.976	103.38
630.183	111.38
630.389	120.38
630.595	109.38
630.802	93.38
631.008	106.38
631.214	98.38
631.42	90.38
631.627	109.38
631.833	99.38
632.039	121.38
632.245	107.38
632.451	108.38
632.657	111.38
632.863	102.38
633.069	110.38
633.275	110.38
633.481	106.38
633.688	109.38
633.893	110.38
634.099	89.38
634.305	95.38
634.511	101.38
634.717	105.38
634.923	87.38
635.129	99.38
635.335	90.38
635.541	86.38
635.747	117.38
635.952	100.38
636.158	111.38
636.364	81.38
636.57	101.38
636.775	100.38
636.981	103.38
637.187	98.38
637.392	109.38
637.598	115.38
637.804	113.38
638.009	110.38
638.215	104.38
638.421	112.38
638.626	101.38
638.832	109.38
639.037	103.38
639.243	107.38
639.448	100.38
639.654	87.38
639.859	105.38
640.065	97.38
640.27	114.38
640.475	96.38
640.681	96.38
640.886	117.38
641.091	94.38
641.297	101.38
641.502	108.38
641.707	105.38
641.913	123.38
642.118	107.38
642.323	105.38
642.528	95.38
642.733	110.38
642.939	105.38
643.144	110.38
643.349	98.38
643.554	109.38
643.759	100.38
643.964	95.38
644.169	108.38
644.374	104.38
644.579	107.38
644.784	112.38
644.989	103.38
645.194	98.38
645.399	89.38
645.604	102.38
645.809	99.38
646.014	104.38
646.219	113.38
646.423	97.38
646.628	102.38
646.833	98.38
647.038	106.38
647.243	116.38
647.447	78.38
647.652	99.38
647.857	105.38
648.062	92.38
648.266	111.38
648.471	91.38
648.676	108.38
648.88	97.38
649.085	102.38
649.289	118.38
649.494	100.38
649.698	88.38
649.903	93.38
650.107	102.38
650.312	106.38
650.516	98.38
650.721	102.38
650.925	90.38
651.13	83.38
651.334	101.38
651.539	93.38
651.743	95.38
651.947	92.38
652.152	98.38
652.356	91.38
652.56	81.38
652.764	96.38
652.969	91.38
653.173	90.38
653.377	99.38
653.581	107.38
653.785	85.38
653.99	104.38
654.194	105.38
654.398	94.38
654.602	104.38
654.806	96.38
655.01	94.38
655.214	112.38
655.418	89.38
655.622	92.38
655.826	86.38
656.03	90.38
656.234	102.38
656.438	74.38
656.642	102.38
656.846	85.38
657.049	89.38
657.253	92.38
657.457	78.38
657.661	83.38
657.865	87.38
658.068	83.38
658.272	86.38
658.476	81.38
658.68	87.38
658.883	91.38
659.087	90.38
659.291	87.38
659.494	80.38
659.698	91.38
659.901	101.38
660.105	89.38
660.309	98.38
660.512	95.38
660.716	85.38
660.919	88.38
661.123	93.38
661.326	76.38
661.53	91.38
661.733	92.38
661.936	88.38
662.14	87.38
662.343	89.38
662.546	83.38
662.75	83.38
662.953	95.38
663.156	89.38
663.36	79.38
663.563	76.38
663.766	80.38
663.969	94.38
664.173	84.38
664.376	86.38
664.579	80.38
664.782	87.38
664.985	76.38
665.188	95.38
665.391	93.38
665.594	85.38
665.797	80.38
666	94.38
666.203	97.38
666.406	86.38
666.609	86.38
666.812	105.38
667.015	84.38
667.218	81.38
667.421	81.38
667.624	98.38
667.827	80.38
668.03	87.38
668.232	74.38
668.435	80.38
668.638	83.38
668.841	90.38
669.043	88.38
669.246	93.38
669.449	94.38
669.651	68.38
669.854	82.38
670.057	89.38
670.259	86.38
670.462	103.38
670.665	96.38
670.867	97.38
671.07	87.38
671.272	87.38
671.475	90.38
671.677	83.38
671.88	79.38
672.082	80.38
672.284	81.38
672.487	87.38
672.689	81.38
672.892	78.38
