Data from Location1.07152019.Energy5.Lamp.07192019.3%Agarose_HRD10591_14-31-11-014.txt Node
Date: Fri Jul 19 14:31:11 EDT 2019
User: cochatt
Spectrometer: HR+D1059
Trigger mode: 1
Integration Time (sec): 1.000000E-1
Scans to average: 1
Electric dark correction enabled: true
Nonlinearity correction enabled: false
Boxcar width: 0
XAxis mode: Wavelengths
Number of Pixels in Spectrum: 2048
>>>>>Begin Spectral Data<<<<<
223.165	-17.25
223.4	-17.25
223.635	-17.25
223.869	-9.25
224.104	-8.25
224.338	-18.25
224.573	-12.25
224.808	-27.25
225.042	-11.25
225.277	-15.25
225.511	-5.25
225.746	3.75
225.98	7.75
226.215	20.75
226.449	15.75
226.683	24.75
226.918	25.75
227.152	25.75
227.387	30.75
227.621	41.75
227.856	55.75
228.09	37.75
228.324	42.75
228.559	55.75
228.793	67.75
229.027	63.75
229.262	61.75
229.496	66.75
229.73	56.75
229.964	71.75
230.199	85.75
230.433	75.75
230.667	76.75
230.901	77.75
231.136	75.75
231.37	80.75
231.604	83.75
231.838	81.75
232.072	87.75
232.306	71.75
232.541	69.75
232.775	85.75
233.009	79.75
233.243	82.75
233.477	78.75
233.711	76.75
233.945	75.75
234.179	93.75
234.413	88.75
234.647	94.75
234.881	82.75
235.115	71.75
235.349	72.75
235.583	77.75
235.817	81.75
236.051	73.75
236.285	78.75
236.519	61.75
236.753	90.75
236.987	66.75
237.221	91.75
237.455	73.75
237.689	73.75
237.922	89.75
238.156	79.75
238.39	75.75
238.624	78.75
238.858	82.75
239.091	77.75
239.325	74.75
239.559	75.75
239.793	70.75
240.027	72.75
240.26	71.75
240.494	83.75
240.728	71.75
240.961	83.75
241.195	78.75
241.429	79.75
241.662	77.75
241.896	72.75
242.13	93.75
242.363	67.75
242.597	83.75
242.83	78.75
243.064	68.75
243.298	68.75
243.531	68.75
243.765	74.75
243.998	95.75
244.232	90.75
244.465	86.75
244.699	78.75
244.932	68.75
245.166	67.75
245.399	73.75
245.633	81.75
245.866	72.75
246.099	79.75
246.333	84.75
246.566	73.75
246.8	69.75
247.033	80.75
247.266	69.75
247.5	77.75
247.733	85.75
247.966	77.75
248.2	73.75
248.433	67.75
248.666	68.75
248.899	65.75
249.133	69.75
249.366	85.75
249.599	58.75
249.832	65.75
250.066	81.75
250.299	77.75
250.532	81.75
250.765	86.75
250.998	78.75
251.231	94.75
251.465	79.75
251.698	66.75
251.931	93.75
252.164	72.75
252.397	78.75
252.63	89.75
252.863	73.75
253.096	69.75
253.329	95.75
253.562	86.75
253.795	81.75
254.028	71.75
254.261	88.75
254.494	73.75
254.727	76.75
254.96	67.75
255.193	75.75
255.426	82.75
255.659	63.75
255.892	83.75
256.124	77.75
256.357	80.75
256.59	89.75
256.823	88.75
257.056	77.75
257.289	69.75
257.521	84.75
257.754	89.75
257.987	76.75
258.22	78.75
258.452	86.75
258.685	76.75
258.918	80.75
259.151	58.75
259.383	80.75
259.616	88.75
259.849	74.75
260.081	87.75
260.314	85.75
260.547	98.75
260.779	85.75
261.012	90.75
261.244	67.75
261.477	90.75
261.71	76.75
261.942	71.75
262.175	66.75
262.407	85.75
262.64	86.75
262.872	70.75
263.105	83.75
263.337	68.75
263.57	85.75
263.802	83.75
264.035	82.75
264.267	85.75
264.499	80.75
264.732	83.75
264.964	71.75
265.197	86.75
265.429	91.75
265.661	72.75
265.894	83.75
266.126	78.75
266.358	87.75
266.591	73.75
266.823	81.75
267.055	94.75
267.287	70.75
267.52	75.75
267.752	82.75
267.984	89.75
268.216	87.75
268.448	74.75
268.681	83.75
268.913	89.75
269.145	76.75
269.377	91.75
269.609	90.75
269.841	79.75
270.073	71.75
270.306	78.75
270.538	85.75
270.77	74.75
271.002	84.75
271.234	76.75
271.466	92.75
271.698	89.75
271.93	85.75
272.162	83.75
272.394	87.75
272.626	82.75
272.858	69.75
273.09	88.75
273.322	84.75
273.553	83.75
273.785	87.75
274.017	70.75
274.249	65.75
274.481	66.75
274.713	67.75
274.945	86.75
275.176	90.75
275.408	70.75
275.64	84.75
275.872	75.75
276.104	59.75
276.335	75.75
276.567	94.75
276.799	76.75
277.031	86.75
277.262	87.75
277.494	92.75
277.726	91.75
277.957	75.75
278.189	78.75
278.421	72.75
278.652	78.75
278.884	84.75
279.115	78.75
279.347	79.75
279.579	88.75
279.81	81.75
280.042	75.75
280.273	90.75
280.505	77.75
280.736	83.75
280.968	87.75
281.199	88.75
281.431	88.75
281.662	75.75
281.894	75.75
282.125	85.75
282.356	90.75
282.588	79.75
282.819	98.75
283.051	74.75
283.282	87.75
283.513	87.75
283.745	78.75
283.976	89.75
284.207	78.75
284.439	79.75
284.67	83.75
284.901	84.75
285.132	69.75
285.364	91.75
285.595	87.75
285.826	85.75
286.057	82.75
286.288	81.75
286.52	74.75
286.751	86.75
286.982	81.75
287.213	69.75
287.444	86.75
287.675	72.75
287.906	90.75
288.138	99.75
288.369	87.75
288.6	81.75
288.831	91.75
289.062	82.75
289.293	89.75
289.524	97.75
289.755	84.75
289.986	86.75
290.217	79.75
290.448	90.75
290.679	90.75
290.91	86.75
291.141	90.75
291.371	83.75
291.602	86.75
291.833	73.75
292.064	93.75
292.295	75.75
292.526	83.75
292.757	79.75
292.987	83.75
293.218	90.75
293.449	87.75
293.68	75.75
293.91	67.75
294.141	84.75
294.372	80.75
294.603	92.75
294.833	81.75
295.064	88.75
295.295	74.75
295.525	85.75
295.756	64.75
295.987	73.75
296.217	87.75
296.448	73.75
296.679	79.75
296.909	88.75
297.14	87.75
297.37	77.75
297.601	95.75
297.831	75.75
298.062	86.75
298.292	78.75
298.523	79.75
298.753	94.75
298.984	73.75
299.214	88.75
299.445	89.75
299.675	89.75
299.905	83.75
300.136	81.75
300.366	85.75
300.597	83.75
300.827	78.75
301.057	75.75
301.288	89.75
301.518	77.75
301.748	75.75
301.979	85.75
302.209	78.75
302.439	90.75
302.669	71.75
302.9	80.75
303.13	81.75
303.36	101.75
303.59	88.75
303.82	89.75
304.051	89.75
304.281	82.75
304.511	84.75
304.741	94.75
304.971	91.75
305.201	67.75
305.431	92.75
305.661	87.75
305.891	74.75
306.121	73.75
306.352	92.75
306.582	85.75
306.812	90.75
307.042	88.75
307.272	93.75
307.502	85.75
307.731	86.75
307.961	87.75
308.191	77.75
308.421	75.75
308.651	81.75
308.881	76.75
309.111	74.75
309.341	83.75
309.571	68.75
309.8	73.75
310.03	84.75
310.26	81.75
310.49	85.75
310.72	85.75
310.949	80.75
311.179	76.75
311.409	84.75
311.639	84.75
311.868	87.75
312.098	85.75
312.328	70.75
312.557	94.75
312.787	91.75
313.017	79.75
313.246	89.75
313.476	91.75
313.706	87.75
313.935	89.75
314.165	77.75
314.394	71.75
314.624	90.75
314.853	90.75
315.083	89.75
315.312	94.75
315.542	81.75
315.771	81.75
316.001	79.75
316.23	94.75
316.46	93.75
316.689	76.75
316.919	85.75
317.148	93.75
317.377	86.75
317.607	87.75
317.836	80.75
318.065	80.75
318.295	87.75
318.524	87.75
318.753	88.75
318.983	78.75
319.212	85.75
319.441	84.75
319.67	86.75
319.9	86.75
320.129	80.75
320.358	77.75
320.587	85.75
320.816	82.75
321.046	94.75
321.275	92.75
321.504	79.75
321.733	80.75
321.962	79.75
322.191	75.75
322.42	80.75
322.649	85.75
322.878	85.75
323.108	83.75
323.337	84.75
323.566	82.75
323.795	87.75
324.024	82.75
324.253	74.75
324.482	88.75
324.71	74.75
324.939	77.75
325.168	82.75
325.397	71.75
325.626	76.75
325.855	89.75
326.084	76.75
326.313	94.75
326.542	78.75
326.77	87.75
326.999	79.75
327.228	79.75
327.457	81.75
327.686	89.75
327.914	91.75
328.143	77.75
328.372	76.75
328.6	80.75
328.829	91.75
329.058	78.75
329.287	80.75
329.515	78.75
329.744	67.75
329.972	88.75
330.201	78.75
330.43	77.75
330.658	74.75
330.887	79.75
331.115	82.75
331.344	70.75
331.572	75.75
331.801	95.75
332.03	81.75
332.258	68.75
332.486	74.75
332.715	91.75
332.943	85.75
333.172	81.75
333.4	79.75
333.629	82.75
333.857	73.75
334.085	78.75
334.314	77.75
334.542	75.75
334.771	87.75
334.999	92.75
335.227	81.75
335.455	85.75
335.684	93.75
335.912	75.75
336.14	96.75
336.369	91.75
336.597	86.75
336.825	77.75
337.053	91.75
337.281	80.75
337.51	86.75
337.738	73.75
337.966	88.75
338.194	88.75
338.422	93.75
338.65	83.75
338.878	92.75
339.106	103.75
339.334	90.75
339.562	93.75
339.79	85.75
340.018	79.75
340.246	90.75
340.474	80.75
340.702	77.75
340.93	101.75
341.158	83.75
341.386	91.75
341.614	83.75
341.842	91.75
342.07	85.75
342.298	89.75
342.526	87.75
342.754	76.75
342.981	78.75
343.209	90.75
343.437	92.75
343.665	77.75
343.893	77.75
344.12	94.75
344.348	88.75
344.576	77.75
344.804	69.75
345.031	82.75
345.259	90.75
345.487	79.75
345.714	81.75
345.942	68.75
346.17	90.75
346.397	71.75
346.625	87.75
346.853	95.75
347.08	75.75
347.308	101.75
347.535	87.75
347.763	78.75
347.99	89.75
348.218	77.75
348.445	80.75
348.673	78.75
348.9	84.75
349.128	91.75
349.355	91.75
349.583	84.75
349.81	97.75
350.037	95.75
350.265	85.75
350.492	75.75
350.72	84.75
350.947	81.75
351.174	79.75
351.402	80.75
351.629	94.75
351.856	89.75
352.083	93.75
352.311	68.75
352.538	80.75
352.765	88.75
352.992	66.75
353.22	63.75
353.447	74.75
353.674	84.75
353.901	87.75
354.128	78.75
354.355	85.75
354.583	83.75
354.81	84.75
355.037	87.75
355.264	85.75
355.491	73.75
355.718	71.75
355.945	85.75
356.172	84.75
356.399	92.75
356.626	83.75
356.853	76.75
357.08	91.75
357.307	90.75
357.534	74.75
357.761	85.75
357.988	88.75
358.215	76.75
358.441	78.75
358.668	82.75
358.895	76.75
359.122	89.75
359.349	81.75
359.576	82.75
359.802	85.75
360.029	85.75
360.256	98.75
360.483	89.75
360.709	96.75
360.936	92.75
361.163	83.75
361.39	83.75
361.616	85.75
361.843	90.75
362.07	84.75
362.296	74.75
362.523	81.75
362.749	86.75
362.976	85.75
363.203	76.75
363.429	89.75
363.656	93.75
363.882	87.75
364.109	75.75
364.335	85.75
364.562	79.75
364.788	84.75
365.015	101.75
365.241	86.75
365.468	87.75
365.694	87.75
365.92	74.75
366.147	102.75
366.373	72.75
366.599	83.75
366.826	96.75
367.052	78.75
367.278	79.75
367.505	91.75
367.731	93.75
367.957	90.75
368.184	77.75
368.41	97.75
368.636	83.75
368.862	86.75
369.089	91.75
369.315	89.75
369.541	86.75
369.767	87.75
369.993	86.75
370.219	87.75
370.445	85.75
370.672	88.75
370.898	92.75
371.124	85.75
371.35	86.75
371.576	93.75
371.802	90.75
372.028	97.75
372.254	99.75
372.48	98.75
372.706	99.75
372.932	98.75
373.158	83.75
373.384	87.75
373.61	87.75
373.835	85.75
374.061	90.75
374.287	92.75
374.513	93.75
374.739	84.75
374.965	97.75
375.191	100.75
375.416	97.75
375.642	79.75
375.868	95.75
376.094	105.75
376.319	95.75
376.545	81.75
376.771	101.75
376.997	92.75
377.222	88.75
377.448	91.75
377.674	74.75
377.899	95.75
378.125	90.75
378.35	84.75
378.576	91.75
378.802	86.75
379.027	90.75
379.253	85.75
379.478	93.75
379.704	100.75
379.929	92.75
380.155	92.75
380.38	91.75
380.606	103.75
380.831	103.75
381.057	105.75
381.282	87.75
381.507	99.75
381.733	108.75
381.958	103.75
382.184	91.75
382.409	85.75
382.634	93.75
382.86	92.75
383.085	89.75
383.31	100.75
383.535	92.75
383.761	103.75
383.986	89.75
384.211	92.75
384.436	87.75
384.662	90.75
384.887	87.75
385.112	98.75
385.337	96.75
385.562	100.75
385.787	101.75
386.013	97.75
386.238	100.75
386.463	99.75
386.688	82.75
386.913	97.75
387.138	102.75
387.363	85.75
387.588	99.75
387.813	121.75
388.038	107.75
388.263	106.75
388.488	92.75
388.713	110.75
388.938	105.75
389.163	100.75
389.387	104.75
389.612	101.75
389.837	99.75
390.062	101.75
390.287	102.75
390.512	106.75
390.736	100.75
390.961	110.75
391.186	99.75
391.411	101.75
391.636	113.75
391.86	99.75
392.085	94.75
392.31	115.75
392.534	115.75
392.759	101.75
392.984	97.75
393.208	95.75
393.433	106.75
393.658	104.75
393.882	103.75
394.107	122.75
394.331	110.75
394.556	88.75
394.78	99.75
395.005	106.75
395.229	111.75
395.454	120.75
395.678	101.75
395.903	124.75
396.127	100.75
396.352	106.75
396.576	105.75
396.801	94.75
397.025	105.75
397.249	115.75
397.474	107.75
397.698	105.75
397.922	121.75
398.147	86.75
398.371	108.75
398.595	106.75
398.82	106.75
399.044	108.75
399.268	121.75
399.492	107.75
399.717	97.75
399.941	111.75
400.165	111.75
400.389	106.75
400.613	99.75
400.837	107.75
401.062	101.75
401.286	104.75
401.51	118.75
401.734	114.75
401.958	114.75
402.182	106.75
402.406	119.75
402.63	115.75
402.854	107.75
403.078	104.75
403.302	97.75
403.526	107.75
403.75	115.75
403.974	111.75
404.198	122.75
404.422	108.75
404.645	97.75
404.869	125.75
405.093	115.75
405.317	115.75
405.541	118.75
405.765	103.75
405.988	121.75
406.212	125.75
406.436	126.75
406.66	128.75
406.883	115.75
407.107	115.75
407.331	119.75
407.555	118.75
407.778	121.75
408.002	98.75
408.226	118.75
408.449	121.75
408.673	104.75
408.896	117.75
409.12	116.75
409.344	112.75
409.567	114.75
409.791	118.75
410.014	103.75
410.238	117.75
410.461	106.75
410.685	108.75
410.908	117.75
411.132	114.75
411.355	121.75
411.578	131.75
411.802	113.75
412.025	117.75
412.249	124.75
412.472	101.75
412.695	111.75
412.919	113.75
413.142	114.75
413.365	124.75
413.589	116.75
413.812	115.75
414.035	122.75
414.258	120.75
414.482	118.75
414.705	105.75
414.928	117.75
415.151	114.75
415.374	134.75
415.597	115.75
415.821	122.75
416.044	130.75
416.267	124.75
416.49	124.75
416.713	123.75
416.936	134.75
417.159	129.75
417.382	119.75
417.605	120.75
417.828	121.75
418.051	125.75
418.274	130.75
418.497	128.75
418.72	130.75
418.943	128.75
419.166	136.75
419.389	132.75
419.611	124.75
419.834	138.75
420.057	131.75
420.28	140.75
420.503	131.75
420.726	134.75
420.948	123.75
421.171	120.75
421.394	134.75
421.617	149.75
421.839	128.75
422.062	133.75
422.285	118.75
422.507	122.75
422.73	116.75
422.953	138.75
423.175	140.75
423.398	131.75
423.621	125.75
423.843	121.75
424.066	137.75
424.288	126.75
424.511	145.75
424.733	138.75
424.956	131.75
425.178	147.75
425.401	139.75
425.623	119.75
425.846	126.75
426.068	126.75
426.291	129.75
426.513	126.75
426.735	127.75
426.958	125.75
427.18	130.75
427.402	126.75
427.625	136.75
427.847	117.75
428.069	130.75
428.292	137.75
428.514	126.75
428.736	119.75
428.958	122.75
429.181	126.75
429.403	143.75
429.625	130.75
429.847	129.75
430.069	125.75
430.292	124.75
430.514	111.75
430.736	120.75
430.958	125.75
431.18	123.75
431.402	134.75
431.624	125.75
431.846	104.75
432.068	103.75
432.29	110.75
432.512	108.75
432.734	115.75
432.956	117.75
433.178	124.75
433.4	127.75
433.622	143.75
433.844	128.75
434.066	123.75
434.287	100.75
434.509	98.75
434.731	101.75
434.953	118.75
435.175	124.75
435.397	124.75
435.618	118.75
435.84	119.75
436.062	115.75
436.284	123.75
436.505	113.75
436.727	124.75
436.949	126.75
437.17	133.75
437.392	118.75
437.614	104.75
437.835	105.75
438.057	104.75
438.278	108.75
438.5	108.75
438.721	131.75
438.943	139.75
439.165	138.75
439.386	126.75
439.608	135.75
439.829	141.75
440.05	149.75
440.272	138.75
440.493	133.75
440.715	135.75
440.936	121.75
441.158	137.75
441.379	137.75
441.6	141.75
441.822	123.75
442.043	133.75
442.264	127.75
442.486	141.75
442.707	137.75
442.928	141.75
443.149	131.75
443.371	137.75
443.592	129.75
443.813	134.75
444.034	137.75
444.255	140.75
444.476	149.75
444.698	140.75
444.919	148.75
445.14	277.75
445.361	194.75
445.582	135.75
445.803	129.75
446.024	142.75
446.245	156.75
446.466	154.75
446.687	155.75
446.908	156.75
447.129	151.75
447.35	149.75
447.571	127.75
447.792	156.75
448.013	135.75
448.234	143.75
448.455	136.75
448.675	141.75
448.896	131.75
449.117	137.75
449.338	136.75
449.559	134.75
449.779	131.75
450	143.75
450.221	136.75
450.442	129.75
450.662	126.75
450.883	129.75
451.104	115.75
451.324	137.75
451.545	133.75
451.766	124.75
451.986	133.75
452.207	122.75
452.428	127.75
452.648	114.75
452.869	122.75
453.089	110.75
453.31	119.75
453.53	99.75
453.751	116.75
453.971	109.75
454.192	109.75
454.412	118.75
454.633	103.75
454.853	115.75
455.073	107.75
455.294	123.75
455.514	116.75
455.734	119.75
455.955	126.75
456.175	127.75
456.395	114.75
456.616	116.75
456.836	116.75
457.056	114.75
457.276	115.75
457.497	106.75
457.717	122.75
457.937	104.75
458.157	106.75
458.377	99.75
458.598	100.75
458.818	91.75
459.038	87.75
459.258	91.75
459.478	82.75
459.698	82.75
459.918	94.75
460.138	93.75
460.358	113.75
460.578	119.75
460.798	105.75
461.018	106.75
461.238	117.75
461.458	101.75
461.678	107.75
461.898	103.75
462.118	116.75
462.338	115.75
462.558	108.75
462.777	95.75
462.997	127.75
463.217	102.75
463.437	103.75
463.657	115.75
463.876	105.75
464.096	100.75
464.316	111.75
464.536	107.75
464.755	114.75
464.975	122.75
465.195	117.75
465.414	109.75
465.634	118.75
465.854	117.75
466.073	125.75
466.293	121.75
466.512	117.75
466.732	134.75
466.951	127.75
467.171	129.75
467.391	132.75
467.61	137.75
467.829	142.75
468.049	136.75
468.268	135.75
468.488	120.75
468.707	135.75
468.927	129.75
469.146	138.75
469.365	141.75
469.585	131.75
469.804	131.75
470.023	142.75
470.243	131.75
470.462	139.75
470.681	116.75
470.901	137.75
471.12	137.75
471.339	140.75
471.558	137.75
471.777	135.75
471.997	129.75
472.216	115.75
472.435	108.75
472.654	121.75
472.873	106.75
473.092	125.75
473.311	122.75
473.53	113.75
473.749	127.75
473.968	123.75
474.187	130.75
474.406	127.75
474.625	132.75
474.844	127.75
475.063	134.75
475.282	121.75
475.501	114.75
475.72	125.75
475.939	125.75
476.158	113.75
476.377	126.75
476.596	123.75
476.814	115.75
477.033	107.75
477.252	110.75
477.471	126.75
477.69	125.75
477.908	131.75
478.127	138.75
478.346	125.75
478.564	114.75
478.783	143.75
479.002	129.75
479.22	129.75
479.439	141.75
479.658	118.75
479.876	109.75
480.095	94.75
480.313	115.75
480.532	124.75
480.751	111.75
480.969	96.75
481.188	90.75
481.406	87.75
481.624	94.75
481.843	109.75
482.061	112.75
482.28	107.75
482.498	111.75
482.717	106.75
482.935	131.75
483.153	127.75
483.372	147.75
483.59	141.75
483.808	146.75
484.027	121.75
484.245	125.75
484.463	137.75
484.681	161.75
484.9	132.75
485.118	144.75
485.336	126.75
485.554	105.75
485.772	103.75
485.99	95.75
486.209	128.75
486.427	101.75
486.645	111.75
486.863	143.75
487.081	134.75
487.299	119.75
487.517	138.75
487.735	165.75
487.953	178.75
488.171	171.75
488.389	174.75
488.607	157.75
488.825	134.75
489.043	120.75
489.261	139.75
489.479	132.75
489.696	142.75
489.914	139.75
490.132	122.75
490.35	135.75
490.568	173.75
490.786	160.75
491.003	163.75
491.221	173.75
491.439	174.75
491.657	193.75
491.874	190.75
492.092	209.75
492.31	218.75
492.527	236.75
492.745	208.75
492.963	191.75
493.18	184.75
493.398	178.75
493.615	196.75
493.833	159.75
494.05	168.75
494.268	165.75
494.485	174.75
494.703	172.75
494.92	164.75
495.138	170.75
495.355	172.75
495.573	188.75
495.79	177.75
496.008	157.75
496.225	140.75
496.442	152.75
496.66	150.75
496.877	157.75
497.094	158.75
497.312	150.75
497.529	147.75
497.746	140.75
497.963	126.75
498.181	129.75
498.398	125.75
498.615	106.75
498.832	103.75
499.049	101.75
499.267	116.75
499.484	125.75
499.701	125.75
499.918	131.75
500.135	132.75
500.352	135.75
500.569	138.75
500.786	147.75
501.003	137.75
501.22	154.75
501.437	127.75
501.654	129.75
501.871	147.75
502.088	132.75
502.305	115.75
502.522	137.75
502.739	121.75
502.956	125.75
503.172	126.75
503.389	126.75
503.606	123.75
503.823	132.75
504.04	121.75
504.256	123.75
504.473	118.75
504.69	106.75
504.907	115.75
505.123	123.75
505.34	124.75
505.557	136.75
505.773	129.75
505.99	115.75
506.207	120.75
506.423	102.75
506.64	121.75
506.856	117.75
507.073	133.75
507.289	123.75
507.506	116.75
507.722	113.75
507.939	111.75
508.155	126.75
508.372	118.75
508.588	120.75
508.805	121.75
509.021	106.75
509.238	105.75
509.454	94.75
509.67	98.75
509.887	105.75
510.103	91.75
510.319	88.75
510.536	88.75
510.752	99.75
510.968	85.75
511.184	77.75
511.401	79.75
511.617	85.75
511.833	81.75
512.049	86.75
512.265	97.75
512.481	104.75
512.698	105.75
512.914	102.75
513.13	107.75
513.346	93.75
513.562	107.75
513.778	94.75
513.994	76.75
514.21	83.75
514.426	80.75
514.642	103.75
514.858	87.75
515.074	82.75
515.29	85.75
515.506	73.75
515.721	89.75
515.937	91.75
516.153	96.75
516.369	100.75
516.585	90.75
516.801	91.75
517.016	97.75
517.232	78.75
517.448	92.75
517.664	88.75
517.879	85.75
518.095	101.75
518.311	108.75
518.527	113.75
518.742	103.75
518.958	109.75
519.173	97.75
519.389	117.75
519.605	101.75
519.82	103.75
520.036	108.75
520.251	100.75
520.467	104.75
520.682	88.75
520.898	101.75
521.113	89.75
521.329	99.75
521.544	88.75
521.76	89.75
521.975	93.75
522.19	94.75
522.406	98.75
522.621	96.75
522.836	93.75
523.052	115.75
523.267	111.75
523.482	101.75
523.698	96.75
523.913	118.75
524.128	112.75
524.343	121.75
524.559	119.75
524.774	102.75
524.989	103.75
525.204	115.75
525.419	117.75
525.634	109.75
525.849	104.75
526.064	107.75
526.28	109.75
526.495	111.75
526.71	91.75
526.925	99.75
527.14	75.75
527.355	94.75
527.57	89.75
527.785	86.75
527.999	98.75
528.214	97.75
528.429	110.75
528.644	113.75
528.859	143.75
529.074	132.75
529.289	161.75
529.503	155.75
529.718	141.75
529.933	119.75
530.148	122.75
530.363	88.75
530.577	97.75
530.792	79.75
531.007	73.75
531.221	78.75
531.436	92.75
531.651	88.75
531.865	72.75
532.08	86.75
532.295	84.75
532.509	100.75
532.724	83.75
532.938	91.75
533.153	112.75
533.367	110.75
533.582	121.75
533.796	124.75
534.011	110.75
534.225	104.75
534.44	79.75
534.654	96.75
534.868	97.75
535.083	106.75
535.297	91.75
535.511	104.75
535.726	108.75
535.94	89.75
536.154	91.75
536.369	100.75
536.583	86.75
536.797	74.75
537.011	96.75
537.225	84.75
537.44	95.75
537.654	92.75
537.868	105.75
538.082	91.75
538.296	91.75
538.51	105.75
538.724	110.75
538.938	125.75
539.153	115.75
539.367	121.75
539.581	113.75
539.795	90.75
540.009	99.75
540.222	106.75
540.436	106.75
540.65	108.75
540.864	127.75
541.078	125.75
541.292	138.75
541.506	149.75
541.72	162.75
541.934	167.75
542.147	186.75
542.361	182.75
542.575	147.75
542.789	157.75
543.002	133.75
543.216	124.75
543.43	127.75
543.644	137.75
543.857	159.75
544.071	165.75
544.285	151.75
544.498	162.75
544.712	158.75
544.925	165.75
545.139	161.75
545.352	168.75
545.566	173.75
545.779	155.75
545.993	147.75
546.206	171.75
546.42	156.75
546.633	158.75
546.847	161.75
547.06	149.75
547.274	167.75
547.487	181.75
547.7	189.75
547.914	171.75
548.127	155.75
548.34	162.75
548.554	154.75
548.767	154.75
548.98	142.75
549.193	138.75
549.407	155.75
549.62	152.75
549.833	153.75
550.046	153.75
550.259	162.75
550.473	145.75
550.686	151.75
550.899	153.75
551.112	155.75
551.325	151.75
551.538	131.75
551.751	124.75
551.964	121.75
552.177	127.75
552.39	131.75
552.603	147.75
552.816	149.75
553.029	143.75
553.242	142.75
553.455	171.75
553.667	163.75
553.88	147.75
554.093	143.75
554.306	158.75
554.519	152.75
554.732	138.75
554.944	161.75
555.157	133.75
555.37	135.75
555.583	135.75
555.795	132.75
556.008	147.75
556.221	129.75
556.433	134.75
556.646	128.75
556.859	140.75
557.071	150.75
557.284	129.75
557.496	145.75
557.709	134.75
557.921	141.75
558.134	125.75
558.346	142.75
558.559	137.75
558.771	131.75
558.984	134.75
559.196	138.75
559.409	115.75
559.621	131.75
559.833	123.75
560.046	123.75
560.258	127.75
560.47	141.75
560.683	130.75
560.895	137.75
561.107	131.75
561.32	103.75
561.532	121.75
561.744	124.75
561.956	123.75
562.168	144.75
562.381	129.75
562.593	123.75
562.805	134.75
563.017	116.75
563.229	119.75
563.441	126.75
563.653	122.75
563.865	111.75
564.077	123.75
564.289	115.75
564.501	98.75
564.713	120.75
564.925	108.75
565.137	129.75
565.349	111.75
565.561	114.75
565.773	101.75
565.985	127.75
566.197	97.75
566.408	123.75
566.62	125.75
566.832	108.75
567.044	115.75
567.255	123.75
567.467	98.75
567.679	114.75
567.891	116.75
568.102	116.75
568.314	94.75
568.526	98.75
568.737	93.75
568.949	90.75
569.161	102.75
569.372	101.75
569.584	84.75
569.795	81.75
570.007	84.75
570.218	92.75
570.43	92.75
570.641	83.75
570.853	97.75
571.064	102.75
571.276	94.75
571.487	106.75
571.698	108.75
571.91	106.75
572.121	108.75
572.333	109.75
572.544	104.75
572.755	84.75
572.966	95.75
573.178	96.75
573.389	78.75
573.6	70.75
573.811	107.75
574.023	79.75
574.234	78.75
574.445	79.75
574.656	80.75
574.867	97.75
575.078	103.75
575.289	100.75
575.501	81.75
575.712	80.75
575.923	93.75
576.134	82.75
576.345	94.75
576.556	104.75
576.767	98.75
576.978	86.75
577.188	92.75
577.399	105.75
577.61	90.75
577.821	91.75
578.032	93.75
578.243	88.75
578.454	94.75
578.665	89.75
578.875	78.75
579.086	99.75
579.297	86.75
579.508	99.75
579.718	92.75
579.929	93.75
580.14	83.75
580.35	95.75
580.561	97.75
580.772	76.75
580.982	93.75
581.193	80.75
581.403	87.75
581.614	87.75
581.825	83.75
582.035	98.75
582.246	80.75
582.456	83.75
582.667	92.75
582.877	87.75
583.087	100.75
583.298	91.75
583.508	78.75
583.719	77.75
583.929	85.75
584.139	73.75
584.35	81.75
584.56	86.75
584.77	68.75
584.981	77.75
585.191	88.75
585.401	91.75
585.611	88.75
585.821	93.75
586.032	93.75
586.242	86.75
586.452	90.75
586.662	91.75
586.872	71.75
587.082	97.75
587.292	72.75
587.502	89.75
587.713	87.75
587.923	86.75
588.133	85.75
588.343	79.75
588.553	89.75
588.762	95.75
588.972	94.75
589.182	92.75
589.392	82.75
589.602	88.75
589.812	76.75
590.022	88.75
590.232	87.75
590.441	78.75
590.651	92.75
590.861	90.75
591.071	88.75
591.281	70.75
591.49	75.75
591.7	82.75
591.91	83.75
592.119	90.75
592.329	90.75
592.539	93.75
592.748	86.75
592.958	81.75
593.167	73.75
593.377	85.75
593.587	91.75
593.796	78.75
594.006	73.75
594.215	93.75
594.424	87.75
594.634	82.75
594.843	99.75
595.053	105.75
595.262	102.75
595.472	92.75
595.681	85.75
595.89	85.75
596.1	97.75
596.309	96.75
596.518	91.75
596.727	107.75
596.937	91.75
597.146	93.75
597.355	82.75
597.564	98.75
597.774	83.75
597.983	87.75
598.192	87.75
598.401	88.75
598.61	73.75
598.819	87.75
599.028	104.75
599.237	100.75
599.446	90.75
599.655	101.75
599.864	106.75
600.073	86.75
600.282	108.75
600.491	115.75
600.7	97.75
600.909	107.75
601.118	90.75
601.327	84.75
601.536	110.75
601.745	107.75
601.953	123.75
602.162	108.75
602.371	106.75
602.58	113.75
602.789	106.75
602.997	122.75
603.206	120.75
603.415	112.75
603.623	108.75
603.832	117.75
604.041	101.75
604.249	107.75
604.458	111.75
604.666	110.75
604.875	104.75
605.084	107.75
605.292	106.75
605.501	122.75
605.709	118.75
605.918	107.75
606.126	117.75
606.334	133.75
606.543	109.75
606.751	121.75
606.96	110.75
607.168	93.75
607.376	109.75
607.585	110.75
607.793	120.75
608.001	100.75
608.21	117.75
608.418	105.75
608.626	117.75
608.834	139.75
609.043	109.75
609.251	119.75
609.459	105.75
609.667	111.75
609.875	126.75
610.083	108.75
610.291	110.75
610.499	126.75
610.707	114.75
610.916	111.75
611.124	107.75
611.332	107.75
611.54	129.75
611.748	120.75
611.955	108.75
612.163	113.75
612.371	128.75
612.579	106.75
612.787	103.75
612.995	113.75
613.203	103.75
613.411	114.75
613.618	119.75
613.826	125.75
614.034	104.75
614.242	113.75
614.449	105.75
614.657	117.75
614.865	117.75
615.072	114.75
615.28	97.75
615.488	115.75
615.695	112.75
615.903	106.75
616.111	104.75
616.318	110.75
616.526	98.75
616.733	121.75
616.941	89.75
617.148	127.75
617.356	109.75
617.563	101.75
617.771	98.75
617.978	116.75
618.185	116.75
618.393	105.75
618.6	107.75
618.807	117.75
619.015	106.75
619.222	111.75
619.429	117.75
619.637	118.75
619.844	106.75
620.051	103.75
620.258	108.75
620.466	107.75
620.673	114.75
620.88	107.75
621.087	99.75
621.294	104.75
621.501	98.75
621.708	116.75
621.915	93.75
622.122	101.75
622.329	100.75
622.536	106.75
622.743	92.75
622.95	108.75
623.157	104.75
623.364	104.75
623.571	107.75
623.778	102.75
623.985	112.75
624.192	112.75
624.399	124.75
624.606	121.75
624.812	95.75
625.019	90.75
625.226	110.75
625.433	115.75
625.639	93.75
625.846	100.75
626.053	92.75
626.259	85.75
626.466	87.75
626.673	89.75
626.879	98.75
627.086	103.75
627.293	100.75
627.499	86.75
627.706	103.75
627.912	103.75
628.119	102.75
628.325	101.75
628.532	99.75
628.738	89.75
628.945	107.75
629.151	93.75
629.357	88.75
629.564	98.75
629.77	113.75
629.976	105.75
630.183	101.75
630.389	122.75
630.595	96.75
630.802	104.75
631.008	106.75
631.214	109.75
631.42	108.75
631.627	120.75
631.833	97.75
632.039	93.75
632.245	84.75
632.451	96.75
632.657	93.75
632.863	96.75
633.069	94.75
633.275	107.75
633.481	98.75
633.688	90.75
633.893	106.75
634.099	106.75
634.305	88.75
634.511	96.75
634.717	81.75
634.923	113.75
635.129	90.75
635.335	94.75
635.541	98.75
635.747	105.75
635.952	100.75
636.158	106.75
636.364	100.75
636.57	97.75
636.775	101.75
636.981	102.75
637.187	105.75
637.392	112.75
637.598	114.75
637.804	113.75
638.009	101.75
638.215	93.75
638.421	96.75
638.626	89.75
638.832	97.75
639.037	99.75
639.243	94.75
639.448	99.75
639.654	107.75
639.859	114.75
640.065	103.75
640.27	122.75
640.475	98.75
640.681	111.75
640.886	108.75
641.091	110.75
641.297	115.75
641.502	94.75
641.707	99.75
641.913	106.75
642.118	97.75
642.323	108.75
642.528	97.75
642.733	114.75
642.939	99.75
643.144	99.75
643.349	98.75
643.554	102.75
643.759	94.75
643.964	85.75
644.169	89.75
644.374	102.75
644.579	76.75
644.784	78.75
644.989	99.75
645.194	93.75
645.399	95.75
645.604	98.75
645.809	99.75
646.014	105.75
646.219	93.75
646.423	90.75
646.628	90.75
646.833	91.75
647.038	100.75
647.243	109.75
647.447	89.75
647.652	91.75
647.857	99.75
648.062	99.75
648.266	95.75
648.471	93.75
648.676	96.75
648.88	114.75
649.085	95.75
649.289	101.75
649.494	97.75
649.698	93.75
649.903	109.75
650.107	86.75
650.312	103.75
650.516	100.75
650.721	95.75
650.925	94.75
651.13	79.75
651.334	94.75
651.539	91.75
651.743	86.75
651.947	107.75
652.152	102.75
652.356	97.75
652.56	89.75
652.764	96.75
652.969	93.75
653.173	91.75
653.377	93.75
653.581	94.75
653.785	88.75
653.99	97.75
654.194	98.75
654.398	105.75
654.602	72.75
654.806	89.75
655.01	86.75
655.214	85.75
655.418	98.75
655.622	81.75
655.826	86.75
656.03	74.75
656.234	90.75
656.438	85.75
656.642	77.75
656.846	84.75
657.049	80.75
657.253	89.75
657.457	77.75
657.661	79.75
657.865	83.75
658.068	85.75
658.272	82.75
658.476	82.75
658.68	89.75
658.883	87.75
659.087	88.75
659.291	78.75
659.494	93.75
659.698	80.75
659.901	76.75
660.105	88.75
660.309	91.75
660.512	101.75
660.716	84.75
660.919	79.75
661.123	83.75
661.326	83.75
661.53	84.75
661.733	77.75
661.936	83.75
662.14	97.75
662.343	77.75
662.546	80.75
662.75	67.75
662.953	91.75
663.156	93.75
663.36	86.75
663.563	74.75
663.766	80.75
663.969	87.75
664.173	81.75
664.376	80.75
664.579	76.75
664.782	78.75
664.985	84.75
665.188	86.75
665.391	75.75
665.594	77.75
665.797	72.75
666	87.75
666.203	76.75
666.406	89.75
666.609	83.75
666.812	90.75
667.015	96.75
667.218	83.75
667.421	88.75
667.624	84.75
667.827	87.75
668.03	87.75
668.232	71.75
668.435	76.75
668.638	74.75
668.841	82.75
669.043	80.75
669.246	79.75
669.449	84.75
669.651	93.75
669.854	77.75
670.057	92.75
670.259	87.75
670.462	79.75
670.665	81.75
670.867	66.75
671.07	69.75
671.272	77.75
671.475	80.75
671.677	82.75
671.88	78.75
672.082	86.75
672.284	78.75
672.487	71.75
672.689	97.75
672.892	96.75
