Data from Location1.07152019.Energy5.Lamp.07192019.3%Agarose_HRD10591_14-33-10-016.txt Node
Date: Fri Jul 19 14:33:10 EDT 2019
User: cochatt
Spectrometer: HR+D1059
Trigger mode: 1
Integration Time (sec): 1.000000E-1
Scans to average: 1
Electric dark correction enabled: true
Nonlinearity correction enabled: false
Boxcar width: 0
XAxis mode: Wavelengths
Number of Pixels in Spectrum: 2048
>>>>>Begin Spectral Data<<<<<
223.165	-13.12
223.4	-13.12
223.635	-13.12
223.869	-7.12
224.104	-3.12
224.338	-18.12
224.573	-28.12
224.808	-16.12
225.042	-15.12
225.277	-9.12
225.511	-9.12
225.746	-0.12
225.98	-5.12
226.215	14.88
226.449	17.88
226.683	22.88
226.918	32.88
227.152	35.88
227.387	27.88
227.621	42.88
227.856	36.88
228.09	49.88
228.324	39.88
228.559	55.88
228.793	54.88
229.027	53.88
229.262	64.88
229.496	57.88
229.73	60.88
229.964	69.88
230.199	64.88
230.433	67.88
230.667	68.88
230.901	68.88
231.136	76.88
231.37	82.88
231.604	69.88
231.838	97.88
232.072	86.88
232.306	84.88
232.541	67.88
232.775	81.88
233.009	76.88
233.243	74.88
233.477	84.88
233.711	75.88
233.945	81.88
234.179	76.88
234.413	84.88
234.647	75.88
234.881	78.88
235.115	74.88
235.349	84.88
235.583	87.88
235.817	81.88
236.051	77.88
236.285	78.88
236.519	78.88
236.753	77.88
236.987	82.88
237.221	67.88
237.455	73.88
237.689	69.88
237.922	77.88
238.156	84.88
238.39	70.88
238.624	65.88
238.858	78.88
239.091	68.88
239.325	64.88
239.559	92.88
239.793	84.88
240.027	74.88
240.26	70.88
240.494	82.88
240.728	73.88
240.961	77.88
241.195	74.88
241.429	88.88
241.662	82.88
241.896	67.88
242.13	87.88
242.363	82.88
242.597	80.88
242.83	81.88
243.064	68.88
243.298	86.88
243.531	66.88
243.765	87.88
243.998	74.88
244.232	81.88
244.465	89.88
244.699	84.88
244.932	70.88
245.166	76.88
245.399	75.88
245.633	76.88
245.866	75.88
246.099	79.88
246.333	76.88
246.566	77.88
246.8	72.88
247.033	70.88
247.266	70.88
247.5	81.88
247.733	75.88
247.966	76.88
248.2	69.88
248.433	89.88
248.666	73.88
248.899	78.88
249.133	69.88
249.366	93.88
249.599	93.88
249.832	85.88
250.066	83.88
250.299	82.88
250.532	71.88
250.765	70.88
250.998	82.88
251.231	73.88
251.465	77.88
251.698	78.88
251.931	90.88
252.164	85.88
252.397	98.88
252.63	84.88
252.863	91.88
253.096	77.88
253.329	80.88
253.562	71.88
253.795	84.88
254.028	75.88
254.261	90.88
254.494	63.88
254.727	77.88
254.96	71.88
255.193	73.88
255.426	68.88
255.659	80.88
255.892	84.88
256.124	79.88
256.357	85.88
256.59	79.88
256.823	71.88
257.056	87.88
257.289	81.88
257.521	78.88
257.754	95.88
257.987	61.88
258.22	84.88
258.452	75.88
258.685	79.88
258.918	70.88
259.151	66.88
259.383	84.88
259.616	74.88
259.849	80.88
260.081	86.88
260.314	82.88
260.547	86.88
260.779	81.88
261.012	82.88
261.244	80.88
261.477	76.88
261.71	76.88
261.942	78.88
262.175	68.88
262.407	86.88
262.64	93.88
262.872	86.88
263.105	79.88
263.337	98.88
263.57	88.88
263.802	87.88
264.035	74.88
264.267	82.88
264.499	83.88
264.732	58.88
264.964	93.88
265.197	92.88
265.429	73.88
265.661	82.88
265.894	80.88
266.126	89.88
266.358	99.88
266.591	77.88
266.823	62.88
267.055	78.88
267.287	77.88
267.52	97.88
267.752	68.88
267.984	80.88
268.216	74.88
268.448	74.88
268.681	77.88
268.913	75.88
269.145	90.88
269.377	76.88
269.609	86.88
269.841	79.88
270.073	92.88
270.306	87.88
270.538	81.88
270.77	75.88
271.002	75.88
271.234	80.88
271.466	89.88
271.698	70.88
271.93	64.88
272.162	77.88
272.394	76.88
272.626	79.88
272.858	76.88
273.09	76.88
273.322	91.88
273.553	86.88
273.785	91.88
274.017	78.88
274.249	83.88
274.481	84.88
274.713	81.88
274.945	77.88
275.176	79.88
275.408	79.88
275.64	95.88
275.872	78.88
276.104	87.88
276.335	88.88
276.567	81.88
276.799	80.88
277.031	85.88
277.262	76.88
277.494	87.88
277.726	99.88
277.957	70.88
278.189	74.88
278.421	82.88
278.652	82.88
278.884	88.88
279.115	78.88
279.347	80.88
279.579	80.88
279.81	79.88
280.042	92.88
280.273	89.88
280.505	86.88
280.736	68.88
280.968	83.88
281.199	88.88
281.431	67.88
281.662	78.88
281.894	78.88
282.125	90.88
282.356	74.88
282.588	85.88
282.819	91.88
283.051	83.88
283.282	85.88
283.513	87.88
283.745	85.88
283.976	83.88
284.207	82.88
284.439	91.88
284.67	77.88
284.901	72.88
285.132	83.88
285.364	66.88
285.595	88.88
285.826	82.88
286.057	91.88
286.288	93.88
286.52	86.88
286.751	78.88
286.982	85.88
287.213	80.88
287.444	97.88
287.675	88.88
287.906	76.88
288.138	94.88
288.369	96.88
288.6	77.88
288.831	78.88
289.062	74.88
289.293	61.88
289.524	78.88
289.755	86.88
289.986	82.88
290.217	92.88
290.448	82.88
290.679	80.88
290.91	85.88
291.141	79.88
291.371	86.88
291.602	96.88
291.833	87.88
292.064	74.88
292.295	77.88
292.526	75.88
292.757	72.88
292.987	82.88
293.218	78.88
293.449	90.88
293.68	84.88
293.91	79.88
294.141	87.88
294.372	97.88
294.603	79.88
294.833	88.88
295.064	78.88
295.295	90.88
295.525	86.88
295.756	85.88
295.987	90.88
296.217	87.88
296.448	92.88
296.679	75.88
296.909	76.88
297.14	88.88
297.37	79.88
297.601	77.88
297.831	75.88
298.062	78.88
298.292	78.88
298.523	76.88
298.753	86.88
298.984	85.88
299.214	69.88
299.445	90.88
299.675	77.88
299.905	91.88
300.136	82.88
300.366	97.88
300.597	85.88
300.827	93.88
301.057	86.88
301.288	86.88
301.518	88.88
301.748	88.88
301.979	95.88
302.209	98.88
302.439	80.88
302.669	91.88
302.9	86.88
303.13	83.88
303.36	83.88
303.59	86.88
303.82	86.88
304.051	81.88
304.281	94.88
304.511	74.88
304.741	85.88
304.971	94.88
305.201	85.88
305.431	89.88
305.661	84.88
305.891	81.88
306.121	81.88
306.352	72.88
306.582	84.88
306.812	95.88
307.042	87.88
307.272	66.88
307.502	92.88
307.731	86.88
307.961	86.88
308.191	68.88
308.421	71.88
308.651	86.88
308.881	86.88
309.111	79.88
309.341	80.88
309.571	103.88
309.8	84.88
310.03	89.88
310.26	74.88
310.49	83.88
310.72	78.88
310.949	71.88
311.179	86.88
311.409	89.88
311.639	77.88
311.868	86.88
312.098	74.88
312.328	86.88
312.557	84.88
312.787	91.88
313.017	92.88
313.246	88.88
313.476	93.88
313.706	74.88
313.935	81.88
314.165	86.88
314.394	91.88
314.624	82.88
314.853	87.88
315.083	75.88
315.312	75.88
315.542	80.88
315.771	68.88
316.001	93.88
316.23	83.88
316.46	86.88
316.689	85.88
316.919	69.88
317.148	85.88
317.377	83.88
317.607	89.88
317.836	80.88
318.065	86.88
318.295	86.88
318.524	88.88
318.753	92.88
318.983	85.88
319.212	79.88
319.441	93.88
319.67	84.88
319.9	87.88
320.129	83.88
320.358	75.88
320.587	81.88
320.816	71.88
321.046	81.88
321.275	84.88
321.504	83.88
321.733	78.88
321.962	76.88
322.191	90.88
322.42	85.88
322.649	77.88
322.878	82.88
323.108	77.88
323.337	77.88
323.566	82.88
323.795	92.88
324.024	82.88
324.253	78.88
324.482	76.88
324.71	76.88
324.939	83.88
325.168	89.88
325.397	86.88
325.626	70.88
325.855	75.88
326.084	93.88
326.313	79.88
326.542	80.88
326.77	87.88
326.999	92.88
327.228	80.88
327.457	79.88
327.686	74.88
327.914	78.88
328.143	92.88
328.372	82.88
328.6	84.88
328.829	93.88
329.058	66.88
329.287	84.88
329.515	80.88
329.744	76.88
329.972	85.88
330.201	97.88
330.43	82.88
330.658	66.88
330.887	61.88
331.115	77.88
331.344	97.88
331.572	84.88
331.801	80.88
332.03	80.88
332.258	87.88
332.486	84.88
332.715	77.88
332.943	78.88
333.172	99.88
333.4	70.88
333.629	82.88
333.857	97.88
334.085	91.88
334.314	97.88
334.542	79.88
334.771	91.88
334.999	93.88
335.227	77.88
335.455	76.88
335.684	77.88
335.912	87.88
336.14	72.88
336.369	82.88
336.597	86.88
336.825	95.88
337.053	89.88
337.281	72.88
337.51	72.88
337.738	92.88
337.966	83.88
338.194	74.88
338.422	74.88
338.65	88.88
338.878	73.88
339.106	81.88
339.334	84.88
339.562	78.88
339.79	88.88
340.018	72.88
340.246	87.88
340.474	80.88
340.702	76.88
340.93	72.88
341.158	92.88
341.386	79.88
341.614	92.88
341.842	94.88
342.07	87.88
342.298	92.88
342.526	85.88
342.754	82.88
342.981	84.88
343.209	94.88
343.437	81.88
343.665	81.88
343.893	73.88
344.12	90.88
344.348	78.88
344.576	74.88
344.804	82.88
345.031	75.88
345.259	88.88
345.487	77.88
345.714	83.88
345.942	85.88
346.17	95.88
346.397	83.88
346.625	82.88
346.853	85.88
347.08	72.88
347.308	85.88
347.535	90.88
347.763	77.88
347.99	88.88
348.218	79.88
348.445	71.88
348.673	84.88
348.9	84.88
349.128	80.88
349.355	87.88
349.583	92.88
349.81	83.88
350.037	84.88
350.265	88.88
350.492	87.88
350.72	101.88
350.947	91.88
351.174	79.88
351.402	84.88
351.629	96.88
351.856	78.88
352.083	93.88
352.311	78.88
352.538	80.88
352.765	84.88
352.992	62.88
353.22	95.88
353.447	89.88
353.674	84.88
353.901	85.88
354.128	91.88
354.355	83.88
354.583	78.88
354.81	76.88
355.037	85.88
355.264	94.88
355.491	88.88
355.718	73.88
355.945	86.88
356.172	78.88
356.399	80.88
356.626	82.88
356.853	76.88
357.08	90.88
357.307	92.88
357.534	84.88
357.761	86.88
357.988	78.88
358.215	84.88
358.441	74.88
358.668	85.88
358.895	80.88
359.122	81.88
359.349	92.88
359.576	84.88
359.802	82.88
360.029	89.88
360.256	87.88
360.483	76.88
360.709	97.88
360.936	83.88
361.163	85.88
361.39	81.88
361.616	95.88
361.843	85.88
362.07	84.88
362.296	86.88
362.523	97.88
362.749	74.88
362.976	83.88
363.203	83.88
363.429	69.88
363.656	76.88
363.882	81.88
364.109	91.88
364.335	76.88
364.562	81.88
364.788	80.88
365.015	87.88
365.241	79.88
365.468	65.88
365.694	88.88
365.92	101.88
366.147	94.88
366.373	96.88
366.599	94.88
366.826	82.88
367.052	87.88
367.278	74.88
367.505	73.88
367.731	86.88
367.957	72.88
368.184	80.88
368.41	81.88
368.636	86.88
368.862	93.88
369.089	79.88
369.315	91.88
369.541	94.88
369.767	95.88
369.993	88.88
370.219	87.88
370.445	93.88
370.672	79.88
370.898	102.88
371.124	94.88
371.35	97.88
371.576	78.88
371.802	75.88
372.028	102.88
372.254	106.88
372.48	80.88
372.706	84.88
372.932	91.88
373.158	85.88
373.384	89.88
373.61	95.88
373.835	92.88
374.061	86.88
374.287	84.88
374.513	94.88
374.739	84.88
374.965	87.88
375.191	104.88
375.416	83.88
375.642	102.88
375.868	92.88
376.094	83.88
376.319	99.88
376.545	95.88
376.771	89.88
376.997	98.88
377.222	98.88
377.448	91.88
377.674	78.88
377.899	99.88
378.125	95.88
378.35	93.88
378.576	85.88
378.802	89.88
379.027	78.88
379.253	80.88
379.478	91.88
379.704	102.88
379.929	93.88
380.155	105.88
380.38	81.88
380.606	90.88
380.831	102.88
381.057	89.88
381.282	100.88
381.507	99.88
381.733	93.88
381.958	106.88
382.184	96.88
382.409	88.88
382.634	90.88
382.86	99.88
383.085	88.88
383.31	94.88
383.535	99.88
383.761	98.88
383.986	86.88
384.211	105.88
384.436	91.88
384.662	100.88
384.887	100.88
385.112	98.88
385.337	90.88
385.562	82.88
385.787	104.88
386.013	104.88
386.238	104.88
386.463	91.88
386.688	88.88
386.913	88.88
387.138	103.88
387.363	109.88
387.588	106.88
387.813	104.88
388.038	97.88
388.263	98.88
388.488	92.88
388.713	97.88
388.938	109.88
389.163	104.88
389.387	99.88
389.612	91.88
389.837	94.88
390.062	102.88
390.287	86.88
390.512	82.88
390.736	100.88
390.961	90.88
391.186	94.88
391.411	98.88
391.636	104.88
391.86	85.88
392.085	87.88
392.31	101.88
392.534	111.88
392.759	101.88
392.984	112.88
393.208	104.88
393.433	96.88
393.658	99.88
393.882	94.88
394.107	85.88
394.331	102.88
394.556	97.88
394.78	100.88
395.005	104.88
395.229	105.88
395.454	103.88
395.678	91.88
395.903	108.88
396.127	112.88
396.352	100.88
396.576	103.88
396.801	107.88
397.025	103.88
397.249	109.88
397.474	105.88
397.698	116.88
397.922	104.88
398.147	101.88
398.371	100.88
398.595	106.88
398.82	106.88
399.044	92.88
399.268	104.88
399.492	112.88
399.717	113.88
399.941	108.88
400.165	106.88
400.389	110.88
400.613	118.88
400.837	107.88
401.062	116.88
401.286	114.88
401.51	100.88
401.734	115.88
401.958	112.88
402.182	111.88
402.406	109.88
402.63	119.88
402.854	115.88
403.078	120.88
403.302	107.88
403.526	110.88
403.75	102.88
403.974	105.88
404.198	115.88
404.422	117.88
404.645	109.88
404.869	112.88
405.093	116.88
405.317	108.88
405.541	104.88
405.765	125.88
405.988	114.88
406.212	114.88
406.436	123.88
406.66	132.88
406.883	111.88
407.107	106.88
407.331	121.88
407.555	120.88
407.778	118.88
408.002	114.88
408.226	127.88
408.449	112.88
408.673	113.88
408.896	125.88
409.12	114.88
409.344	122.88
409.567	115.88
409.791	132.88
410.014	116.88
410.238	107.88
410.461	112.88
410.685	116.88
410.908	122.88
411.132	118.88
411.355	129.88
411.578	118.88
411.802	119.88
412.025	108.88
412.249	106.88
412.472	105.88
412.695	121.88
412.919	117.88
413.142	129.88
413.365	119.88
413.589	107.88
413.812	103.88
414.035	126.88
414.258	135.88
414.482	118.88
414.705	108.88
414.928	115.88
415.151	110.88
415.374	125.88
415.597	126.88
415.821	142.88
416.044	128.88
416.267	111.88
416.49	119.88
416.713	132.88
416.936	126.88
417.159	133.88
417.382	124.88
417.605	116.88
417.828	121.88
418.051	113.88
418.274	123.88
418.497	135.88
418.72	130.88
418.943	126.88
419.166	137.88
419.389	135.88
419.611	127.88
419.834	136.88
420.057	129.88
420.28	130.88
420.503	134.88
420.726	132.88
420.948	134.88
421.171	131.88
421.394	129.88
421.617	134.88
421.839	164.88
422.062	141.88
422.285	123.88
422.507	124.88
422.73	119.88
422.953	139.88
423.175	130.88
423.398	119.88
423.621	143.88
423.843	129.88
424.066	116.88
424.288	134.88
424.511	141.88
424.733	147.88
424.956	146.88
425.178	137.88
425.401	141.88
425.623	144.88
425.846	132.88
426.068	129.88
426.291	118.88
426.513	135.88
426.735	130.88
426.958	125.88
427.18	115.88
427.402	128.88
427.625	126.88
427.847	137.88
428.069	121.88
428.292	124.88
428.514	122.88
428.736	134.88
428.958	128.88
429.181	137.88
429.403	120.88
429.625	114.88
429.847	106.88
430.069	121.88
430.292	125.88
430.514	116.88
430.736	121.88
430.958	126.88
431.18	122.88
431.402	113.88
431.624	120.88
431.846	93.88
432.068	94.88
432.29	89.88
432.512	112.88
432.734	126.88
432.956	134.88
433.178	134.88
433.4	130.88
433.622	124.88
433.844	122.88
434.066	124.88
434.287	99.88
434.509	117.88
434.731	102.88
434.953	125.88
435.175	114.88
435.397	130.88
435.618	125.88
435.84	112.88
436.062	107.88
436.284	128.88
436.505	137.88
436.727	124.88
436.949	122.88
437.17	124.88
437.392	127.88
437.614	112.88
437.835	90.88
438.057	98.88
438.278	101.88
438.5	133.88
438.721	133.88
438.943	136.88
439.165	141.88
439.386	141.88
439.608	141.88
439.829	132.88
440.05	132.88
440.272	142.88
440.493	137.88
440.715	141.88
440.936	140.88
441.158	141.88
441.379	141.88
441.6	142.88
441.822	140.88
442.043	126.88
442.264	136.88
442.486	138.88
442.707	124.88
442.928	124.88
443.149	143.88
443.371	130.88
443.592	150.88
443.813	135.88
444.034	136.88
444.255	148.88
444.476	126.88
444.698	134.88
444.919	132.88
445.14	211.88
445.361	173.88
445.582	147.88
445.803	142.88
446.024	156.88
446.245	146.88
446.466	168.88
446.687	160.88
446.908	157.88
447.129	155.88
447.35	151.88
447.571	145.88
447.792	152.88
448.013	136.88
448.234	146.88
448.455	142.88
448.675	141.88
448.896	139.88
449.117	141.88
449.338	132.88
449.559	123.88
449.779	131.88
450	150.88
450.221	138.88
450.442	124.88
450.662	123.88
450.883	136.88
451.104	136.88
451.324	122.88
451.545	123.88
451.766	121.88
451.986	135.88
452.207	140.88
452.428	132.88
452.648	118.88
452.869	114.88
453.089	112.88
453.31	106.88
453.53	117.88
453.751	102.88
453.971	104.88
454.192	99.88
454.412	117.88
454.633	121.88
454.853	108.88
455.073	122.88
455.294	130.88
455.514	121.88
455.734	108.88
455.955	119.88
456.175	112.88
456.395	105.88
456.616	90.88
456.836	107.88
457.056	115.88
457.276	100.88
457.497	94.88
457.717	105.88
457.937	106.88
458.157	109.88
458.377	104.88
458.598	99.88
458.818	81.88
459.038	85.88
459.258	75.88
459.478	74.88
459.698	80.88
459.918	91.88
460.138	100.88
460.358	119.88
460.578	101.88
460.798	109.88
461.018	116.88
461.238	114.88
461.458	97.88
461.678	103.88
461.898	108.88
462.118	93.88
462.338	103.88
462.558	117.88
462.777	113.88
462.997	117.88
463.217	96.88
463.437	108.88
463.657	108.88
463.876	118.88
464.096	94.88
464.316	114.88
464.536	110.88
464.755	106.88
464.975	103.88
465.195	115.88
465.414	118.88
465.634	116.88
465.854	114.88
466.073	125.88
466.293	115.88
466.512	110.88
466.732	132.88
466.951	128.88
467.171	135.88
467.391	131.88
467.61	132.88
467.829	115.88
468.049	140.88
468.268	123.88
468.488	120.88
468.707	117.88
468.927	124.88
469.146	130.88
469.365	145.88
469.585	128.88
469.804	135.88
470.023	139.88
470.243	148.88
470.462	120.88
470.681	139.88
470.901	138.88
471.12	124.88
471.339	131.88
471.558	139.88
471.777	140.88
471.997	138.88
472.216	112.88
472.435	122.88
472.654	120.88
472.873	114.88
473.092	118.88
473.311	122.88
473.53	132.88
473.749	128.88
473.968	121.88
474.187	121.88
474.406	116.88
474.625	126.88
474.844	134.88
475.063	136.88
475.282	116.88
475.501	140.88
475.72	125.88
475.939	122.88
476.158	143.88
476.377	124.88
476.596	123.88
476.814	106.88
477.033	86.88
477.252	107.88
477.471	107.88
477.69	128.88
477.908	143.88
478.127	123.88
478.346	124.88
478.564	130.88
478.783	132.88
479.002	137.88
479.22	139.88
479.439	132.88
479.658	126.88
479.876	102.88
480.095	92.88
480.313	120.88
480.532	124.88
480.751	109.88
480.969	93.88
481.188	92.88
481.406	85.88
481.624	84.88
481.843	99.88
482.061	101.88
482.28	107.88
482.498	106.88
482.717	128.88
482.935	141.88
483.153	130.88
483.372	131.88
483.59	152.88
483.808	138.88
484.027	129.88
484.245	114.88
484.463	157.88
484.681	162.88
484.9	146.88
485.118	132.88
485.336	129.88
485.554	123.88
485.772	100.88
485.99	100.88
486.209	107.88
486.427	125.88
486.645	124.88
486.863	127.88
487.081	140.88
487.299	136.88
487.517	139.88
487.735	179.88
487.953	184.88
488.171	182.88
488.389	172.88
488.607	148.88
488.825	154.88
489.043	131.88
489.261	130.88
489.479	144.88
489.696	137.88
489.914	140.88
490.132	131.88
490.35	130.88
490.568	171.88
490.786	170.88
491.003	170.88
491.221	167.88
491.439	166.88
491.657	179.88
491.874	206.88
492.092	230.88
492.31	245.88
492.527	214.88
492.745	199.88
492.963	181.88
493.18	182.88
493.398	169.88
493.615	170.88
493.833	155.88
494.05	182.88
494.268	165.88
494.485	161.88
494.703	173.88
494.92	160.88
495.138	174.88
495.355	169.88
495.573	173.88
495.79	182.88
496.008	179.88
496.225	157.88
496.442	156.88
496.66	159.88
496.877	152.88
497.094	173.88
497.312	150.88
497.529	158.88
497.746	159.88
497.963	120.88
498.181	124.88
498.398	116.88
498.615	121.88
498.832	119.88
499.049	122.88
499.267	107.88
499.484	131.88
499.701	135.88
499.918	127.88
500.135	133.88
500.352	138.88
500.569	143.88
500.786	127.88
501.003	136.88
501.22	142.88
501.437	127.88
501.654	136.88
501.871	134.88
502.088	135.88
502.305	120.88
502.522	139.88
502.739	137.88
502.956	129.88
503.172	115.88
503.389	113.88
503.606	116.88
503.823	104.88
504.04	120.88
504.256	118.88
504.473	112.88
504.69	122.88
504.907	120.88
505.123	109.88
505.34	114.88
505.557	117.88
505.773	131.88
505.99	137.88
506.207	119.88
506.423	116.88
506.64	120.88
506.856	114.88
507.073	122.88
507.289	114.88
507.506	113.88
507.722	98.88
507.939	107.88
508.155	117.88
508.372	105.88
508.588	116.88
508.805	116.88
509.021	115.88
509.238	111.88
509.454	97.88
509.67	90.88
509.887	100.88
510.103	98.88
510.319	98.88
510.536	97.88
510.752	88.88
510.968	79.88
511.184	76.88
511.401	81.88
511.617	85.88
511.833	96.88
512.049	97.88
512.265	84.88
512.481	81.88
512.698	97.88
512.914	102.88
513.13	99.88
513.346	88.88
513.562	93.88
513.778	90.88
513.994	94.88
514.21	101.88
514.426	105.88
514.642	97.88
514.858	90.88
515.074	92.88
515.29	81.88
515.506	82.88
515.721	98.88
515.937	65.88
516.153	88.88
516.369	82.88
516.585	68.88
516.801	91.88
517.016	109.88
517.232	95.88
517.448	91.88
517.664	89.88
517.879	90.88
518.095	87.88
518.311	84.88
518.527	101.88
518.742	95.88
518.958	106.88
519.173	103.88
519.389	92.88
519.605	114.88
519.82	108.88
520.036	98.88
520.251	112.88
520.467	109.88
520.682	97.88
520.898	96.88
521.113	78.88
521.329	101.88
521.544	92.88
521.76	88.88
521.975	96.88
522.19	92.88
522.406	106.88
522.621	100.88
522.836	101.88
523.052	81.88
523.267	109.88
523.482	118.88
523.698	116.88
523.913	112.88
524.128	112.88
524.343	115.88
524.559	105.88
524.774	110.88
524.989	129.88
525.204	128.88
525.419	122.88
525.634	108.88
525.849	98.88
526.064	110.88
526.28	105.88
526.495	101.88
526.71	89.88
526.925	87.88
527.14	87.88
527.355	89.88
527.57	87.88
527.785	82.88
527.999	106.88
528.214	111.88
528.429	114.88
528.644	128.88
528.859	129.88
529.074	139.88
529.289	154.88
529.503	173.88
529.718	126.88
529.933	113.88
530.148	106.88
530.363	99.88
530.577	86.88
530.792	84.88
531.007	65.88
531.221	90.88
531.436	88.88
531.651	83.88
531.865	73.88
532.08	81.88
532.295	104.88
532.509	88.88
532.724	94.88
532.938	81.88
533.153	97.88
533.367	95.88
533.582	123.88
533.796	120.88
534.011	101.88
534.225	112.88
534.44	103.88
534.654	86.88
534.868	92.88
535.083	93.88
535.297	88.88
535.511	97.88
535.726	94.88
535.94	107.88
536.154	94.88
536.369	98.88
536.583	81.88
536.797	91.88
537.011	70.88
537.225	81.88
537.44	94.88
537.654	94.88
537.868	93.88
538.082	68.88
538.296	100.88
538.51	107.88
538.724	123.88
538.938	108.88
539.153	118.88
539.367	116.88
539.581	105.88
539.795	101.88
540.009	107.88
540.222	88.88
540.436	112.88
540.65	108.88
540.864	123.88
541.078	127.88
541.292	139.88
541.506	162.88
541.72	162.88
541.934	162.88
542.147	182.88
542.361	192.88
542.575	154.88
542.789	142.88
543.002	121.88
543.216	132.88
543.43	115.88
543.644	125.88
543.857	153.88
544.071	146.88
544.285	155.88
544.498	140.88
544.712	148.88
544.925	156.88
545.139	155.88
545.352	143.88
545.566	157.88
545.779	149.88
545.993	168.88
546.206	169.88
546.42	166.88
546.633	168.88
546.847	160.88
547.06	148.88
547.274	176.88
547.487	172.88
547.7	176.88
547.914	163.88
548.127	157.88
548.34	150.88
548.554	145.88
548.767	140.88
548.98	148.88
549.193	148.88
549.407	145.88
549.62	157.88
549.833	138.88
550.046	152.88
550.259	150.88
550.473	151.88
550.686	150.88
550.899	139.88
551.112	148.88
551.325	162.88
551.538	127.88
551.751	126.88
551.964	124.88
552.177	130.88
552.39	150.88
552.603	143.88
552.816	158.88
553.029	147.88
553.242	157.88
553.455	161.88
553.667	153.88
553.88	165.88
554.093	146.88
554.306	141.88
554.519	156.88
554.732	153.88
554.944	135.88
555.157	140.88
555.37	130.88
555.583	159.88
555.795	146.88
556.008	129.88
556.221	123.88
556.433	123.88
556.646	131.88
556.859	142.88
557.071	147.88
557.284	136.88
557.496	134.88
557.709	129.88
557.921	137.88
558.134	129.88
558.346	126.88
558.559	118.88
558.771	132.88
558.984	121.88
559.196	132.88
559.409	138.88
559.621	137.88
559.833	129.88
560.046	131.88
560.258	126.88
560.47	140.88
560.683	123.88
560.895	138.88
561.107	137.88
561.32	115.88
561.532	136.88
561.744	134.88
561.956	142.88
562.168	126.88
562.381	124.88
562.593	110.88
562.805	128.88
563.017	120.88
563.229	126.88
563.441	134.88
563.653	129.88
563.865	124.88
564.077	116.88
564.289	134.88
564.501	108.88
564.713	117.88
564.925	112.88
565.137	119.88
565.349	133.88
565.561	128.88
565.773	113.88
565.985	132.88
566.197	108.88
566.408	119.88
566.62	130.88
566.832	104.88
567.044	114.88
567.255	110.88
567.467	104.88
567.679	106.88
567.891	107.88
568.102	109.88
568.314	104.88
568.526	100.88
568.737	93.88
568.949	95.88
569.161	84.88
569.372	89.88
569.584	90.88
569.795	80.88
570.007	76.88
570.218	85.88
570.43	92.88
570.641	97.88
570.853	102.88
571.064	99.88
571.276	97.88
571.487	108.88
571.698	103.88
571.91	117.88
572.121	93.88
572.333	101.88
572.544	90.88
572.755	99.88
572.966	78.88
573.178	78.88
573.389	83.88
573.6	70.88
573.811	91.88
574.023	94.88
574.234	90.88
574.445	91.88
574.656	93.88
574.867	84.88
575.078	99.88
575.289	103.88
575.501	94.88
575.712	93.88
575.923	101.88
576.134	100.88
576.345	89.88
576.556	83.88
576.767	104.88
576.978	101.88
577.188	98.88
577.399	102.88
577.61	95.88
577.821	78.88
578.032	91.88
578.243	85.88
578.454	89.88
578.665	86.88
578.875	86.88
579.086	83.88
579.297	79.88
579.508	87.88
579.718	78.88
579.929	88.88
580.14	86.88
580.35	102.88
580.561	88.88
580.772	78.88
580.982	91.88
581.193	99.88
581.403	96.88
581.614	99.88
581.825	112.88
582.035	94.88
582.246	84.88
582.456	94.88
582.667	90.88
582.877	84.88
583.087	97.88
583.298	83.88
583.508	85.88
583.719	81.88
583.929	86.88
584.139	79.88
584.35	94.88
584.56	93.88
584.77	101.88
584.981	83.88
585.191	80.88
585.401	91.88
585.611	70.88
585.821	77.88
586.032	83.88
586.242	90.88
586.452	92.88
586.662	93.88
586.872	76.88
587.082	73.88
587.292	83.88
587.502	91.88
587.713	83.88
587.923	81.88
588.133	88.88
588.343	74.88
588.553	79.88
588.762	83.88
588.972	91.88
589.182	93.88
589.392	80.88
589.602	86.88
589.812	87.88
590.022	91.88
590.232	89.88
590.441	84.88
590.651	82.88
590.861	81.88
591.071	104.88
591.281	90.88
591.49	85.88
591.7	85.88
591.91	81.88
592.119	66.88
592.329	80.88
592.539	85.88
592.748	92.88
592.958	71.88
593.167	83.88
593.377	97.88
593.587	96.88
593.796	89.88
594.006	82.88
594.215	93.88
594.424	99.88
594.634	93.88
594.843	83.88
595.053	91.88
595.262	87.88
595.472	87.88
595.681	90.88
595.89	94.88
596.1	91.88
596.309	85.88
596.518	87.88
596.727	97.88
596.937	89.88
597.146	99.88
597.355	97.88
597.564	102.88
597.774	93.88
597.983	77.88
598.192	93.88
598.401	83.88
598.61	83.88
598.819	91.88
599.028	102.88
599.237	105.88
599.446	89.88
599.655	84.88
599.864	95.88
600.073	76.88
600.282	84.88
600.491	104.88
600.7	96.88
600.909	87.88
601.118	101.88
601.327	104.88
601.536	108.88
601.745	101.88
601.953	128.88
602.162	117.88
602.371	99.88
602.58	100.88
602.789	109.88
602.997	110.88
603.206	111.88
603.415	115.88
603.623	107.88
603.832	116.88
604.041	113.88
604.249	103.88
604.458	104.88
604.666	101.88
604.875	91.88
605.084	111.88
605.292	120.88
605.501	105.88
605.709	117.88
605.918	126.88
606.126	125.88
606.334	100.88
606.543	122.88
606.751	118.88
606.96	118.88
607.168	114.88
607.376	109.88
607.585	108.88
607.793	110.88
608.001	112.88
608.21	101.88
608.418	102.88
608.626	109.88
608.834	108.88
609.043	108.88
609.251	111.88
609.459	96.88
609.667	114.88
609.875	112.88
610.083	114.88
610.291	124.88
610.499	114.88
610.707	115.88
610.916	114.88
611.124	118.88
611.332	109.88
611.54	126.88
611.748	101.88
611.955	124.88
612.163	119.88
612.371	112.88
612.579	125.88
612.787	106.88
612.995	114.88
613.203	117.88
613.411	114.88
613.618	114.88
613.826	116.88
614.034	110.88
614.242	108.88
614.449	101.88
614.657	112.88
614.865	122.88
615.072	121.88
615.28	109.88
615.488	114.88
615.695	105.88
615.903	120.88
616.111	100.88
616.318	123.88
616.526	104.88
616.733	99.88
616.941	120.88
617.148	90.88
617.356	107.88
617.563	114.88
617.771	98.88
617.978	105.88
618.185	106.88
618.393	119.88
618.6	109.88
618.807	114.88
619.015	109.88
619.222	123.88
619.429	102.88
619.637	105.88
619.844	97.88
620.051	107.88
620.258	90.88
620.466	101.88
620.673	109.88
620.88	108.88
621.087	107.88
621.294	108.88
621.501	110.88
621.708	106.88
621.915	101.88
622.122	92.88
622.329	116.88
622.536	116.88
622.743	119.88
622.95	116.88
623.157	99.88
623.364	112.88
623.571	108.88
623.778	101.88
623.985	122.88
624.192	107.88
624.399	96.88
624.606	101.88
624.812	95.88
625.019	101.88
625.226	105.88
625.433	112.88
625.639	101.88
625.846	88.88
626.053	98.88
626.259	98.88
626.466	93.88
626.673	102.88
626.879	84.88
627.086	99.88
627.293	103.88
627.499	110.88
627.706	108.88
627.912	115.88
628.119	106.88
628.325	116.88
628.532	100.88
628.738	113.88
628.945	112.88
629.151	112.88
629.357	98.88
629.564	104.88
629.77	119.88
629.976	97.88
630.183	100.88
630.389	107.88
630.595	104.88
630.802	104.88
631.008	100.88
631.214	92.88
631.42	102.88
631.627	107.88
631.833	116.88
632.039	105.88
632.245	116.88
632.451	108.88
632.657	97.88
632.863	101.88
633.069	113.88
633.275	107.88
633.481	105.88
633.688	88.88
633.893	96.88
634.099	105.88
634.305	94.88
634.511	95.88
634.717	104.88
634.923	99.88
635.129	95.88
635.335	96.88
635.541	101.88
635.747	102.88
635.952	84.88
636.158	93.88
636.364	99.88
636.57	102.88
636.775	96.88
636.981	93.88
637.187	98.88
637.392	94.88
637.598	99.88
637.804	90.88
638.009	96.88
638.215	102.88
638.421	97.88
638.626	100.88
638.832	97.88
639.037	101.88
639.243	94.88
639.448	93.88
639.654	104.88
639.859	105.88
640.065	95.88
640.27	105.88
640.475	106.88
640.681	87.88
640.886	94.88
641.091	98.88
641.297	106.88
641.502	98.88
641.707	97.88
641.913	90.88
642.118	90.88
642.323	107.88
642.528	92.88
642.733	91.88
642.939	110.88
643.144	114.88
643.349	97.88
643.554	97.88
643.759	106.88
643.964	105.88
644.169	105.88
644.374	89.88
644.579	106.88
644.784	105.88
644.989	100.88
645.194	90.88
645.399	97.88
645.604	85.88
645.809	96.88
646.014	98.88
646.219	116.88
646.423	102.88
646.628	89.88
646.833	97.88
647.038	115.88
647.243	104.88
647.447	98.88
647.652	99.88
647.857	88.88
648.062	100.88
648.266	93.88
648.471	104.88
648.676	85.88
648.88	97.88
649.085	98.88
649.289	95.88
649.494	98.88
649.698	101.88
649.903	96.88
650.107	97.88
650.312	95.88
650.516	93.88
650.721	95.88
650.925	92.88
651.13	81.88
651.334	97.88
651.539	88.88
651.743	108.88
651.947	99.88
652.152	88.88
652.356	94.88
652.56	85.88
652.764	87.88
652.969	98.88
653.173	86.88
653.377	92.88
653.581	92.88
653.785	87.88
653.99	91.88
654.194	99.88
654.398	95.88
654.602	92.88
654.806	98.88
655.01	84.88
655.214	86.88
655.418	96.88
655.622	87.88
655.826	84.88
656.03	75.88
656.234	90.88
656.438	89.88
656.642	92.88
656.846	96.88
657.049	90.88
657.253	88.88
657.457	87.88
657.661	92.88
657.865	89.88
658.068	88.88
658.272	85.88
658.476	98.88
658.68	86.88
658.883	89.88
659.087	90.88
659.291	76.88
659.494	99.88
659.698	80.88
659.901	76.88
660.105	77.88
660.309	82.88
660.512	90.88
660.716	86.88
660.919	84.88
661.123	75.88
661.326	85.88
661.53	75.88
661.733	82.88
661.936	81.88
662.14	67.88
662.343	82.88
662.546	76.88
662.75	68.88
662.953	86.88
663.156	96.88
663.36	76.88
663.563	85.88
663.766	82.88
663.969	79.88
664.173	75.88
664.376	89.88
664.579	79.88
664.782	82.88
664.985	81.88
665.188	78.88
665.391	80.88
665.594	65.88
665.797	75.88
666	82.88
666.203	87.88
666.406	78.88
666.609	85.88
666.812	86.88
667.015	92.88
667.218	82.88
667.421	89.88
667.624	82.88
667.827	83.88
668.03	89.88
668.232	76.88
668.435	75.88
668.638	86.88
668.841	90.88
669.043	72.88
669.246	76.88
669.449	76.88
669.651	81.88
669.854	73.88
670.057	88.88
670.259	79.88
670.462	74.88
670.665	87.88
670.867	73.88
671.07	70.88
671.272	85.88
671.475	69.88
671.677	74.88
671.88	83.88
672.082	91.88
672.284	84.88
672.487	89.88
672.689	73.88
672.892	92.88
