Data from Location1.07152019.Energy5.Lamp.07192019.3%Agarose_HRD10591_14-30-34-015.txt Node
Date: Fri Jul 19 14:30:34 EDT 2019
User: cochatt
Spectrometer: HR+D1059
Trigger mode: 1
Integration Time (sec): 1.000000E-1
Scans to average: 1
Electric dark correction enabled: true
Nonlinearity correction enabled: false
Boxcar width: 0
XAxis mode: Wavelengths
Number of Pixels in Spectrum: 2048
>>>>>Begin Spectral Data<<<<<
223.165	-15.31
223.4	-15.31
223.635	-15.31
223.869	-20.31
224.104	-22.31
224.338	-24.31
224.573	-4.31
224.808	-21.31
225.042	-1.31
225.277	2.69
225.511	0.69
225.746	-1.31
225.98	12.69
226.215	6.69
226.449	24.69
226.683	16.69
226.918	15.69
227.152	30.69
227.387	38.69
227.621	44.69
227.856	51.69
228.09	50.69
228.324	42.69
228.559	59.69
228.793	77.69
229.027	64.69
229.262	64.69
229.496	62.69
229.73	66.69
229.964	75.69
230.199	78.69
230.433	97.69
230.667	73.69
230.901	81.69
231.136	79.69
231.37	86.69
231.604	69.69
231.838	80.69
232.072	67.69
232.306	78.69
232.541	81.69
232.775	82.69
233.009	82.69
233.243	86.69
233.477	89.69
233.711	79.69
233.945	82.69
234.179	76.69
234.413	83.69
234.647	85.69
234.881	88.69
235.115	78.69
235.349	81.69
235.583	74.69
235.817	80.69
236.051	81.69
236.285	79.69
236.519	88.69
236.753	74.69
236.987	77.69
237.221	71.69
237.455	77.69
237.689	80.69
237.922	96.69
238.156	73.69
238.39	74.69
238.624	81.69
238.858	74.69
239.091	72.69
239.325	87.69
239.559	84.69
239.793	77.69
240.027	83.69
240.26	75.69
240.494	88.69
240.728	78.69
240.961	94.69
241.195	96.69
241.429	84.69
241.662	70.69
241.896	78.69
242.13	88.69
242.363	76.69
242.597	77.69
242.83	90.69
243.064	83.69
243.298	84.69
243.531	73.69
243.765	84.69
243.998	79.69
244.232	63.69
244.465	87.69
244.699	81.69
244.932	71.69
245.166	82.69
245.399	96.69
245.633	81.69
245.866	72.69
246.099	80.69
246.333	75.69
246.566	71.69
246.8	74.69
247.033	92.69
247.266	91.69
247.5	76.69
247.733	85.69
247.966	83.69
248.2	67.69
248.433	87.69
248.666	81.69
248.899	68.69
249.133	95.69
249.366	81.69
249.599	83.69
249.832	79.69
250.066	90.69
250.299	71.69
250.532	72.69
250.765	75.69
250.998	94.69
251.231	84.69
251.465	86.69
251.698	75.69
251.931	94.69
252.164	81.69
252.397	82.69
252.63	77.69
252.863	84.69
253.096	75.69
253.329	83.69
253.562	85.69
253.795	100.69
254.028	86.69
254.261	79.69
254.494	80.69
254.727	86.69
254.96	90.69
255.193	88.69
255.426	82.69
255.659	78.69
255.892	88.69
256.124	84.69
256.357	80.69
256.59	81.69
256.823	92.69
257.056	90.69
257.289	76.69
257.521	86.69
257.754	94.69
257.987	80.69
258.22	90.69
258.452	82.69
258.685	84.69
258.918	94.69
259.151	95.69
259.383	89.69
259.616	78.69
259.849	86.69
260.081	90.69
260.314	82.69
260.547	88.69
260.779	92.69
261.012	83.69
261.244	74.69
261.477	75.69
261.71	89.69
261.942	84.69
262.175	90.69
262.407	89.69
262.64	90.69
262.872	96.69
263.105	105.69
263.337	98.69
263.57	87.69
263.802	92.69
264.035	83.69
264.267	79.69
264.499	86.69
264.732	81.69
264.964	87.69
265.197	82.69
265.429	93.69
265.661	101.69
265.894	98.69
266.126	84.69
266.358	88.69
266.591	79.69
266.823	92.69
267.055	67.69
267.287	80.69
267.52	71.69
267.752	90.69
267.984	88.69
268.216	102.69
268.448	75.69
268.681	83.69
268.913	84.69
269.145	85.69
269.377	75.69
269.609	84.69
269.841	93.69
270.073	86.69
270.306	81.69
270.538	75.69
270.77	75.69
271.002	91.69
271.234	79.69
271.466	93.69
271.698	87.69
271.93	74.69
272.162	81.69
272.394	83.69
272.626	80.69
272.858	84.69
273.09	78.69
273.322	87.69
273.553	89.69
273.785	80.69
274.017	84.69
274.249	86.69
274.481	89.69
274.713	107.69
274.945	91.69
275.176	76.69
275.408	88.69
275.64	78.69
275.872	91.69
276.104	87.69
276.335	76.69
276.567	95.69
276.799	102.69
277.031	105.69
277.262	77.69
277.494	90.69
277.726	86.69
277.957	88.69
278.189	91.69
278.421	87.69
278.652	71.69
278.884	88.69
279.115	87.69
279.347	87.69
279.579	79.69
279.81	90.69
280.042	84.69
280.273	76.69
280.505	73.69
280.736	88.69
280.968	89.69
281.199	83.69
281.431	77.69
281.662	92.69
281.894	90.69
282.125	94.69
282.356	85.69
282.588	85.69
282.819	83.69
283.051	83.69
283.282	82.69
283.513	103.69
283.745	80.69
283.976	82.69
284.207	87.69
284.439	83.69
284.67	79.69
284.901	91.69
285.132	87.69
285.364	93.69
285.595	77.69
285.826	79.69
286.057	83.69
286.288	92.69
286.52	90.69
286.751	99.69
286.982	95.69
287.213	75.69
287.444	98.69
287.675	98.69
287.906	81.69
288.138	95.69
288.369	93.69
288.6	97.69
288.831	85.69
289.062	88.69
289.293	81.69
289.524	71.69
289.755	80.69
289.986	86.69
290.217	89.69
290.448	92.69
290.679	90.69
290.91	87.69
291.141	98.69
291.371	81.69
291.602	82.69
291.833	82.69
292.064	83.69
292.295	84.69
292.526	85.69
292.757	92.69
292.987	86.69
293.218	83.69
293.449	90.69
293.68	95.69
293.91	89.69
294.141	81.69
294.372	79.69
294.603	93.69
294.833	86.69
295.064	83.69
295.295	89.69
295.525	92.69
295.756	73.69
295.987	93.69
296.217	78.69
296.448	72.69
296.679	95.69
296.909	85.69
297.14	91.69
297.37	90.69
297.601	98.69
297.831	89.69
298.062	81.69
298.292	99.69
298.523	84.69
298.753	92.69
298.984	91.69
299.214	96.69
299.445	88.69
299.675	87.69
299.905	88.69
300.136	84.69
300.366	82.69
300.597	92.69
300.827	106.69
301.057	87.69
301.288	97.69
301.518	89.69
301.748	89.69
301.979	90.69
302.209	92.69
302.439	98.69
302.669	92.69
302.9	94.69
303.13	83.69
303.36	108.69
303.59	95.69
303.82	92.69
304.051	93.69
304.281	92.69
304.511	91.69
304.741	93.69
304.971	92.69
305.201	93.69
305.431	90.69
305.661	85.69
305.891	91.69
306.121	91.69
306.352	96.69
306.582	102.69
306.812	93.69
307.042	88.69
307.272	87.69
307.502	83.69
307.731	80.69
307.961	87.69
308.191	79.69
308.421	93.69
308.651	95.69
308.881	93.69
309.111	87.69
309.341	78.69
309.571	81.69
309.8	88.69
310.03	90.69
310.26	83.69
310.49	86.69
310.72	83.69
310.949	97.69
311.179	87.69
311.409	90.69
311.639	87.69
311.868	94.69
312.098	87.69
312.328	102.69
312.557	94.69
312.787	90.69
313.017	85.69
313.246	109.69
313.476	93.69
313.706	103.69
313.935	100.69
314.165	101.69
314.394	88.69
314.624	92.69
314.853	86.69
315.083	97.69
315.312	98.69
315.542	91.69
315.771	96.69
316.001	111.69
316.23	97.69
316.46	83.69
316.689	92.69
316.919	71.69
317.148	93.69
317.377	95.69
317.607	84.69
317.836	82.69
318.065	83.69
318.295	93.69
318.524	82.69
318.753	73.69
318.983	86.69
319.212	96.69
319.441	85.69
319.67	89.69
319.9	73.69
320.129	87.69
320.358	104.69
320.587	86.69
320.816	81.69
321.046	94.69
321.275	90.69
321.504	89.69
321.733	102.69
321.962	92.69
322.191	91.69
322.42	79.69
322.649	83.69
322.878	85.69
323.108	89.69
323.337	91.69
323.566	85.69
323.795	87.69
324.024	87.69
324.253	79.69
324.482	88.69
324.71	95.69
324.939	92.69
325.168	92.69
325.397	93.69
325.626	95.69
325.855	103.69
326.084	90.69
326.313	95.69
326.542	100.69
326.77	98.69
326.999	93.69
327.228	87.69
327.457	102.69
327.686	89.69
327.914	89.69
328.143	85.69
328.372	90.69
328.6	89.69
328.829	98.69
329.058	66.69
329.287	81.69
329.515	88.69
329.744	91.69
329.972	94.69
330.201	93.69
330.43	87.69
330.658	85.69
330.887	94.69
331.115	88.69
331.344	85.69
331.572	89.69
331.801	92.69
332.03	94.69
332.258	103.69
332.486	98.69
332.715	93.69
332.943	96.69
333.172	82.69
333.4	91.69
333.629	87.69
333.857	86.69
334.085	78.69
334.314	94.69
334.542	98.69
334.771	79.69
334.999	87.69
335.227	79.69
335.455	92.69
335.684	90.69
335.912	88.69
336.14	96.69
336.369	83.69
336.597	89.69
336.825	89.69
337.053	75.69
337.281	95.69
337.51	102.69
337.738	76.69
337.966	83.69
338.194	81.69
338.422	75.69
338.65	87.69
338.878	92.69
339.106	83.69
339.334	87.69
339.562	84.69
339.79	75.69
340.018	73.69
340.246	97.69
340.474	97.69
340.702	84.69
340.93	94.69
341.158	87.69
341.386	107.69
341.614	85.69
341.842	76.69
342.07	96.69
342.298	80.69
342.526	87.69
342.754	98.69
342.981	97.69
343.209	89.69
343.437	107.69
343.665	87.69
343.893	86.69
344.12	95.69
344.348	91.69
344.576	80.69
344.804	83.69
345.031	88.69
345.259	81.69
345.487	97.69
345.714	90.69
345.942	91.69
346.17	89.69
346.397	83.69
346.625	84.69
346.853	83.69
347.08	74.69
347.308	82.69
347.535	94.69
347.763	91.69
347.99	86.69
348.218	83.69
348.445	90.69
348.673	91.69
348.9	82.69
349.128	98.69
349.355	94.69
349.583	83.69
349.81	82.69
350.037	96.69
350.265	76.69
350.492	81.69
350.72	89.69
350.947	90.69
351.174	78.69
351.402	77.69
351.629	90.69
351.856	95.69
352.083	91.69
352.311	94.69
352.538	97.69
352.765	96.69
352.992	90.69
353.22	83.69
353.447	90.69
353.674	93.69
353.901	97.69
354.128	89.69
354.355	84.69
354.583	90.69
354.81	76.69
355.037	90.69
355.264	88.69
355.491	71.69
355.718	70.69
355.945	81.69
356.172	79.69
356.399	94.69
356.626	93.69
356.853	87.69
357.08	95.69
357.307	100.69
357.534	75.69
357.761	99.69
357.988	85.69
358.215	79.69
358.441	94.69
358.668	93.69
358.895	79.69
359.122	84.69
359.349	88.69
359.576	90.69
359.802	95.69
360.029	94.69
360.256	94.69
360.483	80.69
360.709	95.69
360.936	102.69
361.163	90.69
361.39	84.69
361.616	84.69
361.843	95.69
362.07	96.69
362.296	92.69
362.523	101.69
362.749	91.69
362.976	88.69
363.203	85.69
363.429	79.69
363.656	88.69
363.882	91.69
364.109	90.69
364.335	97.69
364.562	83.69
364.788	90.69
365.015	85.69
365.241	78.69
365.468	79.69
365.694	92.69
365.92	101.69
366.147	99.69
366.373	85.69
366.599	88.69
366.826	89.69
367.052	99.69
367.278	103.69
367.505	115.69
367.731	92.69
367.957	91.69
368.184	97.69
368.41	83.69
368.636	90.69
368.862	100.69
369.089	81.69
369.315	92.69
369.541	104.69
369.767	105.69
369.993	96.69
370.219	87.69
370.445	93.69
370.672	95.69
370.898	109.69
371.124	91.69
371.35	90.69
371.576	111.69
371.802	116.69
372.028	84.69
372.254	102.69
372.48	96.69
372.706	97.69
372.932	81.69
373.158	100.69
373.384	120.69
373.61	102.69
373.835	94.69
374.061	91.69
374.287	94.69
374.513	104.69
374.739	88.69
374.965	100.69
375.191	90.69
375.416	81.69
375.642	93.69
375.868	96.69
376.094	100.69
376.319	96.69
376.545	88.69
376.771	88.69
376.997	93.69
377.222	105.69
377.448	98.69
377.674	91.69
377.899	102.69
378.125	98.69
378.35	93.69
378.576	122.69
378.802	74.69
379.027	100.69
379.253	96.69
379.478	106.69
379.704	107.69
379.929	94.69
380.155	98.69
380.38	99.69
380.606	116.69
380.831	123.69
381.057	104.69
381.282	110.69
381.507	104.69
381.733	106.69
381.958	95.69
382.184	84.69
382.409	115.69
382.634	88.69
382.86	111.69
383.085	87.69
383.31	105.69
383.535	114.69
383.761	103.69
383.986	113.69
384.211	103.69
384.436	109.69
384.662	90.69
384.887	94.69
385.112	102.69
385.337	105.69
385.562	96.69
385.787	96.69
386.013	108.69
386.238	107.69
386.463	104.69
386.688	96.69
386.913	90.69
387.138	95.69
387.363	101.69
387.588	111.69
387.813	99.69
388.038	104.69
388.263	109.69
388.488	110.69
388.713	111.69
388.938	99.69
389.163	109.69
389.387	107.69
389.612	113.69
389.837	129.69
390.062	114.69
390.287	103.69
390.512	99.69
390.736	99.69
390.961	101.69
391.186	104.69
391.411	100.69
391.636	109.69
391.86	102.69
392.085	92.69
392.31	114.69
392.534	116.69
392.759	96.69
392.984	108.69
393.208	103.69
393.433	115.69
393.658	105.69
393.882	114.69
394.107	98.69
394.331	123.69
394.556	106.69
394.78	112.69
395.005	97.69
395.229	121.69
395.454	103.69
395.678	100.69
395.903	100.69
396.127	122.69
396.352	106.69
396.576	107.69
396.801	116.69
397.025	123.69
397.249	108.69
397.474	124.69
397.698	98.69
397.922	108.69
398.147	111.69
398.371	118.69
398.595	111.69
398.82	122.69
399.044	106.69
399.268	129.69
399.492	107.69
399.717	110.69
399.941	124.69
400.165	125.69
400.389	113.69
400.613	124.69
400.837	114.69
401.062	124.69
401.286	108.69
401.51	113.69
401.734	113.69
401.958	110.69
402.182	108.69
402.406	107.69
402.63	108.69
402.854	114.69
403.078	115.69
403.302	125.69
403.526	118.69
403.75	113.69
403.974	118.69
404.198	132.69
404.422	121.69
404.645	111.69
404.869	120.69
405.093	107.69
405.317	127.69
405.541	128.69
405.765	127.69
405.988	128.69
406.212	118.69
406.436	126.69
406.66	111.69
406.883	121.69
407.107	126.69
407.331	128.69
407.555	129.69
407.778	126.69
408.002	127.69
408.226	105.69
408.449	115.69
408.673	117.69
408.896	132.69
409.12	110.69
409.344	104.69
409.567	128.69
409.791	121.69
410.014	127.69
410.238	125.69
410.461	119.69
410.685	128.69
410.908	128.69
411.132	116.69
411.355	130.69
411.578	124.69
411.802	118.69
412.025	142.69
412.249	115.69
412.472	120.69
412.695	128.69
412.919	129.69
413.142	127.69
413.365	115.69
413.589	136.69
413.812	130.69
414.035	113.69
414.258	138.69
414.482	136.69
414.705	136.69
414.928	127.69
415.151	138.69
415.374	122.69
415.597	131.69
415.821	129.69
416.044	131.69
416.267	130.69
416.49	129.69
416.713	142.69
416.936	122.69
417.159	125.69
417.382	128.69
417.605	128.69
417.828	133.69
418.051	130.69
418.274	135.69
418.497	138.69
418.72	131.69
418.943	126.69
419.166	141.69
419.389	131.69
419.611	140.69
419.834	131.69
420.057	134.69
420.28	130.69
420.503	128.69
420.726	128.69
420.948	145.69
421.171	131.69
421.394	141.69
421.617	136.69
421.839	134.69
422.062	141.69
422.285	134.69
422.507	122.69
422.73	131.69
422.953	122.69
423.175	138.69
423.398	123.69
423.621	130.69
423.843	136.69
424.066	136.69
424.288	135.69
424.511	122.69
424.733	142.69
424.956	146.69
425.178	149.69
425.401	139.69
425.623	139.69
425.846	136.69
426.068	132.69
426.291	131.69
426.513	126.69
426.735	121.69
426.958	148.69
427.18	127.69
427.402	118.69
427.625	142.69
427.847	119.69
428.069	135.69
428.292	129.69
428.514	126.69
428.736	126.69
428.958	125.69
429.181	134.69
429.403	125.69
429.625	108.69
429.847	142.69
430.069	145.69
430.292	123.69
430.514	129.69
430.736	134.69
430.958	138.69
431.18	142.69
431.402	125.69
431.624	118.69
431.846	103.69
432.068	96.69
432.29	87.69
432.512	120.69
432.734	132.69
432.956	137.69
433.178	140.69
433.4	135.69
433.622	141.69
433.844	139.69
434.066	134.69
434.287	131.69
434.509	92.69
434.731	102.69
434.953	127.69
435.175	121.69
435.397	126.69
435.618	128.69
435.84	120.69
436.062	127.69
436.284	133.69
436.505	134.69
436.727	133.69
436.949	129.69
437.17	139.69
437.392	136.69
437.614	124.69
437.835	120.69
438.057	113.69
438.278	107.69
438.5	121.69
438.721	127.69
438.943	144.69
439.165	134.69
439.386	149.69
439.608	146.69
439.829	131.69
440.05	140.69
440.272	156.69
440.493	137.69
440.715	135.69
440.936	151.69
441.158	153.69
441.379	152.69
441.6	152.69
441.822	148.69
442.043	154.69
442.264	137.69
442.486	134.69
442.707	152.69
442.928	134.69
443.149	134.69
443.371	135.69
443.592	127.69
443.813	136.69
444.034	142.69
444.255	146.69
444.476	144.69
444.698	140.69
444.919	154.69
445.14	266.69
445.361	199.69
445.582	146.69
445.803	142.69
446.024	148.69
446.245	138.69
446.466	149.69
446.687	151.69
446.908	139.69
447.129	149.69
447.35	146.69
447.571	161.69
447.792	166.69
448.013	149.69
448.234	141.69
448.455	137.69
448.675	144.69
448.896	136.69
449.117	147.69
449.338	125.69
449.559	137.69
449.779	131.69
450	124.69
450.221	142.69
450.442	141.69
450.662	127.69
450.883	143.69
451.104	125.69
451.324	130.69
451.545	130.69
451.766	121.69
451.986	125.69
452.207	148.69
452.428	125.69
452.648	124.69
452.869	136.69
453.089	123.69
453.31	118.69
453.53	111.69
453.751	112.69
453.971	93.69
454.192	115.69
454.412	110.69
454.633	118.69
454.853	123.69
455.073	137.69
455.294	142.69
455.514	134.69
455.734	122.69
455.955	134.69
456.175	125.69
456.395	114.69
456.616	109.69
456.836	122.69
457.056	106.69
457.276	111.69
457.497	103.69
457.717	110.69
457.937	122.69
458.157	110.69
458.377	114.69
458.598	98.69
458.818	105.69
459.038	88.69
459.258	83.69
459.478	100.69
459.698	92.69
459.918	95.69
460.138	112.69
460.358	115.69
460.578	132.69
460.798	109.69
461.018	111.69
461.238	115.69
461.458	127.69
461.678	132.69
461.898	108.69
462.118	126.69
462.338	115.69
462.558	110.69
462.777	113.69
462.997	120.69
463.217	110.69
463.437	112.69
463.657	131.69
463.876	124.69
464.096	116.69
464.316	114.69
464.536	110.69
464.755	121.69
464.975	136.69
465.195	127.69
465.414	121.69
465.634	134.69
465.854	122.69
466.073	128.69
466.293	130.69
466.512	134.69
466.732	134.69
466.951	144.69
467.171	123.69
467.391	142.69
467.61	137.69
467.829	131.69
468.049	128.69
468.268	139.69
468.488	139.69
468.707	143.69
468.927	131.69
469.146	140.69
469.365	127.69
469.585	129.69
469.804	141.69
470.023	134.69
470.243	135.69
470.462	155.69
470.681	153.69
470.901	153.69
471.12	141.69
471.339	138.69
471.558	164.69
471.777	142.69
471.997	128.69
472.216	109.69
472.435	115.69
472.654	103.69
472.873	130.69
473.092	118.69
473.311	118.69
473.53	143.69
473.749	128.69
473.968	128.69
474.187	130.69
474.406	128.69
474.625	123.69
474.844	130.69
475.063	129.69
475.282	123.69
475.501	118.69
475.72	120.69
475.939	139.69
476.158	123.69
476.377	130.69
476.596	134.69
476.814	120.69
477.033	115.69
477.252	108.69
477.471	135.69
477.69	139.69
477.908	128.69
478.127	155.69
478.346	130.69
478.564	142.69
478.783	136.69
479.002	138.69
479.22	153.69
479.439	128.69
479.658	111.69
479.876	123.69
480.095	110.69
480.313	110.69
480.532	121.69
480.751	129.69
480.969	93.69
481.188	95.69
481.406	90.69
481.624	94.69
481.843	104.69
482.061	116.69
482.28	112.69
482.498	103.69
482.717	102.69
482.935	104.69
483.153	140.69
483.372	157.69
483.59	160.69
483.808	137.69
484.027	148.69
484.245	156.69
484.463	154.69
484.681	167.69
484.9	151.69
485.118	132.69
485.336	134.69
485.554	119.69
485.772	100.69
485.99	110.69
486.209	110.69
486.427	119.69
486.645	120.69
486.863	139.69
487.081	137.69
487.299	138.69
487.517	133.69
487.735	177.69
487.953	197.69
488.171	190.69
488.389	178.69
488.607	157.69
488.825	162.69
489.043	137.69
489.261	142.69
489.479	144.69
489.696	141.69
489.914	147.69
490.132	137.69
490.35	147.69
490.568	170.69
490.786	162.69
491.003	188.69
491.221	185.69
491.439	186.69
491.657	195.69
491.874	204.69
492.092	226.69
492.31	246.69
492.527	246.69
492.745	209.69
492.963	201.69
493.18	188.69
493.398	185.69
493.615	174.69
493.833	166.69
494.05	166.69
494.268	185.69
494.485	179.69
494.703	170.69
494.92	168.69
495.138	166.69
495.355	164.69
495.573	176.69
495.79	161.69
496.008	185.69
496.225	164.69
496.442	180.69
496.66	175.69
496.877	171.69
497.094	161.69
497.312	154.69
497.529	168.69
497.746	140.69
497.963	131.69
498.181	127.69
498.398	115.69
498.615	126.69
498.832	138.69
499.049	114.69
499.267	131.69
499.484	123.69
499.701	134.69
499.918	127.69
500.135	139.69
500.352	144.69
500.569	162.69
500.786	147.69
501.003	146.69
501.22	131.69
501.437	138.69
501.654	137.69
501.871	105.69
502.088	132.69
502.305	131.69
502.522	138.69
502.739	139.69
502.956	120.69
503.172	137.69
503.389	124.69
503.606	113.69
503.823	130.69
504.04	126.69
504.256	118.69
504.473	110.69
504.69	129.69
504.907	129.69
505.123	127.69
505.34	139.69
505.557	125.69
505.773	139.69
505.99	127.69
506.207	130.69
506.423	128.69
506.64	129.69
506.856	132.69
507.073	130.69
507.289	114.69
507.506	109.69
507.722	126.69
507.939	132.69
508.155	130.69
508.372	120.69
508.588	116.69
508.805	110.69
509.021	96.69
509.238	110.69
509.454	106.69
509.67	103.69
509.887	98.69
510.103	102.69
510.319	99.69
510.536	98.69
510.752	88.69
510.968	82.69
511.184	94.69
511.401	86.69
511.617	101.69
511.833	98.69
512.049	74.69
512.265	100.69
512.481	96.69
512.698	106.69
512.914	112.69
513.13	100.69
513.346	99.69
513.562	99.69
513.778	105.69
513.994	78.69
514.21	93.69
514.426	91.69
514.642	100.69
514.858	104.69
515.074	97.69
515.29	93.69
515.506	93.69
515.721	91.69
515.937	94.69
516.153	89.69
516.369	76.69
516.585	105.69
516.801	88.69
517.016	85.69
517.232	90.69
517.448	109.69
517.664	115.69
517.879	113.69
518.095	99.69
518.311	94.69
518.527	100.69
518.742	112.69
518.958	100.69
519.173	120.69
519.389	104.69
519.605	108.69
519.82	107.69
520.036	109.69
520.251	118.69
520.467	118.69
520.682	93.69
520.898	94.69
521.113	87.69
521.329	94.69
521.544	100.69
521.76	96.69
521.975	95.69
522.19	118.69
522.406	114.69
522.621	118.69
522.836	114.69
523.052	114.69
523.267	107.69
523.482	116.69
523.698	97.69
523.913	104.69
524.128	115.69
524.343	119.69
524.559	129.69
524.774	134.69
524.989	115.69
525.204	111.69
525.419	118.69
525.634	109.69
525.849	130.69
526.064	112.69
526.28	122.69
526.495	94.69
526.71	92.69
526.925	93.69
527.14	94.69
527.355	98.69
527.57	91.69
527.785	108.69
527.999	87.69
528.214	94.69
528.429	110.69
528.644	131.69
528.859	142.69
529.074	167.69
529.289	164.69
529.503	172.69
529.718	135.69
529.933	128.69
530.148	116.69
530.363	104.69
530.577	91.69
530.792	90.69
531.007	92.69
531.221	89.69
531.436	96.69
531.651	86.69
531.865	87.69
532.08	105.69
532.295	101.69
532.509	83.69
532.724	82.69
532.938	108.69
533.153	104.69
533.367	125.69
533.582	118.69
533.796	134.69
534.011	107.69
534.225	106.69
534.44	89.69
534.654	98.69
534.868	103.69
535.083	102.69
535.297	105.69
535.511	97.69
535.726	93.69
535.94	108.69
536.154	104.69
536.369	96.69
536.583	99.69
536.797	92.69
537.011	81.69
537.225	100.69
537.44	88.69
537.654	101.69
537.868	99.69
538.082	84.69
538.296	93.69
538.51	104.69
538.724	115.69
538.938	122.69
539.153	128.69
539.367	130.69
539.581	110.69
539.795	113.69
540.009	96.69
540.222	121.69
540.436	118.69
540.65	122.69
540.864	120.69
541.078	127.69
541.292	135.69
541.506	163.69
541.72	171.69
541.934	191.69
542.147	201.69
542.361	187.69
542.575	163.69
542.789	147.69
543.002	138.69
543.216	130.69
543.43	110.69
543.644	134.69
543.857	144.69
544.071	175.69
544.285	172.69
544.498	158.69
544.712	162.69
544.925	157.69
545.139	168.69
545.352	150.69
545.566	174.69
545.779	154.69
545.993	162.69
546.206	153.69
546.42	155.69
546.633	163.69
546.847	169.69
547.06	161.69
547.274	169.69
547.487	180.69
547.7	166.69
547.914	171.69
548.127	160.69
548.34	171.69
548.554	155.69
548.767	153.69
548.98	163.69
549.193	168.69
549.407	163.69
549.62	140.69
549.833	150.69
550.046	160.69
550.259	175.69
550.473	154.69
550.686	178.69
550.899	139.69
551.112	151.69
551.325	145.69
551.538	142.69
551.751	132.69
551.964	129.69
552.177	131.69
552.39	132.69
552.603	136.69
552.816	160.69
553.029	166.69
553.242	153.69
553.455	162.69
553.667	148.69
553.88	165.69
554.093	164.69
554.306	159.69
554.519	154.69
554.732	136.69
554.944	161.69
555.157	142.69
555.37	149.69
555.583	138.69
555.795	150.69
556.008	143.69
556.221	138.69
556.433	139.69
556.646	159.69
556.859	159.69
557.071	140.69
557.284	147.69
557.496	138.69
557.709	134.69
557.921	147.69
558.134	158.69
558.346	142.69
558.559	144.69
558.771	142.69
558.984	138.69
559.196	139.69
559.409	144.69
559.621	130.69
559.833	136.69
560.046	140.69
560.258	121.69
560.47	154.69
560.683	123.69
560.895	142.69
561.107	142.69
561.32	151.69
561.532	140.69
561.744	146.69
561.956	126.69
562.168	131.69
562.381	140.69
562.593	137.69
562.805	127.69
563.017	126.69
563.229	136.69
563.441	126.69
563.653	119.69
563.865	128.69
564.077	130.69
564.289	122.69
564.501	118.69
564.713	126.69
564.925	119.69
565.137	133.69
565.349	141.69
565.561	127.69
565.773	114.69
565.985	118.69
566.197	134.69
566.408	132.69
566.62	130.69
566.832	118.69
567.044	120.69
567.255	113.69
567.467	124.69
567.679	111.69
567.891	101.69
568.102	83.69
568.314	102.69
568.526	95.69
568.737	92.69
568.949	88.69
569.161	99.69
569.372	87.69
569.584	97.69
569.795	91.69
570.007	90.69
570.218	93.69
570.43	81.69
570.641	108.69
570.853	108.69
571.064	99.69
571.276	92.69
571.487	99.69
571.698	112.69
571.91	124.69
572.121	113.69
572.333	103.69
572.544	94.69
572.755	102.69
572.966	91.69
573.178	88.69
573.389	87.69
573.6	91.69
573.811	75.69
574.023	101.69
574.234	85.69
574.445	91.69
574.656	93.69
574.867	108.69
575.078	106.69
575.289	95.69
575.501	104.69
575.712	85.69
575.923	93.69
576.134	94.69
576.345	107.69
576.556	102.69
576.767	100.69
576.978	109.69
577.188	86.69
577.399	105.69
577.61	94.69
577.821	87.69
578.032	92.69
578.243	103.69
578.454	95.69
578.665	99.69
578.875	92.69
579.086	95.69
579.297	87.69
579.508	103.69
579.718	95.69
579.929	82.69
580.14	80.69
580.35	90.69
580.561	100.69
580.772	102.69
580.982	116.69
581.193	102.69
581.403	97.69
581.614	86.69
581.825	93.69
582.035	96.69
582.246	104.69
582.456	88.69
582.667	85.69
582.877	95.69
583.087	105.69
583.298	96.69
583.508	95.69
583.719	96.69
583.929	103.69
584.139	103.69
584.35	94.69
584.56	97.69
584.77	96.69
584.981	84.69
585.191	82.69
585.401	95.69
585.611	95.69
585.821	92.69
586.032	90.69
586.242	91.69
586.452	98.69
586.662	83.69
586.872	95.69
587.082	83.69
587.292	96.69
587.502	82.69
587.713	92.69
587.923	94.69
588.133	83.69
588.343	98.69
588.553	93.69
588.762	96.69
588.972	93.69
589.182	99.69
589.392	75.69
589.602	105.69
589.812	86.69
590.022	98.69
590.232	86.69
590.441	85.69
590.651	86.69
590.861	93.69
591.071	87.69
591.281	88.69
591.49	67.69
591.7	79.69
591.91	88.69
592.119	96.69
592.329	84.69
592.539	102.69
592.748	95.69
592.958	95.69
593.167	97.69
593.377	79.69
593.587	92.69
593.796	93.69
594.006	92.69
594.215	82.69
594.424	91.69
594.634	83.69
594.843	105.69
595.053	92.69
595.262	96.69
595.472	102.69
595.681	87.69
595.89	86.69
596.1	94.69
596.309	104.69
596.518	102.69
596.727	93.69
596.937	85.69
597.146	99.69
597.355	114.69
597.564	94.69
597.774	95.69
597.983	102.69
598.192	87.69
598.401	94.69
598.61	100.69
598.819	101.69
599.028	105.69
599.237	108.69
599.446	120.69
599.655	79.69
599.864	96.69
600.073	100.69
600.282	92.69
600.491	105.69
600.7	104.69
600.909	104.69
601.118	101.69
601.327	102.69
601.536	98.69
601.745	118.69
601.953	107.69
602.162	115.69
602.371	107.69
602.58	116.69
602.789	119.69
602.997	108.69
603.206	107.69
603.415	113.69
603.623	100.69
603.832	103.69
604.041	127.69
604.249	105.69
604.458	109.69
604.666	102.69
604.875	113.69
605.084	108.69
605.292	111.69
605.501	121.69
605.709	112.69
605.918	109.69
606.126	114.69
606.334	128.69
606.543	107.69
606.751	111.69
606.96	117.69
607.168	127.69
607.376	123.69
607.585	111.69
607.793	105.69
608.001	122.69
608.21	129.69
608.418	114.69
608.626	116.69
608.834	122.69
609.043	108.69
609.251	112.69
609.459	123.69
609.667	118.69
609.875	122.69
610.083	119.69
610.291	112.69
610.499	118.69
610.707	127.69
610.916	122.69
611.124	127.69
611.332	118.69
611.54	118.69
611.748	123.69
611.955	126.69
612.163	128.69
612.371	117.69
612.579	120.69
612.787	119.69
612.995	118.69
613.203	110.69
613.411	127.69
613.618	115.69
613.826	127.69
614.034	115.69
614.242	109.69
614.449	128.69
614.657	110.69
614.865	111.69
615.072	116.69
615.28	109.69
615.488	120.69
615.695	122.69
615.903	112.69
616.111	103.69
616.318	110.69
616.526	120.69
616.733	114.69
616.941	117.69
617.148	129.69
617.356	111.69
617.563	118.69
617.771	120.69
617.978	115.69
618.185	120.69
618.393	112.69
618.6	107.69
618.807	133.69
619.015	120.69
619.222	122.69
619.429	129.69
619.637	114.69
619.844	120.69
620.051	105.69
620.258	98.69
620.466	122.69
620.673	109.69
620.88	106.69
621.087	92.69
621.294	121.69
621.501	109.69
621.708	98.69
621.915	106.69
622.122	112.69
622.329	118.69
622.536	129.69
622.743	121.69
622.95	119.69
623.157	115.69
623.364	108.69
623.571	127.69
623.778	113.69
623.985	118.69
624.192	122.69
624.399	107.69
624.606	112.69
624.812	115.69
625.019	111.69
625.226	120.69
625.433	103.69
625.639	103.69
625.846	102.69
626.053	104.69
626.259	92.69
626.466	97.69
626.673	100.69
626.879	102.69
627.086	104.69
627.293	104.69
627.499	104.69
627.706	109.69
627.912	102.69
628.119	119.69
628.325	113.69
628.532	111.69
628.738	94.69
628.945	128.69
629.151	114.69
629.357	107.69
629.564	110.69
629.77	101.69
629.976	105.69
630.183	109.69
630.389	99.69
630.595	104.69
630.802	112.69
631.008	114.69
631.214	106.69
631.42	108.69
631.627	107.69
631.833	110.69
632.039	120.69
632.245	105.69
632.451	113.69
632.657	104.69
632.863	104.69
633.069	95.69
633.275	102.69
633.481	104.69
633.688	114.69
633.893	99.69
634.099	103.69
634.305	109.69
634.511	105.69
634.717	105.69
634.923	106.69
635.129	106.69
635.335	99.69
635.541	100.69
635.747	106.69
635.952	111.69
636.158	113.69
636.364	107.69
636.57	107.69
636.775	103.69
636.981	114.69
637.187	102.69
637.392	105.69
637.598	93.69
637.804	93.69
638.009	113.69
638.215	103.69
638.421	109.69
638.626	115.69
638.832	118.69
639.037	104.69
639.243	94.69
639.448	103.69
639.654	111.69
639.859	107.69
640.065	104.69
640.27	90.69
640.475	100.69
640.681	115.69
640.886	114.69
641.091	90.69
641.297	130.69
641.502	107.69
641.707	108.69
641.913	108.69
642.118	105.69
642.323	103.69
642.528	106.69
642.733	103.69
642.939	93.69
643.144	99.69
643.349	98.69
643.554	102.69
643.759	91.69
643.964	112.69
644.169	108.69
644.374	100.69
644.579	90.69
644.784	101.69
644.989	103.69
645.194	96.69
645.399	102.69
645.604	91.69
645.809	106.69
646.014	90.69
646.219	116.69
646.423	105.69
646.628	104.69
646.833	91.69
647.038	105.69
647.243	114.69
647.447	97.69
647.652	112.69
647.857	98.69
648.062	107.69
648.266	105.69
648.471	95.69
648.676	91.69
648.88	111.69
649.085	105.69
649.289	106.69
649.494	110.69
649.698	99.69
649.903	104.69
650.107	113.69
650.312	99.69
650.516	103.69
650.721	104.69
650.925	102.69
651.13	97.69
651.334	108.69
651.539	92.69
651.743	90.69
651.947	107.69
652.152	94.69
652.356	105.69
652.56	110.69
652.764	95.69
652.969	91.69
653.173	102.69
653.377	119.69
653.581	90.69
653.785	94.69
653.99	97.69
654.194	81.69
654.398	92.69
654.602	93.69
654.806	87.69
655.01	87.69
655.214	104.69
655.418	96.69
655.622	92.69
655.826	97.69
656.03	86.69
656.234	93.69
656.438	97.69
656.642	89.69
656.846	92.69
657.049	94.69
657.253	106.69
657.457	85.69
657.661	100.69
657.865	94.69
658.068	88.69
658.272	84.69
658.476	87.69
658.68	93.69
658.883	93.69
659.087	94.69
659.291	99.69
659.494	84.69
659.698	96.69
659.901	89.69
660.105	96.69
660.309	80.69
660.512	94.69
660.716	103.69
660.919	86.69
661.123	92.69
661.326	88.69
661.53	95.69
661.733	92.69
661.936	88.69
662.14	79.69
662.343	87.69
662.546	81.69
662.75	86.69
662.953	92.69
663.156	98.69
663.36	72.69
663.563	89.69
663.766	104.69
663.969	100.69
664.173	94.69
664.376	94.69
664.579	84.69
664.782	103.69
664.985	82.69
665.188	92.69
665.391	86.69
665.594	78.69
665.797	81.69
666	96.69
666.203	89.69
666.406	76.69
666.609	80.69
666.812	80.69
667.015	90.69
667.218	100.69
667.421	96.69
667.624	91.69
667.827	87.69
668.03	76.69
668.232	84.69
668.435	91.69
668.638	68.69
668.841	89.69
669.043	79.69
669.246	85.69
669.449	88.69
669.651	90.69
669.854	83.69
670.057	94.69
670.259	82.69
670.462	80.69
670.665	80.69
670.867	90.69
671.07	96.69
671.272	99.69
671.475	80.69
671.677	71.69
671.88	99.69
672.082	91.69
672.284	89.69
672.487	92.69
672.689	90.69
672.892	85.69
