Data from 1970.PennyLincolnUp.Lamp.En5.5.200Scan.071719.P1._HRD10591_15-15-02-841.txt Node
Date: Thu Jul 18 15:15:02 EDT 2019
User: cochatt
Spectrometer: HR+D1059
Trigger mode: 1
Integration Time (sec): 1.000000E-1
Scans to average: 1
Electric dark correction enabled: true
Nonlinearity correction enabled: false
Boxcar width: 0
XAxis mode: Wavelengths
Number of Pixels in Spectrum: 2048
>>>>>Begin Spectral Data<<<<<
223.165	-6.94
223.4	-6.94
223.635	-6.94
223.869	-9.94
224.104	-16.94
224.338	-6.94
224.573	-7.94
224.808	-22.94
225.042	-17.94
225.277	3.06
225.511	-0.94
225.746	10.06
225.98	-2.94
226.215	-7.94
226.449	8.06
226.683	12.06
226.918	30.06
227.152	38.06
227.387	30.06
227.621	37.06
227.856	37.06
228.09	44.06
228.324	57.06
228.559	66.06
228.793	62.06
229.027	100.06
229.262	121.06
229.496	128.06
229.73	152.06
229.964	159.06
230.199	159.06
230.433	129.06
230.667	109.06
230.901	110.06
231.136	116.06
231.37	114.06
231.604	140.06
231.838	123.06
232.072	117.06
232.306	126.06
232.541	122.06
232.775	119.06
233.009	129.06
233.243	121.06
233.477	119.06
233.711	121.06
233.945	118.06
234.179	136.06
234.413	117.06
234.647	131.06
234.881	128.06
235.115	131.06
235.349	144.06
235.583	117.06
235.817	135.06
236.051	129.06
236.285	141.06
236.519	132.06
236.753	147.06
236.987	153.06
237.221	203.06
237.455	266.06
237.689	227.06
237.922	170.06
238.156	151.06
238.39	143.06
238.624	138.06
238.858	123.06
239.091	143.06
239.325	158.06
239.559	136.06
239.793	147.06
240.027	142.06
240.26	169.06
240.494	187.06
240.728	178.06
240.961	172.06
241.195	157.06
241.429	147.06
241.662	146.06
241.896	143.06
242.13	142.06
242.363	145.06
242.597	149.06
242.83	158.06
243.064	146.06
243.298	146.06
243.531	140.06
243.765	140.06
243.998	161.06
244.232	146.06
244.465	146.06
244.699	171.06
244.932	152.06
245.166	156.06
245.399	145.06
245.633	152.06
245.866	164.06
246.099	154.06
246.333	162.06
246.566	166.06
246.8	158.06
247.033	183.06
247.266	183.06
247.5	184.06
247.733	189.06
247.966	192.06
248.2	185.06
248.433	203.06
248.666	200.06
248.899	217.06
249.133	233.06
249.366	224.06
249.599	227.06
249.832	194.06
250.066	205.06
250.299	216.06
250.532	207.06
250.765	223.06
250.998	258.06
251.231	271.06
251.465	245.06
251.698	237.06
251.931	216.06
252.164	216.06
252.397	226.06
252.63	229.06
252.863	234.06
253.096	247.06
253.329	254.06
253.562	254.06
253.795	255.06
254.028	268.06
254.261	259.06
254.494	278.06
254.727	287.06
254.96	317.06
255.193	334.06
255.426	312.06
255.659	247.06
255.892	237.06
256.124	274.06
256.357	253.06
256.59	251.06
256.823	253.06
257.056	234.06
257.289	230.06
257.521	241.06
257.754	227.06
257.987	233.06
258.22	229.06
258.452	226.06
258.685	222.06
258.918	237.06
259.151	227.06
259.383	251.06
259.616	245.06
259.849	251.06
260.081	275.06
260.314	282.06
260.547	294.06
260.779	268.06
261.012	264.06
261.244	261.06
261.477	243.06
261.71	252.06
261.942	258.06
262.175	268.06
262.407	262.06
262.64	235.06
262.872	235.06
263.105	238.06
263.337	219.06
263.57	223.06
263.802	224.06
264.035	224.06
264.267	226.06
264.499	231.06
264.732	230.06
264.964	226.06
265.197	214.06
265.429	226.06
265.661	229.06
265.894	221.06
266.126	230.06
266.358	220.06
266.591	238.06
266.823	223.06
267.055	257.06
267.287	239.06
267.52	268.06
267.752	228.06
267.984	239.06
268.216	248.06
268.448	245.06
268.681	240.06
268.913	257.06
269.145	272.06
269.377	288.06
269.609	307.06
269.841	301.06
270.073	295.06
270.306	304.06
270.538	345.06
270.77	333.06
271.002	330.06
271.234	335.06
271.466	321.06
271.698	350.06
271.93	360.06
272.162	344.06
272.394	343.06
272.626	337.06
272.858	326.06
273.09	287.06
273.322	299.06
273.553	298.06
273.785	288.06
274.017	277.06
274.249	293.06
274.481	286.06
274.713	273.06
274.945	290.06
275.176	272.06
275.408	268.06
275.64	273.06
275.872	276.06
276.104	279.06
276.335	268.06
276.567	285.06
276.799	292.06
277.031	307.06
277.262	337.06
277.494	315.06
277.726	310.06
277.957	306.06
278.189	270.06
278.421	291.06
278.652	274.06
278.884	285.06
279.115	263.06
279.347	305.06
279.579	271.06
279.81	271.06
280.042	257.06
280.273	273.06
280.505	281.06
280.736	287.06
280.968	273.06
281.199	270.06
281.431	272.06
281.662	271.06
281.894	264.06
282.125	282.06
282.356	280.06
282.588	295.06
282.819	322.06
283.051	279.06
283.282	272.06
283.513	272.06
283.745	292.06
283.976	302.06
284.207	289.06
284.439	290.06
284.67	289.06
284.901	275.06
285.132	269.06
285.364	274.06
285.595	264.06
285.826	262.06
286.057	279.06
286.288	247.06
286.52	283.06
286.751	273.06
286.982	280.06
287.213	298.06
287.444	270.06
287.675	297.06
287.906	302.06
288.138	286.06
288.369	305.06
288.6	311.06
288.831	309.06
289.062	290.06
289.293	290.06
289.524	301.06
289.755	299.06
289.986	292.06
290.217	302.06
290.448	281.06
290.679	286.06
290.91	287.06
291.141	283.06
291.371	280.06
291.602	288.06
291.833	270.06
292.064	295.06
292.295	280.06
292.526	295.06
292.757	294.06
292.987	297.06
293.218	290.06
293.449	299.06
293.68	304.06
293.91	275.06
294.141	293.06
294.372	299.06
294.603	281.06
294.833	282.06
295.064	271.06
295.295	282.06
295.525	294.06
295.756	299.06
295.987	312.06
296.217	325.06
296.448	344.06
296.679	307.06
296.909	287.06
297.14	297.06
297.37	318.06
297.601	304.06
297.831	298.06
298.062	304.06
298.292	307.06
298.523	310.06
298.753	307.06
298.984	317.06
299.214	321.06
299.445	313.06
299.675	299.06
299.905	298.06
300.136	321.06
300.366	303.06
300.597	290.06
300.827	305.06
301.057	311.06
301.288	339.06
301.518	333.06
301.748	320.06
301.979	344.06
302.209	306.06
302.439	320.06
302.669	324.06
302.9	324.06
303.13	347.06
303.36	344.06
303.59	339.06
303.82	327.06
304.051	335.06
304.281	335.06
304.511	334.06
304.741	330.06
304.971	304.06
305.201	326.06
305.431	347.06
305.661	331.06
305.891	332.06
306.121	333.06
306.352	331.06
306.582	330.06
306.812	332.06
307.042	331.06
307.272	344.06
307.502	342.06
307.731	338.06
307.961	340.06
308.191	329.06
308.421	335.06
308.651	339.06
308.881	348.06
309.111	327.06
309.341	355.06
309.571	354.06
309.8	346.06
310.03	390.06
310.26	379.06
310.49	368.06
310.72	386.06
310.949	397.06
311.179	397.06
311.409	390.06
311.639	380.06
311.868	371.06
312.098	403.06
312.328	399.06
312.557	424.06
312.787	427.06
313.017	439.06
313.246	407.06
313.476	397.06
313.706	394.06
313.935	387.06
314.165	423.06
314.394	419.06
314.624	427.06
314.853	406.06
315.083	395.06
315.312	380.06
315.542	373.06
315.771	362.06
316.001	380.06
316.23	389.06
316.46	401.06
316.689	386.06
316.919	396.06
317.148	401.06
317.377	395.06
317.607	383.06
317.836	387.06
318.065	383.06
318.295	383.06
318.524	376.06
318.753	377.06
318.983	385.06
319.212	386.06
319.441	383.06
319.67	416.06
319.9	395.06
320.129	410.06
320.358	400.06
320.587	393.06
320.816	378.06
321.046	410.06
321.275	428.06
321.504	414.06
321.733	423.06
321.962	419.06
322.191	442.06
322.42	463.06
322.649	483.06
322.878	486.06
323.108	497.06
323.337	518.06
323.566	561.06
323.795	579.06
324.024	629.06
324.253	793.06
324.482	1106.06
324.71	1733.06
324.939	2433.06
325.168	2112.06
325.397	1132.06
325.626	749.06
325.855	618.06
326.084	577.06
326.313	560.06
326.542	560.06
326.77	620.06
326.999	720.06
327.228	979.06
327.457	1483.06
327.686	1807.06
327.914	1265.06
328.143	817.06
328.372	727.06
328.6	683.06
328.829	613.06
329.058	634.06
329.287	630.06
329.515	613.06
329.744	571.06
329.972	589.06
330.201	603.06
330.43	625.06
330.658	647.06
330.887	696.06
331.115	659.06
331.344	580.06
331.572	533.06
331.801	550.06
332.03	535.06
332.258	518.06
332.486	488.06
332.715	457.06
332.943	465.06
333.172	462.06
333.4	481.06
333.629	479.06
333.857	486.06
334.085	499.06
334.314	520.06
334.542	535.06
334.771	579.06
334.999	497.06
335.227	513.06
335.455	486.06
335.684	458.06
335.912	480.06
336.14	443.06
336.369	434.06
336.597	466.06
336.825	466.06
337.053	471.06
337.281	441.06
337.51	463.06
337.738	431.06
337.966	449.06
338.194	459.06
338.422	459.06
338.65	465.06
338.878	426.06
339.106	439.06
339.334	429.06
339.562	442.06
339.79	443.06
340.018	447.06
340.246	455.06
340.474	442.06
340.702	445.06
340.93	447.06
341.158	426.06
341.386	442.06
341.614	433.06
341.842	458.06
342.07	423.06
342.298	417.06
342.526	427.06
342.754	418.06
342.981	393.06
343.209	423.06
343.437	429.06
343.665	443.06
343.893	425.06
344.12	429.06
344.348	449.06
344.576	456.06
344.804	447.06
345.031	441.06
345.259	489.06
345.487	457.06
345.714	441.06
345.942	441.06
346.17	446.06
346.397	437.06
346.625	426.06
346.853	404.06
347.08	421.06
347.308	437.06
347.535	463.06
347.763	450.06
347.99	463.06
348.218	455.06
348.445	452.06
348.673	467.06
348.9	444.06
349.128	423.06
349.355	441.06
349.583	426.06
349.81	424.06
350.037	429.06
350.265	429.06
350.492	427.06
350.72	438.06
350.947	437.06
351.174	444.06
351.402	456.06
351.629	471.06
351.856	457.06
352.083	440.06
352.311	440.06
352.538	464.06
352.765	458.06
352.992	437.06
353.22	462.06
353.447	451.06
353.674	436.06
353.901	410.06
354.128	403.06
354.355	416.06
354.583	408.06
354.81	406.06
355.037	433.06
355.264	402.06
355.491	388.06
355.718	414.06
355.945	409.06
356.172	417.06
356.399	402.06
356.626	403.06
356.853	401.06
357.08	429.06
357.307	402.06
357.534	394.06
357.761	425.06
357.988	411.06
358.215	402.06
358.441	398.06
358.668	399.06
358.895	438.06
359.122	413.06
359.349	427.06
359.576	426.06
359.802	482.06
360.029	520.06
360.256	505.06
360.483	504.06
360.709	443.06
360.936	457.06
361.163	439.06
361.39	453.06
361.616	472.06
361.843	460.06
362.07	445.06
362.296	432.06
362.523	427.06
362.749	446.06
362.976	445.06
363.203	443.06
363.429	417.06
363.656	431.06
363.882	432.06
364.109	413.06
364.335	407.06
364.562	428.06
364.788	433.06
365.015	421.06
365.241	422.06
365.468	441.06
365.694	447.06
365.92	434.06
366.147	422.06
366.373	429.06
366.599	441.06
366.826	415.06
367.052	413.06
367.278	415.06
367.505	426.06
367.731	428.06
367.957	406.06
368.184	433.06
368.41	435.06
368.636	430.06
368.862	441.06
369.089	452.06
369.315	423.06
369.541	434.06
369.767	416.06
369.993	417.06
370.219	416.06
370.445	430.06
370.672	416.06
370.898	414.06
371.124	433.06
371.35	449.06
371.576	419.06
371.802	417.06
372.028	415.06
372.254	430.06
372.48	422.06
372.706	429.06
372.932	429.06
373.158	409.06
373.384	434.06
373.61	417.06
373.835	432.06
374.061	433.06
374.287	434.06
374.513	422.06
374.739	431.06
374.965	413.06
375.191	429.06
375.416	416.06
375.642	428.06
375.868	421.06
376.094	427.06
376.319	424.06
376.545	397.06
376.771	421.06
376.997	439.06
377.222	418.06
377.448	422.06
377.674	409.06
377.899	429.06
378.125	409.06
378.35	412.06
378.576	412.06
378.802	408.06
379.027	426.06
379.253	433.06
379.478	426.06
379.704	409.06
379.929	434.06
380.155	424.06
380.38	427.06
380.606	421.06
380.831	435.06
381.057	418.06
381.282	419.06
381.507	424.06
381.733	422.06
381.958	430.06
382.184	425.06
382.409	422.06
382.634	434.06
382.86	440.06
383.085	419.06
383.31	444.06
383.535	439.06
383.761	450.06
383.986	416.06
384.211	431.06
384.436	431.06
384.662	428.06
384.887	445.06
385.112	426.06
385.337	443.06
385.562	469.06
385.787	444.06
386.013	459.06
386.238	464.06
386.463	482.06
386.688	476.06
386.913	433.06
387.138	475.06
387.363	442.06
387.588	439.06
387.813	453.06
388.038	458.06
388.263	455.06
388.488	441.06
388.713	477.06
388.938	461.06
389.163	455.06
389.387	457.06
389.612	443.06
389.837	443.06
390.062	445.06
390.287	457.06
390.512	438.06
390.736	460.06
390.961	444.06
391.186	437.06
391.411	459.06
391.636	433.06
391.86	461.06
392.085	475.06
392.31	453.06
392.534	449.06
392.759	462.06
392.984	481.06
393.208	465.06
393.433	472.06
393.658	479.06
393.882	481.06
394.107	446.06
394.331	460.06
394.556	448.06
394.78	482.06
395.005	474.06
395.229	462.06
395.454	457.06
395.678	474.06
395.903	501.06
396.127	519.06
396.352	497.06
396.576	495.06
396.801	492.06
397.025	487.06
397.249	497.06
397.474	478.06
397.698	481.06
397.922	504.06
398.147	527.06
398.371	515.06
398.595	521.06
398.82	523.06
399.044	523.06
399.268	498.06
399.492	547.06
399.717	579.06
399.941	593.06
400.165	626.06
400.389	655.06
400.613	589.06
400.837	558.06
401.062	534.06
401.286	520.06
401.51	513.06
401.734	517.06
401.958	531.06
402.182	559.06
402.406	521.06
402.63	557.06
402.854	547.06
403.078	539.06
403.302	550.06
403.526	540.06
403.75	543.06
403.974	523.06
404.198	562.06
404.422	547.06
404.645	537.06
404.869	574.06
405.093	582.06
405.317	622.06
405.541	682.06
405.765	611.06
405.988	592.06
406.212	580.06
406.436	598.06
406.66	636.06
406.883	609.06
407.107	612.06
407.331	682.06
407.555	697.06
407.778	734.06
408.002	677.06
408.226	590.06
408.449	618.06
408.673	611.06
408.896	644.06
409.12	699.06
409.344	643.06
409.567	599.06
409.791	566.06
410.014	553.06
410.238	585.06
410.461	543.06
410.685	562.06
410.908	576.06
411.132	644.06
411.355	655.06
411.578	619.06
411.802	573.06
412.025	538.06
412.249	549.06
412.472	585.06
412.695	652.06
412.919	618.06
413.142	582.06
413.365	537.06
413.589	562.06
413.812	548.06
414.035	518.06
414.258	516.06
414.482	526.06
414.705	528.06
414.928	520.06
415.151	533.06
415.374	516.06
415.597	513.06
415.821	504.06
416.044	540.06
416.267	549.06
416.49	515.06
416.713	521.06
416.936	516.06
417.159	560.06
417.382	513.06
417.605	522.06
417.828	543.06
418.051	542.06
418.274	543.06
418.497	528.06
418.72	517.06
418.943	539.06
419.166	535.06
419.389	561.06
419.611	599.06
419.834	546.06
420.057	577.06
420.28	575.06
420.503	577.06
420.726	565.06
420.948	569.06
421.171	605.06
421.394	650.06
421.617	601.06
421.839	552.06
422.062	542.06
422.285	577.06
422.507	624.06
422.73	725.06
422.953	689.06
423.175	630.06
423.398	579.06
423.621	600.06
423.843	618.06
424.066	618.06
424.288	621.06
424.511	625.06
424.733	702.06
424.956	747.06
425.178	734.06
425.401	746.06
425.623	755.06
425.846	672.06
426.068	620.06
426.291	613.06
426.513	624.06
426.735	613.06
426.958	670.06
427.18	747.06
427.402	870.06
427.625	965.06
427.847	874.06
428.069	771.06
428.292	706.06
428.514	651.06
428.736	601.06
428.958	603.06
429.181	594.06
429.403	577.06
429.625	609.06
429.847	629.06
430.069	707.06
430.292	683.06
430.514	608.06
430.736	581.06
430.958	565.06
431.18	541.06
431.402	545.06
431.624	532.06
431.846	549.06
432.068	511.06
432.29	520.06
432.512	547.06
432.734	563.06
432.956	573.06
433.178	560.06
433.4	553.06
433.622	542.06
433.844	541.06
434.066	539.06
434.287	533.06
434.509	548.06
434.731	549.06
434.953	534.06
435.175	592.06
435.397	589.06
435.618	606.06
435.84	669.06
436.062	777.06
436.284	849.06
436.505	695.06
436.727	631.06
436.949	595.06
437.17	593.06
437.392	572.06
437.614	590.06
437.835	649.06
438.057	743.06
438.278	864.06
438.5	850.06
438.721	921.06
438.943	895.06
439.165	727.06
439.386	668.06
439.608	661.06
439.829	672.06
440.05	675.06
440.272	700.06
440.493	670.06
440.715	635.06
440.936	585.06
441.158	577.06
441.379	582.06
441.6	615.06
441.822	629.06
442.043	667.06
442.264	754.06
442.486	792.06
442.707	681.06
442.928	651.06
443.149	678.06
443.371	675.06
443.592	712.06
443.813	832.06
444.034	869.06
444.255	738.06
444.476	651.06
444.698	632.06
444.919	613.06
445.14	715.06
445.361	695.06
445.582	685.06
445.803	726.06
446.024	837.06
446.245	850.06
446.466	777.06
446.687	679.06
446.908	651.06
447.129	590.06
447.35	587.06
447.571	583.06
447.792	557.06
448.013	582.06
448.234	619.06
448.455	651.06
448.675	807.06
448.896	898.06
449.117	772.06
449.338	736.06
449.559	865.06
449.779	933.06
450	751.06
450.221	632.06
450.442	625.06
450.662	592.06
450.883	594.06
451.104	619.06
451.324	592.06
451.545	571.06
451.766	541.06
451.986	521.06
452.207	525.06
452.428	515.06
452.648	520.06
452.869	538.06
453.089	536.06
453.31	533.06
453.53	553.06
453.751	507.06
453.971	522.06
454.192	536.06
454.412	569.06
454.633	521.06
454.853	519.06
455.073	519.06
455.294	572.06
455.514	609.06
455.734	610.06
455.955	538.06
456.175	499.06
456.395	489.06
456.616	497.06
456.836	487.06
457.056	474.06
457.276	485.06
457.497	471.06
457.717	467.06
457.937	465.06
458.157	504.06
458.377	501.06
458.598	535.06
458.818	596.06
459.038	687.06
459.258	713.06
459.478	617.06
459.698	531.06
459.918	515.06
460.138	529.06
460.358	546.06
460.578	524.06
460.798	538.06
461.018	537.06
461.238	519.06
461.458	531.06
461.678	519.06
461.898	530.06
462.118	520.06
462.338	553.06
462.558	517.06
462.777	557.06
462.997	559.06
463.217	551.06
463.437	555.06
463.657	561.06
463.876	552.06
464.096	549.06
464.316	562.06
464.536	557.06
464.755	574.06
464.975	593.06
465.195	618.06
465.414	740.06
465.634	654.06
465.854	601.06
466.073	575.06
466.293	549.06
466.512	515.06
466.732	544.06
466.951	558.06
467.171	524.06
467.391	538.06
467.61	537.06
467.829	553.06
468.049	559.06
468.268	557.06
468.488	529.06
468.707	514.06
468.927	498.06
469.146	502.06
469.365	525.06
469.585	503.06
469.804	539.06
470.023	557.06
470.243	541.06
470.462	550.06
470.681	569.06
470.901	561.06
471.12	518.06
471.339	531.06
471.558	537.06
471.777	543.06
471.997	521.06
472.216	558.06
472.435	607.06
472.654	601.06
472.873	547.06
473.092	552.06
473.311	549.06
473.53	529.06
473.749	554.06
473.968	595.06
474.187	731.06
474.406	744.06
474.625	643.06
474.844	578.06
475.063	559.06
475.282	545.06
475.501	558.06
475.72	563.06
475.939	542.06
476.158	574.06
476.377	553.06
476.596	568.06
476.814	569.06
477.033	562.06
477.252	587.06
477.471	571.06
477.69	572.06
477.908	575.06
478.127	575.06
478.346	578.06
478.564	572.06
478.783	595.06
479.002	604.06
479.22	633.06
479.439	635.06
479.658	631.06
479.876	652.06
480.095	642.06
480.313	705.06
480.532	657.06
480.751	666.06
480.969	679.06
481.188	759.06
481.406	808.06
481.624	713.06
481.843	682.06
482.061	658.06
482.28	672.06
482.498	659.06
482.717	660.06
482.935	659.06
483.153	637.06
483.372	637.06
483.59	652.06
483.808	635.06
484.027	638.06
484.245	659.06
484.463	647.06
484.681	651.06
484.9	651.06
485.118	645.06
485.336	664.06
485.554	642.06
485.772	648.06
485.99	682.06
486.209	685.06
486.427	673.06
486.645	699.06
486.863	715.06
487.081	711.06
487.299	713.06
487.517	696.06
487.735	708.06
487.953	718.06
488.171	726.06
488.389	747.06
488.607	705.06
488.825	707.06
489.043	706.06
489.261	691.06
489.479	713.06
489.696	753.06
489.914	723.06
490.132	726.06
490.35	731.06
490.568	744.06
490.786	757.06
491.003	772.06
491.221	796.06
491.439	797.06
491.657	810.06
491.874	819.06
492.092	845.06
492.31	826.06
492.527	830.06
492.745	821.06
492.963	868.06
493.18	840.06
493.398	859.06
493.615	839.06
493.833	846.06
494.05	862.06
494.268	867.06
494.485	852.06
494.703	866.06
494.92	876.06
495.138	851.06
495.355	869.06
495.573	860.06
495.79	861.06
496.008	858.06
496.225	837.06
496.442	833.06
496.66	839.06
496.877	850.06
497.094	843.06
497.312	874.06
497.529	869.06
497.746	859.06
497.963	866.06
498.181	895.06
498.398	898.06
498.615	913.06
498.832	900.06
499.049	924.06
499.267	895.06
499.484	934.06
499.701	962.06
499.918	987.06
500.135	1008.06
500.352	1032.06
500.569	1019.06
500.786	1050.06
501.003	1035.06
501.22	982.06
501.437	1014.06
501.654	988.06
501.871	1017.06
502.088	980.06
502.305	951.06
502.522	898.06
502.739	892.06
502.956	886.06
503.172	885.06
503.389	854.06
503.606	901.06
503.823	858.06
504.04	855.06
504.256	836.06
504.473	850.06
504.69	824.06
504.907	816.06
505.123	810.06
505.34	793.06
505.557	778.06
505.773	798.06
505.99	823.06
506.207	812.06
506.423	797.06
506.64	795.06
506.856	796.06
507.073	804.06
507.289	816.06
507.506	794.06
507.722	830.06
507.939	838.06
508.155	812.06
508.372	787.06
508.588	797.06
508.805	778.06
509.021	765.06
509.238	829.06
509.454	800.06
509.67	784.06
509.887	771.06
510.103	803.06
510.319	783.06
510.536	931.06
510.752	1542.06
510.968	1258.06
511.184	816.06
511.401	775.06
511.617	751.06
511.833	734.06
512.049	725.06
512.265	722.06
512.481	747.06
512.698	751.06
512.914	727.06
513.13	747.06
513.346	705.06
513.562	730.06
513.778	717.06
513.994	742.06
514.21	791.06
514.426	789.06
514.642	857.06
514.858	888.06
515.074	913.06
515.29	1085.06
515.506	1666.06
515.721	1377.06
515.937	909.06
516.153	827.06
516.369	795.06
516.585	758.06
516.801	786.06
517.016	720.06
517.232	740.06
517.448	735.06
517.664	747.06
517.879	736.06
518.095	754.06
518.311	738.06
518.527	735.06
518.742	712.06
518.958	728.06
519.173	694.06
519.389	716.06
519.605	731.06
519.82	749.06
520.036	767.06
520.251	801.06
520.467	829.06
520.682	810.06
520.898	825.06
521.113	871.06
521.329	902.06
521.544	1056.06
521.76	1304.06
521.975	2189.06
522.19	2161.06
522.406	1170.06
522.621	891.06
522.836	806.06
523.052	738.06
523.267	706.06
523.482	687.06
523.698	682.06
523.913	684.06
524.128	698.06
524.343	673.06
524.559	662.06
524.774	667.06
524.989	663.06
525.204	641.06
525.419	643.06
525.634	654.06
525.849	627.06
526.064	604.06
526.28	591.06
526.495	604.06
526.71	609.06
526.925	620.06
527.14	606.06
527.355	586.06
527.57	587.06
527.785	595.06
527.999	575.06
528.214	614.06
528.429	586.06
528.644	586.06
528.859	611.06
529.074	589.06
529.289	629.06
529.503	734.06
529.718	736.06
529.933	649.06
530.148	635.06
530.363	642.06
530.577	590.06
530.792	570.06
531.007	584.06
531.221	589.06
531.436	568.06
531.651	571.06
531.865	571.06
532.08	556.06
532.295	581.06
532.509	561.06
532.724	553.06
532.938	556.06
533.153	545.06
533.367	578.06
533.582	558.06
533.796	544.06
534.011	570.06
534.225	551.06
534.44	547.06
534.654	537.06
534.868	540.06
535.083	546.06
535.297	576.06
535.511	561.06
535.726	567.06
535.94	584.06
536.154	555.06
536.369	561.06
536.583	550.06
536.797	557.06
537.011	547.06
537.225	547.06
537.44	539.06
537.654	535.06
537.868	524.06
538.082	533.06
538.296	558.06
538.51	528.06
538.724	539.06
538.938	533.06
539.153	545.06
539.367	553.06
539.581	547.06
539.795	516.06
540.009	545.06
540.222	521.06
540.436	546.06
540.65	543.06
540.864	526.06
541.078	556.06
541.292	555.06
541.506	555.06
541.72	546.06
541.934	536.06
542.147	547.06
542.361	531.06
542.575	525.06
542.789	525.06
543.002	548.06
543.216	550.06
543.43	532.06
543.644	546.06
543.857	503.06
544.071	541.06
544.285	526.06
544.498	526.06
544.712	518.06
544.925	522.06
545.139	505.06
545.352	499.06
545.566	515.06
545.779	518.06
545.993	518.06
546.206	525.06
546.42	519.06
546.633	517.06
546.847	521.06
547.06	520.06
547.274	502.06
547.487	514.06
547.7	516.06
547.914	482.06
548.127	513.06
548.34	511.06
548.554	505.06
548.767	503.06
548.98	506.06
549.193	487.06
549.407	519.06
549.62	493.06
549.833	494.06
550.046	508.06
550.259	503.06
550.473	488.06
550.686	486.06
550.899	490.06
551.112	486.06
551.325	496.06
551.538	502.06
551.751	487.06
551.964	491.06
552.177	473.06
552.39	492.06
552.603	489.06
552.816	495.06
553.029	475.06
553.242	521.06
553.455	519.06
553.667	512.06
553.88	532.06
554.093	502.06
554.306	510.06
554.519	489.06
554.732	497.06
554.944	476.06
555.157	483.06
555.37	486.06
555.583	468.06
555.795	482.06
556.008	445.06
556.221	445.06
556.433	465.06
556.646	443.06
556.859	450.06
557.071	455.06
557.284	464.06
557.496	459.06
557.709	463.06
557.921	463.06
558.134	456.06
558.346	448.06
558.559	449.06
558.771	437.06
558.984	434.06
559.196	461.06
559.409	443.06
559.621	422.06
559.833	437.06
560.046	435.06
560.258	451.06
560.47	433.06
560.683	443.06
560.895	453.06
561.107	431.06
561.32	425.06
561.532	466.06
561.744	415.06
561.956	434.06
562.168	418.06
562.381	455.06
562.593	457.06
562.805	444.06
563.017	439.06
563.229	420.06
563.441	437.06
563.653	445.06
563.865	433.06
564.077	461.06
564.289	448.06
564.501	459.06
564.713	432.06
564.925	442.06
565.137	465.06
565.349	462.06
565.561	474.06
565.773	458.06
565.985	463.06
566.197	491.06
566.408	470.06
566.62	481.06
566.832	490.06
567.044	489.06
567.255	496.06
567.467	487.06
567.679	497.06
567.891	513.06
568.102	489.06
568.314	501.06
568.526	494.06
568.737	477.06
568.949	475.06
569.161	473.06
569.372	470.06
569.584	434.06
569.795	455.06
570.007	445.06
570.218	515.06
570.43	493.06
570.641	437.06
570.853	428.06
571.064	428.06
571.276	413.06
571.487	426.06
571.698	440.06
571.91	400.06
572.121	423.06
572.333	423.06
572.544	399.06
572.755	393.06
572.966	387.06
573.178	391.06
573.389	362.06
573.6	385.06
573.811	385.06
574.023	393.06
574.234	360.06
574.445	375.06
574.656	395.06
574.867	381.06
575.078	361.06
575.289	379.06
575.501	383.06
575.712	365.06
575.923	360.06
576.134	374.06
576.345	376.06
576.556	382.06
576.767	362.06
576.978	369.06
577.188	358.06
577.399	374.06
577.61	343.06
577.821	356.06
578.032	379.06
578.243	400.06
578.454	691.06
578.665	511.06
578.875	383.06
579.086	362.06
579.297	358.06
579.508	349.06
579.718	351.06
579.929	342.06
580.14	351.06
580.35	341.06
580.561	358.06
580.772	359.06
580.982	351.06
581.193	362.06
581.403	354.06
581.614	355.06
581.825	350.06
582.035	336.06
582.246	342.06
582.456	340.06
582.667	347.06
582.877	347.06
583.087	346.06
583.298	332.06
583.508	338.06
583.719	335.06
583.929	346.06
584.139	335.06
584.35	334.06
584.56	327.06
584.77	349.06
584.981	348.06
585.191	350.06
585.401	342.06
585.611	332.06
585.821	333.06
586.032	339.06
586.242	366.06
586.452	358.06
586.662	339.06
586.872	322.06
587.082	306.06
587.292	324.06
587.502	365.06
587.713	338.06
587.923	318.06
588.133	317.06
588.343	326.06
588.553	334.06
588.762	329.06
588.972	323.06
589.182	326.06
589.392	338.06
589.602	333.06
589.812	341.06
590.022	337.06
590.232	327.06
590.441	332.06
590.651	321.06
590.861	326.06
591.071	326.06
591.281	340.06
591.49	328.06
591.7	324.06
591.91	332.06
592.119	326.06
592.329	329.06
592.539	336.06
592.748	312.06
592.958	344.06
593.167	326.06
593.377	349.06
593.587	341.06
593.796	321.06
594.006	330.06
594.215	337.06
594.424	326.06
594.634	336.06
594.843	324.06
595.053	316.06
595.262	303.06
595.472	321.06
595.681	310.06
595.89	308.06
596.1	342.06
596.309	306.06
596.518	317.06
596.727	305.06
596.937	323.06
597.146	319.06
597.355	312.06
597.564	319.06
597.774	305.06
597.983	307.06
598.192	298.06
598.401	304.06
598.61	302.06
598.819	290.06
599.028	290.06
599.237	305.06
599.446	295.06
599.655	297.06
599.864	300.06
600.073	293.06
600.282	269.06
600.491	298.06
600.7	290.06
600.909	295.06
601.118	296.06
601.327	286.06
601.536	299.06
601.745	296.06
601.953	288.06
602.162	282.06
602.371	296.06
602.58	285.06
602.789	289.06
602.997	297.06
603.206	278.06
603.415	269.06
603.623	280.06
603.832	267.06
604.041	274.06
604.249	298.06
604.458	285.06
604.666	286.06
604.875	274.06
605.084	273.06
605.292	291.06
605.501	261.06
605.709	279.06
605.918	304.06
606.126	271.06
606.334	295.06
606.543	276.06
606.751	291.06
606.96	269.06
607.168	274.06
607.376	273.06
607.585	269.06
607.793	280.06
608.001	278.06
608.21	284.06
608.418	286.06
608.626	249.06
608.834	278.06
609.043	285.06
609.251	254.06
609.459	274.06
609.667	275.06
609.875	305.06
610.083	298.06
610.291	267.06
610.499	274.06
610.707	269.06
610.916	276.06
611.124	271.06
611.332	281.06
611.54	275.06
611.748	293.06
611.955	283.06
612.163	273.06
612.371	286.06
612.579	269.06
612.787	275.06
612.995	281.06
613.203	275.06
613.411	277.06
613.618	276.06
613.826	256.06
614.034	282.06
614.242	255.06
614.449	271.06
614.657	265.06
614.865	270.06
615.072	272.06
615.28	271.06
615.488	257.06
615.695	282.06
615.903	269.06
616.111	281.06
616.318	283.06
616.526	279.06
616.733	272.06
616.941	253.06
617.148	248.06
617.356	259.06
617.563	261.06
617.771	250.06
617.978	250.06
618.185	253.06
618.393	243.06
618.6	265.06
618.807	275.06
619.015	274.06
619.222	269.06
619.429	246.06
619.637	252.06
619.844	274.06
620.051	277.06
620.258	253.06
620.466	249.06
620.673	224.06
620.88	229.06
621.087	247.06
621.294	239.06
621.501	259.06
621.708	263.06
621.915	245.06
622.122	237.06
622.329	250.06
622.536	274.06
622.743	258.06
622.95	243.06
623.157	232.06
623.364	261.06
623.571	238.06
623.778	248.06
623.985	252.06
624.192	249.06
624.399	242.06
624.606	238.06
624.812	243.06
625.019	234.06
625.226	229.06
625.433	227.06
625.639	241.06
625.846	224.06
626.053	206.06
626.259	230.06
626.466	218.06
626.673	218.06
626.879	229.06
627.086	213.06
627.293	224.06
627.499	230.06
627.706	215.06
627.912	231.06
628.119	223.06
628.325	227.06
628.532	238.06
628.738	218.06
628.945	221.06
629.151	221.06
629.357	229.06
629.564	227.06
629.77	237.06
629.976	210.06
630.183	225.06
630.389	214.06
630.595	201.06
630.802	209.06
631.008	214.06
631.214	213.06
631.42	210.06
631.627	217.06
631.833	219.06
632.039	211.06
632.245	220.06
632.451	213.06
632.657	206.06
632.863	199.06
633.069	202.06
633.275	210.06
633.481	208.06
633.688	201.06
633.893	193.06
634.099	193.06
634.305	193.06
634.511	213.06
634.717	219.06
634.923	191.06
635.129	220.06
635.335	203.06
635.541	201.06
635.747	191.06
635.952	187.06
636.158	198.06
636.364	207.06
636.57	217.06
636.775	208.06
636.981	198.06
637.187	199.06
637.392	215.06
637.598	205.06
637.804	204.06
638.009	208.06
638.215	205.06
638.421	178.06
638.626	205.06
638.832	176.06
639.037	199.06
639.243	196.06
639.448	202.06
639.654	191.06
639.859	207.06
640.065	194.06
640.27	210.06
640.475	197.06
640.681	206.06
640.886	192.06
641.091	183.06
641.297	174.06
641.502	196.06
641.707	187.06
641.913	197.06
642.118	193.06
642.323	201.06
642.528	195.06
642.733	179.06
642.939	191.06
643.144	186.06
643.349	193.06
643.554	193.06
643.759	197.06
643.964	186.06
644.169	183.06
644.374	193.06
644.579	197.06
644.784	184.06
644.989	189.06
645.194	170.06
645.399	193.06
645.604	165.06
645.809	189.06
646.014	182.06
646.219	181.06
646.423	189.06
646.628	194.06
646.833	181.06
647.038	192.06
647.243	188.06
647.447	184.06
647.652	181.06
647.857	179.06
648.062	190.06
648.266	187.06
648.471	179.06
648.676	175.06
648.88	182.06
649.085	177.06
649.289	183.06
649.494	196.06
649.698	193.06
649.903	203.06
650.107	181.06
650.312	167.06
650.516	171.06
650.721	170.06
650.925	166.06
651.13	159.06
651.334	157.06
651.539	165.06
651.743	151.06
651.947	156.06
652.152	159.06
652.356	161.06
652.56	151.06
652.764	144.06
652.969	155.06
653.173	153.06
653.377	157.06
653.581	130.06
653.785	137.06
653.99	128.06
654.194	145.06
654.398	153.06
654.602	148.06
654.806	144.06
655.01	154.06
655.214	159.06
655.418	151.06
655.622	136.06
655.826	137.06
656.03	145.06
656.234	138.06
656.438	138.06
656.642	133.06
656.846	143.06
657.049	142.06
657.253	135.06
657.457	135.06
657.661	122.06
657.865	115.06
658.068	128.06
658.272	119.06
658.476	114.06
658.68	104.06
658.883	115.06
659.087	103.06
659.291	95.06
659.494	107.06
659.698	105.06
659.901	104.06
660.105	103.06
660.309	87.06
660.512	103.06
660.716	100.06
660.919	99.06
661.123	90.06
661.326	91.06
661.53	101.06
661.733	99.06
661.936	101.06
662.14	98.06
662.343	81.06
662.546	97.06
662.75	89.06
662.953	84.06
663.156	103.06
663.36	80.06
663.563	77.06
663.766	86.06
663.969	98.06
664.173	71.06
664.376	102.06
664.579	83.06
664.782	81.06
664.985	79.06
665.188	93.06
665.391	97.06
665.594	78.06
665.797	93.06
666	85.06
666.203	83.06
666.406	78.06
666.609	85.06
666.812	77.06
667.015	83.06
667.218	101.06
667.421	65.06
667.624	73.06
667.827	95.06
668.03	92.06
668.232	93.06
668.435	92.06
668.638	81.06
668.841	73.06
669.043	81.06
669.246	86.06
669.449	74.06
669.651	100.06
669.854	99.06
670.057	79.06
670.259	111.06
670.462	98.06
670.665	80.06
670.867	92.06
671.07	99.06
671.272	90.06
671.475	95.06
671.677	88.06
671.88	82.06
672.082	83.06
672.284	73.06
672.487	78.06
672.689	79.06
672.892	70.06
