Data from 1970.PennyLincolnUp.Lamp.En5.5.200Scan.071719.P1._HRD10591_15-15-53-841.txt Node
Date: Thu Jul 18 15:15:53 EDT 2019
User: cochatt
Spectrometer: HR+D1059
Trigger mode: 1
Integration Time (sec): 1.000000E-1
Scans to average: 1
Electric dark correction enabled: true
Nonlinearity correction enabled: false
Boxcar width: 0
XAxis mode: Wavelengths
Number of Pixels in Spectrum: 2048
>>>>>Begin Spectral Data<<<<<
223.165	-12.12
223.4	-12.12
223.635	-12.12
223.869	-22.12
224.104	-17.12
224.338	-13.12
224.573	-20.12
224.808	4.88
225.042	-1.12
225.277	8.88
225.511	-18.12
225.746	-3.12
225.98	12.88
226.215	-7.12
226.449	12.88
226.683	22.88
226.918	29.88
227.152	21.88
227.387	19.88
227.621	51.88
227.856	44.88
228.09	43.88
228.324	45.88
228.559	49.88
228.793	63.88
229.027	114.88
229.262	132.88
229.496	138.88
229.73	158.88
229.964	191.88
230.199	145.88
230.433	135.88
230.667	127.88
230.901	131.88
231.136	134.88
231.37	126.88
231.604	122.88
231.838	122.88
232.072	118.88
232.306	116.88
232.541	128.88
232.775	106.88
233.009	120.88
233.243	119.88
233.477	112.88
233.711	130.88
233.945	118.88
234.179	125.88
234.413	126.88
234.647	128.88
234.881	132.88
235.115	126.88
235.349	129.88
235.583	129.88
235.817	146.88
236.051	132.88
236.285	124.88
236.519	126.88
236.753	138.88
236.987	162.88
237.221	202.88
237.455	255.88
237.689	219.88
237.922	144.88
238.156	145.88
238.39	143.88
238.624	140.88
238.858	144.88
239.091	150.88
239.325	150.88
239.559	127.88
239.793	145.88
240.027	138.88
240.26	165.88
240.494	174.88
240.728	164.88
240.961	166.88
241.195	166.88
241.429	161.88
241.662	150.88
241.896	149.88
242.13	147.88
242.363	142.88
242.597	143.88
242.83	128.88
243.064	138.88
243.298	163.88
243.531	159.88
243.765	147.88
243.998	158.88
244.232	145.88
244.465	164.88
244.699	138.88
244.932	150.88
245.166	153.88
245.399	162.88
245.633	160.88
245.866	162.88
246.099	158.88
246.333	160.88
246.566	161.88
246.8	166.88
247.033	175.88
247.266	188.88
247.5	185.88
247.733	175.88
247.966	204.88
248.2	178.88
248.433	193.88
248.666	184.88
248.899	215.88
249.133	222.88
249.366	239.88
249.599	221.88
249.832	189.88
250.066	211.88
250.299	198.88
250.532	204.88
250.765	235.88
250.998	246.88
251.231	252.88
251.465	273.88
251.698	239.88
251.931	235.88
252.164	215.88
252.397	224.88
252.63	220.88
252.863	230.88
253.096	230.88
253.329	255.88
253.562	264.88
253.795	226.88
254.028	233.88
254.261	236.88
254.494	266.88
254.727	287.88
254.96	326.88
255.193	299.88
255.426	278.88
255.659	268.88
255.892	270.88
256.124	272.88
256.357	265.88
256.59	251.88
256.823	231.88
257.056	239.88
257.289	220.88
257.521	250.88
257.754	245.88
257.987	226.88
258.22	221.88
258.452	210.88
258.685	232.88
258.918	223.88
259.151	228.88
259.383	244.88
259.616	258.88
259.849	248.88
260.081	262.88
260.314	286.88
260.547	282.88
260.779	260.88
261.012	257.88
261.244	265.88
261.477	237.88
261.71	236.88
261.942	221.88
262.175	253.88
262.407	250.88
262.64	248.88
262.872	240.88
263.105	229.88
263.337	211.88
263.57	223.88
263.802	223.88
264.035	221.88
264.267	231.88
264.499	237.88
264.732	202.88
264.964	226.88
265.197	217.88
265.429	210.88
265.661	229.88
265.894	231.88
266.126	242.88
266.358	220.88
266.591	224.88
266.823	225.88
267.055	222.88
267.287	236.88
267.52	234.88
267.752	229.88
267.984	237.88
268.216	241.88
268.448	236.88
268.681	231.88
268.913	245.88
269.145	270.88
269.377	321.88
269.609	289.88
269.841	293.88
270.073	267.88
270.306	318.88
270.538	349.88
270.77	336.88
271.002	322.88
271.234	315.88
271.466	321.88
271.698	334.88
271.93	355.88
272.162	320.88
272.394	342.88
272.626	335.88
272.858	322.88
273.09	299.88
273.322	291.88
273.553	299.88
273.785	307.88
274.017	276.88
274.249	290.88
274.481	266.88
274.713	283.88
274.945	278.88
275.176	284.88
275.408	272.88
275.64	291.88
275.872	277.88
276.104	275.88
276.335	266.88
276.567	300.88
276.799	310.88
277.031	324.88
277.262	344.88
277.494	361.88
277.726	332.88
277.957	297.88
278.189	275.88
278.421	259.88
278.652	273.88
278.884	265.88
279.115	272.88
279.347	264.88
279.579	285.88
279.81	286.88
280.042	246.88
280.273	267.88
280.505	266.88
280.736	270.88
280.968	269.88
281.199	259.88
281.431	268.88
281.662	284.88
281.894	276.88
282.125	284.88
282.356	322.88
282.588	323.88
282.819	310.88
283.051	282.88
283.282	266.88
283.513	270.88
283.745	279.88
283.976	286.88
284.207	282.88
284.439	284.88
284.67	270.88
284.901	283.88
285.132	288.88
285.364	268.88
285.595	274.88
285.826	267.88
286.057	264.88
286.288	278.88
286.52	284.88
286.751	296.88
286.982	270.88
287.213	286.88
287.444	284.88
287.675	289.88
287.906	292.88
288.138	325.88
288.369	313.88
288.6	315.88
288.831	292.88
289.062	291.88
289.293	295.88
289.524	288.88
289.755	300.88
289.986	301.88
290.217	283.88
290.448	283.88
290.679	277.88
290.91	288.88
291.141	284.88
291.371	269.88
291.602	287.88
291.833	285.88
292.064	276.88
292.295	290.88
292.526	280.88
292.757	293.88
292.987	285.88
293.218	290.88
293.449	284.88
293.68	298.88
293.91	291.88
294.141	278.88
294.372	272.88
294.603	292.88
294.833	312.88
295.064	298.88
295.295	300.88
295.525	288.88
295.756	300.88
295.987	292.88
296.217	328.88
296.448	355.88
296.679	326.88
296.909	294.88
297.14	303.88
297.37	307.88
297.601	305.88
297.831	280.88
298.062	298.88
298.292	309.88
298.523	303.88
298.753	283.88
298.984	304.88
299.214	303.88
299.445	299.88
299.675	295.88
299.905	318.88
300.136	303.88
300.366	300.88
300.597	307.88
300.827	312.88
301.057	326.88
301.288	340.88
301.518	320.88
301.748	335.88
301.979	323.88
302.209	355.88
302.439	323.88
302.669	313.88
302.9	314.88
303.13	310.88
303.36	308.88
303.59	327.88
303.82	339.88
304.051	348.88
304.281	326.88
304.511	317.88
304.741	321.88
304.971	310.88
305.201	325.88
305.431	309.88
305.661	328.88
305.891	326.88
306.121	335.88
306.352	327.88
306.582	330.88
306.812	324.88
307.042	333.88
307.272	337.88
307.502	346.88
307.731	336.88
307.961	328.88
308.191	317.88
308.421	328.88
308.651	337.88
308.881	342.88
309.111	352.88
309.341	359.88
309.571	345.88
309.8	373.88
310.03	367.88
310.26	388.88
310.49	390.88
310.72	395.88
310.949	422.88
311.179	414.88
311.409	379.88
311.639	383.88
311.868	403.88
312.098	384.88
312.328	418.88
312.557	431.88
312.787	456.88
313.017	438.88
313.246	427.88
313.476	394.88
313.706	390.88
313.935	383.88
314.165	399.88
314.394	426.88
314.624	412.88
314.853	380.88
315.083	403.88
315.312	386.88
315.542	370.88
315.771	375.88
316.001	391.88
316.23	358.88
316.46	390.88
316.689	400.88
316.919	387.88
317.148	411.88
317.377	400.88
317.607	402.88
317.836	390.88
318.065	387.88
318.295	371.88
318.524	394.88
318.753	396.88
318.983	389.88
319.212	375.88
319.441	420.88
319.67	406.88
319.9	385.88
320.129	396.88
320.358	404.88
320.587	409.88
320.816	395.88
321.046	430.88
321.275	405.88
321.504	402.88
321.733	416.88
321.962	418.88
322.191	447.88
322.42	468.88
322.649	460.88
322.878	483.88
323.108	500.88
323.337	546.88
323.566	556.88
323.795	605.88
324.024	664.88
324.253	832.88
324.482	1183.88
324.71	1760.88
324.939	2551.88
325.168	2220.88
325.397	1208.88
325.626	788.88
325.855	640.88
326.084	548.88
326.313	536.88
326.542	563.88
326.77	628.88
326.999	747.88
327.228	1070.88
327.457	1577.88
327.686	1894.88
327.914	1300.88
328.143	855.88
328.372	761.88
328.6	688.88
328.829	657.88
329.058	662.88
329.287	660.88
329.515	648.88
329.744	587.88
329.972	598.88
330.201	584.88
330.43	652.88
330.658	671.88
330.887	706.88
331.115	692.88
331.344	595.88
331.572	532.88
331.801	526.88
332.03	542.88
332.258	504.88
332.486	492.88
332.715	466.88
332.943	469.88
333.172	478.88
333.4	464.88
333.629	490.88
333.857	509.88
334.085	534.88
334.314	546.88
334.542	593.88
334.771	587.88
334.999	536.88
335.227	486.88
335.455	481.88
335.684	479.88
335.912	459.88
336.14	441.88
336.369	445.88
336.597	461.88
336.825	477.88
337.053	472.88
337.281	446.88
337.51	429.88
337.738	474.88
337.966	454.88
338.194	444.88
338.422	454.88
338.65	453.88
338.878	450.88
339.106	440.88
339.334	440.88
339.562	436.88
339.79	437.88
340.018	423.88
340.246	445.88
340.474	439.88
340.702	442.88
340.93	441.88
341.158	425.88
341.386	450.88
341.614	441.88
341.842	437.88
342.07	425.88
342.298	417.88
342.526	428.88
342.754	423.88
342.981	425.88
343.209	416.88
343.437	435.88
343.665	448.88
343.893	420.88
344.12	429.88
344.348	431.88
344.576	452.88
344.804	444.88
345.031	467.88
345.259	486.88
345.487	463.88
345.714	473.88
345.942	447.88
346.17	446.88
346.397	448.88
346.625	439.88
346.853	424.88
347.08	444.88
347.308	446.88
347.535	460.88
347.763	462.88
347.99	439.88
348.218	442.88
348.445	460.88
348.673	471.88
348.9	450.88
349.128	433.88
349.355	427.88
349.583	424.88
349.81	430.88
350.037	422.88
350.265	437.88
350.492	436.88
350.72	414.88
350.947	448.88
351.174	452.88
351.402	465.88
351.629	448.88
351.856	471.88
352.083	465.88
352.311	477.88
352.538	464.88
352.765	479.88
352.992	473.88
353.22	442.88
353.447	459.88
353.674	445.88
353.901	417.88
354.128	418.88
354.355	423.88
354.583	392.88
354.81	419.88
355.037	410.88
355.264	412.88
355.491	406.88
355.718	381.88
355.945	401.88
356.172	410.88
356.399	399.88
356.626	395.88
356.853	397.88
357.08	403.88
357.307	385.88
357.534	407.88
357.761	404.88
357.988	410.88
358.215	400.88
358.441	426.88
358.668	408.88
358.895	391.88
359.122	412.88
359.349	443.88
359.576	456.88
359.802	482.88
360.029	502.88
360.256	525.88
360.483	487.88
360.709	470.88
360.936	450.88
361.163	455.88
361.39	454.88
361.616	439.88
361.843	441.88
362.07	452.88
362.296	460.88
362.523	457.88
362.749	443.88
362.976	450.88
363.203	446.88
363.429	440.88
363.656	413.88
363.882	423.88
364.109	397.88
364.335	413.88
364.562	441.88
364.788	422.88
365.015	414.88
365.241	422.88
365.468	421.88
365.694	433.88
365.92	437.88
366.147	429.88
366.373	421.88
366.599	399.88
366.826	403.88
367.052	412.88
367.278	425.88
367.505	414.88
367.731	434.88
367.957	422.88
368.184	430.88
368.41	421.88
368.636	427.88
368.862	447.88
369.089	424.88
369.315	416.88
369.541	412.88
369.767	415.88
369.993	426.88
370.219	424.88
370.445	407.88
370.672	418.88
370.898	435.88
371.124	425.88
371.35	389.88
371.576	406.88
371.802	409.88
372.028	410.88
372.254	398.88
372.48	408.88
372.706	422.88
372.932	438.88
373.158	422.88
373.384	430.88
373.61	428.88
373.835	445.88
374.061	422.88
374.287	447.88
374.513	425.88
374.739	422.88
374.965	419.88
375.191	403.88
375.416	430.88
375.642	434.88
375.868	446.88
376.094	421.88
376.319	412.88
376.545	434.88
376.771	417.88
376.997	414.88
377.222	419.88
377.448	424.88
377.674	402.88
377.899	411.88
378.125	436.88
378.35	401.88
378.576	403.88
378.802	416.88
379.027	414.88
379.253	417.88
379.478	420.88
379.704	415.88
379.929	407.88
380.155	418.88
380.38	412.88
380.606	419.88
380.831	405.88
381.057	427.88
381.282	422.88
381.507	424.88
381.733	419.88
381.958	440.88
382.184	434.88
382.409	422.88
382.634	449.88
382.86	425.88
383.085	435.88
383.31	431.88
383.535	429.88
383.761	432.88
383.986	446.88
384.211	416.88
384.436	419.88
384.662	442.88
384.887	426.88
385.112	423.88
385.337	440.88
385.562	423.88
385.787	446.88
386.013	466.88
386.238	444.88
386.463	450.88
386.688	452.88
386.913	443.88
387.138	452.88
387.363	456.88
387.588	472.88
387.813	448.88
388.038	442.88
388.263	456.88
388.488	463.88
388.713	460.88
388.938	457.88
389.163	455.88
389.387	452.88
389.612	423.88
389.837	450.88
390.062	469.88
390.287	461.88
390.512	444.88
390.736	435.88
390.961	458.88
391.186	448.88
391.411	447.88
391.636	439.88
391.86	452.88
392.085	430.88
392.31	462.88
392.534	461.88
392.759	469.88
392.984	444.88
393.208	455.88
393.433	450.88
393.658	458.88
393.882	476.88
394.107	453.88
394.331	461.88
394.556	458.88
394.78	461.88
395.005	455.88
395.229	444.88
395.454	464.88
395.678	459.88
395.903	483.88
396.127	505.88
396.352	482.88
396.576	483.88
396.801	469.88
397.025	473.88
397.249	480.88
397.474	483.88
397.698	497.88
397.922	500.88
398.147	528.88
398.371	502.88
398.595	499.88
398.82	497.88
399.044	503.88
399.268	517.88
399.492	542.88
399.717	568.88
399.941	588.88
400.165	637.88
400.389	638.88
400.613	602.88
400.837	546.88
401.062	541.88
401.286	530.88
401.51	515.88
401.734	529.88
401.958	531.88
402.182	531.88
402.406	531.88
402.63	528.88
402.854	515.88
403.078	534.88
403.302	527.88
403.526	526.88
403.75	525.88
403.974	546.88
404.198	520.88
404.422	539.88
404.645	548.88
404.869	556.88
405.093	597.88
405.317	642.88
405.541	654.88
405.765	616.88
405.988	589.88
406.212	591.88
406.436	585.88
406.66	632.88
406.883	613.88
407.107	624.88
407.331	668.88
407.555	747.88
407.778	699.88
408.002	619.88
408.226	631.88
408.449	614.88
408.673	597.88
408.896	634.88
409.12	678.88
409.344	633.88
409.567	581.88
409.791	549.88
410.014	559.88
410.238	534.88
410.461	568.88
410.685	578.88
410.908	566.88
411.132	620.88
411.355	635.88
411.578	611.88
411.802	584.88
412.025	538.88
412.249	552.88
412.472	600.88
412.695	635.88
412.919	637.88
413.142	557.88
413.365	562.88
413.589	522.88
413.812	528.88
414.035	518.88
414.258	516.88
414.482	494.88
414.705	517.88
414.928	514.88
415.151	534.88
415.374	518.88
415.597	501.88
415.821	490.88
416.044	516.88
416.267	530.88
416.49	515.88
416.713	518.88
416.936	527.88
417.159	501.88
417.382	524.88
417.605	537.88
417.828	558.88
418.051	574.88
418.274	522.88
418.497	525.88
418.72	523.88
418.943	510.88
419.166	536.88
419.389	571.88
419.611	566.88
419.834	544.88
420.057	553.88
420.28	562.88
420.503	565.88
420.726	570.88
420.948	568.88
421.171	628.88
421.394	649.88
421.617	603.88
421.839	558.88
422.062	558.88
422.285	588.88
422.507	634.88
422.73	712.88
422.953	677.88
423.175	624.88
423.398	597.88
423.621	575.88
423.843	633.88
424.066	610.88
424.288	592.88
424.511	628.88
424.733	678.88
424.956	759.88
425.178	729.88
425.401	725.88
425.623	761.88
425.846	622.88
426.068	623.88
426.291	608.88
426.513	602.88
426.735	602.88
426.958	676.88
427.18	732.88
427.402	887.88
427.625	942.88
427.847	886.88
428.069	812.88
428.292	695.88
428.514	655.88
428.736	610.88
428.958	588.88
429.181	578.88
429.403	553.88
429.625	573.88
429.847	624.88
430.069	691.88
430.292	681.88
430.514	599.88
430.736	570.88
430.958	568.88
431.18	551.88
431.402	564.88
431.624	540.88
431.846	518.88
432.068	520.88
432.29	533.88
432.512	548.88
432.734	554.88
432.956	544.88
433.178	571.88
433.4	560.88
433.622	536.88
433.844	562.88
434.066	536.88
434.287	532.88
434.509	522.88
434.731	531.88
434.953	570.88
435.175	578.88
435.397	598.88
435.618	610.88
435.84	677.88
436.062	758.88
436.284	840.88
436.505	690.88
436.727	638.88
436.949	599.88
437.17	559.88
437.392	576.88
437.614	605.88
437.835	660.88
438.057	730.88
438.278	871.88
438.5	822.88
438.721	920.88
438.943	870.88
439.165	704.88
439.386	672.88
439.608	649.88
439.829	630.88
440.05	675.88
440.272	731.88
440.493	680.88
440.715	607.88
440.936	593.88
441.158	576.88
441.379	569.88
441.6	610.88
441.822	629.88
442.043	634.88
442.264	730.88
442.486	795.88
442.707	681.88
442.928	631.88
443.149	642.88
443.371	684.88
443.592	739.88
443.813	837.88
444.034	832.88
444.255	730.88
444.476	624.88
444.698	630.88
444.919	615.88
445.14	735.88
445.361	684.88
445.582	658.88
445.803	708.88
446.024	828.88
446.245	852.88
446.466	796.88
446.687	683.88
446.908	644.88
447.129	587.88
447.35	581.88
447.571	580.88
447.792	591.88
448.013	568.88
448.234	614.88
448.455	660.88
448.675	782.88
448.896	918.88
449.117	757.88
449.338	736.88
449.559	834.88
449.779	928.88
450	770.88
450.221	638.88
450.442	606.88
450.662	587.88
450.883	568.88
451.104	608.88
451.324	581.88
451.545	579.88
451.766	542.88
451.986	539.88
452.207	526.88
452.428	518.88
452.648	528.88
452.869	526.88
453.089	532.88
453.31	548.88
453.53	528.88
453.751	518.88
453.971	527.88
454.192	589.88
454.412	541.88
454.633	511.88
454.853	507.88
455.073	501.88
455.294	527.88
455.514	646.88
455.734	612.88
455.955	518.88
456.175	507.88
456.395	476.88
456.616	498.88
456.836	472.88
457.056	482.88
457.276	452.88
457.497	496.88
457.717	481.88
457.937	489.88
458.157	496.88
458.377	519.88
458.598	528.88
458.818	624.88
459.038	714.88
459.258	733.88
459.478	622.88
459.698	559.88
459.918	542.88
460.138	512.88
460.358	543.88
460.578	534.88
460.798	550.88
461.018	534.88
461.238	520.88
461.458	548.88
461.678	526.88
461.898	522.88
462.118	501.88
462.338	525.88
462.558	526.88
462.777	546.88
462.997	553.88
463.217	557.88
463.437	552.88
463.657	541.88
463.876	552.88
464.096	546.88
464.316	561.88
464.536	566.88
464.755	555.88
464.975	586.88
465.195	652.88
465.414	756.88
465.634	649.88
465.854	579.88
466.073	560.88
466.293	559.88
466.512	534.88
466.732	530.88
466.951	514.88
467.171	541.88
467.391	524.88
467.61	554.88
467.829	570.88
468.049	534.88
468.268	538.88
468.488	515.88
468.707	516.88
468.927	514.88
469.146	526.88
469.365	504.88
469.585	509.88
469.804	528.88
470.023	547.88
470.243	514.88
470.462	536.88
470.681	566.88
470.901	571.88
471.12	532.88
471.339	527.88
471.558	539.88
471.777	528.88
471.997	536.88
472.216	540.88
472.435	611.88
472.654	579.88
472.873	538.88
473.092	521.88
473.311	527.88
473.53	514.88
473.749	557.88
473.968	610.88
474.187	746.88
474.406	722.88
474.625	623.88
474.844	559.88
475.063	531.88
475.282	540.88
475.501	556.88
475.72	544.88
475.939	544.88
476.158	532.88
476.377	543.88
476.596	554.88
476.814	575.88
477.033	570.88
477.252	570.88
477.471	585.88
477.69	596.88
477.908	587.88
478.127	580.88
478.346	596.88
478.564	577.88
478.783	586.88
479.002	596.88
479.22	628.88
479.439	624.88
479.658	628.88
479.876	685.88
480.095	693.88
480.313	692.88
480.532	674.88
480.751	663.88
480.969	706.88
481.188	760.88
481.406	823.88
481.624	716.88
481.843	670.88
482.061	671.88
482.28	655.88
482.498	636.88
482.717	642.88
482.935	660.88
483.153	635.88
483.372	643.88
483.59	647.88
483.808	654.88
484.027	634.88
484.245	656.88
484.463	661.88
484.681	653.88
484.9	660.88
485.118	668.88
485.336	642.88
485.554	623.88
485.772	640.88
485.99	644.88
486.209	662.88
486.427	677.88
486.645	713.88
486.863	686.88
487.081	694.88
487.299	721.88
487.517	708.88
487.735	714.88
487.953	704.88
488.171	717.88
488.389	686.88
488.607	706.88
488.825	703.88
489.043	704.88
489.261	732.88
489.479	696.88
489.696	735.88
489.914	732.88
490.132	698.88
490.35	718.88
490.568	741.88
490.786	739.88
491.003	771.88
491.221	805.88
491.439	802.88
491.657	805.88
491.874	808.88
492.092	807.88
492.31	804.88
492.527	799.88
492.745	805.88
492.963	840.88
493.18	822.88
493.398	817.88
493.615	830.88
493.833	818.88
494.05	838.88
494.268	819.88
494.485	822.88
494.703	860.88
494.92	849.88
495.138	840.88
495.355	874.88
495.573	841.88
495.79	839.88
496.008	863.88
496.225	837.88
496.442	820.88
496.66	840.88
496.877	854.88
497.094	843.88
497.312	838.88
497.529	877.88
497.746	867.88
497.963	877.88
498.181	890.88
498.398	879.88
498.615	892.88
498.832	892.88
499.049	894.88
499.267	896.88
499.484	931.88
499.701	939.88
499.918	950.88
500.135	998.88
500.352	1032.88
500.569	1010.88
500.786	1026.88
501.003	1033.88
501.22	1008.88
501.437	1010.88
501.654	1000.88
501.871	989.88
502.088	1005.88
502.305	933.88
502.522	916.88
502.739	895.88
502.956	865.88
503.172	858.88
503.389	868.88
503.606	847.88
503.823	876.88
504.04	844.88
504.256	823.88
504.473	831.88
504.69	805.88
504.907	830.88
505.123	810.88
505.34	834.88
505.557	808.88
505.773	799.88
505.99	802.88
506.207	812.88
506.423	820.88
506.64	812.88
506.856	802.88
507.073	795.88
507.289	781.88
507.506	791.88
507.722	807.88
507.939	849.88
508.155	812.88
508.372	778.88
508.588	767.88
508.805	794.88
509.021	775.88
509.238	780.88
509.454	802.88
509.67	779.88
509.887	784.88
510.103	773.88
510.319	790.88
510.536	903.88
510.752	1554.88
510.968	1276.88
511.184	830.88
511.401	772.88
511.617	774.88
511.833	756.88
512.049	715.88
512.265	724.88
512.481	723.88
512.698	754.88
512.914	757.88
513.13	741.88
513.346	726.88
513.562	724.88
513.778	735.88
513.994	730.88
514.21	771.88
514.426	795.88
514.642	885.88
514.858	887.88
515.074	959.88
515.29	1174.88
515.506	1775.88
515.721	1386.88
515.937	917.88
516.153	848.88
516.369	802.88
516.585	778.88
516.801	748.88
517.016	791.88
517.232	742.88
517.448	730.88
517.664	749.88
517.879	741.88
518.095	733.88
518.311	748.88
518.527	738.88
518.742	715.88
518.958	731.88
519.173	747.88
519.389	742.88
519.605	740.88
519.82	729.88
520.036	764.88
520.251	788.88
520.467	837.88
520.682	829.88
520.898	872.88
521.113	875.88
521.329	950.88
521.544	1062.88
521.76	1388.88
521.975	2302.88
522.19	2256.88
522.406	1219.88
522.621	889.88
522.836	825.88
523.052	756.88
523.267	717.88
523.482	702.88
523.698	696.88
523.913	716.88
524.128	698.88
524.343	685.88
524.559	654.88
524.774	652.88
524.989	622.88
525.204	650.88
525.419	650.88
525.634	635.88
525.849	635.88
526.064	622.88
526.28	586.88
526.495	605.88
526.71	612.88
526.925	602.88
527.14	599.88
527.355	614.88
527.57	593.88
527.785	595.88
527.999	596.88
528.214	570.88
528.429	581.88
528.644	597.88
528.859	595.88
529.074	611.88
529.289	643.88
529.503	740.88
529.718	714.88
529.933	655.88
530.148	618.88
530.363	603.88
530.577	591.88
530.792	560.88
531.007	589.88
531.221	562.88
531.436	569.88
531.651	570.88
531.865	557.88
532.08	540.88
532.295	592.88
532.509	572.88
532.724	547.88
532.938	564.88
533.153	551.88
533.367	537.88
533.582	539.88
533.796	565.88
534.011	532.88
534.225	537.88
534.44	522.88
534.654	531.88
534.868	535.88
535.083	535.88
535.297	548.88
535.511	539.88
535.726	566.88
535.94	562.88
536.154	546.88
536.369	542.88
536.583	544.88
536.797	522.88
537.011	514.88
537.225	527.88
537.44	522.88
537.654	519.88
537.868	550.88
538.082	538.88
538.296	538.88
538.51	515.88
538.724	543.88
538.938	532.88
539.153	544.88
539.367	544.88
539.581	566.88
539.795	530.88
540.009	531.88
540.222	520.88
540.436	529.88
540.65	538.88
540.864	530.88
541.078	550.88
541.292	542.88
541.506	527.88
541.72	540.88
541.934	535.88
542.147	555.88
542.361	504.88
542.575	514.88
542.789	552.88
543.002	527.88
543.216	536.88
543.43	552.88
543.644	525.88
543.857	538.88
544.071	528.88
544.285	526.88
544.498	518.88
544.712	503.88
544.925	511.88
545.139	525.88
545.352	521.88
545.566	507.88
545.779	502.88
545.993	501.88
546.206	514.88
546.42	487.88
546.633	516.88
546.847	503.88
547.06	493.88
547.274	503.88
547.487	500.88
547.7	503.88
547.914	492.88
548.127	508.88
548.34	472.88
548.554	475.88
548.767	524.88
548.98	475.88
549.193	477.88
549.407	498.88
549.62	494.88
549.833	484.88
550.046	481.88
550.259	464.88
550.473	471.88
550.686	475.88
550.899	470.88
551.112	484.88
551.325	499.88
551.538	470.88
551.751	474.88
551.964	458.88
552.177	503.88
552.39	460.88
552.603	481.88
552.816	481.88
553.029	493.88
553.242	500.88
553.455	489.88
553.667	522.88
553.88	538.88
554.093	511.88
554.306	507.88
554.519	526.88
554.732	495.88
554.944	483.88
555.157	479.88
555.37	475.88
555.583	467.88
555.795	468.88
556.008	454.88
556.221	479.88
556.433	452.88
556.646	450.88
556.859	446.88
557.071	448.88
557.284	473.88
557.496	455.88
557.709	452.88
557.921	443.88
558.134	429.88
558.346	443.88
558.559	454.88
558.771	451.88
558.984	446.88
559.196	429.88
559.409	446.88
559.621	427.88
559.833	443.88
560.046	429.88
560.258	449.88
560.47	438.88
560.683	448.88
560.895	426.88
561.107	415.88
561.32	430.88
561.532	434.88
561.744	436.88
561.956	434.88
562.168	436.88
562.381	425.88
562.593	431.88
562.805	428.88
563.017	438.88
563.229	448.88
563.441	460.88
563.653	428.88
563.865	438.88
564.077	458.88
564.289	450.88
564.501	459.88
564.713	462.88
564.925	459.88
565.137	466.88
565.349	439.88
565.561	474.88
565.773	469.88
565.985	452.88
566.197	482.88
566.408	487.88
566.62	480.88
566.832	493.88
567.044	531.88
567.255	498.88
567.467	480.88
567.679	506.88
567.891	499.88
568.102	516.88
568.314	508.88
568.526	475.88
568.737	458.88
568.949	471.88
569.161	440.88
569.372	447.88
569.584	426.88
569.795	435.88
570.007	442.88
570.218	490.88
570.43	482.88
570.641	421.88
570.853	415.88
571.064	440.88
571.276	418.88
571.487	392.88
571.698	400.88
571.91	399.88
572.121	404.88
572.333	404.88
572.544	398.88
572.755	389.88
572.966	382.88
573.178	389.88
573.389	390.88
573.6	374.88
573.811	385.88
574.023	384.88
574.234	388.88
574.445	378.88
574.656	397.88
574.867	375.88
575.078	374.88
575.289	373.88
575.501	371.88
575.712	372.88
575.923	355.88
576.134	352.88
576.345	357.88
576.556	354.88
576.767	362.88
576.978	349.88
577.188	348.88
577.399	374.88
577.61	364.88
577.821	369.88
578.032	378.88
578.243	424.88
578.454	728.88
578.665	496.88
578.875	382.88
579.086	358.88
579.297	365.88
579.508	358.88
579.718	346.88
579.929	348.88
580.14	355.88
580.35	351.88
580.561	368.88
580.772	358.88
580.982	338.88
581.193	342.88
581.403	339.88
581.614	346.88
581.825	325.88
582.035	340.88
582.246	337.88
582.456	345.88
582.667	338.88
582.877	335.88
583.087	342.88
583.298	308.88
583.508	335.88
583.719	336.88
583.929	354.88
584.139	328.88
584.35	327.88
584.56	336.88
584.77	347.88
584.981	357.88
585.191	347.88
585.401	322.88
585.611	318.88
585.821	334.88
586.032	335.88
586.242	331.88
586.452	317.88
586.662	330.88
586.872	311.88
587.082	338.88
587.292	328.88
587.502	335.88
587.713	332.88
587.923	329.88
588.133	325.88
588.343	307.88
588.553	311.88
588.762	336.88
588.972	325.88
589.182	318.88
589.392	332.88
589.602	331.88
589.812	318.88
590.022	314.88
590.232	319.88
590.441	319.88
590.651	334.88
590.861	317.88
591.071	318.88
591.281	317.88
591.49	308.88
591.7	310.88
591.91	335.88
592.119	324.88
592.329	328.88
592.539	330.88
592.748	342.88
592.958	331.88
593.167	310.88
593.377	339.88
593.587	341.88
593.796	346.88
594.006	339.88
594.215	325.88
594.424	319.88
594.634	317.88
594.843	312.88
595.053	306.88
595.262	319.88
595.472	331.88
595.681	324.88
595.89	315.88
596.1	298.88
596.309	308.88
596.518	306.88
596.727	306.88
596.937	290.88
597.146	291.88
597.355	294.88
597.564	303.88
597.774	301.88
597.983	294.88
598.192	306.88
598.401	291.88
598.61	285.88
598.819	295.88
599.028	283.88
599.237	281.88
599.446	302.88
599.655	283.88
599.864	294.88
600.073	279.88
600.282	303.88
600.491	298.88
600.7	291.88
600.909	273.88
601.118	275.88
601.327	280.88
601.536	280.88
601.745	267.88
601.953	298.88
602.162	281.88
602.371	258.88
602.58	274.88
602.789	290.88
602.997	262.88
603.206	292.88
603.415	284.88
603.623	266.88
603.832	297.88
604.041	262.88
604.249	283.88
604.458	259.88
604.666	255.88
604.875	251.88
605.084	262.88
605.292	263.88
605.501	268.88
605.709	279.88
605.918	268.88
606.126	282.88
606.334	276.88
606.543	276.88
606.751	267.88
606.96	303.88
607.168	279.88
607.376	286.88
607.585	282.88
607.793	274.88
608.001	271.88
608.21	239.88
608.418	269.88
608.626	271.88
608.834	265.88
609.043	268.88
609.251	271.88
609.459	281.88
609.667	278.88
609.875	256.88
610.083	272.88
610.291	259.88
610.499	285.88
610.707	278.88
610.916	252.88
611.124	268.88
611.332	290.88
611.54	272.88
611.748	263.88
611.955	244.88
612.163	282.88
612.371	248.88
612.579	264.88
612.787	285.88
612.995	278.88
613.203	268.88
613.411	276.88
613.618	269.88
613.826	266.88
614.034	259.88
614.242	259.88
614.449	250.88
614.657	258.88
614.865	254.88
615.072	268.88
615.28	267.88
615.488	278.88
615.695	246.88
615.903	248.88
616.111	268.88
616.318	271.88
616.526	253.88
616.733	273.88
616.941	247.88
617.148	237.88
617.356	246.88
617.563	252.88
617.771	267.88
617.978	267.88
618.185	264.88
618.393	266.88
618.6	266.88
618.807	260.88
619.015	259.88
619.222	269.88
619.429	270.88
619.637	262.88
619.844	242.88
620.051	249.88
620.258	235.88
620.466	219.88
620.673	233.88
620.88	237.88
621.087	230.88
621.294	239.88
621.501	254.88
621.708	247.88
621.915	226.88
622.122	238.88
622.329	248.88
622.536	248.88
622.743	245.88
622.95	237.88
623.157	249.88
623.364	239.88
623.571	249.88
623.778	238.88
623.985	234.88
624.192	221.88
624.399	239.88
624.606	222.88
624.812	247.88
625.019	247.88
625.226	235.88
625.433	242.88
625.639	220.88
625.846	218.88
626.053	227.88
626.259	220.88
626.466	219.88
626.673	219.88
626.879	231.88
627.086	226.88
627.293	244.88
627.499	212.88
627.706	221.88
627.912	232.88
628.119	227.88
628.325	214.88
628.532	223.88
628.738	218.88
628.945	227.88
629.151	205.88
629.357	218.88
629.564	207.88
629.77	215.88
629.976	206.88
630.183	205.88
630.389	197.88
630.595	214.88
630.802	223.88
631.008	218.88
631.214	205.88
631.42	215.88
631.627	221.88
631.833	202.88
632.039	207.88
632.245	210.88
632.451	212.88
632.657	200.88
632.863	199.88
633.069	197.88
633.275	207.88
633.481	192.88
633.688	198.88
633.893	207.88
634.099	202.88
634.305	228.88
634.511	205.88
634.717	203.88
634.923	185.88
635.129	195.88
635.335	204.88
635.541	194.88
635.747	199.88
635.952	194.88
636.158	215.88
636.364	204.88
636.57	221.88
636.775	218.88
636.981	193.88
637.187	191.88
637.392	186.88
637.598	201.88
637.804	178.88
638.009	197.88
638.215	192.88
638.421	186.88
638.626	192.88
638.832	193.88
639.037	196.88
639.243	191.88
639.448	196.88
639.654	192.88
639.859	176.88
640.065	206.88
640.27	208.88
640.475	203.88
640.681	202.88
640.886	185.88
641.091	182.88
641.297	184.88
641.502	182.88
641.707	178.88
641.913	191.88
642.118	178.88
642.323	184.88
642.528	206.88
642.733	190.88
642.939	188.88
643.144	174.88
643.349	191.88
643.554	192.88
643.759	184.88
643.964	190.88
644.169	182.88
644.374	174.88
644.579	187.88
644.784	175.88
644.989	191.88
645.194	169.88
645.399	182.88
645.604	184.88
645.809	176.88
646.014	188.88
646.219	198.88
646.423	173.88
646.628	180.88
646.833	186.88
647.038	188.88
647.243	171.88
647.447	178.88
647.652	182.88
647.857	185.88
648.062	173.88
648.266	172.88
648.471	183.88
648.676	172.88
648.88	181.88
649.085	166.88
649.289	160.88
649.494	166.88
649.698	187.88
649.903	210.88
650.107	166.88
650.312	181.88
650.516	186.88
650.721	172.88
650.925	162.88
651.13	160.88
651.334	148.88
651.539	166.88
651.743	148.88
651.947	154.88
652.152	166.88
652.356	156.88
652.56	158.88
652.764	168.88
652.969	138.88
653.173	158.88
653.377	144.88
653.581	139.88
653.785	154.88
653.99	144.88
654.194	144.88
654.398	142.88
654.602	135.88
654.806	141.88
655.01	138.88
655.214	145.88
655.418	142.88
655.622	141.88
655.826	149.88
656.03	142.88
656.234	137.88
656.438	137.88
656.642	129.88
656.846	121.88
657.049	118.88
657.253	134.88
657.457	128.88
657.661	126.88
657.865	118.88
658.068	127.88
658.272	120.88
658.476	112.88
658.68	106.88
658.883	116.88
659.087	102.88
659.291	90.88
659.494	106.88
659.698	93.88
659.901	93.88
660.105	106.88
660.309	90.88
660.512	88.88
660.716	94.88
660.919	96.88
661.123	100.88
661.326	81.88
661.53	83.88
661.733	93.88
661.936	99.88
662.14	98.88
662.343	82.88
662.546	103.88
662.75	97.88
662.953	100.88
663.156	84.88
663.36	86.88
663.563	75.88
663.766	79.88
663.969	81.88
664.173	80.88
664.376	86.88
664.579	73.88
664.782	81.88
664.985	77.88
665.188	84.88
665.391	87.88
665.594	68.88
665.797	84.88
666	90.88
666.203	92.88
666.406	87.88
666.609	70.88
666.812	90.88
667.015	78.88
667.218	75.88
667.421	76.88
667.624	76.88
667.827	82.88
668.03	81.88
668.232	85.88
668.435	91.88
668.638	92.88
668.841	96.88
669.043	70.88
669.246	88.88
669.449	82.88
669.651	76.88
669.854	85.88
670.057	69.88
670.259	92.88
670.462	90.88
670.665	83.88
670.867	76.88
671.07	90.88
671.272	91.88
671.475	82.88
671.677	84.88
671.88	99.88
672.082	93.88
672.284	93.88
672.487	93.88
672.689	91.88
672.892	79.88
