Data from 1970.PennyLincolnUp.Lamp.En5.5.200Scan.071719.P1._HRD10591_15-16-11-842.txt Node
Date: Thu Jul 18 15:16:11 EDT 2019
User: cochatt
Spectrometer: HR+D1059
Trigger mode: 1
Integration Time (sec): 1.000000E-1
Scans to average: 1
Electric dark correction enabled: true
Nonlinearity correction enabled: false
Boxcar width: 0
XAxis mode: Wavelengths
Number of Pixels in Spectrum: 2048
>>>>>Begin Spectral Data<<<<<
223.165	-18.75
223.4	-18.75
223.635	-18.75
223.869	-12.75
224.104	-32.75
224.338	-19.75
224.573	5.25
224.808	-5.75
225.042	-15.75
225.277	-12.75
225.511	-1.75
225.746	25.25
225.98	8.25
226.215	5.25
226.449	7.25
226.683	18.25
226.918	17.25
227.152	33.25
227.387	33.25
227.621	50.25
227.856	38.25
228.09	56.25
228.324	50.25
228.559	59.25
228.793	73.25
229.027	114.25
229.262	122.25
229.496	127.25
229.73	130.25
229.964	176.25
230.199	149.25
230.433	121.25
230.667	112.25
230.901	131.25
231.136	128.25
231.37	129.25
231.604	113.25
231.838	129.25
232.072	107.25
232.306	123.25
232.541	138.25
232.775	110.25
233.009	120.25
233.243	118.25
233.477	120.25
233.711	127.25
233.945	120.25
234.179	134.25
234.413	129.25
234.647	137.25
234.881	122.25
235.115	130.25
235.349	122.25
235.583	132.25
235.817	149.25
236.051	160.25
236.285	130.25
236.519	142.25
236.753	139.25
236.987	163.25
237.221	207.25
237.455	265.25
237.689	207.25
237.922	173.25
238.156	142.25
238.39	140.25
238.624	136.25
238.858	139.25
239.091	145.25
239.325	128.25
239.559	148.25
239.793	142.25
240.027	167.25
240.26	153.25
240.494	179.25
240.728	181.25
240.961	182.25
241.195	167.25
241.429	157.25
241.662	141.25
241.896	142.25
242.13	160.25
242.363	147.25
242.597	144.25
242.83	158.25
243.064	158.25
243.298	153.25
243.531	166.25
243.765	147.25
243.998	158.25
244.232	152.25
244.465	173.25
244.699	165.25
244.932	176.25
245.166	168.25
245.399	161.25
245.633	169.25
245.866	171.25
246.099	170.25
246.333	146.25
246.566	162.25
246.8	179.25
247.033	173.25
247.266	175.25
247.5	174.25
247.733	196.25
247.966	203.25
248.2	188.25
248.433	194.25
248.666	186.25
248.899	209.25
249.133	251.25
249.366	219.25
249.599	218.25
249.832	207.25
250.066	209.25
250.299	207.25
250.532	225.25
250.765	237.25
250.998	252.25
251.231	269.25
251.465	236.25
251.698	247.25
251.931	240.25
252.164	223.25
252.397	240.25
252.63	240.25
252.863	226.25
253.096	251.25
253.329	268.25
253.562	253.25
253.795	229.25
254.028	254.25
254.261	237.25
254.494	255.25
254.727	304.25
254.96	328.25
255.193	319.25
255.426	304.25
255.659	282.25
255.892	251.25
256.124	269.25
256.357	257.25
256.59	241.25
256.823	235.25
257.056	245.25
257.289	265.25
257.521	254.25
257.754	221.25
257.987	225.25
258.22	231.25
258.452	242.25
258.685	246.25
258.918	231.25
259.151	234.25
259.383	258.25
259.616	251.25
259.849	260.25
260.081	265.25
260.314	275.25
260.547	291.25
260.779	281.25
261.012	275.25
261.244	265.25
261.477	263.25
261.71	235.25
261.942	269.25
262.175	265.25
262.407	266.25
262.64	261.25
262.872	240.25
263.105	225.25
263.337	225.25
263.57	253.25
263.802	232.25
264.035	236.25
264.267	225.25
264.499	219.25
264.732	234.25
264.964	224.25
265.197	234.25
265.429	239.25
265.661	214.25
265.894	235.25
266.126	231.25
266.358	243.25
266.591	241.25
266.823	252.25
267.055	226.25
267.287	224.25
267.52	235.25
267.752	245.25
267.984	240.25
268.216	242.25
268.448	235.25
268.681	258.25
268.913	271.25
269.145	287.25
269.377	299.25
269.609	306.25
269.841	296.25
270.073	306.25
270.306	298.25
270.538	342.25
270.77	336.25
271.002	343.25
271.234	335.25
271.466	329.25
271.698	359.25
271.93	375.25
272.162	355.25
272.394	355.25
272.626	333.25
272.858	310.25
273.09	319.25
273.322	294.25
273.553	277.25
273.785	288.25
274.017	293.25
274.249	283.25
274.481	277.25
274.713	284.25
274.945	286.25
275.176	281.25
275.408	275.25
275.64	295.25
275.872	273.25
276.104	302.25
276.335	279.25
276.567	277.25
276.799	325.25
277.031	327.25
277.262	349.25
277.494	346.25
277.726	342.25
277.957	316.25
278.189	299.25
278.421	287.25
278.652	295.25
278.884	294.25
279.115	268.25
279.347	261.25
279.579	271.25
279.81	277.25
280.042	281.25
280.273	291.25
280.505	301.25
280.736	282.25
280.968	272.25
281.199	267.25
281.431	274.25
281.662	254.25
281.894	281.25
282.125	306.25
282.356	310.25
282.588	329.25
282.819	332.25
283.051	295.25
283.282	293.25
283.513	291.25
283.745	290.25
283.976	274.25
284.207	291.25
284.439	285.25
284.67	290.25
284.901	276.25
285.132	272.25
285.364	267.25
285.595	299.25
285.826	298.25
286.057	300.25
286.288	286.25
286.52	280.25
286.751	294.25
286.982	289.25
287.213	283.25
287.444	298.25
287.675	289.25
287.906	319.25
288.138	306.25
288.369	300.25
288.6	306.25
288.831	305.25
289.062	293.25
289.293	311.25
289.524	297.25
289.755	292.25
289.986	281.25
290.217	296.25
290.448	286.25
290.679	288.25
290.91	295.25
291.141	279.25
291.371	289.25
291.602	289.25
291.833	291.25
292.064	298.25
292.295	281.25
292.526	291.25
292.757	292.25
292.987	314.25
293.218	280.25
293.449	302.25
293.68	300.25
293.91	285.25
294.141	299.25
294.372	290.25
294.603	292.25
294.833	286.25
295.064	316.25
295.295	311.25
295.525	306.25
295.756	313.25
295.987	307.25
296.217	354.25
296.448	344.25
296.679	327.25
296.909	324.25
297.14	306.25
297.37	307.25
297.601	305.25
297.831	311.25
298.062	315.25
298.292	295.25
298.523	317.25
298.753	299.25
298.984	303.25
299.214	296.25
299.445	317.25
299.675	330.25
299.905	324.25
300.136	337.25
300.366	332.25
300.597	313.25
300.827	323.25
301.057	330.25
301.288	361.25
301.518	345.25
301.748	337.25
301.979	325.25
302.209	342.25
302.439	347.25
302.669	327.25
302.9	337.25
303.13	338.25
303.36	325.25
303.59	345.25
303.82	358.25
304.051	361.25
304.281	339.25
304.511	330.25
304.741	329.25
304.971	337.25
305.201	338.25
305.431	326.25
305.661	325.25
305.891	328.25
306.121	344.25
306.352	337.25
306.582	328.25
306.812	347.25
307.042	344.25
307.272	313.25
307.502	336.25
307.731	341.25
307.961	341.25
308.191	334.25
308.421	333.25
308.651	327.25
308.881	350.25
309.111	360.25
309.341	343.25
309.571	375.25
309.8	409.25
310.03	381.25
310.26	407.25
310.49	403.25
310.72	416.25
310.949	437.25
311.179	421.25
311.409	426.25
311.639	393.25
311.868	387.25
312.098	405.25
312.328	406.25
312.557	434.25
312.787	459.25
313.017	415.25
313.246	420.25
313.476	393.25
313.706	404.25
313.935	386.25
314.165	418.25
314.394	427.25
314.624	443.25
314.853	401.25
315.083	409.25
315.312	395.25
315.542	410.25
315.771	392.25
316.001	377.25
316.23	389.25
316.46	391.25
316.689	388.25
316.919	415.25
317.148	417.25
317.377	403.25
317.607	429.25
317.836	409.25
318.065	398.25
318.295	392.25
318.524	393.25
318.753	396.25
318.983	401.25
319.212	404.25
319.441	399.25
319.67	422.25
319.9	415.25
320.129	417.25
320.358	406.25
320.587	390.25
320.816	414.25
321.046	399.25
321.275	440.25
321.504	429.25
321.733	437.25
321.962	447.25
322.191	449.25
322.42	474.25
322.649	467.25
322.878	527.25
323.108	513.25
323.337	541.25
323.566	575.25
323.795	626.25
324.024	667.25
324.253	838.25
324.482	1201.25
324.71	1813.25
324.939	2625.25
325.168	2247.25
325.397	1200.25
325.626	805.25
325.855	642.25
326.084	594.25
326.313	596.25
326.542	606.25
326.77	648.25
326.999	770.25
327.228	1082.25
327.457	1625.25
327.686	1968.25
327.914	1333.25
328.143	896.25
328.372	787.25
328.6	709.25
328.829	677.25
329.058	676.25
329.287	677.25
329.515	645.25
329.744	585.25
329.972	577.25
330.201	615.25
330.43	667.25
330.658	705.25
330.887	748.25
331.115	707.25
331.344	605.25
331.572	540.25
331.801	537.25
332.03	545.25
332.258	531.25
332.486	498.25
332.715	481.25
332.943	479.25
333.172	496.25
333.4	501.25
333.629	506.25
333.857	535.25
334.085	511.25
334.314	553.25
334.542	599.25
334.771	615.25
334.999	555.25
335.227	504.25
335.455	493.25
335.684	462.25
335.912	481.25
336.14	474.25
336.369	465.25
336.597	482.25
336.825	483.25
337.053	479.25
337.281	465.25
337.51	477.25
337.738	456.25
337.966	475.25
338.194	469.25
338.422	471.25
338.65	466.25
338.878	462.25
339.106	451.25
339.334	455.25
339.562	451.25
339.79	457.25
340.018	445.25
340.246	463.25
340.474	460.25
340.702	472.25
340.93	457.25
341.158	449.25
341.386	451.25
341.614	466.25
341.842	464.25
342.07	445.25
342.298	454.25
342.526	450.25
342.754	448.25
342.981	439.25
343.209	433.25
343.437	438.25
343.665	449.25
343.893	436.25
344.12	444.25
344.348	439.25
344.576	452.25
344.804	474.25
345.031	488.25
345.259	490.25
345.487	476.25
345.714	445.25
345.942	453.25
346.17	467.25
346.397	445.25
346.625	429.25
346.853	456.25
347.08	451.25
347.308	441.25
347.535	476.25
347.763	479.25
347.99	480.25
348.218	491.25
348.445	479.25
348.673	475.25
348.9	453.25
349.128	451.25
349.355	434.25
349.583	429.25
349.81	421.25
350.037	433.25
350.265	439.25
350.492	421.25
350.72	433.25
350.947	458.25
351.174	476.25
351.402	479.25
351.629	464.25
351.856	480.25
352.083	483.25
352.311	486.25
352.538	473.25
352.765	493.25
352.992	474.25
353.22	455.25
353.447	461.25
353.674	449.25
353.901	425.25
354.128	424.25
354.355	423.25
354.583	403.25
354.81	422.25
355.037	418.25
355.264	427.25
355.491	407.25
355.718	416.25
355.945	419.25
356.172	398.25
356.399	405.25
356.626	413.25
356.853	414.25
357.08	415.25
357.307	416.25
357.534	412.25
357.761	418.25
357.988	406.25
358.215	426.25
358.441	403.25
358.668	413.25
358.895	417.25
359.122	441.25
359.349	439.25
359.576	468.25
359.802	516.25
360.029	520.25
360.256	550.25
360.483	521.25
360.709	482.25
360.936	447.25
361.163	448.25
361.39	444.25
361.616	462.25
361.843	458.25
362.07	458.25
362.296	468.25
362.523	446.25
362.749	458.25
362.976	467.25
363.203	440.25
363.429	440.25
363.656	451.25
363.882	444.25
364.109	427.25
364.335	426.25
364.562	447.25
364.788	418.25
365.015	430.25
365.241	414.25
365.468	449.25
365.694	453.25
365.92	441.25
366.147	448.25
366.373	423.25
366.599	449.25
366.826	431.25
367.052	416.25
367.278	429.25
367.505	429.25
367.731	424.25
367.957	451.25
368.184	429.25
368.41	456.25
368.636	423.25
368.862	475.25
369.089	441.25
369.315	451.25
369.541	426.25
369.767	455.25
369.993	431.25
370.219	451.25
370.445	448.25
370.672	428.25
370.898	425.25
371.124	423.25
371.35	424.25
371.576	412.25
371.802	426.25
372.028	438.25
372.254	419.25
372.48	415.25
372.706	406.25
372.932	430.25
373.158	453.25
373.384	439.25
373.61	422.25
373.835	433.25
374.061	417.25
374.287	432.25
374.513	447.25
374.739	420.25
374.965	415.25
375.191	430.25
375.416	441.25
375.642	419.25
375.868	411.25
376.094	439.25
376.319	409.25
376.545	437.25
376.771	415.25
376.997	417.25
377.222	433.25
377.448	433.25
377.674	430.25
377.899	398.25
378.125	438.25
378.35	430.25
378.576	430.25
378.802	410.25
379.027	434.25
379.253	421.25
379.478	427.25
379.704	418.25
379.929	435.25
380.155	425.25
380.38	431.25
380.606	445.25
380.831	431.25
381.057	423.25
381.282	415.25
381.507	410.25
381.733	427.25
381.958	422.25
382.184	431.25
382.409	434.25
382.634	430.25
382.86	424.25
383.085	408.25
383.31	430.25
383.535	445.25
383.761	443.25
383.986	439.25
384.211	439.25
384.436	453.25
384.662	458.25
384.887	458.25
385.112	451.25
385.337	461.25
385.562	456.25
385.787	445.25
386.013	477.25
386.238	474.25
386.463	470.25
386.688	455.25
386.913	454.25
387.138	441.25
387.363	472.25
387.588	457.25
387.813	470.25
388.038	449.25
388.263	454.25
388.488	471.25
388.713	473.25
388.938	457.25
389.163	476.25
389.387	479.25
389.612	462.25
389.837	465.25
390.062	475.25
390.287	449.25
390.512	445.25
390.736	450.25
390.961	472.25
391.186	445.25
391.411	453.25
391.636	477.25
391.86	483.25
392.085	461.25
392.31	474.25
392.534	469.25
392.759	459.25
392.984	473.25
393.208	473.25
393.433	459.25
393.658	471.25
393.882	456.25
394.107	465.25
394.331	468.25
394.556	465.25
394.78	465.25
395.005	474.25
395.229	472.25
395.454	476.25
395.678	487.25
395.903	486.25
396.127	506.25
396.352	531.25
396.576	486.25
396.801	494.25
397.025	470.25
397.249	474.25
397.474	501.25
397.698	481.25
397.922	541.25
398.147	520.25
398.371	511.25
398.595	531.25
398.82	532.25
399.044	521.25
399.268	550.25
399.492	573.25
399.717	547.25
399.941	611.25
400.165	625.25
400.389	687.25
400.613	608.25
400.837	571.25
401.062	554.25
401.286	551.25
401.51	541.25
401.734	523.25
401.958	530.25
402.182	538.25
402.406	562.25
402.63	559.25
402.854	549.25
403.078	559.25
403.302	551.25
403.526	567.25
403.75	562.25
403.974	563.25
404.198	543.25
404.422	589.25
404.645	571.25
404.869	581.25
405.093	604.25
405.317	638.25
405.541	674.25
405.765	627.25
405.988	590.25
406.212	604.25
406.436	623.25
406.66	649.25
406.883	603.25
407.107	633.25
407.331	660.25
407.555	727.25
407.778	719.25
408.002	669.25
408.226	631.25
408.449	645.25
408.673	601.25
408.896	659.25
409.12	721.25
409.344	665.25
409.567	599.25
409.791	579.25
410.014	566.25
410.238	555.25
410.461	571.25
410.685	579.25
410.908	592.25
411.132	620.25
411.355	679.25
411.578	616.25
411.802	585.25
412.025	582.25
412.249	593.25
412.472	624.25
412.695	663.25
412.919	647.25
413.142	581.25
413.365	550.25
413.589	561.25
413.812	527.25
414.035	529.25
414.258	529.25
414.482	521.25
414.705	526.25
414.928	539.25
415.151	530.25
415.374	521.25
415.597	543.25
415.821	525.25
416.044	528.25
416.267	526.25
416.49	523.25
416.713	539.25
416.936	527.25
417.159	576.25
417.382	539.25
417.605	535.25
417.828	549.25
418.051	558.25
418.274	550.25
418.497	532.25
418.72	541.25
418.943	560.25
419.166	560.25
419.389	568.25
419.611	574.25
419.834	584.25
420.057	579.25
420.28	561.25
420.503	569.25
420.726	577.25
420.948	581.25
421.171	616.25
421.394	666.25
421.617	599.25
421.839	575.25
422.062	581.25
422.285	559.25
422.507	640.25
422.73	733.25
422.953	682.25
423.175	629.25
423.398	603.25
423.621	598.25
423.843	633.25
424.066	645.25
424.288	632.25
424.511	661.25
424.733	731.25
424.956	779.25
425.178	775.25
425.401	740.25
425.623	779.25
425.846	691.25
426.068	640.25
426.291	648.25
426.513	646.25
426.735	657.25
426.958	703.25
427.18	775.25
427.402	903.25
427.625	1007.25
427.847	932.25
428.069	813.25
428.292	733.25
428.514	635.25
428.736	622.25
428.958	595.25
429.181	594.25
429.403	591.25
429.625	603.25
429.847	647.25
430.069	702.25
430.292	698.25
430.514	637.25
430.736	589.25
430.958	567.25
431.18	557.25
431.402	568.25
431.624	529.25
431.846	521.25
432.068	555.25
432.29	529.25
432.512	546.25
432.734	552.25
432.956	559.25
433.178	574.25
433.4	570.25
433.622	547.25
433.844	533.25
434.066	532.25
434.287	556.25
434.509	522.25
434.731	551.25
434.953	581.25
435.175	581.25
435.397	598.25
435.618	608.25
435.84	681.25
436.062	774.25
436.284	848.25
436.505	726.25
436.727	649.25
436.949	588.25
437.17	580.25
437.392	623.25
437.614	595.25
437.835	636.25
438.057	763.25
438.278	861.25
438.5	863.25
438.721	911.25
438.943	888.25
439.165	717.25
439.386	661.25
439.608	659.25
439.829	680.25
440.05	697.25
440.272	753.25
440.493	693.25
440.715	637.25
440.936	611.25
441.158	608.25
441.379	611.25
441.6	595.25
441.822	662.25
442.043	697.25
442.264	783.25
442.486	821.25
442.707	698.25
442.928	668.25
443.149	669.25
443.371	698.25
443.592	745.25
443.813	819.25
444.034	889.25
444.255	746.25
444.476	657.25
444.698	629.25
444.919	651.25
445.14	759.25
445.361	707.25
445.582	677.25
445.803	771.25
446.024	863.25
446.245	865.25
446.466	770.25
446.687	703.25
446.908	651.25
447.129	629.25
447.35	595.25
447.571	590.25
447.792	597.25
448.013	587.25
448.234	611.25
448.455	693.25
448.675	793.25
448.896	885.25
449.117	787.25
449.338	771.25
449.559	866.25
449.779	942.25
450	782.25
450.221	672.25
450.442	602.25
450.662	603.25
450.883	594.25
451.104	612.25
451.324	621.25
451.545	587.25
451.766	565.25
451.986	557.25
452.207	517.25
452.428	522.25
452.648	546.25
452.869	522.25
453.089	550.25
453.31	544.25
453.53	539.25
453.751	526.25
453.971	537.25
454.192	546.25
454.412	569.25
454.633	542.25
454.853	533.25
455.073	532.25
455.294	574.25
455.514	647.25
455.734	618.25
455.955	539.25
456.175	509.25
456.395	495.25
456.616	483.25
456.836	490.25
457.056	479.25
457.276	468.25
457.497	502.25
457.717	470.25
457.937	503.25
458.157	501.25
458.377	521.25
458.598	533.25
458.818	637.25
459.038	707.25
459.258	749.25
459.478	604.25
459.698	570.25
459.918	526.25
460.138	558.25
460.358	516.25
460.578	524.25
460.798	560.25
461.018	571.25
461.238	545.25
461.458	541.25
461.678	539.25
461.898	538.25
462.118	536.25
462.338	533.25
462.558	543.25
462.777	557.25
462.997	546.25
463.217	563.25
463.437	582.25
463.657	568.25
463.876	563.25
464.096	574.25
464.316	585.25
464.536	591.25
464.755	586.25
464.975	615.25
465.195	675.25
465.414	765.25
465.634	675.25
465.854	620.25
466.073	583.25
466.293	545.25
466.512	525.25
466.732	537.25
466.951	547.25
467.171	547.25
467.391	549.25
467.61	571.25
467.829	567.25
468.049	566.25
468.268	556.25
468.488	547.25
468.707	514.25
468.927	526.25
469.146	518.25
469.365	515.25
469.585	517.25
469.804	563.25
470.023	551.25
470.243	565.25
470.462	569.25
470.681	595.25
470.901	546.25
471.12	562.25
471.339	561.25
471.558	560.25
471.777	559.25
471.997	542.25
472.216	552.25
472.435	593.25
472.654	617.25
472.873	557.25
473.092	549.25
473.311	551.25
473.53	558.25
473.749	563.25
473.968	608.25
474.187	730.25
474.406	746.25
474.625	632.25
474.844	574.25
475.063	571.25
475.282	565.25
475.501	540.25
475.72	561.25
475.939	576.25
476.158	568.25
476.377	555.25
476.596	575.25
476.814	571.25
477.033	587.25
477.252	573.25
477.471	575.25
477.69	575.25
477.908	603.25
478.127	579.25
478.346	591.25
478.564	577.25
478.783	615.25
479.002	635.25
479.22	598.25
479.439	654.25
479.658	649.25
479.876	665.25
480.095	678.25
480.313	728.25
480.532	711.25
480.751	659.25
480.969	661.25
481.188	796.25
481.406	848.25
481.624	743.25
481.843	706.25
482.061	672.25
482.28	665.25
482.498	651.25
482.717	639.25
482.935	658.25
483.153	655.25
483.372	657.25
483.59	659.25
483.808	641.25
484.027	652.25
484.245	626.25
484.463	656.25
484.681	675.25
484.9	681.25
485.118	659.25
485.336	665.25
485.554	677.25
485.772	674.25
485.99	674.25
486.209	673.25
486.427	682.25
486.645	657.25
486.863	710.25
487.081	741.25
487.299	697.25
487.517	714.25
487.735	695.25
487.953	730.25
488.171	730.25
488.389	679.25
488.607	725.25
488.825	689.25
489.043	733.25
489.261	734.25
489.479	733.25
489.696	718.25
489.914	738.25
490.132	721.25
490.35	749.25
490.568	736.25
490.786	769.25
491.003	779.25
491.221	797.25
491.439	811.25
491.657	819.25
491.874	811.25
492.092	844.25
492.31	856.25
492.527	857.25
492.745	851.25
492.963	847.25
493.18	830.25
493.398	863.25
493.615	863.25
493.833	857.25
494.05	846.25
494.268	843.25
494.485	879.25
494.703	858.25
494.92	851.25
495.138	858.25
495.355	866.25
495.573	845.25
495.79	872.25
496.008	885.25
496.225	857.25
496.442	838.25
496.66	863.25
496.877	862.25
497.094	850.25
497.312	865.25
497.529	863.25
497.746	878.25
497.963	869.25
498.181	897.25
498.398	887.25
498.615	892.25
498.832	901.25
499.049	931.25
499.267	905.25
499.484	944.25
499.701	959.25
499.918	999.25
500.135	1047.25
500.352	1041.25
500.569	1067.25
500.786	1081.25
501.003	1062.25
501.22	1035.25
501.437	998.25
501.654	1029.25
501.871	1011.25
502.088	973.25
502.305	965.25
502.522	949.25
502.739	916.25
502.956	911.25
503.172	894.25
503.389	857.25
503.606	869.25
503.823	895.25
504.04	875.25
504.256	841.25
504.473	850.25
504.69	801.25
504.907	852.25
505.123	818.25
505.34	830.25
505.557	824.25
505.773	829.25
505.99	835.25
506.207	848.25
506.423	840.25
506.64	816.25
506.856	823.25
507.073	813.25
507.289	813.25
507.506	799.25
507.722	817.25
507.939	855.25
508.155	852.25
508.372	801.25
508.588	794.25
508.805	802.25
509.021	802.25
509.238	797.25
509.454	813.25
509.67	831.25
509.887	805.25
510.103	795.25
510.319	829.25
510.536	937.25
510.752	1578.25
510.968	1318.25
511.184	848.25
511.401	817.25
511.617	754.25
511.833	747.25
512.049	753.25
512.265	757.25
512.481	744.25
512.698	746.25
512.914	734.25
513.13	725.25
513.346	763.25
513.562	765.25
513.778	763.25
513.994	742.25
514.21	803.25
514.426	818.25
514.642	864.25
514.858	939.25
515.074	964.25
515.29	1189.25
515.506	1829.25
515.721	1487.25
515.937	944.25
516.153	868.25
516.369	812.25
516.585	810.25
516.801	778.25
517.016	765.25
517.232	773.25
517.448	779.25
517.664	758.25
517.879	739.25
518.095	742.25
518.311	741.25
518.527	741.25
518.742	753.25
518.958	762.25
519.173	761.25
519.389	751.25
519.605	762.25
519.82	750.25
520.036	766.25
520.251	837.25
520.467	863.25
520.682	842.25
520.898	856.25
521.113	898.25
521.329	987.25
521.544	1098.25
521.76	1446.25
521.975	2370.25
522.19	2357.25
522.406	1284.25
522.621	933.25
522.836	838.25
523.052	784.25
523.267	726.25
523.482	726.25
523.698	726.25
523.913	685.25
524.128	713.25
524.343	683.25
524.559	681.25
524.774	680.25
524.989	670.25
525.204	672.25
525.419	647.25
525.634	649.25
525.849	623.25
526.064	622.25
526.28	639.25
526.495	647.25
526.71	620.25
526.925	591.25
527.14	608.25
527.355	623.25
527.57	592.25
527.785	609.25
527.999	580.25
528.214	610.25
528.429	593.25
528.644	619.25
528.859	640.25
529.074	604.25
529.289	629.25
529.503	752.25
529.718	725.25
529.933	658.25
530.148	629.25
530.363	625.25
530.577	620.25
530.792	611.25
531.007	573.25
531.221	588.25
531.436	558.25
531.651	582.25
531.865	582.25
532.08	558.25
532.295	573.25
532.509	578.25
532.724	553.25
532.938	559.25
533.153	548.25
533.367	578.25
533.582	571.25
533.796	566.25
534.011	554.25
534.225	560.25
534.44	553.25
534.654	554.25
534.868	556.25
535.083	565.25
535.297	565.25
535.511	590.25
535.726	589.25
535.94	562.25
536.154	595.25
536.369	571.25
536.583	538.25
536.797	547.25
537.011	550.25
537.225	549.25
537.44	527.25
537.654	549.25
537.868	555.25
538.082	556.25
538.296	549.25
538.51	555.25
538.724	562.25
538.938	541.25
539.153	559.25
539.367	565.25
539.581	587.25
539.795	562.25
540.009	543.25
540.222	525.25
540.436	537.25
540.65	549.25
540.864	550.25
541.078	561.25
541.292	582.25
541.506	565.25
541.72	546.25
541.934	541.25
542.147	564.25
542.361	530.25
542.575	550.25
542.789	547.25
543.002	541.25
543.216	556.25
543.43	583.25
543.644	553.25
543.857	534.25
544.071	547.25
544.285	575.25
544.498	537.25
544.712	525.25
544.925	538.25
545.139	512.25
545.352	524.25
545.566	522.25
545.779	526.25
545.993	532.25
546.206	537.25
546.42	545.25
546.633	543.25
546.847	537.25
547.06	510.25
547.274	506.25
547.487	490.25
547.7	511.25
547.914	519.25
548.127	497.25
548.34	493.25
548.554	501.25
548.767	499.25
548.98	505.25
549.193	509.25
549.407	499.25
549.62	515.25
549.833	498.25
550.046	494.25
550.259	487.25
550.473	487.25
550.686	490.25
550.899	495.25
551.112	478.25
551.325	495.25
551.538	494.25
551.751	484.25
551.964	490.25
552.177	513.25
552.39	486.25
552.603	505.25
552.816	492.25
553.029	486.25
553.242	497.25
553.455	508.25
553.667	537.25
553.88	546.25
554.093	523.25
554.306	509.25
554.519	529.25
554.732	508.25
554.944	498.25
555.157	490.25
555.37	483.25
555.583	480.25
555.795	492.25
556.008	471.25
556.221	467.25
556.433	464.25
556.646	460.25
556.859	488.25
557.071	457.25
557.284	474.25
557.496	450.25
557.709	476.25
557.921	458.25
558.134	457.25
558.346	472.25
558.559	442.25
558.771	463.25
558.984	443.25
559.196	449.25
559.409	470.25
559.621	445.25
559.833	446.25
560.046	448.25
560.258	454.25
560.47	449.25
560.683	449.25
560.895	440.25
561.107	458.25
561.32	445.25
561.532	458.25
561.744	461.25
561.956	441.25
562.168	449.25
562.381	431.25
562.593	450.25
562.805	449.25
563.017	451.25
563.229	444.25
563.441	465.25
563.653	449.25
563.865	455.25
564.077	463.25
564.289	442.25
564.501	451.25
564.713	446.25
564.925	466.25
565.137	482.25
565.349	485.25
565.561	468.25
565.773	472.25
565.985	470.25
566.197	478.25
566.408	471.25
566.62	496.25
566.832	473.25
567.044	496.25
567.255	511.25
567.467	515.25
567.679	515.25
567.891	500.25
568.102	522.25
568.314	515.25
568.526	477.25
568.737	490.25
568.949	479.25
569.161	481.25
569.372	443.25
569.584	452.25
569.795	433.25
570.007	439.25
570.218	505.25
570.43	486.25
570.641	458.25
570.853	426.25
571.064	440.25
571.276	431.25
571.487	417.25
571.698	422.25
571.91	419.25
572.121	422.25
572.333	402.25
572.544	401.25
572.755	385.25
572.966	382.25
573.178	395.25
573.389	403.25
573.6	394.25
573.811	404.25
574.023	393.25
574.234	362.25
574.445	385.25
574.656	385.25
574.867	380.25
575.078	385.25
575.289	386.25
575.501	372.25
575.712	384.25
575.923	366.25
576.134	389.25
576.345	384.25
576.556	368.25
576.767	354.25
576.978	381.25
577.188	388.25
577.399	383.25
577.61	366.25
577.821	381.25
578.032	366.25
578.243	425.25
578.454	732.25
578.665	532.25
578.875	382.25
579.086	357.25
579.297	364.25
579.508	358.25
579.718	365.25
579.929	335.25
580.14	340.25
580.35	331.25
580.561	351.25
580.772	348.25
580.982	366.25
581.193	353.25
581.403	349.25
581.614	355.25
581.825	345.25
582.035	356.25
582.246	350.25
582.456	362.25
582.667	337.25
582.877	341.25
583.087	340.25
583.298	342.25
583.508	351.25
583.719	350.25
583.929	344.25
584.139	329.25
584.35	334.25
584.56	345.25
584.77	359.25
584.981	339.25
585.191	338.25
585.401	356.25
585.611	338.25
585.821	349.25
586.032	331.25
586.242	330.25
586.452	313.25
586.662	343.25
586.872	325.25
587.082	315.25
587.292	328.25
587.502	335.25
587.713	325.25
587.923	345.25
588.133	319.25
588.343	310.25
588.553	334.25
588.762	330.25
588.972	342.25
589.182	339.25
589.392	317.25
589.602	336.25
589.812	322.25
590.022	321.25
590.232	330.25
590.441	341.25
590.651	337.25
590.861	320.25
591.071	335.25
591.281	331.25
591.49	333.25
591.7	316.25
591.91	346.25
592.119	323.25
592.329	329.25
592.539	335.25
592.748	349.25
592.958	344.25
593.167	342.25
593.377	339.25
593.587	360.25
593.796	333.25
594.006	361.25
594.215	336.25
594.424	336.25
594.634	328.25
594.843	317.25
595.053	322.25
595.262	336.25
595.472	334.25
595.681	325.25
595.89	324.25
596.1	318.25
596.309	304.25
596.518	334.25
596.727	306.25
596.937	322.25
597.146	327.25
597.355	321.25
597.564	315.25
597.774	327.25
597.983	304.25
598.192	309.25
598.401	294.25
598.61	311.25
598.819	293.25
599.028	290.25
599.237	285.25
599.446	303.25
599.655	316.25
599.864	303.25
600.073	304.25
600.282	283.25
600.491	288.25
600.7	302.25
600.909	282.25
601.118	316.25
601.327	289.25
601.536	305.25
601.745	304.25
601.953	292.25
602.162	289.25
602.371	288.25
602.58	293.25
602.789	290.25
602.997	301.25
603.206	307.25
603.415	299.25
603.623	278.25
603.832	299.25
604.041	274.25
604.249	275.25
604.458	281.25
604.666	268.25
604.875	268.25
605.084	283.25
605.292	289.25
605.501	287.25
605.709	285.25
605.918	288.25
606.126	290.25
606.334	274.25
606.543	259.25
606.751	273.25
606.96	286.25
607.168	277.25
607.376	277.25
607.585	265.25
607.793	277.25
608.001	273.25
608.21	275.25
608.418	274.25
608.626	280.25
608.834	277.25
609.043	280.25
609.251	275.25
609.459	271.25
609.667	284.25
609.875	283.25
610.083	275.25
610.291	261.25
610.499	252.25
610.707	281.25
610.916	288.25
611.124	276.25
611.332	305.25
611.54	284.25
611.748	279.25
611.955	274.25
612.163	263.25
612.371	272.25
612.579	280.25
612.787	259.25
612.995	275.25
613.203	266.25
613.411	274.25
613.618	251.25
613.826	270.25
614.034	280.25
614.242	284.25
614.449	270.25
614.657	263.25
614.865	262.25
615.072	266.25
615.28	267.25
615.488	276.25
615.695	265.25
615.903	273.25
616.111	266.25
616.318	287.25
616.526	265.25
616.733	265.25
616.941	266.25
617.148	271.25
617.356	261.25
617.563	271.25
617.771	260.25
617.978	257.25
618.185	249.25
618.393	263.25
618.6	278.25
618.807	263.25
619.015	283.25
619.222	248.25
619.429	269.25
619.637	273.25
619.844	238.25
620.051	249.25
620.258	275.25
620.466	240.25
620.673	259.25
620.88	247.25
621.087	252.25
621.294	257.25
621.501	259.25
621.708	270.25
621.915	240.25
622.122	258.25
622.329	263.25
622.536	253.25
622.743	256.25
622.95	239.25
623.157	240.25
623.364	255.25
623.571	237.25
623.778	236.25
623.985	233.25
624.192	254.25
624.399	236.25
624.606	246.25
624.812	248.25
625.019	239.25
625.226	250.25
625.433	245.25
625.639	238.25
625.846	242.25
626.053	230.25
626.259	228.25
626.466	209.25
626.673	217.25
626.879	226.25
627.086	232.25
627.293	222.25
627.499	230.25
627.706	218.25
627.912	235.25
628.119	222.25
628.325	236.25
628.532	236.25
628.738	218.25
628.945	235.25
629.151	229.25
629.357	229.25
629.564	221.25
629.77	210.25
629.976	225.25
630.183	233.25
630.389	232.25
630.595	233.25
630.802	222.25
631.008	224.25
631.214	213.25
631.42	217.25
631.627	230.25
631.833	214.25
632.039	214.25
632.245	216.25
632.451	213.25
632.657	217.25
632.863	202.25
633.069	210.25
633.275	231.25
633.481	194.25
633.688	202.25
633.893	211.25
634.099	203.25
634.305	216.25
634.511	209.25
634.717	194.25
634.923	202.25
635.129	212.25
635.335	215.25
635.541	208.25
635.747	218.25
635.952	199.25
636.158	200.25
636.364	197.25
636.57	208.25
636.775	222.25
636.981	216.25
637.187	209.25
637.392	210.25
637.598	201.25
637.804	203.25
638.009	208.25
638.215	189.25
638.421	202.25
638.626	182.25
638.832	194.25
639.037	187.25
639.243	168.25
639.448	199.25
639.654	203.25
639.859	200.25
640.065	197.25
640.27	187.25
640.475	199.25
640.681	192.25
640.886	201.25
641.091	201.25
641.297	193.25
641.502	215.25
641.707	196.25
641.913	193.25
642.118	198.25
642.323	181.25
642.528	203.25
642.733	199.25
642.939	183.25
643.144	186.25
643.349	206.25
643.554	192.25
643.759	194.25
643.964	165.25
644.169	200.25
644.374	195.25
644.579	173.25
644.784	176.25
644.989	181.25
645.194	187.25
645.399	197.25
645.604	173.25
645.809	183.25
646.014	173.25
646.219	171.25
646.423	181.25
646.628	178.25
646.833	167.25
647.038	187.25
647.243	185.25
647.447	180.25
647.652	193.25
647.857	190.25
648.062	194.25
648.266	182.25
648.471	175.25
648.676	187.25
648.88	184.25
649.085	189.25
649.289	193.25
649.494	185.25
649.698	206.25
649.903	201.25
650.107	191.25
650.312	177.25
650.516	176.25
650.721	176.25
650.925	181.25
651.13	171.25
651.334	174.25
651.539	173.25
651.743	171.25
651.947	165.25
652.152	159.25
652.356	150.25
652.56	161.25
652.764	150.25
652.969	151.25
653.173	143.25
653.377	159.25
653.581	154.25
653.785	156.25
653.99	145.25
654.194	136.25
654.398	143.25
654.602	146.25
654.806	134.25
655.01	152.25
655.214	145.25
655.418	139.25
655.622	153.25
655.826	133.25
656.03	143.25
656.234	156.25
656.438	128.25
656.642	157.25
656.846	133.25
657.049	138.25
657.253	131.25
657.457	137.25
657.661	127.25
657.865	123.25
658.068	110.25
658.272	123.25
658.476	127.25
658.68	112.25
658.883	98.25
659.087	107.25
659.291	121.25
659.494	105.25
659.698	107.25
659.901	106.25
660.105	110.25
660.309	112.25
660.512	111.25
660.716	108.25
660.919	103.25
661.123	99.25
661.326	103.25
661.53	93.25
661.733	85.25
661.936	91.25
662.14	99.25
662.343	79.25
662.546	77.25
662.75	85.25
662.953	102.25
663.156	90.25
663.36	82.25
663.563	94.25
663.766	91.25
663.969	85.25
664.173	94.25
664.376	91.25
664.579	91.25
664.782	87.25
664.985	83.25
665.188	96.25
665.391	90.25
665.594	81.25
665.797	77.25
666	86.25
666.203	85.25
666.406	83.25
666.609	86.25
666.812	82.25
667.015	88.25
667.218	80.25
667.421	86.25
667.624	85.25
667.827	78.25
668.03	78.25
668.232	76.25
668.435	80.25
668.638	89.25
668.841	92.25
669.043	81.25
669.246	84.25
669.449	83.25
669.651	90.25
669.854	102.25
670.057	88.25
670.259	74.25
670.462	86.25
670.665	72.25
670.867	79.25
671.07	84.25
671.272	95.25
671.475	103.25
671.677	88.25
671.88	82.25
672.082	81.25
672.284	73.25
672.487	98.25
672.689	85.25
672.892	82.25
