Data from 1970.PennyLincolnUp.Lamp.En5.5.200Scan.071719.P1._HRD10591_15-14-30-843.txt Node
Date: Thu Jul 18 15:14:30 EDT 2019
User: cochatt
Spectrometer: HR+D1059
Trigger mode: 1
Integration Time (sec): 1.000000E-1
Scans to average: 1
Electric dark correction enabled: true
Nonlinearity correction enabled: false
Boxcar width: 0
XAxis mode: Wavelengths
Number of Pixels in Spectrum: 2048
>>>>>Begin Spectral Data<<<<<
223.165	-12.19
223.4	-12.19
223.635	-12.19
223.869	-15.19
224.104	-19.19
224.338	-17.19
224.573	-16.19
224.808	-13.19
225.042	-5.19
225.277	-13.19
225.511	-5.19
225.746	8.81
225.98	12.81
226.215	3.81
226.449	23.81
226.683	23.81
226.918	23.81
227.152	19.81
227.387	31.81
227.621	44.81
227.856	43.81
228.09	37.81
228.324	38.81
228.559	52.81
228.793	80.81
229.027	96.81
229.262	122.81
229.496	131.81
229.73	138.81
229.964	177.81
230.199	148.81
230.433	121.81
230.667	119.81
230.901	130.81
231.136	120.81
231.37	128.81
231.604	115.81
231.838	121.81
232.072	113.81
232.306	115.81
232.541	127.81
232.775	120.81
233.009	119.81
233.243	111.81
233.477	128.81
233.711	121.81
233.945	116.81
234.179	117.81
234.413	130.81
234.647	122.81
234.881	107.81
235.115	117.81
235.349	124.81
235.583	133.81
235.817	135.81
236.051	128.81
236.285	140.81
236.519	142.81
236.753	128.81
236.987	162.81
237.221	204.81
237.455	271.81
237.689	202.81
237.922	155.81
238.156	145.81
238.39	143.81
238.624	136.81
238.858	130.81
239.091	130.81
239.325	131.81
239.559	126.81
239.793	119.81
240.027	153.81
240.26	145.81
240.494	150.81
240.728	163.81
240.961	149.81
241.195	139.81
241.429	164.81
241.662	138.81
241.896	159.81
242.13	152.81
242.363	132.81
242.597	148.81
242.83	154.81
243.064	136.81
243.298	133.81
243.531	145.81
243.765	146.81
243.998	169.81
244.232	152.81
244.465	143.81
244.699	154.81
244.932	150.81
245.166	148.81
245.399	173.81
245.633	178.81
245.866	156.81
246.099	154.81
246.333	163.81
246.566	158.81
246.8	164.81
247.033	165.81
247.266	151.81
247.5	171.81
247.733	179.81
247.966	171.81
248.2	198.81
248.433	193.81
248.666	190.81
248.899	206.81
249.133	211.81
249.366	223.81
249.599	199.81
249.832	182.81
250.066	202.81
250.299	204.81
250.532	196.81
250.765	217.81
250.998	233.81
251.231	258.81
251.465	249.81
251.698	227.81
251.931	219.81
252.164	215.81
252.397	207.81
252.63	207.81
252.863	231.81
253.096	250.81
253.329	263.81
253.562	237.81
253.795	234.81
254.028	231.81
254.261	229.81
254.494	254.81
254.727	281.81
254.96	318.81
255.193	299.81
255.426	298.81
255.659	251.81
255.892	246.81
256.124	259.81
256.357	256.81
256.59	265.81
256.823	267.81
257.056	231.81
257.289	238.81
257.521	222.81
257.754	228.81
257.987	224.81
258.22	222.81
258.452	201.81
258.685	227.81
258.918	231.81
259.151	236.81
259.383	235.81
259.616	246.81
259.849	250.81
260.081	232.81
260.314	276.81
260.547	279.81
260.779	286.81
261.012	262.81
261.244	244.81
261.477	244.81
261.71	252.81
261.942	248.81
262.175	243.81
262.407	244.81
262.64	236.81
262.872	220.81
263.105	228.81
263.337	203.81
263.57	228.81
263.802	218.81
264.035	222.81
264.267	204.81
264.499	226.81
264.732	234.81
264.964	221.81
265.197	229.81
265.429	241.81
265.661	222.81
265.894	216.81
266.126	213.81
266.358	218.81
266.591	235.81
266.823	216.81
267.055	244.81
267.287	234.81
267.52	238.81
267.752	231.81
267.984	233.81
268.216	230.81
268.448	256.81
268.681	235.81
268.913	270.81
269.145	252.81
269.377	286.81
269.609	271.81
269.841	275.81
270.073	277.81
270.306	296.81
270.538	323.81
270.77	335.81
271.002	314.81
271.234	304.81
271.466	318.81
271.698	332.81
271.93	332.81
272.162	331.81
272.394	336.81
272.626	326.81
272.858	303.81
273.09	308.81
273.322	296.81
273.553	277.81
273.785	272.81
274.017	288.81
274.249	273.81
274.481	278.81
274.713	283.81
274.945	274.81
275.176	274.81
275.408	267.81
275.64	262.81
275.872	270.81
276.104	263.81
276.335	275.81
276.567	282.81
276.799	314.81
277.031	328.81
277.262	328.81
277.494	331.81
277.726	331.81
277.957	292.81
278.189	278.81
278.421	292.81
278.652	283.81
278.884	267.81
279.115	278.81
279.347	277.81
279.579	284.81
279.81	278.81
280.042	266.81
280.273	279.81
280.505	292.81
280.736	284.81
280.968	267.81
281.199	256.81
281.431	265.81
281.662	266.81
281.894	264.81
282.125	269.81
282.356	290.81
282.588	311.81
282.819	299.81
283.051	278.81
283.282	270.81
283.513	274.81
283.745	278.81
283.976	285.81
284.207	270.81
284.439	291.81
284.67	288.81
284.901	280.81
285.132	284.81
285.364	275.81
285.595	266.81
285.826	287.81
286.057	284.81
286.288	263.81
286.52	273.81
286.751	282.81
286.982	264.81
287.213	286.81
287.444	287.81
287.675	280.81
287.906	295.81
288.138	307.81
288.369	319.81
288.6	308.81
288.831	308.81
289.062	299.81
289.293	272.81
289.524	278.81
289.755	281.81
289.986	279.81
290.217	272.81
290.448	268.81
290.679	289.81
290.91	298.81
291.141	290.81
291.371	293.81
291.602	294.81
291.833	263.81
292.064	272.81
292.295	293.81
292.526	273.81
292.757	283.81
292.987	283.81
293.218	282.81
293.449	293.81
293.68	299.81
293.91	293.81
294.141	296.81
294.372	299.81
294.603	297.81
294.833	313.81
295.064	290.81
295.295	286.81
295.525	306.81
295.756	313.81
295.987	300.81
296.217	325.81
296.448	349.81
296.679	298.81
296.909	298.81
297.14	279.81
297.37	296.81
297.601	294.81
297.831	295.81
298.062	283.81
298.292	305.81
298.523	301.81
298.753	300.81
298.984	303.81
299.214	327.81
299.445	313.81
299.675	303.81
299.905	312.81
300.136	294.81
300.366	313.81
300.597	311.81
300.827	306.81
301.057	316.81
301.288	324.81
301.518	311.81
301.748	317.81
301.979	340.81
302.209	310.81
302.439	325.81
302.669	319.81
302.9	320.81
303.13	313.81
303.36	308.81
303.59	334.81
303.82	352.81
304.051	339.81
304.281	316.81
304.511	307.81
304.741	313.81
304.971	326.81
305.201	314.81
305.431	315.81
305.661	329.81
305.891	327.81
306.121	310.81
306.352	326.81
306.582	339.81
306.812	337.81
307.042	334.81
307.272	326.81
307.502	322.81
307.731	330.81
307.961	314.81
308.191	311.81
308.421	348.81
308.651	339.81
308.881	352.81
309.111	336.81
309.341	340.81
309.571	347.81
309.8	371.81
310.03	357.81
310.26	376.81
310.49	380.81
310.72	374.81
310.949	408.81
311.179	413.81
311.409	396.81
311.639	388.81
311.868	393.81
312.098	397.81
312.328	387.81
312.557	406.81
312.787	418.81
313.017	418.81
313.246	419.81
313.476	378.81
313.706	370.81
313.935	393.81
314.165	398.81
314.394	414.81
314.624	392.81
314.853	392.81
315.083	415.81
315.312	392.81
315.542	384.81
315.771	384.81
316.001	379.81
316.23	363.81
316.46	380.81
316.689	366.81
316.919	374.81
317.148	388.81
317.377	415.81
317.607	386.81
317.836	380.81
318.065	390.81
318.295	388.81
318.524	381.81
318.753	384.81
318.983	379.81
319.212	375.81
319.441	376.81
319.67	380.81
319.9	374.81
320.129	388.81
320.358	392.81
320.587	370.81
320.816	388.81
321.046	412.81
321.275	413.81
321.504	399.81
321.733	416.81
321.962	423.81
322.191	446.81
322.42	464.81
322.649	474.81
322.878	484.81
323.108	486.81
323.337	514.81
323.566	538.81
323.795	580.81
324.024	628.81
324.253	774.81
324.482	1092.81
324.71	1681.81
324.939	2358.81
325.168	2064.81
325.397	1125.81
325.626	738.81
325.855	607.81
326.084	561.81
326.313	542.81
326.542	546.81
326.77	604.81
326.999	691.81
327.228	968.81
327.457	1474.81
327.686	1782.81
327.914	1210.81
328.143	807.81
328.372	698.81
328.6	652.81
328.829	612.81
329.058	654.81
329.287	657.81
329.515	592.81
329.744	567.81
329.972	534.81
330.201	570.81
330.43	609.81
330.658	652.81
330.887	674.81
331.115	662.81
331.344	570.81
331.572	518.81
331.801	517.81
332.03	500.81
332.258	498.81
332.486	480.81
332.715	465.81
332.943	454.81
333.172	477.81
333.4	471.81
333.629	486.81
333.857	476.81
334.085	496.81
334.314	528.81
334.542	564.81
334.771	582.81
334.999	514.81
335.227	482.81
335.455	470.81
335.684	472.81
335.912	454.81
336.14	445.81
336.369	456.81
336.597	461.81
336.825	463.81
337.053	434.81
337.281	459.81
337.51	447.81
337.738	452.81
337.966	441.81
338.194	455.81
338.422	458.81
338.65	430.81
338.878	439.81
339.106	426.81
339.334	429.81
339.562	439.81
339.79	446.81
340.018	433.81
340.246	419.81
340.474	430.81
340.702	463.81
340.93	439.81
341.158	427.81
341.386	448.81
341.614	464.81
341.842	446.81
342.07	446.81
342.298	430.81
342.526	439.81
342.754	436.81
342.981	414.81
343.209	426.81
343.437	407.81
343.665	425.81
343.893	417.81
344.12	453.81
344.348	444.81
344.576	455.81
344.804	450.81
345.031	467.81
345.259	477.81
345.487	462.81
345.714	464.81
345.942	451.81
346.17	410.81
346.397	430.81
346.625	443.81
346.853	435.81
347.08	412.81
347.308	423.81
347.535	443.81
347.763	457.81
347.99	450.81
348.218	444.81
348.445	450.81
348.673	471.81
348.9	451.81
349.128	424.81
349.355	420.81
349.583	406.81
349.81	410.81
350.037	423.81
350.265	408.81
350.492	404.81
350.72	419.81
350.947	419.81
351.174	440.81
351.402	462.81
351.629	451.81
351.856	439.81
352.083	476.81
352.311	473.81
352.538	450.81
352.765	466.81
352.992	458.81
353.22	462.81
353.447	424.81
353.674	434.81
353.901	400.81
354.128	404.81
354.355	390.81
354.583	414.81
354.81	393.81
355.037	404.81
355.264	380.81
355.491	389.81
355.718	410.81
355.945	409.81
356.172	398.81
356.399	399.81
356.626	401.81
356.853	390.81
357.08	382.81
357.307	408.81
357.534	392.81
357.761	408.81
357.988	420.81
358.215	402.81
358.441	400.81
358.668	382.81
358.895	411.81
359.122	418.81
359.349	419.81
359.576	446.81
359.802	474.81
360.029	489.81
360.256	519.81
360.483	486.81
360.709	457.81
360.936	448.81
361.163	451.81
361.39	443.81
361.616	454.81
361.843	447.81
362.07	438.81
362.296	446.81
362.523	455.81
362.749	440.81
362.976	432.81
363.203	431.81
363.429	419.81
363.656	409.81
363.882	418.81
364.109	436.81
364.335	418.81
364.562	419.81
364.788	409.81
365.015	437.81
365.241	403.81
365.468	447.81
365.694	428.81
365.92	435.81
366.147	431.81
366.373	432.81
366.599	407.81
366.826	411.81
367.052	413.81
367.278	420.81
367.505	420.81
367.731	422.81
367.957	420.81
368.184	413.81
368.41	413.81
368.636	443.81
368.862	426.81
369.089	430.81
369.315	418.81
369.541	435.81
369.767	425.81
369.993	433.81
370.219	407.81
370.445	412.81
370.672	415.81
370.898	432.81
371.124	403.81
371.35	425.81
371.576	408.81
371.802	398.81
372.028	415.81
372.254	405.81
372.48	424.81
372.706	431.81
372.932	430.81
373.158	405.81
373.384	426.81
373.61	420.81
373.835	418.81
374.061	418.81
374.287	428.81
374.513	435.81
374.739	409.81
374.965	403.81
375.191	397.81
375.416	443.81
375.642	438.81
375.868	445.81
376.094	428.81
376.319	426.81
376.545	450.81
376.771	416.81
376.997	438.81
377.222	418.81
377.448	422.81
377.674	412.81
377.899	416.81
378.125	413.81
378.35	408.81
378.576	386.81
378.802	411.81
379.027	428.81
379.253	431.81
379.478	411.81
379.704	427.81
379.929	443.81
380.155	408.81
380.38	432.81
380.606	436.81
380.831	410.81
381.057	448.81
381.282	404.81
381.507	432.81
381.733	427.81
381.958	412.81
382.184	416.81
382.409	445.81
382.634	425.81
382.86	456.81
383.085	456.81
383.31	429.81
383.535	438.81
383.761	430.81
383.986	429.81
384.211	446.81
384.436	445.81
384.662	402.81
384.887	426.81
385.112	422.81
385.337	425.81
385.562	441.81
385.787	448.81
386.013	460.81
386.238	456.81
386.463	462.81
386.688	446.81
386.913	437.81
387.138	444.81
387.363	439.81
387.588	444.81
387.813	471.81
388.038	460.81
388.263	442.81
388.488	436.81
388.713	461.81
388.938	448.81
389.163	455.81
389.387	465.81
389.612	448.81
389.837	411.81
390.062	428.81
390.287	443.81
390.512	436.81
390.736	454.81
390.961	464.81
391.186	450.81
391.411	466.81
391.636	466.81
391.86	476.81
392.085	474.81
392.31	467.81
392.534	480.81
392.759	468.81
392.984	475.81
393.208	442.81
393.433	472.81
393.658	472.81
393.882	467.81
394.107	464.81
394.331	438.81
394.556	459.81
394.78	452.81
395.005	446.81
395.229	464.81
395.454	471.81
395.678	463.81
395.903	489.81
396.127	514.81
396.352	511.81
396.576	463.81
396.801	467.81
397.025	470.81
397.249	487.81
397.474	464.81
397.698	488.81
397.922	479.81
398.147	503.81
398.371	526.81
398.595	511.81
398.82	511.81
399.044	517.81
399.268	521.81
399.492	563.81
399.717	582.81
399.941	613.81
400.165	633.81
400.389	625.81
400.613	588.81
400.837	554.81
401.062	534.81
401.286	515.81
401.51	532.81
401.734	510.81
401.958	513.81
402.182	527.81
402.406	520.81
402.63	551.81
402.854	557.81
403.078	527.81
403.302	526.81
403.526	572.81
403.75	547.81
403.974	552.81
404.198	540.81
404.422	541.81
404.645	536.81
404.869	563.81
405.093	595.81
405.317	617.81
405.541	654.81
405.765	614.81
405.988	580.81
406.212	597.81
406.436	602.81
406.66	604.81
406.883	627.81
407.107	603.81
407.331	644.81
407.555	726.81
407.778	738.81
408.002	674.81
408.226	607.81
408.449	600.81
408.673	598.81
408.896	631.81
409.12	656.81
409.344	657.81
409.567	586.81
409.791	582.81
410.014	545.81
410.238	566.81
410.461	537.81
410.685	572.81
410.908	578.81
411.132	611.81
411.355	646.81
411.578	596.81
411.802	570.81
412.025	564.81
412.249	565.81
412.472	582.81
412.695	617.81
412.919	602.81
413.142	569.81
413.365	572.81
413.589	523.81
413.812	546.81
414.035	541.81
414.258	523.81
414.482	536.81
414.705	520.81
414.928	520.81
415.151	528.81
415.374	503.81
415.597	485.81
415.821	515.81
416.044	526.81
416.267	532.81
416.49	518.81
416.713	502.81
416.936	517.81
417.159	499.81
417.382	543.81
417.605	527.81
417.828	568.81
418.051	526.81
418.274	536.81
418.497	541.81
418.72	522.81
418.943	550.81
419.166	534.81
419.389	564.81
419.611	567.81
419.834	551.81
420.057	570.81
420.28	570.81
420.503	559.81
420.726	569.81
420.948	563.81
421.171	609.81
421.394	670.81
421.617	592.81
421.839	564.81
422.062	554.81
422.285	572.81
422.507	642.81
422.73	749.81
422.953	705.81
423.175	598.81
423.398	600.81
423.621	574.81
423.843	602.81
424.066	616.81
424.288	623.81
424.511	605.81
424.733	695.81
424.956	779.81
425.178	744.81
425.401	735.81
425.623	766.81
425.846	657.81
426.068	644.81
426.291	619.81
426.513	599.81
426.735	621.81
426.958	653.81
427.18	754.81
427.402	866.81
427.625	953.81
427.847	886.81
428.069	758.81
428.292	691.81
428.514	621.81
428.736	590.81
428.958	605.81
429.181	559.81
429.403	564.81
429.625	575.81
429.847	619.81
430.069	703.81
430.292	708.81
430.514	587.81
430.736	557.81
430.958	543.81
431.18	547.81
431.402	537.81
431.624	523.81
431.846	534.81
432.068	511.81
432.29	529.81
432.512	542.81
432.734	575.81
432.956	544.81
433.178	581.81
433.4	571.81
433.622	539.81
433.844	539.81
434.066	532.81
434.287	530.81
434.509	539.81
434.731	540.81
434.953	541.81
435.175	559.81
435.397	624.81
435.618	604.81
435.84	655.81
436.062	767.81
436.284	823.81
436.505	721.81
436.727	639.81
436.949	593.81
437.17	591.81
437.392	572.81
437.614	595.81
437.835	627.81
438.057	768.81
438.278	847.81
438.5	847.81
438.721	905.81
438.943	871.81
439.165	706.81
439.386	623.81
439.608	651.81
439.829	632.81
440.05	671.81
440.272	707.81
440.493	668.81
440.715	608.81
440.936	612.81
441.158	586.81
441.379	567.81
441.6	590.81
441.822	610.81
442.043	668.81
442.264	752.81
442.486	813.81
442.707	688.81
442.928	626.81
443.149	638.81
443.371	656.81
443.592	711.81
443.813	824.81
444.034	857.81
444.255	726.81
444.476	637.81
444.698	642.81
444.919	601.81
445.14	736.81
445.361	674.81
445.582	661.81
445.803	728.81
446.024	845.81
446.245	846.81
446.466	793.81
446.687	676.81
446.908	632.81
447.129	575.81
447.35	568.81
447.571	555.81
447.792	573.81
448.013	591.81
448.234	601.81
448.455	658.81
448.675	766.81
448.896	858.81
449.117	746.81
449.338	745.81
449.559	837.81
449.779	900.81
450	754.81
450.221	658.81
450.442	616.81
450.662	570.81
450.883	590.81
451.104	595.81
451.324	599.81
451.545	557.81
451.766	542.81
451.986	536.81
452.207	505.81
452.428	532.81
452.648	510.81
452.869	521.81
453.089	531.81
453.31	557.81
453.53	543.81
453.751	529.81
453.971	501.81
454.192	542.81
454.412	536.81
454.633	508.81
454.853	502.81
455.073	514.81
455.294	540.81
455.514	635.81
455.734	608.81
455.955	524.81
456.175	508.81
456.395	485.81
456.616	482.81
456.836	472.81
457.056	445.81
457.276	465.81
457.497	500.81
457.717	476.81
457.937	517.81
458.157	506.81
458.377	503.81
458.598	546.81
458.818	590.81
459.038	686.81
459.258	680.81
459.478	604.81
459.698	534.81
459.918	537.81
460.138	510.81
460.358	523.81
460.578	540.81
460.798	522.81
461.018	521.81
461.238	538.81
461.458	534.81
461.678	533.81
461.898	522.81
462.118	530.81
462.338	526.81
462.558	556.81
462.777	540.81
462.997	553.81
463.217	580.81
463.437	548.81
463.657	552.81
463.876	528.81
464.096	555.81
464.316	564.81
464.536	558.81
464.755	580.81
464.975	582.81
465.195	647.81
465.414	724.81
465.634	647.81
465.854	574.81
466.073	564.81
466.293	549.81
466.512	544.81
466.732	501.81
466.951	527.81
467.171	528.81
467.391	551.81
467.61	526.81
467.829	565.81
468.049	540.81
468.268	538.81
468.488	523.81
468.707	525.81
468.927	518.81
469.146	514.81
469.365	533.81
469.585	510.81
469.804	520.81
470.023	524.81
470.243	511.81
470.462	529.81
470.681	553.81
470.901	554.81
471.12	525.81
471.339	528.81
471.558	529.81
471.777	547.81
471.997	533.81
472.216	536.81
472.435	580.81
472.654	549.81
472.873	537.81
473.092	530.81
473.311	515.81
473.53	532.81
473.749	542.81
473.968	606.81
474.187	697.81
474.406	725.81
474.625	609.81
474.844	552.81
475.063	540.81
475.282	523.81
475.501	538.81
475.72	548.81
475.939	557.81
476.158	552.81
476.377	525.81
476.596	516.81
476.814	569.81
477.033	574.81
477.252	566.81
477.471	545.81
477.69	574.81
477.908	575.81
478.127	582.81
478.346	605.81
478.564	587.81
478.783	600.81
479.002	613.81
479.22	612.81
479.439	618.81
479.658	640.81
479.876	643.81
480.095	643.81
480.313	667.81
480.532	671.81
480.751	642.81
480.969	686.81
481.188	748.81
481.406	799.81
481.624	718.81
481.843	671.81
482.061	655.81
482.28	652.81
482.498	644.81
482.717	633.81
482.935	650.81
483.153	639.81
483.372	662.81
483.59	642.81
483.808	638.81
484.027	617.81
484.245	644.81
484.463	655.81
484.681	645.81
484.9	647.81
485.118	636.81
485.336	663.81
485.554	666.81
485.772	661.81
485.99	676.81
486.209	658.81
486.427	680.81
486.645	685.81
486.863	706.81
487.081	684.81
487.299	696.81
487.517	682.81
487.735	672.81
487.953	703.81
488.171	711.81
488.389	688.81
488.607	706.81
488.825	743.81
489.043	711.81
489.261	693.81
489.479	716.81
489.696	706.81
489.914	706.81
490.132	702.81
490.35	718.81
490.568	752.81
490.786	748.81
491.003	748.81
491.221	771.81
491.439	776.81
491.657	784.81
491.874	797.81
492.092	792.81
492.31	813.81
492.527	813.81
492.745	812.81
492.963	826.81
493.18	848.81
493.398	839.81
493.615	837.81
493.833	843.81
494.05	835.81
494.268	835.81
494.485	823.81
494.703	819.81
494.92	830.81
495.138	846.81
495.355	872.81
495.573	886.81
495.79	859.81
496.008	841.81
496.225	858.81
496.442	795.81
496.66	843.81
496.877	831.81
497.094	811.81
497.312	832.81
497.529	853.81
497.746	847.81
497.963	863.81
498.181	882.81
498.398	889.81
498.615	902.81
498.832	908.81
499.049	909.81
499.267	916.81
499.484	939.81
499.701	956.81
499.918	974.81
500.135	983.81
500.352	1020.81
500.569	1036.81
500.786	1053.81
501.003	1031.81
501.22	1026.81
501.437	980.81
501.654	1005.81
501.871	989.81
502.088	973.81
502.305	927.81
502.522	901.81
502.739	925.81
502.956	875.81
503.172	893.81
503.389	869.81
503.606	896.81
503.823	858.81
504.04	831.81
504.256	827.81
504.473	814.81
504.69	804.81
504.907	794.81
505.123	834.81
505.34	815.81
505.557	784.81
505.773	781.81
505.99	805.81
506.207	800.81
506.423	796.81
506.64	810.81
506.856	806.81
507.073	764.81
507.289	781.81
507.506	807.81
507.722	813.81
507.939	831.81
508.155	817.81
508.372	798.81
508.588	757.81
508.805	780.81
509.021	768.81
509.238	784.81
509.454	802.81
509.67	779.81
509.887	780.81
510.103	762.81
510.319	789.81
510.536	900.81
510.752	1482.81
510.968	1192.81
511.184	819.81
511.401	762.81
511.617	778.81
511.833	736.81
512.049	732.81
512.265	738.81
512.481	736.81
512.698	718.81
512.914	729.81
513.13	729.81
513.346	735.81
513.562	724.81
513.778	729.81
513.994	756.81
514.21	738.81
514.426	796.81
514.642	842.81
514.858	850.81
515.074	936.81
515.29	1089.81
515.506	1638.81
515.721	1350.81
515.937	894.81
516.153	816.81
516.369	803.81
516.585	772.81
516.801	751.81
517.016	726.81
517.232	744.81
517.448	703.81
517.664	720.81
517.879	717.81
518.095	720.81
518.311	719.81
518.527	697.81
518.742	692.81
518.958	713.81
519.173	739.81
519.389	728.81
519.605	723.81
519.82	752.81
520.036	759.81
520.251	775.81
520.467	822.81
520.682	799.81
520.898	814.81
521.113	849.81
521.329	887.81
521.544	1016.81
521.76	1291.81
521.975	2156.81
522.19	2143.81
522.406	1162.81
522.621	927.81
522.836	786.81
523.052	742.81
523.267	708.81
523.482	688.81
523.698	690.81
523.913	674.81
524.128	668.81
524.343	658.81
524.559	637.81
524.774	617.81
524.989	640.81
525.204	616.81
525.419	649.81
525.634	614.81
525.849	611.81
526.064	604.81
526.28	602.81
526.495	578.81
526.71	603.81
526.925	580.81
527.14	603.81
527.355	591.81
527.57	605.81
527.785	570.81
527.999	578.81
528.214	590.81
528.429	591.81
528.644	576.81
528.859	573.81
529.074	594.81
529.289	614.81
529.503	754.81
529.718	714.81
529.933	663.81
530.148	611.81
530.363	574.81
530.577	582.81
530.792	585.81
531.007	554.81
531.221	582.81
531.436	599.81
531.651	571.81
531.865	565.81
532.08	555.81
532.295	561.81
532.509	550.81
532.724	570.81
532.938	566.81
533.153	559.81
533.367	549.81
533.582	568.81
533.796	566.81
534.011	551.81
534.225	550.81
534.44	565.81
534.654	544.81
534.868	523.81
535.083	540.81
535.297	524.81
535.511	558.81
535.726	551.81
535.94	554.81
536.154	548.81
536.369	562.81
536.583	536.81
536.797	541.81
537.011	502.81
537.225	539.81
537.44	509.81
537.654	503.81
537.868	536.81
538.082	534.81
538.296	531.81
538.51	541.81
538.724	527.81
538.938	513.81
539.153	529.81
539.367	559.81
539.581	555.81
539.795	540.81
540.009	510.81
540.222	506.81
540.436	519.81
540.65	526.81
540.864	528.81
541.078	538.81
541.292	533.81
541.506	544.81
541.72	526.81
541.934	542.81
542.147	535.81
542.361	511.81
542.575	515.81
542.789	524.81
543.002	536.81
543.216	519.81
543.43	550.81
543.644	524.81
543.857	549.81
544.071	530.81
544.285	540.81
544.498	528.81
544.712	494.81
544.925	517.81
545.139	527.81
545.352	524.81
545.566	523.81
545.779	524.81
545.993	522.81
546.206	521.81
546.42	515.81
546.633	544.81
546.847	506.81
547.06	508.81
547.274	516.81
547.487	500.81
547.7	494.81
547.914	500.81
548.127	508.81
548.34	498.81
548.554	491.81
548.767	512.81
548.98	498.81
549.193	490.81
549.407	488.81
549.62	501.81
549.833	474.81
550.046	492.81
550.259	504.81
550.473	499.81
550.686	488.81
550.899	487.81
551.112	483.81
551.325	486.81
551.538	471.81
551.751	493.81
551.964	482.81
552.177	478.81
552.39	490.81
552.603	503.81
552.816	495.81
553.029	490.81
553.242	487.81
553.455	501.81
553.667	518.81
553.88	528.81
554.093	522.81
554.306	496.81
554.519	498.81
554.732	493.81
554.944	501.81
555.157	493.81
555.37	475.81
555.583	492.81
555.795	469.81
556.008	462.81
556.221	462.81
556.433	471.81
556.646	450.81
556.859	443.81
557.071	446.81
557.284	454.81
557.496	460.81
557.709	446.81
557.921	436.81
558.134	427.81
558.346	440.81
558.559	460.81
558.771	455.81
558.984	460.81
559.196	436.81
559.409	450.81
559.621	447.81
559.833	436.81
560.046	442.81
560.258	446.81
560.47	443.81
560.683	442.81
560.895	425.81
561.107	442.81
561.32	436.81
561.532	445.81
561.744	421.81
561.956	426.81
562.168	449.81
562.381	436.81
562.593	448.81
562.805	450.81
563.017	445.81
563.229	435.81
563.441	442.81
563.653	440.81
563.865	437.81
564.077	440.81
564.289	467.81
564.501	438.81
564.713	433.81
564.925	451.81
565.137	480.81
565.349	472.81
565.561	469.81
565.773	475.81
565.985	472.81
566.197	478.81
566.408	496.81
566.62	507.81
566.832	491.81
567.044	489.81
567.255	474.81
567.467	505.81
567.679	516.81
567.891	493.81
568.102	503.81
568.314	509.81
568.526	491.81
568.737	483.81
568.949	475.81
569.161	464.81
569.372	428.81
569.584	443.81
569.795	449.81
570.007	449.81
570.218	516.81
570.43	500.81
570.641	439.81
570.853	423.81
571.064	415.81
571.276	405.81
571.487	408.81
571.698	424.81
571.91	417.81
572.121	400.81
572.333	423.81
572.544	416.81
572.755	407.81
572.966	384.81
573.178	384.81
573.389	390.81
573.6	379.81
573.811	388.81
574.023	384.81
574.234	388.81
574.445	368.81
574.656	376.81
574.867	374.81
575.078	385.81
575.289	384.81
575.501	386.81
575.712	350.81
575.923	380.81
576.134	363.81
576.345	380.81
576.556	363.81
576.767	372.81
576.978	356.81
577.188	366.81
577.399	371.81
577.61	364.81
577.821	386.81
578.032	376.81
578.243	414.81
578.454	713.81
578.665	522.81
578.875	399.81
579.086	366.81
579.297	360.81
579.508	359.81
579.718	359.81
579.929	343.81
580.14	333.81
580.35	340.81
580.561	349.81
580.772	337.81
580.982	320.81
581.193	350.81
581.403	356.81
581.614	333.81
581.825	343.81
582.035	339.81
582.246	348.81
582.456	331.81
582.667	356.81
582.877	342.81
583.087	343.81
583.298	354.81
583.508	367.81
583.719	342.81
583.929	342.81
584.139	350.81
584.35	339.81
584.56	343.81
584.77	346.81
584.981	325.81
585.191	331.81
585.401	335.81
585.611	341.81
585.821	350.81
586.032	333.81
586.242	348.81
586.452	337.81
586.662	331.81
586.872	313.81
587.082	331.81
587.292	314.81
587.502	308.81
587.713	313.81
587.923	318.81
588.133	332.81
588.343	311.81
588.553	338.81
588.762	322.81
588.972	335.81
589.182	322.81
589.392	336.81
589.602	328.81
589.812	314.81
590.022	308.81
590.232	323.81
590.441	330.81
590.651	316.81
590.861	326.81
591.071	329.81
591.281	325.81
591.49	329.81
591.7	322.81
591.91	328.81
592.119	325.81
592.329	314.81
592.539	317.81
592.748	316.81
592.958	337.81
593.167	317.81
593.377	320.81
593.587	334.81
593.796	342.81
594.006	356.81
594.215	331.81
594.424	330.81
594.634	326.81
594.843	340.81
595.053	318.81
595.262	334.81
595.472	322.81
595.681	303.81
595.89	315.81
596.1	318.81
596.309	315.81
596.518	323.81
596.727	306.81
596.937	294.81
597.146	313.81
597.355	319.81
597.564	297.81
597.774	307.81
597.983	307.81
598.192	307.81
598.401	293.81
598.61	295.81
598.819	289.81
599.028	303.81
599.237	279.81
599.446	308.81
599.655	297.81
599.864	305.81
600.073	277.81
600.282	289.81
600.491	276.81
600.7	308.81
600.909	287.81
601.118	285.81
601.327	292.81
601.536	290.81
601.745	287.81
601.953	273.81
602.162	278.81
602.371	295.81
602.58	278.81
602.789	295.81
602.997	299.81
603.206	294.81
603.415	292.81
603.623	268.81
603.832	271.81
604.041	258.81
604.249	292.81
604.458	272.81
604.666	262.81
604.875	277.81
605.084	271.81
605.292	273.81
605.501	267.81
605.709	272.81
605.918	270.81
606.126	299.81
606.334	273.81
606.543	297.81
606.751	279.81
606.96	287.81
607.168	272.81
607.376	262.81
607.585	277.81
607.793	282.81
608.001	278.81
608.21	281.81
608.418	244.81
608.626	262.81
608.834	285.81
609.043	274.81
609.251	282.81
609.459	280.81
609.667	287.81
609.875	268.81
610.083	260.81
610.291	267.81
610.499	278.81
610.707	287.81
610.916	285.81
611.124	280.81
611.332	271.81
611.54	284.81
611.748	261.81
611.955	266.81
612.163	267.81
612.371	278.81
612.579	248.81
612.787	267.81
612.995	285.81
613.203	268.81
613.411	268.81
613.618	279.81
613.826	258.81
614.034	268.81
614.242	272.81
614.449	273.81
614.657	272.81
614.865	255.81
615.072	269.81
615.28	268.81
615.488	278.81
615.695	272.81
615.903	266.81
616.111	253.81
616.318	258.81
616.526	251.81
616.733	262.81
616.941	269.81
617.148	263.81
617.356	267.81
617.563	236.81
617.771	268.81
617.978	265.81
618.185	251.81
618.393	242.81
618.6	260.81
618.807	245.81
619.015	292.81
619.222	263.81
619.429	261.81
619.637	243.81
619.844	254.81
620.051	268.81
620.258	260.81
620.466	233.81
620.673	242.81
620.88	252.81
621.087	255.81
621.294	244.81
621.501	245.81
621.708	247.81
621.915	264.81
622.122	267.81
622.329	243.81
622.536	239.81
622.743	254.81
622.95	247.81
623.157	236.81
623.364	260.81
623.571	239.81
623.778	244.81
623.985	249.81
624.192	259.81
624.399	223.81
624.606	245.81
624.812	248.81
625.019	229.81
625.226	222.81
625.433	227.81
625.639	222.81
625.846	222.81
626.053	244.81
626.259	224.81
626.466	233.81
626.673	230.81
626.879	246.81
627.086	234.81
627.293	242.81
627.499	235.81
627.706	231.81
627.912	212.81
628.119	222.81
628.325	227.81
628.532	215.81
628.738	223.81
628.945	230.81
629.151	216.81
629.357	218.81
629.564	206.81
629.77	217.81
629.976	237.81
630.183	214.81
630.389	219.81
630.595	227.81
630.802	213.81
631.008	211.81
631.214	200.81
631.42	236.81
631.627	206.81
631.833	190.81
632.039	197.81
632.245	209.81
632.451	227.81
632.657	228.81
632.863	221.81
633.069	211.81
633.275	207.81
633.481	218.81
633.688	194.81
633.893	203.81
634.099	210.81
634.305	208.81
634.511	204.81
634.717	206.81
634.923	214.81
635.129	207.81
635.335	186.81
635.541	182.81
635.747	216.81
635.952	216.81
636.158	182.81
636.364	187.81
636.57	199.81
636.775	198.81
636.981	191.81
637.187	208.81
637.392	168.81
637.598	197.81
637.804	191.81
638.009	190.81
638.215	180.81
638.421	193.81
638.626	178.81
638.832	201.81
639.037	181.81
639.243	194.81
639.448	180.81
639.654	180.81
639.859	185.81
640.065	179.81
640.27	207.81
640.475	192.81
640.681	209.81
640.886	178.81
641.091	180.81
641.297	181.81
641.502	201.81
641.707	201.81
641.913	196.81
642.118	177.81
642.323	174.81
642.528	188.81
642.733	189.81
642.939	178.81
643.144	170.81
643.349	190.81
643.554	186.81
643.759	181.81
643.964	171.81
644.169	182.81
644.374	175.81
644.579	178.81
644.784	174.81
644.989	196.81
645.194	192.81
645.399	188.81
645.604	181.81
645.809	173.81
646.014	175.81
646.219	179.81
646.423	188.81
646.628	186.81
646.833	180.81
647.038	180.81
647.243	173.81
647.447	180.81
647.652	188.81
647.857	189.81
648.062	182.81
648.266	165.81
648.471	182.81
648.676	191.81
648.88	184.81
649.085	183.81
649.289	183.81
649.494	184.81
649.698	207.81
649.903	189.81
650.107	188.81
650.312	161.81
650.516	168.81
650.721	159.81
650.925	167.81
651.13	162.81
651.334	173.81
651.539	164.81
651.743	163.81
651.947	161.81
652.152	162.81
652.356	153.81
652.56	142.81
652.764	137.81
652.969	138.81
653.173	157.81
653.377	140.81
653.581	124.81
653.785	136.81
653.99	148.81
654.194	131.81
654.398	164.81
654.602	132.81
654.806	147.81
655.01	133.81
655.214	147.81
655.418	131.81
655.622	131.81
655.826	130.81
656.03	126.81
656.234	123.81
656.438	138.81
656.642	144.81
656.846	137.81
657.049	128.81
657.253	125.81
657.457	130.81
657.661	126.81
657.865	105.81
658.068	130.81
658.272	122.81
658.476	109.81
658.68	110.81
658.883	99.81
659.087	87.81
659.291	109.81
659.494	96.81
659.698	109.81
659.901	104.81
660.105	101.81
660.309	103.81
660.512	79.81
660.716	94.81
660.919	90.81
661.123	111.81
661.326	86.81
661.53	93.81
661.733	100.81
661.936	94.81
662.14	88.81
662.343	81.81
662.546	89.81
662.75	95.81
662.953	89.81
663.156	77.81
663.36	85.81
663.563	80.81
663.766	91.81
663.969	79.81
664.173	86.81
664.376	85.81
664.579	73.81
664.782	86.81
664.985	76.81
665.188	92.81
665.391	81.81
665.594	78.81
665.797	81.81
666	84.81
666.203	74.81
666.406	92.81
666.609	76.81
666.812	80.81
667.015	90.81
667.218	92.81
667.421	78.81
667.624	79.81
667.827	83.81
668.03	90.81
668.232	90.81
668.435	80.81
668.638	77.81
668.841	83.81
669.043	87.81
669.246	77.81
669.449	96.81
669.651	84.81
669.854	76.81
670.057	83.81
670.259	80.81
670.462	88.81
670.665	75.81
670.867	87.81
671.07	88.81
671.272	74.81
671.475	80.81
671.677	93.81
671.88	91.81
672.082	90.81
672.284	76.81
672.487	77.81
672.689	64.81
672.892	73.81
