Data from 1970.PennyLincolnUp.Lamp.En5.5.200Scan.071719.P1._HRD10591_15-15-00-841.txt Node
Date: Thu Jul 18 15:15:00 EDT 2019
User: cochatt
Spectrometer: HR+D1059
Trigger mode: 1
Integration Time (sec): 1.000000E-1
Scans to average: 1
Electric dark correction enabled: true
Nonlinearity correction enabled: false
Boxcar width: 0
XAxis mode: Wavelengths
Number of Pixels in Spectrum: 2048
>>>>>Begin Spectral Data<<<<<
223.165	-17.19
223.4	-17.19
223.635	-17.19
223.869	-15.19
224.104	-19.19
224.338	-16.19
224.573	-17.19
224.808	5.81
225.042	0.81
225.277	-5.19
225.511	-7.19
225.746	-0.19
225.98	6.81
226.215	9.81
226.449	13.81
226.683	22.81
226.918	11.81
227.152	25.81
227.387	38.81
227.621	37.81
227.856	47.81
228.09	22.81
228.324	52.81
228.559	61.81
228.793	70.81
229.027	111.81
229.262	117.81
229.496	137.81
229.73	151.81
229.964	161.81
230.199	161.81
230.433	122.81
230.667	119.81
230.901	121.81
231.136	112.81
231.37	106.81
231.604	121.81
231.838	119.81
232.072	119.81
232.306	116.81
232.541	112.81
232.775	116.81
233.009	100.81
233.243	115.81
233.477	119.81
233.711	124.81
233.945	119.81
234.179	124.81
234.413	121.81
234.647	104.81
234.881	121.81
235.115	113.81
235.349	117.81
235.583	127.81
235.817	125.81
236.051	131.81
236.285	141.81
236.519	139.81
236.753	141.81
236.987	155.81
237.221	210.81
237.455	265.81
237.689	196.81
237.922	161.81
238.156	159.81
238.39	133.81
238.624	140.81
238.858	137.81
239.091	140.81
239.325	131.81
239.559	132.81
239.793	143.81
240.027	131.81
240.26	158.81
240.494	171.81
240.728	185.81
240.961	174.81
241.195	168.81
241.429	153.81
241.662	139.81
241.896	133.81
242.13	141.81
242.363	145.81
242.597	158.81
242.83	142.81
243.064	137.81
243.298	162.81
243.531	143.81
243.765	148.81
243.998	146.81
244.232	148.81
244.465	165.81
244.699	147.81
244.932	160.81
245.166	161.81
245.399	148.81
245.633	154.81
245.866	147.81
246.099	164.81
246.333	166.81
246.566	140.81
246.8	160.81
247.033	162.81
247.266	167.81
247.5	182.81
247.733	195.81
247.966	191.81
248.2	191.81
248.433	184.81
248.666	195.81
248.899	199.81
249.133	219.81
249.366	243.81
249.599	239.81
249.832	216.81
250.066	215.81
250.299	214.81
250.532	224.81
250.765	232.81
250.998	258.81
251.231	256.81
251.465	236.81
251.698	228.81
251.931	216.81
252.164	212.81
252.397	222.81
252.63	216.81
252.863	235.81
253.096	248.81
253.329	253.81
253.562	249.81
253.795	231.81
254.028	226.81
254.261	232.81
254.494	244.81
254.727	277.81
254.96	316.81
255.193	318.81
255.426	294.81
255.659	263.81
255.892	243.81
256.124	261.81
256.357	276.81
256.59	250.81
256.823	248.81
257.056	245.81
257.289	216.81
257.521	232.81
257.754	222.81
257.987	219.81
258.22	211.81
258.452	212.81
258.685	210.81
258.918	227.81
259.151	214.81
259.383	241.81
259.616	232.81
259.849	239.81
260.081	261.81
260.314	272.81
260.547	281.81
260.779	272.81
261.012	263.81
261.244	228.81
261.477	259.81
261.71	258.81
261.942	236.81
262.175	247.81
262.407	257.81
262.64	239.81
262.872	237.81
263.105	240.81
263.337	220.81
263.57	221.81
263.802	236.81
264.035	233.81
264.267	209.81
264.499	209.81
264.732	232.81
264.964	232.81
265.197	235.81
265.429	229.81
265.661	240.81
265.894	224.81
266.126	224.81
266.358	222.81
266.591	224.81
266.823	235.81
267.055	249.81
267.287	231.81
267.52	221.81
267.752	225.81
267.984	264.81
268.216	236.81
268.448	235.81
268.681	246.81
268.913	257.81
269.145	268.81
269.377	284.81
269.609	279.81
269.841	292.81
270.073	299.81
270.306	315.81
270.538	333.81
270.77	338.81
271.002	343.81
271.234	324.81
271.466	337.81
271.698	344.81
271.93	363.81
272.162	349.81
272.394	348.81
272.626	307.81
272.858	314.81
273.09	310.81
273.322	293.81
273.553	293.81
273.785	289.81
274.017	265.81
274.249	283.81
274.481	279.81
274.713	287.81
274.945	275.81
275.176	298.81
275.408	303.81
275.64	286.81
275.872	287.81
276.104	274.81
276.335	289.81
276.567	291.81
276.799	300.81
277.031	327.81
277.262	327.81
277.494	344.81
277.726	316.81
277.957	305.81
278.189	325.81
278.421	290.81
278.652	283.81
278.884	282.81
279.115	292.81
279.347	287.81
279.579	286.81
279.81	284.81
280.042	264.81
280.273	274.81
280.505	275.81
280.736	256.81
280.968	244.81
281.199	269.81
281.431	275.81
281.662	289.81
281.894	256.81
282.125	283.81
282.356	293.81
282.588	325.81
282.819	306.81
283.051	273.81
283.282	268.81
283.513	305.81
283.745	281.81
283.976	282.81
284.207	283.81
284.439	285.81
284.67	281.81
284.901	269.81
285.132	284.81
285.364	278.81
285.595	284.81
285.826	284.81
286.057	296.81
286.288	270.81
286.52	266.81
286.751	270.81
286.982	296.81
287.213	287.81
287.444	270.81
287.675	295.81
287.906	299.81
288.138	300.81
288.369	295.81
288.6	320.81
288.831	290.81
289.062	283.81
289.293	301.81
289.524	294.81
289.755	295.81
289.986	288.81
290.217	280.81
290.448	298.81
290.679	293.81
290.91	287.81
291.141	294.81
291.371	284.81
291.602	302.81
291.833	286.81
292.064	272.81
292.295	281.81
292.526	263.81
292.757	279.81
292.987	303.81
293.218	285.81
293.449	296.81
293.68	281.81
293.91	294.81
294.141	280.81
294.372	291.81
294.603	268.81
294.833	303.81
295.064	291.81
295.295	296.81
295.525	299.81
295.756	300.81
295.987	307.81
296.217	332.81
296.448	342.81
296.679	315.81
296.909	306.81
297.14	310.81
297.37	301.81
297.601	311.81
297.831	292.81
298.062	291.81
298.292	306.81
298.523	298.81
298.753	307.81
298.984	303.81
299.214	298.81
299.445	295.81
299.675	293.81
299.905	296.81
300.136	317.81
300.366	324.81
300.597	344.81
300.827	314.81
301.057	313.81
301.288	350.81
301.518	342.81
301.748	323.81
301.979	345.81
302.209	336.81
302.439	340.81
302.669	336.81
302.9	327.81
303.13	327.81
303.36	333.81
303.59	316.81
303.82	332.81
304.051	345.81
304.281	331.81
304.511	345.81
304.741	341.81
304.971	337.81
305.201	328.81
305.431	351.81
305.661	325.81
305.891	327.81
306.121	353.81
306.352	356.81
306.582	335.81
306.812	322.81
307.042	344.81
307.272	351.81
307.502	359.81
307.731	340.81
307.961	351.81
308.191	330.81
308.421	331.81
308.651	326.81
308.881	349.81
309.111	354.81
309.341	357.81
309.571	375.81
309.8	387.81
310.03	376.81
310.26	377.81
310.49	396.81
310.72	383.81
310.949	435.81
311.179	428.81
311.409	403.81
311.639	383.81
311.868	380.81
312.098	394.81
312.328	384.81
312.557	429.81
312.787	433.81
313.017	437.81
313.246	408.81
313.476	393.81
313.706	391.81
313.935	415.81
314.165	395.81
314.394	421.81
314.624	415.81
314.853	407.81
315.083	400.81
315.312	398.81
315.542	404.81
315.771	383.81
316.001	403.81
316.23	368.81
316.46	404.81
316.689	381.81
316.919	404.81
317.148	393.81
317.377	407.81
317.607	413.81
317.836	395.81
318.065	399.81
318.295	407.81
318.524	394.81
318.753	391.81
318.983	369.81
319.212	376.81
319.441	406.81
319.67	403.81
319.9	393.81
320.129	387.81
320.358	409.81
320.587	389.81
320.816	417.81
321.046	417.81
321.275	437.81
321.504	442.81
321.733	433.81
321.962	436.81
322.191	457.81
322.42	476.81
322.649	471.81
322.878	503.81
323.108	529.81
323.337	530.81
323.566	550.81
323.795	601.81
324.024	651.81
324.253	823.81
324.482	1140.81
324.71	1761.81
324.939	2503.81
325.168	2209.81
325.397	1156.81
325.626	788.81
325.855	647.81
326.084	577.81
326.313	553.81
326.542	569.81
326.77	608.81
326.999	712.81
327.228	1017.81
327.457	1539.81
327.686	1879.81
327.914	1279.81
328.143	880.81
328.372	755.81
328.6	680.81
328.829	631.81
329.058	672.81
329.287	665.81
329.515	613.81
329.744	590.81
329.972	570.81
330.201	600.81
330.43	653.81
330.658	671.81
330.887	699.81
331.115	666.81
331.344	598.81
331.572	539.81
331.801	550.81
332.03	544.81
332.258	521.81
332.486	476.81
332.715	457.81
332.943	485.81
333.172	467.81
333.4	465.81
333.629	482.81
333.857	500.81
334.085	525.81
334.314	548.81
334.542	588.81
334.771	602.81
334.999	530.81
335.227	490.81
335.455	476.81
335.684	471.81
335.912	480.81
336.14	447.81
336.369	451.81
336.597	460.81
336.825	482.81
337.053	459.81
337.281	456.81
337.51	472.81
337.738	452.81
337.966	458.81
338.194	451.81
338.422	446.81
338.65	460.81
338.878	450.81
339.106	463.81
339.334	434.81
339.562	454.81
339.79	437.81
340.018	464.81
340.246	449.81
340.474	448.81
340.702	458.81
340.93	470.81
341.158	463.81
341.386	444.81
341.614	438.81
341.842	467.81
342.07	441.81
342.298	428.81
342.526	448.81
342.754	434.81
342.981	439.81
343.209	420.81
343.437	426.81
343.665	427.81
343.893	439.81
344.12	431.81
344.348	445.81
344.576	456.81
344.804	460.81
345.031	443.81
345.259	480.81
345.487	466.81
345.714	469.81
345.942	445.81
346.17	443.81
346.397	457.81
346.625	444.81
346.853	441.81
347.08	446.81
347.308	433.81
347.535	474.81
347.763	462.81
347.99	481.81
348.218	462.81
348.445	482.81
348.673	480.81
348.9	456.81
349.128	450.81
349.355	429.81
349.583	451.81
349.81	419.81
350.037	417.81
350.265	424.81
350.492	438.81
350.72	449.81
350.947	451.81
351.174	443.81
351.402	468.81
351.629	448.81
351.856	447.81
352.083	455.81
352.311	470.81
352.538	484.81
352.765	511.81
352.992	469.81
353.22	472.81
353.447	438.81
353.674	427.81
353.901	434.81
354.128	411.81
354.355	429.81
354.583	430.81
354.81	410.81
355.037	425.81
355.264	427.81
355.491	418.81
355.718	409.81
355.945	428.81
356.172	414.81
356.399	400.81
356.626	425.81
356.853	401.81
357.08	408.81
357.307	418.81
357.534	410.81
357.761	420.81
357.988	407.81
358.215	436.81
358.441	415.81
358.668	431.81
358.895	432.81
359.122	438.81
359.349	439.81
359.576	463.81
359.802	479.81
360.029	522.81
360.256	540.81
360.483	511.81
360.709	481.81
360.936	464.81
361.163	465.81
361.39	465.81
361.616	455.81
361.843	471.81
362.07	467.81
362.296	472.81
362.523	452.81
362.749	456.81
362.976	453.81
363.203	454.81
363.429	440.81
363.656	441.81
363.882	426.81
364.109	432.81
364.335	434.81
364.562	429.81
364.788	412.81
365.015	429.81
365.241	434.81
365.468	418.81
365.694	456.81
365.92	471.81
366.147	463.81
366.373	444.81
366.599	445.81
366.826	439.81
367.052	427.81
367.278	445.81
367.505	436.81
367.731	429.81
367.957	435.81
368.184	419.81
368.41	433.81
368.636	470.81
368.862	479.81
369.089	465.81
369.315	421.81
369.541	411.81
369.767	429.81
369.993	423.81
370.219	438.81
370.445	440.81
370.672	417.81
370.898	429.81
371.124	428.81
371.35	436.81
371.576	435.81
371.802	414.81
372.028	439.81
372.254	403.81
372.48	422.81
372.706	426.81
372.932	443.81
373.158	444.81
373.384	435.81
373.61	413.81
373.835	441.81
374.061	422.81
374.287	435.81
374.513	428.81
374.739	426.81
374.965	443.81
375.191	447.81
375.416	461.81
375.642	442.81
375.868	431.81
376.094	426.81
376.319	433.81
376.545	433.81
376.771	424.81
376.997	430.81
377.222	435.81
377.448	430.81
377.674	421.81
377.899	440.81
378.125	433.81
378.35	403.81
378.576	427.81
378.802	438.81
379.027	435.81
379.253	433.81
379.478	439.81
379.704	432.81
379.929	415.81
380.155	429.81
380.38	456.81
380.606	440.81
380.831	430.81
381.057	427.81
381.282	445.81
381.507	425.81
381.733	431.81
381.958	432.81
382.184	437.81
382.409	452.81
382.634	438.81
382.86	450.81
383.085	435.81
383.31	459.81
383.535	455.81
383.761	436.81
383.986	450.81
384.211	424.81
384.436	467.81
384.662	449.81
384.887	471.81
385.112	461.81
385.337	445.81
385.562	444.81
385.787	458.81
386.013	486.81
386.238	485.81
386.463	475.81
386.688	461.81
386.913	472.81
387.138	472.81
387.363	441.81
387.588	467.81
387.813	447.81
388.038	461.81
388.263	442.81
388.488	454.81
388.713	484.81
388.938	479.81
389.163	459.81
389.387	480.81
389.612	461.81
389.837	472.81
390.062	454.81
390.287	465.81
390.512	460.81
390.736	474.81
390.961	481.81
391.186	449.81
391.411	471.81
391.636	456.81
391.86	457.81
392.085	481.81
392.31	477.81
392.534	479.81
392.759	484.81
392.984	466.81
393.208	479.81
393.433	463.81
393.658	480.81
393.882	464.81
394.107	460.81
394.331	495.81
394.556	463.81
394.78	492.81
395.005	471.81
395.229	467.81
395.454	473.81
395.678	497.81
395.903	514.81
396.127	529.81
396.352	513.81
396.576	474.81
396.801	509.81
397.025	504.81
397.249	505.81
397.474	512.81
397.698	484.81
397.922	521.81
398.147	525.81
398.371	520.81
398.595	542.81
398.82	503.81
399.044	523.81
399.268	533.81
399.492	549.81
399.717	599.81
399.941	635.81
400.165	662.81
400.389	629.81
400.613	604.81
400.837	569.81
401.062	566.81
401.286	545.81
401.51	548.81
401.734	543.81
401.958	561.81
402.182	555.81
402.406	559.81
402.63	565.81
402.854	539.81
403.078	537.81
403.302	543.81
403.526	560.81
403.75	552.81
403.974	563.81
404.198	546.81
404.422	553.81
404.645	568.81
404.869	585.81
405.093	597.81
405.317	647.81
405.541	665.81
405.765	635.81
405.988	624.81
406.212	620.81
406.436	667.81
406.66	673.81
406.883	624.81
407.107	639.81
407.331	662.81
407.555	719.81
407.778	752.81
408.002	705.81
408.226	653.81
408.449	627.81
408.673	618.81
408.896	676.81
409.12	712.81
409.344	679.81
409.567	610.81
409.791	581.81
410.014	582.81
410.238	572.81
410.461	579.81
410.685	568.81
410.908	611.81
411.132	616.81
411.355	669.81
411.578	653.81
411.802	579.81
412.025	570.81
412.249	603.81
412.472	614.81
412.695	660.81
412.919	638.81
413.142	603.81
413.365	555.81
413.589	576.81
413.812	568.81
414.035	560.81
414.258	570.81
414.482	539.81
414.705	539.81
414.928	508.81
415.151	551.81
415.374	563.81
415.597	531.81
415.821	535.81
416.044	542.81
416.267	533.81
416.49	548.81
416.713	538.81
416.936	541.81
417.159	522.81
417.382	545.81
417.605	553.81
417.828	552.81
418.051	567.81
418.274	553.81
418.497	554.81
418.72	552.81
418.943	531.81
419.166	539.81
419.389	580.81
419.611	586.81
419.834	568.81
420.057	589.81
420.28	584.81
420.503	579.81
420.726	589.81
420.948	593.81
421.171	627.81
421.394	661.81
421.617	601.81
421.839	557.81
422.062	566.81
422.285	581.81
422.507	649.81
422.73	738.81
422.953	708.81
423.175	641.81
423.398	632.81
423.621	615.81
423.843	644.81
424.066	614.81
424.288	606.81
424.511	637.81
424.733	713.81
424.956	800.81
425.178	795.81
425.401	758.81
425.623	783.81
425.846	667.81
426.068	665.81
426.291	633.81
426.513	648.81
426.735	643.81
426.958	695.81
427.18	797.81
427.402	915.81
427.625	1004.81
427.847	910.81
428.069	797.81
428.292	721.81
428.514	659.81
428.736	618.81
428.958	626.81
429.181	593.81
429.403	587.81
429.625	591.81
429.847	644.81
430.069	705.81
430.292	715.81
430.514	637.81
430.736	604.81
430.958	581.81
431.18	563.81
431.402	543.81
431.624	548.81
431.846	553.81
432.068	536.81
432.29	563.81
432.512	541.81
432.734	546.81
432.956	563.81
433.178	573.81
433.4	588.81
433.622	552.81
433.844	573.81
434.066	557.81
434.287	562.81
434.509	555.81
434.731	574.81
434.953	562.81
435.175	575.81
435.397	633.81
435.618	634.81
435.84	701.81
436.062	791.81
436.284	860.81
436.505	745.81
436.727	667.81
436.949	597.81
437.17	618.81
437.392	613.81
437.614	600.81
437.835	644.81
438.057	748.81
438.278	875.81
438.5	862.81
438.721	939.81
438.943	893.81
439.165	730.81
439.386	678.81
439.608	677.81
439.829	671.81
440.05	691.81
440.272	744.81
440.493	712.81
440.715	643.81
440.936	597.81
441.158	598.81
441.379	591.81
441.6	609.81
441.822	626.81
442.043	662.81
442.264	778.81
442.486	835.81
442.707	681.81
442.928	657.81
443.149	663.81
443.371	699.81
443.592	732.81
443.813	827.81
444.034	876.81
444.255	751.81
444.476	683.81
444.698	645.81
444.919	640.81
445.14	741.81
445.361	672.81
445.582	698.81
445.803	781.81
446.024	867.81
446.245	885.81
446.466	815.81
446.687	701.81
446.908	650.81
447.129	616.81
447.35	617.81
447.571	593.81
447.792	592.81
448.013	582.81
448.234	628.81
448.455	687.81
448.675	809.81
448.896	953.81
449.117	806.81
449.338	751.81
449.559	885.81
449.779	959.81
450	801.81
450.221	653.81
450.442	591.81
450.662	586.81
450.883	597.81
451.104	627.81
451.324	618.81
451.545	580.81
451.766	559.81
451.986	560.81
452.207	552.81
452.428	527.81
452.648	519.81
452.869	535.81
453.089	525.81
453.31	578.81
453.53	526.81
453.751	527.81
453.971	556.81
454.192	550.81
454.412	528.81
454.633	547.81
454.853	530.81
455.073	528.81
455.294	559.81
455.514	634.81
455.734	625.81
455.955	527.81
456.175	505.81
456.395	507.81
456.616	503.81
456.836	515.81
457.056	491.81
457.276	486.81
457.497	499.81
457.717	497.81
457.937	485.81
458.157	520.81
458.377	511.81
458.598	552.81
458.818	604.81
459.038	723.81
459.258	714.81
459.478	591.81
459.698	588.81
459.918	549.81
460.138	542.81
460.358	554.81
460.578	531.81
460.798	557.81
461.018	544.81
461.238	551.81
461.458	522.81
461.678	533.81
461.898	550.81
462.118	543.81
462.338	576.81
462.558	565.81
462.777	568.81
462.997	574.81
463.217	601.81
463.437	563.81
463.657	556.81
463.876	576.81
464.096	559.81
464.316	583.81
464.536	606.81
464.755	598.81
464.975	601.81
465.195	642.81
465.414	755.81
465.634	661.81
465.854	631.81
466.073	587.81
466.293	571.81
466.512	534.81
466.732	525.81
466.951	531.81
467.171	541.81
467.391	535.81
467.61	559.81
467.829	565.81
468.049	576.81
468.268	580.81
468.488	521.81
468.707	533.81
468.927	523.81
469.146	531.81
469.365	523.81
469.585	519.81
469.804	525.81
470.023	562.81
470.243	570.81
470.462	553.81
470.681	583.81
470.901	581.81
471.12	556.81
471.339	567.81
471.558	544.81
471.777	533.81
471.997	533.81
472.216	562.81
472.435	603.81
472.654	605.81
472.873	556.81
473.092	543.81
473.311	558.81
473.53	548.81
473.749	579.81
473.968	612.81
474.187	756.81
474.406	762.81
474.625	627.81
474.844	580.81
475.063	549.81
475.282	549.81
475.501	586.81
475.72	577.81
475.939	536.81
476.158	598.81
476.377	543.81
476.596	554.81
476.814	544.81
477.033	590.81
477.252	600.81
477.471	595.81
477.69	594.81
477.908	594.81
478.127	603.81
478.346	608.81
478.564	599.81
478.783	600.81
479.002	635.81
479.22	597.81
479.439	642.81
479.658	649.81
479.876	667.81
480.095	678.81
480.313	718.81
480.532	697.81
480.751	685.81
480.969	695.81
481.188	777.81
481.406	835.81
481.624	717.81
481.843	697.81
482.061	697.81
482.28	662.81
482.498	655.81
482.717	629.81
482.935	654.81
483.153	671.81
483.372	654.81
483.59	688.81
483.808	659.81
484.027	651.81
484.245	653.81
484.463	673.81
484.681	663.81
484.9	683.81
485.118	675.81
485.336	679.81
485.554	683.81
485.772	681.81
485.99	678.81
486.209	703.81
486.427	716.81
486.645	705.81
486.863	734.81
487.081	700.81
487.299	755.81
487.517	710.81
487.735	723.81
487.953	732.81
488.171	749.81
488.389	708.81
488.607	703.81
488.825	704.81
489.043	714.81
489.261	713.81
489.479	744.81
489.696	719.81
489.914	762.81
490.132	767.81
490.35	736.81
490.568	799.81
490.786	780.81
491.003	785.81
491.221	795.81
491.439	834.81
491.657	813.81
491.874	850.81
492.092	851.81
492.31	836.81
492.527	872.81
492.745	871.81
492.963	868.81
493.18	875.81
493.398	864.81
493.615	902.81
493.833	883.81
494.05	869.81
494.268	841.81
494.485	865.81
494.703	851.81
494.92	876.81
495.138	858.81
495.355	867.81
495.573	875.81
495.79	864.81
496.008	858.81
496.225	823.81
496.442	861.81
496.66	870.81
496.877	866.81
497.094	859.81
497.312	870.81
497.529	886.81
497.746	885.81
497.963	908.81
498.181	934.81
498.398	945.81
498.615	938.81
498.832	956.81
499.049	935.81
499.267	959.81
499.484	988.81
499.701	996.81
499.918	1020.81
500.135	1033.81
500.352	1079.81
500.569	1108.81
500.786	1095.81
501.003	1087.81
501.22	1066.81
501.437	1081.81
501.654	1033.81
501.871	1023.81
502.088	996.81
502.305	995.81
502.522	945.81
502.739	935.81
502.956	931.81
503.172	881.81
503.389	884.81
503.606	869.81
503.823	883.81
504.04	873.81
504.256	879.81
504.473	851.81
504.69	831.81
504.907	853.81
505.123	831.81
505.34	831.81
505.557	812.81
505.773	837.81
505.99	842.81
506.207	845.81
506.423	820.81
506.64	832.81
506.856	833.81
507.073	810.81
507.289	813.81
507.506	796.81
507.722	824.81
507.939	853.81
508.155	843.81
508.372	803.81
508.588	795.81
508.805	775.81
509.021	816.81
509.238	821.81
509.454	806.81
509.67	795.81
509.887	795.81
510.103	790.81
510.319	828.81
510.536	917.81
510.752	1506.81
510.968	1271.81
511.184	867.81
511.401	800.81
511.617	796.81
511.833	757.81
512.049	722.81
512.265	733.81
512.481	736.81
512.698	769.81
512.914	771.81
513.13	765.81
513.346	730.81
513.562	739.81
513.778	782.81
513.994	766.81
514.21	783.81
514.426	819.81
514.642	839.81
514.858	893.81
515.074	959.81
515.29	1148.81
515.506	1695.81
515.721	1379.81
515.937	956.81
516.153	851.81
516.369	796.81
516.585	800.81
516.801	775.81
517.016	753.81
517.232	779.81
517.448	768.81
517.664	782.81
517.879	738.81
518.095	783.81
518.311	775.81
518.527	758.81
518.742	739.81
518.958	738.81
519.173	744.81
519.389	755.81
519.605	758.81
519.82	767.81
520.036	755.81
520.251	784.81
520.467	864.81
520.682	844.81
520.898	850.81
521.113	872.81
521.329	955.81
521.544	1052.81
521.76	1320.81
521.975	2235.81
522.19	2201.81
522.406	1228.81
522.621	895.81
522.836	767.81
523.052	764.81
523.267	752.81
523.482	711.81
523.698	737.81
523.913	707.81
524.128	685.81
524.343	678.81
524.559	683.81
524.774	646.81
524.989	657.81
525.204	667.81
525.419	672.81
525.634	641.81
525.849	635.81
526.064	631.81
526.28	604.81
526.495	608.81
526.71	635.81
526.925	615.81
527.14	613.81
527.355	640.81
527.57	601.81
527.785	591.81
527.999	595.81
528.214	598.81
528.429	622.81
528.644	599.81
528.859	627.81
529.074	614.81
529.289	651.81
529.503	775.81
529.718	728.81
529.933	654.81
530.148	638.81
530.363	637.81
530.577	616.81
530.792	593.81
531.007	591.81
531.221	585.81
531.436	579.81
531.651	595.81
531.865	573.81
532.08	576.81
532.295	567.81
532.509	573.81
532.724	582.81
532.938	574.81
533.153	590.81
533.367	572.81
533.582	587.81
533.796	585.81
534.011	581.81
534.225	577.81
534.44	563.81
534.654	568.81
534.868	563.81
535.083	539.81
535.297	563.81
535.511	559.81
535.726	563.81
535.94	587.81
536.154	571.81
536.369	551.81
536.583	549.81
536.797	559.81
537.011	546.81
537.225	542.81
537.44	554.81
537.654	544.81
537.868	563.81
538.082	533.81
538.296	543.81
538.51	548.81
538.724	539.81
538.938	541.81
539.153	556.81
539.367	582.81
539.581	557.81
539.795	568.81
540.009	561.81
540.222	547.81
540.436	569.81
540.65	550.81
540.864	551.81
541.078	566.81
541.292	549.81
541.506	559.81
541.72	581.81
541.934	569.81
542.147	561.81
542.361	543.81
542.575	525.81
542.789	560.81
543.002	545.81
543.216	557.81
543.43	549.81
543.644	570.81
543.857	553.81
544.071	551.81
544.285	567.81
544.498	531.81
544.712	545.81
544.925	545.81
545.139	540.81
545.352	523.81
545.566	508.81
545.779	520.81
545.993	537.81
546.206	527.81
546.42	539.81
546.633	525.81
546.847	522.81
547.06	516.81
547.274	535.81
547.487	492.81
547.7	515.81
547.914	537.81
548.127	527.81
548.34	514.81
548.554	508.81
548.767	519.81
548.98	518.81
549.193	507.81
549.407	527.81
549.62	519.81
549.833	511.81
550.046	501.81
550.259	495.81
550.473	514.81
550.686	497.81
550.899	492.81
551.112	517.81
551.325	507.81
551.538	475.81
551.751	489.81
551.964	505.81
552.177	515.81
552.39	497.81
552.603	513.81
552.816	516.81
553.029	488.81
553.242	501.81
553.455	531.81
553.667	524.81
553.88	527.81
554.093	539.81
554.306	520.81
554.519	519.81
554.732	501.81
554.944	523.81
555.157	507.81
555.37	490.81
555.583	499.81
555.795	504.81
556.008	479.81
556.221	459.81
556.433	466.81
556.646	463.81
556.859	461.81
557.071	480.81
557.284	471.81
557.496	465.81
557.709	447.81
557.921	458.81
558.134	464.81
558.346	465.81
558.559	471.81
558.771	459.81
558.984	468.81
559.196	458.81
559.409	480.81
559.621	481.81
559.833	458.81
560.046	460.81
560.258	453.81
560.47	460.81
560.683	464.81
560.895	470.81
561.107	468.81
561.32	462.81
561.532	453.81
561.744	453.81
561.956	461.81
562.168	465.81
562.381	435.81
562.593	458.81
562.805	433.81
563.017	461.81
563.229	450.81
563.441	464.81
563.653	462.81
563.865	442.81
564.077	473.81
564.289	441.81
564.501	475.81
564.713	475.81
564.925	469.81
565.137	475.81
565.349	484.81
565.561	484.81
565.773	493.81
565.985	488.81
566.197	487.81
566.408	497.81
566.62	511.81
566.832	506.81
567.044	531.81
567.255	521.81
567.467	524.81
567.679	518.81
567.891	533.81
568.102	524.81
568.314	517.81
568.526	506.81
568.737	514.81
568.949	485.81
569.161	472.81
569.372	441.81
569.584	447.81
569.795	480.81
570.007	455.81
570.218	525.81
570.43	497.81
570.641	450.81
570.853	454.81
571.064	425.81
571.276	409.81
571.487	409.81
571.698	427.81
571.91	411.81
572.121	422.81
572.333	426.81
572.544	415.81
572.755	404.81
572.966	396.81
573.178	413.81
573.389	392.81
573.6	421.81
573.811	380.81
574.023	392.81
574.234	384.81
574.445	381.81
574.656	388.81
574.867	397.81
575.078	388.81
575.289	404.81
575.501	379.81
575.712	370.81
575.923	386.81
576.134	389.81
576.345	377.81
576.556	373.81
576.767	385.81
576.978	377.81
577.188	398.81
577.399	357.81
577.61	354.81
577.821	371.81
578.032	383.81
578.243	419.81
578.454	707.81
578.665	515.81
578.875	384.81
579.086	364.81
579.297	369.81
579.508	371.81
579.718	368.81
579.929	370.81
580.14	354.81
580.35	358.81
580.561	364.81
580.772	345.81
580.982	341.81
581.193	353.81
581.403	337.81
581.614	374.81
581.825	361.81
582.035	361.81
582.246	354.81
582.456	348.81
582.667	341.81
582.877	333.81
583.087	358.81
583.298	359.81
583.508	336.81
583.719	354.81
583.929	344.81
584.139	345.81
584.35	355.81
584.56	332.81
584.77	328.81
584.981	357.81
585.191	348.81
585.401	345.81
585.611	339.81
585.821	346.81
586.032	361.81
586.242	326.81
586.452	366.81
586.662	338.81
586.872	318.81
587.082	343.81
587.292	329.81
587.502	347.81
587.713	305.81
587.923	309.81
588.133	320.81
588.343	325.81
588.553	335.81
588.762	330.81
588.972	335.81
589.182	330.81
589.392	352.81
589.602	355.81
589.812	332.81
590.022	338.81
590.232	335.81
590.441	326.81
590.651	354.81
590.861	323.81
591.071	337.81
591.281	331.81
591.49	327.81
591.7	324.81
591.91	322.81
592.119	332.81
592.329	324.81
592.539	344.81
592.748	346.81
592.958	363.81
593.167	338.81
593.377	337.81
593.587	341.81
593.796	331.81
594.006	332.81
594.215	341.81
594.424	346.81
594.634	352.81
594.843	330.81
595.053	325.81
595.262	327.81
595.472	324.81
595.681	314.81
595.89	316.81
596.1	319.81
596.309	300.81
596.518	322.81
596.727	308.81
596.937	312.81
597.146	323.81
597.355	309.81
597.564	310.81
597.774	309.81
597.983	312.81
598.192	307.81
598.401	306.81
598.61	317.81
598.819	317.81
599.028	307.81
599.237	321.81
599.446	289.81
599.655	303.81
599.864	298.81
600.073	293.81
600.282	303.81
600.491	307.81
600.7	265.81
600.909	276.81
601.118	289.81
601.327	286.81
601.536	293.81
601.745	296.81
601.953	265.81
602.162	313.81
602.371	305.81
602.58	296.81
602.789	295.81
602.997	281.81
603.206	297.81
603.415	279.81
603.623	281.81
603.832	293.81
604.041	278.81
604.249	264.81
604.458	298.81
604.666	278.81
604.875	279.81
605.084	265.81
605.292	278.81
605.501	252.81
605.709	275.81
605.918	280.81
606.126	283.81
606.334	276.81
606.543	279.81
606.751	296.81
606.96	263.81
607.168	275.81
607.376	286.81
607.585	292.81
607.793	297.81
608.001	275.81
608.21	270.81
608.418	288.81
608.626	289.81
608.834	297.81
609.043	283.81
609.251	272.81
609.459	297.81
609.667	303.81
609.875	275.81
610.083	280.81
610.291	272.81
610.499	282.81
610.707	282.81
610.916	280.81
611.124	284.81
611.332	274.81
611.54	274.81
611.748	285.81
611.955	292.81
612.163	268.81
612.371	268.81
612.579	280.81
612.787	281.81
612.995	281.81
613.203	280.81
613.411	280.81
613.618	264.81
613.826	259.81
614.034	273.81
614.242	262.81
614.449	259.81
614.657	282.81
614.865	263.81
615.072	275.81
615.28	266.81
615.488	253.81
615.695	283.81
615.903	262.81
616.111	254.81
616.318	272.81
616.526	268.81
616.733	259.81
616.941	264.81
617.148	282.81
617.356	246.81
617.563	274.81
617.771	261.81
617.978	257.81
618.185	252.81
618.393	258.81
618.6	265.81
618.807	255.81
619.015	255.81
619.222	255.81
619.429	242.81
619.637	264.81
619.844	257.81
620.051	265.81
620.258	263.81
620.466	263.81
620.673	234.81
620.88	245.81
621.087	248.81
621.294	255.81
621.501	243.81
621.708	246.81
621.915	255.81
622.122	241.81
622.329	240.81
622.536	260.81
622.743	252.81
622.95	259.81
623.157	235.81
623.364	245.81
623.571	223.81
623.778	233.81
623.985	244.81
624.192	234.81
624.399	241.81
624.606	236.81
624.812	233.81
625.019	244.81
625.226	226.81
625.433	246.81
625.639	241.81
625.846	225.81
626.053	224.81
626.259	242.81
626.466	220.81
626.673	251.81
626.879	234.81
627.086	227.81
627.293	221.81
627.499	240.81
627.706	229.81
627.912	235.81
628.119	220.81
628.325	233.81
628.532	225.81
628.738	219.81
628.945	218.81
629.151	230.81
629.357	223.81
629.564	213.81
629.77	217.81
629.976	216.81
630.183	239.81
630.389	228.81
630.595	213.81
630.802	217.81
631.008	212.81
631.214	220.81
631.42	204.81
631.627	219.81
631.833	213.81
632.039	222.81
632.245	195.81
632.451	204.81
632.657	229.81
632.863	213.81
633.069	209.81
633.275	212.81
633.481	206.81
633.688	205.81
633.893	204.81
634.099	216.81
634.305	217.81
634.511	213.81
634.717	197.81
634.923	202.81
635.129	205.81
635.335	202.81
635.541	214.81
635.747	204.81
635.952	200.81
636.158	206.81
636.364	204.81
636.57	186.81
636.775	204.81
636.981	198.81
637.187	209.81
637.392	193.81
637.598	189.81
637.804	199.81
638.009	209.81
638.215	201.81
638.421	203.81
638.626	197.81
638.832	179.81
639.037	181.81
639.243	187.81
639.448	195.81
639.654	206.81
639.859	197.81
640.065	179.81
640.27	182.81
640.475	200.81
640.681	198.81
640.886	187.81
641.091	191.81
641.297	200.81
641.502	177.81
641.707	197.81
641.913	211.81
642.118	169.81
642.323	196.81
642.528	209.81
642.733	191.81
642.939	179.81
643.144	180.81
643.349	169.81
643.554	171.81
643.759	192.81
643.964	201.81
644.169	173.81
644.374	172.81
644.579	191.81
644.784	176.81
644.989	186.81
645.194	175.81
645.399	173.81
645.604	179.81
645.809	173.81
646.014	181.81
646.219	202.81
646.423	177.81
646.628	167.81
646.833	192.81
647.038	159.81
647.243	181.81
647.447	185.81
647.652	188.81
647.857	172.81
648.062	177.81
648.266	167.81
648.471	191.81
648.676	185.81
648.88	179.81
649.085	183.81
649.289	184.81
649.494	189.81
649.698	199.81
649.903	206.81
650.107	175.81
650.312	163.81
650.516	159.81
650.721	169.81
650.925	160.81
651.13	153.81
651.334	145.81
651.539	162.81
651.743	164.81
651.947	147.81
652.152	147.81
652.356	153.81
652.56	144.81
652.764	141.81
652.969	149.81
653.173	145.81
653.377	147.81
653.581	160.81
653.785	149.81
653.99	131.81
654.194	142.81
654.398	147.81
654.602	140.81
654.806	133.81
655.01	134.81
655.214	142.81
655.418	141.81
655.622	127.81
655.826	141.81
656.03	142.81
656.234	138.81
656.438	141.81
656.642	139.81
656.846	133.81
657.049	130.81
657.253	132.81
657.457	117.81
657.661	119.81
657.865	112.81
658.068	123.81
658.272	121.81
658.476	98.81
658.68	110.81
658.883	109.81
659.087	106.81
659.291	103.81
659.494	106.81
659.698	104.81
659.901	108.81
660.105	104.81
660.309	99.81
660.512	76.81
660.716	93.81
660.919	82.81
661.123	74.81
661.326	86.81
661.53	80.81
661.733	93.81
661.936	92.81
662.14	89.81
662.343	88.81
662.546	88.81
662.75	80.81
662.953	81.81
663.156	82.81
663.36	89.81
663.563	80.81
663.766	80.81
663.969	76.81
664.173	86.81
664.376	83.81
664.579	77.81
664.782	87.81
664.985	87.81
665.188	70.81
665.391	76.81
665.594	85.81
665.797	88.81
666	83.81
666.203	89.81
666.406	77.81
666.609	74.81
666.812	89.81
667.015	89.81
667.218	98.81
667.421	78.81
667.624	72.81
667.827	63.81
668.03	64.81
668.232	76.81
668.435	81.81
668.638	81.81
668.841	74.81
669.043	70.81
669.246	64.81
669.449	73.81
669.651	81.81
669.854	76.81
670.057	94.81
670.259	77.81
670.462	64.81
670.665	73.81
670.867	87.81
671.07	78.81
671.272	78.81
671.475	79.81
671.677	84.81
671.88	69.81
672.082	67.81
672.284	71.81
672.487	75.81
672.689	84.81
672.892	79.81
