Data from 1970.PennyLincolnUp.Lamp.En5.5.200Scan.071719.P1._HRD10591_15-14-58-842.txt Node
Date: Thu Jul 18 15:14:58 EDT 2019
User: cochatt
Spectrometer: HR+D1059
Trigger mode: 1
Integration Time (sec): 1.000000E-1
Scans to average: 1
Electric dark correction enabled: true
Nonlinearity correction enabled: false
Boxcar width: 0
XAxis mode: Wavelengths
Number of Pixels in Spectrum: 2048
>>>>>Begin Spectral Data<<<<<
223.165	-15.19
223.4	-15.19
223.635	-15.19
223.869	-16.19
224.104	-6.19
224.338	-5.19
224.573	-11.19
224.808	-8.19
225.042	-22.19
225.277	-11.19
225.511	-1.19
225.746	1.81
225.98	-0.19
226.215	7.81
226.449	6.81
226.683	19.81
226.918	28.81
227.152	31.81
227.387	30.81
227.621	46.81
227.856	40.81
228.09	41.81
228.324	46.81
228.559	42.81
228.793	68.81
229.027	105.81
229.262	122.81
229.496	125.81
229.73	142.81
229.964	200.81
230.199	152.81
230.433	119.81
230.667	122.81
230.901	114.81
231.136	110.81
231.37	102.81
231.604	130.81
231.838	118.81
232.072	119.81
232.306	108.81
232.541	110.81
232.775	128.81
233.009	125.81
233.243	123.81
233.477	125.81
233.711	118.81
233.945	129.81
234.179	124.81
234.413	100.81
234.647	122.81
234.881	114.81
235.115	130.81
235.349	114.81
235.583	125.81
235.817	121.81
236.051	124.81
236.285	139.81
236.519	124.81
236.753	146.81
236.987	157.81
237.221	210.81
237.455	263.81
237.689	206.81
237.922	148.81
238.156	153.81
238.39	143.81
238.624	125.81
238.858	131.81
239.091	141.81
239.325	112.81
239.559	124.81
239.793	126.81
240.027	124.81
240.26	144.81
240.494	168.81
240.728	145.81
240.961	158.81
241.195	161.81
241.429	141.81
241.662	139.81
241.896	144.81
242.13	138.81
242.363	132.81
242.597	138.81
242.83	169.81
243.064	143.81
243.298	140.81
243.531	151.81
243.765	139.81
243.998	133.81
244.232	161.81
244.465	158.81
244.699	158.81
244.932	151.81
245.166	150.81
245.399	146.81
245.633	151.81
245.866	149.81
246.099	169.81
246.333	149.81
246.566	156.81
246.8	186.81
247.033	159.81
247.266	165.81
247.5	166.81
247.733	187.81
247.966	188.81
248.2	182.81
248.433	181.81
248.666	193.81
248.899	204.81
249.133	229.81
249.366	227.81
249.599	236.81
249.832	195.81
250.066	198.81
250.299	204.81
250.532	211.81
250.765	232.81
250.998	228.81
251.231	243.81
251.465	252.81
251.698	253.81
251.931	205.81
252.164	219.81
252.397	224.81
252.63	226.81
252.863	231.81
253.096	243.81
253.329	254.81
253.562	263.81
253.795	256.81
254.028	223.81
254.261	234.81
254.494	259.81
254.727	293.81
254.96	327.81
255.193	323.81
255.426	272.81
255.659	258.81
255.892	270.81
256.124	244.81
256.357	267.81
256.59	250.81
256.823	240.81
257.056	224.81
257.289	216.81
257.521	223.81
257.754	225.81
257.987	219.81
258.22	231.81
258.452	225.81
258.685	216.81
258.918	233.81
259.151	229.81
259.383	233.81
259.616	252.81
259.849	246.81
260.081	260.81
260.314	287.81
260.547	290.81
260.779	275.81
261.012	261.81
261.244	252.81
261.477	238.81
261.71	250.81
261.942	235.81
262.175	259.81
262.407	254.81
262.64	231.81
262.872	228.81
263.105	230.81
263.337	220.81
263.57	211.81
263.802	216.81
264.035	225.81
264.267	217.81
264.499	210.81
264.732	216.81
264.964	214.81
265.197	213.81
265.429	238.81
265.661	223.81
265.894	215.81
266.126	220.81
266.358	228.81
266.591	208.81
266.823	225.81
267.055	236.81
267.287	226.81
267.52	219.81
267.752	234.81
267.984	232.81
268.216	239.81
268.448	235.81
268.681	243.81
268.913	239.81
269.145	269.81
269.377	292.81
269.609	298.81
269.841	285.81
270.073	268.81
270.306	290.81
270.538	341.81
270.77	328.81
271.002	312.81
271.234	310.81
271.466	313.81
271.698	329.81
271.93	332.81
272.162	334.81
272.394	328.81
272.626	324.81
272.858	320.81
273.09	299.81
273.322	305.81
273.553	293.81
273.785	264.81
274.017	272.81
274.249	265.81
274.481	261.81
274.713	281.81
274.945	278.81
275.176	265.81
275.408	267.81
275.64	286.81
275.872	267.81
276.104	264.81
276.335	273.81
276.567	262.81
276.799	288.81
277.031	321.81
277.262	343.81
277.494	328.81
277.726	332.81
277.957	310.81
278.189	271.81
278.421	279.81
278.652	266.81
278.884	260.81
279.115	278.81
279.347	268.81
279.579	272.81
279.81	276.81
280.042	258.81
280.273	271.81
280.505	283.81
280.736	264.81
280.968	261.81
281.199	269.81
281.431	273.81
281.662	274.81
281.894	266.81
282.125	281.81
282.356	291.81
282.588	303.81
282.819	318.81
283.051	280.81
283.282	267.81
283.513	256.81
283.745	278.81
283.976	277.81
284.207	280.81
284.439	275.81
284.67	278.81
284.901	285.81
285.132	286.81
285.364	263.81
285.595	276.81
285.826	283.81
286.057	274.81
286.288	264.81
286.52	288.81
286.751	286.81
286.982	282.81
287.213	291.81
287.444	294.81
287.675	292.81
287.906	315.81
288.138	276.81
288.369	310.81
288.6	288.81
288.831	284.81
289.062	289.81
289.293	278.81
289.524	302.81
289.755	288.81
289.986	275.81
290.217	276.81
290.448	277.81
290.679	292.81
290.91	291.81
291.141	286.81
291.371	271.81
291.602	300.81
291.833	284.81
292.064	281.81
292.295	293.81
292.526	280.81
292.757	282.81
292.987	272.81
293.218	299.81
293.449	286.81
293.68	294.81
293.91	296.81
294.141	289.81
294.372	282.81
294.603	278.81
294.833	294.81
295.064	291.81
295.295	299.81
295.525	272.81
295.756	293.81
295.987	291.81
296.217	341.81
296.448	323.81
296.679	298.81
296.909	294.81
297.14	284.81
297.37	294.81
297.601	305.81
297.831	295.81
298.062	292.81
298.292	318.81
298.523	284.81
298.753	271.81
298.984	290.81
299.214	289.81
299.445	303.81
299.675	291.81
299.905	326.81
300.136	313.81
300.366	307.81
300.597	289.81
300.827	303.81
301.057	315.81
301.288	322.81
301.518	310.81
301.748	326.81
301.979	318.81
302.209	320.81
302.439	302.81
302.669	307.81
302.9	339.81
303.13	316.81
303.36	322.81
303.59	314.81
303.82	329.81
304.051	347.81
304.281	315.81
304.511	334.81
304.741	306.81
304.971	291.81
305.201	321.81
305.431	326.81
305.661	327.81
305.891	320.81
306.121	342.81
306.352	339.81
306.582	327.81
306.812	339.81
307.042	334.81
307.272	328.81
307.502	310.81
307.731	328.81
307.961	329.81
308.191	327.81
308.421	333.81
308.651	328.81
308.881	316.81
309.111	328.81
309.341	340.81
309.571	352.81
309.8	363.81
310.03	354.81
310.26	390.81
310.49	382.81
310.72	386.81
310.949	419.81
311.179	400.81
311.409	384.81
311.639	373.81
311.868	385.81
312.098	392.81
312.328	388.81
312.557	401.81
312.787	417.81
313.017	422.81
313.246	396.81
313.476	387.81
313.706	360.81
313.935	390.81
314.165	398.81
314.394	406.81
314.624	411.81
314.853	400.81
315.083	409.81
315.312	399.81
315.542	361.81
315.771	386.81
316.001	377.81
316.23	384.81
316.46	388.81
316.689	397.81
316.919	376.81
317.148	399.81
317.377	413.81
317.607	394.81
317.836	411.81
318.065	401.81
318.295	379.81
318.524	400.81
318.753	393.81
318.983	378.81
319.212	362.81
319.441	379.81
319.67	387.81
319.9	396.81
320.129	385.81
320.358	369.81
320.587	368.81
320.816	392.81
321.046	411.81
321.275	420.81
321.504	402.81
321.733	394.81
321.962	434.81
322.191	437.81
322.42	447.81
322.649	469.81
322.878	469.81
323.108	482.81
323.337	522.81
323.566	545.81
323.795	577.81
324.024	650.81
324.253	801.81
324.482	1133.81
324.71	1756.81
324.939	2467.81
325.168	2123.81
325.397	1147.81
325.626	753.81
325.855	631.81
326.084	582.81
326.313	549.81
326.542	543.81
326.77	623.81
326.999	734.81
327.228	995.81
327.457	1537.81
327.686	1868.81
327.914	1248.81
328.143	825.81
328.372	712.81
328.6	681.81
328.829	660.81
329.058	659.81
329.287	659.81
329.515	601.81
329.744	574.81
329.972	553.81
330.201	576.81
330.43	632.81
330.658	660.81
330.887	690.81
331.115	668.81
331.344	574.81
331.572	536.81
331.801	539.81
332.03	539.81
332.258	488.81
332.486	488.81
332.715	452.81
332.943	461.81
333.172	462.81
333.4	471.81
333.629	486.81
333.857	499.81
334.085	516.81
334.314	538.81
334.542	542.81
334.771	575.81
334.999	539.81
335.227	491.81
335.455	460.81
335.684	471.81
335.912	455.81
336.14	449.81
336.369	448.81
336.597	460.81
336.825	462.81
337.053	472.81
337.281	435.81
337.51	436.81
337.738	465.81
337.966	446.81
338.194	428.81
338.422	461.81
338.65	473.81
338.878	436.81
339.106	425.81
339.334	417.81
339.562	439.81
339.79	436.81
340.018	440.81
340.246	444.81
340.474	461.81
340.702	445.81
340.93	434.81
341.158	440.81
341.386	440.81
341.614	430.81
341.842	440.81
342.07	421.81
342.298	436.81
342.526	436.81
342.754	428.81
342.981	449.81
343.209	440.81
343.437	423.81
343.665	411.81
343.893	403.81
344.12	435.81
344.348	441.81
344.576	439.81
344.804	444.81
345.031	465.81
345.259	470.81
345.487	446.81
345.714	446.81
345.942	438.81
346.17	436.81
346.397	438.81
346.625	417.81
346.853	448.81
347.08	420.81
347.308	432.81
347.535	432.81
347.763	453.81
347.99	448.81
348.218	472.81
348.445	466.81
348.673	459.81
348.9	442.81
349.128	434.81
349.355	426.81
349.583	415.81
349.81	434.81
350.037	407.81
350.265	413.81
350.492	461.81
350.72	421.81
350.947	419.81
351.174	441.81
351.402	446.81
351.629	439.81
351.856	428.81
352.083	451.81
352.311	454.81
352.538	474.81
352.765	471.81
352.992	448.81
353.22	454.81
353.447	437.81
353.674	437.81
353.901	439.81
354.128	391.81
354.355	409.81
354.583	419.81
354.81	410.81
355.037	420.81
355.264	403.81
355.491	420.81
355.718	389.81
355.945	396.81
356.172	405.81
356.399	403.81
356.626	402.81
356.853	394.81
357.08	379.81
357.307	416.81
357.534	414.81
357.761	387.81
357.988	402.81
358.215	415.81
358.441	409.81
358.668	419.81
358.895	423.81
359.122	422.81
359.349	433.81
359.576	430.81
359.802	463.81
360.029	496.81
360.256	513.81
360.483	468.81
360.709	451.81
360.936	421.81
361.163	445.81
361.39	468.81
361.616	458.81
361.843	437.81
362.07	442.81
362.296	431.81
362.523	432.81
362.749	424.81
362.976	430.81
363.203	412.81
363.429	427.81
363.656	444.81
363.882	454.81
364.109	432.81
364.335	424.81
364.562	411.81
364.788	423.81
365.015	436.81
365.241	423.81
365.468	433.81
365.694	426.81
365.92	431.81
366.147	430.81
366.373	430.81
366.599	425.81
366.826	427.81
367.052	428.81
367.278	410.81
367.505	414.81
367.731	428.81
367.957	419.81
368.184	428.81
368.41	427.81
368.636	426.81
368.862	442.81
369.089	432.81
369.315	410.81
369.541	432.81
369.767	415.81
369.993	424.81
370.219	441.81
370.445	420.81
370.672	414.81
370.898	386.81
371.124	411.81
371.35	417.81
371.576	408.81
371.802	424.81
372.028	413.81
372.254	397.81
372.48	426.81
372.706	390.81
372.932	408.81
373.158	419.81
373.384	411.81
373.61	431.81
373.835	407.81
374.061	420.81
374.287	418.81
374.513	403.81
374.739	434.81
374.965	436.81
375.191	423.81
375.416	414.81
375.642	406.81
375.868	403.81
376.094	423.81
376.319	420.81
376.545	424.81
376.771	432.81
376.997	425.81
377.222	402.81
377.448	406.81
377.674	412.81
377.899	400.81
378.125	411.81
378.35	400.81
378.576	418.81
378.802	401.81
379.027	416.81
379.253	411.81
379.478	412.81
379.704	408.81
379.929	407.81
380.155	410.81
380.38	405.81
380.606	422.81
380.831	417.81
381.057	430.81
381.282	423.81
381.507	424.81
381.733	414.81
381.958	393.81
382.184	411.81
382.409	419.81
382.634	427.81
382.86	424.81
383.085	428.81
383.31	415.81
383.535	433.81
383.761	446.81
383.986	423.81
384.211	425.81
384.436	432.81
384.662	436.81
384.887	448.81
385.112	421.81
385.337	442.81
385.562	440.81
385.787	445.81
386.013	451.81
386.238	471.81
386.463	460.81
386.688	440.81
386.913	443.81
387.138	447.81
387.363	452.81
387.588	440.81
387.813	450.81
388.038	443.81
388.263	468.81
388.488	457.81
388.713	461.81
388.938	445.81
389.163	452.81
389.387	460.81
389.612	458.81
389.837	421.81
390.062	453.81
390.287	439.81
390.512	445.81
390.736	455.81
390.961	448.81
391.186	452.81
391.411	445.81
391.636	463.81
391.86	466.81
392.085	475.81
392.31	471.81
392.534	450.81
392.759	446.81
392.984	448.81
393.208	450.81
393.433	458.81
393.658	442.81
393.882	439.81
394.107	463.81
394.331	455.81
394.556	448.81
394.78	435.81
395.005	459.81
395.229	460.81
395.454	492.81
395.678	479.81
395.903	480.81
396.127	492.81
396.352	500.81
396.576	492.81
396.801	479.81
397.025	464.81
397.249	470.81
397.474	477.81
397.698	482.81
397.922	504.81
398.147	483.81
398.371	516.81
398.595	495.81
398.82	479.81
399.044	532.81
399.268	532.81
399.492	550.81
399.717	582.81
399.941	577.81
400.165	628.81
400.389	631.81
400.613	563.81
400.837	554.81
401.062	552.81
401.286	532.81
401.51	542.81
401.734	529.81
401.958	525.81
402.182	518.81
402.406	516.81
402.63	546.81
402.854	510.81
403.078	529.81
403.302	532.81
403.526	534.81
403.75	528.81
403.974	544.81
404.198	564.81
404.422	580.81
404.645	572.81
404.869	571.81
405.093	569.81
405.317	617.81
405.541	657.81
405.765	595.81
405.988	607.81
406.212	600.81
406.436	626.81
406.66	599.81
406.883	595.81
407.107	611.81
407.331	676.81
407.555	730.81
407.778	724.81
408.002	662.81
408.226	603.81
408.449	617.81
408.673	600.81
408.896	632.81
409.12	670.81
409.344	663.81
409.567	584.81
409.791	571.81
410.014	561.81
410.238	558.81
410.461	550.81
410.685	561.81
410.908	572.81
411.132	625.81
411.355	645.81
411.578	623.81
411.802	568.81
412.025	578.81
412.249	550.81
412.472	588.81
412.695	646.81
412.919	623.81
413.142	561.81
413.365	543.81
413.589	540.81
413.812	520.81
414.035	506.81
414.258	520.81
414.482	541.81
414.705	510.81
414.928	498.81
415.151	514.81
415.374	522.81
415.597	517.81
415.821	510.81
416.044	516.81
416.267	517.81
416.49	539.81
416.713	517.81
416.936	509.81
417.159	518.81
417.382	530.81
417.605	538.81
417.828	530.81
418.051	545.81
418.274	530.81
418.497	531.81
418.72	523.81
418.943	522.81
419.166	520.81
419.389	561.81
419.611	547.81
419.834	558.81
420.057	574.81
420.28	544.81
420.503	561.81
420.726	579.81
420.948	595.81
421.171	624.81
421.394	654.81
421.617	569.81
421.839	561.81
422.062	566.81
422.285	576.81
422.507	645.81
422.73	712.81
422.953	692.81
423.175	613.81
423.398	592.81
423.621	591.81
423.843	589.81
424.066	600.81
424.288	600.81
424.511	640.81
424.733	698.81
424.956	770.81
425.178	734.81
425.401	755.81
425.623	768.81
425.846	646.81
426.068	608.81
426.291	590.81
426.513	614.81
426.735	623.81
426.958	667.81
427.18	781.81
427.402	895.81
427.625	982.81
427.847	900.81
428.069	757.81
428.292	696.81
428.514	616.81
428.736	597.81
428.958	573.81
429.181	577.81
429.403	569.81
429.625	591.81
429.847	607.81
430.069	700.81
430.292	698.81
430.514	592.81
430.736	568.81
430.958	555.81
431.18	538.81
431.402	554.81
431.624	533.81
431.846	531.81
432.068	545.81
432.29	546.81
432.512	542.81
432.734	541.81
432.956	540.81
433.178	562.81
433.4	552.81
433.622	537.81
433.844	543.81
434.066	528.81
434.287	548.81
434.509	539.81
434.731	548.81
434.953	566.81
435.175	582.81
435.397	602.81
435.618	610.81
435.84	663.81
436.062	758.81
436.284	828.81
436.505	696.81
436.727	619.81
436.949	586.81
437.17	579.81
437.392	574.81
437.614	610.81
437.835	650.81
438.057	740.81
438.278	832.81
438.5	834.81
438.721	885.81
438.943	853.81
439.165	717.81
439.386	672.81
439.608	649.81
439.829	648.81
440.05	670.81
440.272	738.81
440.493	687.81
440.715	632.81
440.936	599.81
441.158	568.81
441.379	570.81
441.6	603.81
441.822	613.81
442.043	652.81
442.264	753.81
442.486	787.81
442.707	686.81
442.928	633.81
443.149	650.81
443.371	668.81
443.592	722.81
443.813	816.81
444.034	883.81
444.255	716.81
444.476	652.81
444.698	625.81
444.919	609.81
445.14	687.81
445.361	660.81
445.582	666.81
445.803	744.81
446.024	857.81
446.245	854.81
446.466	795.81
446.687	704.81
446.908	646.81
447.129	600.81
447.35	598.81
447.571	574.81
447.792	575.81
448.013	588.81
448.234	601.81
448.455	679.81
448.675	791.81
448.896	900.81
449.117	758.81
449.338	766.81
449.559	842.81
449.779	929.81
450	755.81
450.221	642.81
450.442	573.81
450.662	580.81
450.883	599.81
451.104	615.81
451.324	599.81
451.545	555.81
451.766	566.81
451.986	531.81
452.207	524.81
452.428	559.81
452.648	498.81
452.869	509.81
453.089	539.81
453.31	526.81
453.53	534.81
453.751	522.81
453.971	508.81
454.192	548.81
454.412	537.81
454.633	506.81
454.853	512.81
455.073	516.81
455.294	547.81
455.514	638.81
455.734	594.81
455.955	514.81
456.175	493.81
456.395	472.81
456.616	493.81
456.836	494.81
457.056	467.81
457.276	458.81
457.497	482.81
457.717	483.81
457.937	473.81
458.157	503.81
458.377	502.81
458.598	543.81
458.818	607.81
459.038	687.81
459.258	714.81
459.478	592.81
459.698	540.81
459.918	546.81
460.138	504.81
460.358	516.81
460.578	512.81
460.798	532.81
461.018	555.81
461.238	510.81
461.458	543.81
461.678	506.81
461.898	535.81
462.118	522.81
462.338	534.81
462.558	519.81
462.777	539.81
462.997	537.81
463.217	555.81
463.437	562.81
463.657	557.81
463.876	528.81
464.096	558.81
464.316	550.81
464.536	562.81
464.755	561.81
464.975	564.81
465.195	624.81
465.414	733.81
465.634	660.81
465.854	574.81
466.073	563.81
466.293	543.81
466.512	536.81
466.732	543.81
466.951	528.81
467.171	512.81
467.391	521.81
467.61	543.81
467.829	558.81
468.049	539.81
468.268	546.81
468.488	519.81
468.707	515.81
468.927	512.81
469.146	490.81
469.365	498.81
469.585	512.81
469.804	517.81
470.023	535.81
470.243	529.81
470.462	539.81
470.681	551.81
470.901	553.81
471.12	514.81
471.339	517.81
471.558	524.81
471.777	565.81
471.997	526.81
472.216	533.81
472.435	576.81
472.654	573.81
472.873	535.81
473.092	543.81
473.311	525.81
473.53	545.81
473.749	553.81
473.968	618.81
474.187	734.81
474.406	733.81
474.625	608.81
474.844	555.81
475.063	539.81
475.282	532.81
475.501	538.81
475.72	563.81
475.939	560.81
476.158	548.81
476.377	580.81
476.596	539.81
476.814	569.81
477.033	566.81
477.252	571.81
477.471	574.81
477.69	582.81
477.908	596.81
478.127	592.81
478.346	579.81
478.564	595.81
478.783	592.81
479.002	608.81
479.22	588.81
479.439	615.81
479.658	667.81
479.876	654.81
480.095	665.81
480.313	671.81
480.532	650.81
480.751	661.81
480.969	679.81
481.188	769.81
481.406	800.81
481.624	720.81
481.843	672.81
482.061	659.81
482.28	624.81
482.498	667.81
482.717	630.81
482.935	637.81
483.153	642.81
483.372	637.81
483.59	627.81
483.808	637.81
484.027	646.81
484.245	636.81
484.463	656.81
484.681	664.81
484.9	641.81
485.118	648.81
485.336	670.81
485.554	658.81
485.772	650.81
485.99	668.81
486.209	659.81
486.427	675.81
486.645	652.81
486.863	689.81
487.081	706.81
487.299	694.81
487.517	694.81
487.735	691.81
487.953	672.81
488.171	695.81
488.389	694.81
488.607	683.81
488.825	694.81
489.043	692.81
489.261	696.81
489.479	690.81
489.696	707.81
489.914	694.81
490.132	722.81
490.35	759.81
490.568	743.81
490.786	762.81
491.003	762.81
491.221	780.81
491.439	789.81
491.657	798.81
491.874	791.81
492.092	801.81
492.31	819.81
492.527	816.81
492.745	835.81
492.963	825.81
493.18	822.81
493.398	837.81
493.615	872.81
493.833	849.81
494.05	860.81
494.268	842.81
494.485	841.81
494.703	836.81
494.92	848.81
495.138	850.81
495.355	814.81
495.573	830.81
495.79	850.81
496.008	843.81
496.225	833.81
496.442	830.81
496.66	852.81
496.877	842.81
497.094	872.81
497.312	862.81
497.529	868.81
497.746	865.81
497.963	907.81
498.181	880.81
498.398	904.81
498.615	911.81
498.832	900.81
499.049	908.81
499.267	932.81
499.484	933.81
499.701	949.81
499.918	968.81
500.135	1001.81
500.352	1046.81
500.569	1012.81
500.786	1059.81
501.003	1055.81
501.22	1011.81
501.437	1021.81
501.654	974.81
501.871	991.81
502.088	972.81
502.305	951.81
502.522	919.81
502.739	880.81
502.956	884.81
503.172	888.81
503.389	860.81
503.606	871.81
503.823	852.81
504.04	863.81
504.256	843.81
504.473	817.81
504.69	839.81
504.907	808.81
505.123	802.81
505.34	820.81
505.557	837.81
505.773	816.81
505.99	816.81
506.207	819.81
506.423	788.81
506.64	798.81
506.856	804.81
507.073	785.81
507.289	804.81
507.506	799.81
507.722	804.81
507.939	822.81
508.155	780.81
508.372	805.81
508.588	756.81
508.805	798.81
509.021	800.81
509.238	788.81
509.454	809.81
509.67	789.81
509.887	770.81
510.103	785.81
510.319	820.81
510.536	901.81
510.752	1505.81
510.968	1249.81
511.184	817.81
511.401	765.81
511.617	757.81
511.833	763.81
512.049	738.81
512.265	741.81
512.481	734.81
512.698	769.81
512.914	728.81
513.13	726.81
513.346	734.81
513.562	736.81
513.778	740.81
513.994	752.81
514.21	753.81
514.426	774.81
514.642	850.81
514.858	890.81
515.074	944.81
515.29	1109.81
515.506	1662.81
515.721	1346.81
515.937	929.81
516.153	839.81
516.369	815.81
516.585	759.81
516.801	746.81
517.016	722.81
517.232	759.81
517.448	747.81
517.664	741.81
517.879	757.81
518.095	747.81
518.311	726.81
518.527	721.81
518.742	719.81
518.958	705.81
519.173	716.81
519.389	720.81
519.605	738.81
519.82	734.81
520.036	745.81
520.251	785.81
520.467	803.81
520.682	818.81
520.898	818.81
521.113	870.81
521.329	929.81
521.544	1054.81
521.76	1352.81
521.975	2219.81
522.19	2191.81
522.406	1176.81
522.621	892.81
522.836	801.81
523.052	752.81
523.267	724.81
523.482	706.81
523.698	680.81
523.913	694.81
524.128	694.81
524.343	658.81
524.559	658.81
524.774	639.81
524.989	653.81
525.204	650.81
525.419	662.81
525.634	618.81
525.849	614.81
526.064	619.81
526.28	622.81
526.495	595.81
526.71	593.81
526.925	596.81
527.14	599.81
527.355	587.81
527.57	591.81
527.785	560.81
527.999	583.81
528.214	572.81
528.429	561.81
528.644	581.81
528.859	580.81
529.074	604.81
529.289	634.81
529.503	740.81
529.718	701.81
529.933	645.81
530.148	617.81
530.363	602.81
530.577	587.81
530.792	571.81
531.007	564.81
531.221	595.81
531.436	550.81
531.651	564.81
531.865	571.81
532.08	559.81
532.295	533.81
532.509	559.81
532.724	539.81
532.938	534.81
533.153	549.81
533.367	546.81
533.582	538.81
533.796	568.81
534.011	571.81
534.225	530.81
534.44	539.81
534.654	544.81
534.868	539.81
535.083	534.81
535.297	544.81
535.511	552.81
535.726	534.81
535.94	540.81
536.154	555.81
536.369	559.81
536.583	550.81
536.797	524.81
537.011	523.81
537.225	543.81
537.44	516.81
537.654	533.81
537.868	546.81
538.082	522.81
538.296	528.81
538.51	531.81
538.724	537.81
538.938	535.81
539.153	538.81
539.367	562.81
539.581	548.81
539.795	545.81
540.009	549.81
540.222	516.81
540.436	526.81
540.65	519.81
540.864	529.81
541.078	532.81
541.292	566.81
541.506	542.81
541.72	544.81
541.934	530.81
542.147	545.81
542.361	532.81
542.575	528.81
542.789	527.81
543.002	540.81
543.216	545.81
543.43	560.81
543.644	518.81
543.857	530.81
544.071	532.81
544.285	539.81
544.498	536.81
544.712	523.81
544.925	524.81
545.139	524.81
545.352	527.81
545.566	514.81
545.779	514.81
545.993	510.81
546.206	537.81
546.42	502.81
546.633	512.81
546.847	512.81
547.06	513.81
547.274	496.81
547.487	518.81
547.7	488.81
547.914	495.81
548.127	496.81
548.34	509.81
548.554	497.81
548.767	490.81
548.98	482.81
549.193	506.81
549.407	494.81
549.62	498.81
549.833	496.81
550.046	500.81
550.259	496.81
550.473	491.81
550.686	487.81
550.899	478.81
551.112	492.81
551.325	472.81
551.538	478.81
551.751	492.81
551.964	486.81
552.177	486.81
552.39	485.81
552.603	479.81
552.816	490.81
553.029	495.81
553.242	509.81
553.455	489.81
553.667	512.81
553.88	522.81
554.093	501.81
554.306	505.81
554.519	496.81
554.732	494.81
554.944	475.81
555.157	494.81
555.37	479.81
555.583	485.81
555.795	469.81
556.008	451.81
556.221	464.81
556.433	455.81
556.646	453.81
556.859	453.81
557.071	438.81
557.284	445.81
557.496	445.81
557.709	448.81
557.921	432.81
558.134	427.81
558.346	432.81
558.559	444.81
558.771	444.81
558.984	446.81
559.196	452.81
559.409	436.81
559.621	430.81
559.833	426.81
560.046	441.81
560.258	426.81
560.47	436.81
560.683	443.81
560.895	445.81
561.107	444.81
561.32	406.81
561.532	430.81
561.744	444.81
561.956	432.81
562.168	428.81
562.381	438.81
562.593	448.81
562.805	442.81
563.017	453.81
563.229	449.81
563.441	450.81
563.653	449.81
563.865	437.81
564.077	447.81
564.289	459.81
564.501	450.81
564.713	435.81
564.925	427.81
565.137	450.81
565.349	468.81
565.561	451.81
565.773	464.81
565.985	445.81
566.197	471.81
566.408	471.81
566.62	494.81
566.832	480.81
567.044	491.81
567.255	496.81
567.467	498.81
567.679	519.81
567.891	518.81
568.102	513.81
568.314	485.81
568.526	499.81
568.737	483.81
568.949	459.81
569.161	447.81
569.372	437.81
569.584	430.81
569.795	436.81
570.007	437.81
570.218	501.81
570.43	479.81
570.641	440.81
570.853	429.81
571.064	411.81
571.276	424.81
571.487	408.81
571.698	408.81
571.91	401.81
572.121	390.81
572.333	408.81
572.544	406.81
572.755	384.81
572.966	391.81
573.178	384.81
573.389	380.81
573.6	391.81
573.811	374.81
574.023	396.81
574.234	381.81
574.445	378.81
574.656	390.81
574.867	360.81
575.078	377.81
575.289	392.81
575.501	386.81
575.712	384.81
575.923	386.81
576.134	377.81
576.345	375.81
576.556	366.81
576.767	350.81
576.978	363.81
577.188	362.81
577.399	356.81
577.61	368.81
577.821	360.81
578.032	366.81
578.243	410.81
578.454	720.81
578.665	536.81
578.875	376.81
579.086	375.81
579.297	359.81
579.508	352.81
579.718	351.81
579.929	344.81
580.14	347.81
580.35	351.81
580.561	352.81
580.772	339.81
580.982	350.81
581.193	333.81
581.403	344.81
581.614	345.81
581.825	340.81
582.035	335.81
582.246	328.81
582.456	353.81
582.667	356.81
582.877	352.81
583.087	337.81
583.298	342.81
583.508	347.81
583.719	333.81
583.929	346.81
584.139	340.81
584.35	338.81
584.56	331.81
584.77	331.81
584.981	333.81
585.191	334.81
585.401	327.81
585.611	328.81
585.821	330.81
586.032	339.81
586.242	322.81
586.452	332.81
586.662	321.81
586.872	328.81
587.082	331.81
587.292	321.81
587.502	337.81
587.713	349.81
587.923	335.81
588.133	323.81
588.343	329.81
588.553	318.81
588.762	327.81
588.972	317.81
589.182	313.81
589.392	322.81
589.602	331.81
589.812	311.81
590.022	310.81
590.232	321.81
590.441	320.81
590.651	323.81
590.861	325.81
591.071	342.81
591.281	305.81
591.49	337.81
591.7	331.81
591.91	342.81
592.119	315.81
592.329	322.81
592.539	340.81
592.748	346.81
592.958	328.81
593.167	324.81
593.377	347.81
593.587	332.81
593.796	336.81
594.006	336.81
594.215	322.81
594.424	317.81
594.634	347.81
594.843	326.81
595.053	325.81
595.262	303.81
595.472	314.81
595.681	319.81
595.89	310.81
596.1	316.81
596.309	332.81
596.518	286.81
596.727	289.81
596.937	296.81
597.146	304.81
597.355	302.81
597.564	290.81
597.774	295.81
597.983	309.81
598.192	285.81
598.401	290.81
598.61	284.81
598.819	296.81
599.028	309.81
599.237	292.81
599.446	285.81
599.655	293.81
599.864	287.81
600.073	269.81
600.282	281.81
600.491	287.81
600.7	258.81
600.909	286.81
601.118	287.81
601.327	284.81
601.536	290.81
601.745	279.81
601.953	280.81
602.162	279.81
602.371	283.81
602.58	273.81
602.789	289.81
602.997	276.81
603.206	268.81
603.415	286.81
603.623	271.81
603.832	283.81
604.041	275.81
604.249	291.81
604.458	281.81
604.666	276.81
604.875	277.81
605.084	270.81
605.292	287.81
605.501	265.81
605.709	265.81
605.918	294.81
606.126	264.81
606.334	277.81
606.543	277.81
606.751	268.81
606.96	275.81
607.168	270.81
607.376	250.81
607.585	274.81
607.793	287.81
608.001	278.81
608.21	282.81
608.418	259.81
608.626	279.81
608.834	273.81
609.043	280.81
609.251	277.81
609.459	270.81
609.667	274.81
609.875	271.81
610.083	279.81
610.291	251.81
610.499	260.81
610.707	263.81
610.916	275.81
611.124	272.81
611.332	266.81
611.54	282.81
611.748	270.81
611.955	272.81
612.163	266.81
612.371	278.81
612.579	259.81
612.787	266.81
612.995	256.81
613.203	257.81
613.411	259.81
613.618	261.81
613.826	264.81
614.034	256.81
614.242	268.81
614.449	251.81
614.657	243.81
614.865	266.81
615.072	265.81
615.28	258.81
615.488	267.81
615.695	274.81
615.903	254.81
616.111	267.81
616.318	260.81
616.526	247.81
616.733	266.81
616.941	266.81
617.148	277.81
617.356	260.81
617.563	267.81
617.771	258.81
617.978	254.81
618.185	252.81
618.393	264.81
618.6	246.81
618.807	250.81
619.015	253.81
619.222	238.81
619.429	255.81
619.637	250.81
619.844	249.81
620.051	245.81
620.258	247.81
620.466	247.81
620.673	243.81
620.88	227.81
621.087	243.81
621.294	224.81
621.501	231.81
621.708	255.81
621.915	244.81
622.122	230.81
622.329	245.81
622.536	247.81
622.743	239.81
622.95	254.81
623.157	241.81
623.364	238.81
623.571	243.81
623.778	244.81
623.985	242.81
624.192	243.81
624.399	233.81
624.606	223.81
624.812	246.81
625.019	239.81
625.226	223.81
625.433	217.81
625.639	248.81
625.846	236.81
626.053	216.81
626.259	204.81
626.466	215.81
626.673	217.81
626.879	209.81
627.086	225.81
627.293	210.81
627.499	221.81
627.706	236.81
627.912	253.81
628.119	210.81
628.325	227.81
628.532	217.81
628.738	221.81
628.945	207.81
629.151	216.81
629.357	212.81
629.564	202.81
629.77	211.81
629.976	206.81
630.183	210.81
630.389	211.81
630.595	223.81
630.802	219.81
631.008	200.81
631.214	207.81
631.42	212.81
631.627	208.81
631.833	199.81
632.039	206.81
632.245	204.81
632.451	219.81
632.657	216.81
632.863	203.81
633.069	202.81
633.275	200.81
633.481	176.81
633.688	207.81
633.893	207.81
634.099	201.81
634.305	195.81
634.511	188.81
634.717	177.81
634.923	199.81
635.129	204.81
635.335	211.81
635.541	194.81
635.747	197.81
635.952	209.81
636.158	198.81
636.364	193.81
636.57	196.81
636.775	207.81
636.981	202.81
637.187	188.81
637.392	197.81
637.598	193.81
637.804	205.81
638.009	195.81
638.215	195.81
638.421	180.81
638.626	198.81
638.832	198.81
639.037	180.81
639.243	200.81
639.448	170.81
639.654	202.81
639.859	186.81
640.065	171.81
640.27	193.81
640.475	186.81
640.681	187.81
640.886	162.81
641.091	186.81
641.297	193.81
641.502	173.81
641.707	184.81
641.913	200.81
642.118	184.81
642.323	181.81
642.528	177.81
642.733	187.81
642.939	167.81
643.144	173.81
643.349	188.81
643.554	178.81
643.759	184.81
643.964	171.81
644.169	168.81
644.374	177.81
644.579	192.81
644.784	158.81
644.989	186.81
645.194	173.81
645.399	174.81
645.604	182.81
645.809	167.81
646.014	171.81
646.219	164.81
646.423	186.81
646.628	178.81
646.833	169.81
647.038	180.81
647.243	186.81
647.447	164.81
647.652	191.81
647.857	166.81
648.062	180.81
648.266	169.81
648.471	188.81
648.676	178.81
648.88	166.81
649.085	179.81
649.289	186.81
649.494	164.81
649.698	160.81
649.903	198.81
650.107	174.81
650.312	166.81
650.516	154.81
650.721	160.81
650.925	154.81
651.13	143.81
651.334	152.81
651.539	172.81
651.743	170.81
651.947	147.81
652.152	146.81
652.356	149.81
652.56	146.81
652.764	148.81
652.969	151.81
653.173	141.81
653.377	146.81
653.581	135.81
653.785	146.81
653.99	128.81
654.194	151.81
654.398	145.81
654.602	144.81
654.806	132.81
655.01	154.81
655.214	147.81
655.418	145.81
655.622	136.81
655.826	139.81
656.03	128.81
656.234	140.81
656.438	148.81
656.642	128.81
656.846	126.81
657.049	129.81
657.253	115.81
657.457	119.81
657.661	126.81
657.865	132.81
658.068	126.81
658.272	105.81
658.476	111.81
658.68	123.81
658.883	101.81
659.087	103.81
659.291	98.81
659.494	105.81
659.698	97.81
659.901	92.81
660.105	98.81
660.309	104.81
660.512	97.81
660.716	76.81
660.919	84.81
661.123	110.81
661.326	101.81
661.53	84.81
661.733	88.81
661.936	101.81
662.14	86.81
662.343	89.81
662.546	84.81
662.75	91.81
662.953	70.81
663.156	76.81
663.36	81.81
663.563	71.81
663.766	69.81
663.969	91.81
664.173	83.81
664.376	83.81
664.579	77.81
664.782	79.81
664.985	89.81
665.188	69.81
665.391	83.81
665.594	89.81
665.797	76.81
666	80.81
666.203	85.81
666.406	83.81
666.609	70.81
666.812	83.81
667.015	81.81
667.218	80.81
667.421	82.81
667.624	84.81
667.827	77.81
668.03	82.81
668.232	74.81
668.435	75.81
668.638	81.81
668.841	82.81
669.043	76.81
669.246	71.81
669.449	80.81
669.651	75.81
669.854	81.81
670.057	66.81
670.259	74.81
670.462	79.81
670.665	73.81
670.867	74.81
671.07	77.81
671.272	86.81
671.475	91.81
671.677	84.81
671.88	71.81
672.082	100.81
672.284	88.81
672.487	71.81
672.689	85.81
672.892	69.81
