Data from 1970.PennyLincolnUp.Lamp.En5.5.200Scan.071719.P1._HRD10591_15-14-12-842.txt Node
Date: Thu Jul 18 15:14:12 EDT 2019
User: cochatt
Spectrometer: HR+D1059
Trigger mode: 1
Integration Time (sec): 1.000000E-1
Scans to average: 1
Electric dark correction enabled: true
Nonlinearity correction enabled: false
Boxcar width: 0
XAxis mode: Wavelengths
Number of Pixels in Spectrum: 2048
>>>>>Begin Spectral Data<<<<<
223.165	-14.31
223.4	-14.31
223.635	-14.31
223.869	-13.31
224.104	-22.31
224.338	-7.31
224.573	-8.31
224.808	-10.31
225.042	-12.31
225.277	-4.31
225.511	1.69
225.746	7.69
225.98	3.69
226.215	15.69
226.449	17.69
226.683	9.69
226.918	12.69
227.152	23.69
227.387	29.69
227.621	27.69
227.856	41.69
228.09	57.69
228.324	37.69
228.559	57.69
228.793	61.69
229.027	107.69
229.262	106.69
229.496	113.69
229.73	148.69
229.964	141.69
230.199	131.69
230.433	117.69
230.667	114.69
230.901	101.69
231.136	109.69
231.37	98.69
231.604	116.69
231.838	103.69
232.072	114.69
232.306	109.69
232.541	113.69
232.775	120.69
233.009	114.69
233.243	104.69
233.477	117.69
233.711	102.69
233.945	105.69
234.179	118.69
234.413	122.69
234.647	115.69
234.881	125.69
235.115	119.69
235.349	117.69
235.583	130.69
235.817	126.69
236.051	136.69
236.285	139.69
236.519	129.69
236.753	145.69
236.987	155.69
237.221	201.69
237.455	255.69
237.689	201.69
237.922	123.69
238.156	132.69
238.39	126.69
238.624	112.69
238.858	118.69
239.091	122.69
239.325	129.69
239.559	133.69
239.793	142.69
240.027	143.69
240.26	153.69
240.494	166.69
240.728	164.69
240.961	147.69
241.195	143.69
241.429	136.69
241.662	147.69
241.896	142.69
242.13	138.69
242.363	130.69
242.597	145.69
242.83	144.69
243.064	140.69
243.298	134.69
243.531	136.69
243.765	141.69
243.998	155.69
244.232	144.69
244.465	152.69
244.699	149.69
244.932	143.69
245.166	159.69
245.399	158.69
245.633	161.69
245.866	155.69
246.099	138.69
246.333	159.69
246.566	147.69
246.8	148.69
247.033	169.69
247.266	166.69
247.5	157.69
247.733	183.69
247.966	185.69
248.2	183.69
248.433	181.69
248.666	186.69
248.899	211.69
249.133	226.69
249.366	232.69
249.599	222.69
249.832	194.69
250.066	186.69
250.299	186.69
250.532	213.69
250.765	230.69
250.998	225.69
251.231	240.69
251.465	240.69
251.698	217.69
251.931	218.69
252.164	214.69
252.397	210.69
252.63	218.69
252.863	213.69
253.096	233.69
253.329	246.69
253.562	241.69
253.795	233.69
254.028	242.69
254.261	239.69
254.494	241.69
254.727	252.69
254.96	296.69
255.193	292.69
255.426	265.69
255.659	251.69
255.892	246.69
256.124	241.69
256.357	239.69
256.59	236.69
256.823	238.69
257.056	214.69
257.289	233.69
257.521	228.69
257.754	222.69
257.987	215.69
258.22	218.69
258.452	203.69
258.685	214.69
258.918	216.69
259.151	207.69
259.383	225.69
259.616	226.69
259.849	225.69
260.081	242.69
260.314	252.69
260.547	275.69
260.779	241.69
261.012	250.69
261.244	252.69
261.477	240.69
261.71	252.69
261.942	219.69
262.175	242.69
262.407	230.69
262.64	227.69
262.872	227.69
263.105	223.69
263.337	189.69
263.57	212.69
263.802	221.69
264.035	213.69
264.267	205.69
264.499	209.69
264.732	203.69
264.964	195.69
265.197	206.69
265.429	218.69
265.661	206.69
265.894	209.69
266.126	211.69
266.358	220.69
266.591	212.69
266.823	215.69
267.055	204.69
267.287	221.69
267.52	222.69
267.752	233.69
267.984	226.69
268.216	226.69
268.448	255.69
268.681	228.69
268.913	216.69
269.145	266.69
269.377	261.69
269.609	287.69
269.841	290.69
270.073	275.69
270.306	288.69
270.538	322.69
270.77	332.69
271.002	330.69
271.234	318.69
271.466	299.69
271.698	337.69
271.93	328.69
272.162	320.69
272.394	302.69
272.626	298.69
272.858	305.69
273.09	280.69
273.322	270.69
273.553	293.69
273.785	280.69
274.017	276.69
274.249	259.69
274.481	255.69
274.713	269.69
274.945	279.69
275.176	270.69
275.408	275.69
275.64	261.69
275.872	263.69
276.104	264.69
276.335	269.69
276.567	272.69
276.799	263.69
277.031	314.69
277.262	333.69
277.494	313.69
277.726	297.69
277.957	296.69
278.189	273.69
278.421	269.69
278.652	265.69
278.884	272.69
279.115	258.69
279.347	245.69
279.579	256.69
279.81	260.69
280.042	265.69
280.273	269.69
280.505	271.69
280.736	254.69
280.968	266.69
281.199	262.69
281.431	262.69
281.662	272.69
281.894	266.69
282.125	259.69
282.356	282.69
282.588	289.69
282.819	303.69
283.051	274.69
283.282	267.69
283.513	248.69
283.745	281.69
283.976	256.69
284.207	262.69
284.439	258.69
284.67	251.69
284.901	257.69
285.132	251.69
285.364	258.69
285.595	264.69
285.826	259.69
286.057	266.69
286.288	248.69
286.52	250.69
286.751	255.69
286.982	274.69
287.213	258.69
287.444	279.69
287.675	265.69
287.906	287.69
288.138	299.69
288.369	307.69
288.6	296.69
288.831	286.69
289.062	286.69
289.293	294.69
289.524	281.69
289.755	281.69
289.986	285.69
290.217	285.69
290.448	278.69
290.679	267.69
290.91	289.69
291.141	266.69
291.371	281.69
291.602	260.69
291.833	265.69
292.064	283.69
292.295	262.69
292.526	276.69
292.757	271.69
292.987	289.69
293.218	259.69
293.449	292.69
293.68	294.69
293.91	276.69
294.141	262.69
294.372	268.69
294.603	283.69
294.833	281.69
295.064	291.69
295.295	269.69
295.525	278.69
295.756	286.69
295.987	290.69
296.217	321.69
296.448	338.69
296.679	289.69
296.909	287.69
297.14	281.69
297.37	288.69
297.601	278.69
297.831	291.69
298.062	282.69
298.292	283.69
298.523	299.69
298.753	278.69
298.984	295.69
299.214	286.69
299.445	290.69
299.675	303.69
299.905	302.69
300.136	293.69
300.366	288.69
300.597	299.69
300.827	303.69
301.057	299.69
301.288	326.69
301.518	321.69
301.748	306.69
301.979	293.69
302.209	317.69
302.439	309.69
302.669	305.69
302.9	312.69
303.13	296.69
303.36	310.69
303.59	316.69
303.82	329.69
304.051	319.69
304.281	298.69
304.511	321.69
304.741	286.69
304.971	308.69
305.201	303.69
305.431	317.69
305.661	317.69
305.891	308.69
306.121	310.69
306.352	315.69
306.582	336.69
306.812	323.69
307.042	324.69
307.272	314.69
307.502	330.69
307.731	319.69
307.961	310.69
308.191	341.69
308.421	327.69
308.651	319.69
308.881	321.69
309.111	342.69
309.341	336.69
309.571	337.69
309.8	343.69
310.03	343.69
310.26	376.69
310.49	357.69
310.72	373.69
310.949	396.69
311.179	386.69
311.409	361.69
311.639	359.69
311.868	365.69
312.098	366.69
312.328	356.69
312.557	391.69
312.787	396.69
313.017	409.69
313.246	401.69
313.476	366.69
313.706	368.69
313.935	366.69
314.165	375.69
314.394	381.69
314.624	395.69
314.853	382.69
315.083	381.69
315.312	345.69
315.542	378.69
315.771	377.69
316.001	354.69
316.23	350.69
316.46	369.69
316.689	366.69
316.919	367.69
317.148	396.69
317.377	395.69
317.607	382.69
317.836	385.69
318.065	378.69
318.295	376.69
318.524	360.69
318.753	375.69
318.983	369.69
319.212	341.69
319.441	368.69
319.67	381.69
319.9	371.69
320.129	385.69
320.358	396.69
320.587	374.69
320.816	405.69
321.046	401.69
321.275	398.69
321.504	379.69
321.733	381.69
321.962	413.69
322.191	416.69
322.42	424.69
322.649	446.69
322.878	473.69
323.108	477.69
323.337	502.69
323.566	493.69
323.795	559.69
324.024	592.69
324.253	733.69
324.482	1056.69
324.71	1613.69
324.939	2293.69
325.168	1985.69
325.397	1042.69
325.626	699.69
325.855	598.69
326.084	539.69
326.313	520.69
326.542	517.69
326.77	579.69
326.999	693.69
327.228	897.69
327.457	1411.69
327.686	1727.69
327.914	1194.69
328.143	783.69
328.372	699.69
328.6	598.69
328.829	581.69
329.058	603.69
329.287	625.69
329.515	600.69
329.744	543.69
329.972	557.69
330.201	570.69
330.43	600.69
330.658	649.69
330.887	668.69
331.115	616.69
331.344	527.69
331.572	488.69
331.801	496.69
332.03	487.69
332.258	471.69
332.486	442.69
332.715	457.69
332.943	445.69
333.172	460.69
333.4	453.69
333.629	441.69
333.857	458.69
334.085	487.69
334.314	499.69
334.542	541.69
334.771	567.69
334.999	517.69
335.227	465.69
335.455	445.69
335.684	456.69
335.912	432.69
336.14	440.69
336.369	438.69
336.597	448.69
336.825	475.69
337.053	424.69
337.281	430.69
337.51	417.69
337.738	411.69
337.966	437.69
338.194	441.69
338.422	446.69
338.65	450.69
338.878	420.69
339.106	395.69
339.334	425.69
339.562	419.69
339.79	414.69
340.018	436.69
340.246	427.69
340.474	425.69
340.702	423.69
340.93	416.69
341.158	408.69
341.386	409.69
341.614	418.69
341.842	434.69
342.07	435.69
342.298	441.69
342.526	409.69
342.754	396.69
342.981	388.69
343.209	413.69
343.437	408.69
343.665	430.69
343.893	407.69
344.12	438.69
344.348	442.69
344.576	406.69
344.804	427.69
345.031	440.69
345.259	448.69
345.487	460.69
345.714	432.69
345.942	418.69
346.17	397.69
346.397	433.69
346.625	406.69
346.853	421.69
347.08	423.69
347.308	418.69
347.535	435.69
347.763	435.69
347.99	435.69
348.218	436.69
348.445	432.69
348.673	436.69
348.9	432.69
349.128	438.69
349.355	403.69
349.583	410.69
349.81	417.69
350.037	389.69
350.265	387.69
350.492	390.69
350.72	415.69
350.947	418.69
351.174	433.69
351.402	436.69
351.629	438.69
351.856	431.69
352.083	438.69
352.311	448.69
352.538	451.69
352.765	448.69
352.992	453.69
353.22	421.69
353.447	418.69
353.674	424.69
353.901	420.69
354.128	402.69
354.355	395.69
354.583	408.69
354.81	420.69
355.037	379.69
355.264	380.69
355.491	363.69
355.718	347.69
355.945	389.69
356.172	408.69
356.399	375.69
356.626	386.69
356.853	392.69
357.08	377.69
357.307	374.69
357.534	388.69
357.761	396.69
357.988	409.69
358.215	405.69
358.441	399.69
358.668	406.69
358.895	394.69
359.122	413.69
359.349	426.69
359.576	426.69
359.802	450.69
360.029	471.69
360.256	495.69
360.483	490.69
360.709	441.69
360.936	437.69
361.163	432.69
361.39	432.69
361.616	456.69
361.843	416.69
362.07	423.69
362.296	429.69
362.523	417.69
362.749	432.69
362.976	422.69
363.203	431.69
363.429	408.69
363.656	431.69
363.882	410.69
364.109	400.69
364.335	396.69
364.562	404.69
364.788	394.69
365.015	417.69
365.241	431.69
365.468	431.69
365.694	426.69
365.92	420.69
366.147	412.69
366.373	402.69
366.599	431.69
366.826	397.69
367.052	395.69
367.278	403.69
367.505	405.69
367.731	414.69
367.957	404.69
368.184	415.69
368.41	407.69
368.636	416.69
368.862	438.69
369.089	411.69
369.315	393.69
369.541	407.69
369.767	416.69
369.993	401.69
370.219	403.69
370.445	407.69
370.672	402.69
370.898	404.69
371.124	407.69
371.35	413.69
371.576	403.69
371.802	398.69
372.028	381.69
372.254	409.69
372.48	414.69
372.706	405.69
372.932	427.69
373.158	417.69
373.384	396.69
373.61	406.69
373.835	415.69
374.061	408.69
374.287	374.69
374.513	407.69
374.739	410.69
374.965	422.69
375.191	416.69
375.416	397.69
375.642	400.69
375.868	393.69
376.094	398.69
376.319	419.69
376.545	395.69
376.771	406.69
376.997	419.69
377.222	390.69
377.448	399.69
377.674	397.69
377.899	410.69
378.125	402.69
378.35	412.69
378.576	406.69
378.802	423.69
379.027	410.69
379.253	405.69
379.478	406.69
379.704	416.69
379.929	401.69
380.155	404.69
380.38	407.69
380.606	410.69
380.831	399.69
381.057	430.69
381.282	404.69
381.507	409.69
381.733	417.69
381.958	414.69
382.184	418.69
382.409	431.69
382.634	422.69
382.86	388.69
383.085	405.69
383.31	427.69
383.535	420.69
383.761	452.69
383.986	417.69
384.211	412.69
384.436	436.69
384.662	440.69
384.887	439.69
385.112	433.69
385.337	431.69
385.562	423.69
385.787	433.69
386.013	431.69
386.238	453.69
386.463	453.69
386.688	451.69
386.913	433.69
387.138	409.69
387.363	426.69
387.588	440.69
387.813	443.69
388.038	429.69
388.263	431.69
388.488	457.69
388.713	424.69
388.938	439.69
389.163	437.69
389.387	450.69
389.612	435.69
389.837	431.69
390.062	426.69
390.287	437.69
390.512	427.69
390.736	418.69
390.961	444.69
391.186	457.69
391.411	445.69
391.636	427.69
391.86	458.69
392.085	454.69
392.31	453.69
392.534	475.69
392.759	480.69
392.984	438.69
393.208	420.69
393.433	451.69
393.658	457.69
393.882	455.69
394.107	445.69
394.331	436.69
394.556	441.69
394.78	416.69
395.005	441.69
395.229	439.69
395.454	448.69
395.678	457.69
395.903	486.69
396.127	490.69
396.352	482.69
396.576	458.69
396.801	430.69
397.025	476.69
397.249	449.69
397.474	459.69
397.698	467.69
397.922	480.69
398.147	518.69
398.371	493.69
398.595	495.69
398.82	491.69
399.044	487.69
399.268	532.69
399.492	537.69
399.717	541.69
399.941	581.69
400.165	609.69
400.389	592.69
400.613	568.69
400.837	527.69
401.062	520.69
401.286	527.69
401.51	495.69
401.734	496.69
401.958	516.69
402.182	501.69
402.406	517.69
402.63	549.69
402.854	513.69
403.078	505.69
403.302	528.69
403.526	531.69
403.75	536.69
403.974	528.69
404.198	516.69
404.422	525.69
404.645	529.69
404.869	558.69
405.093	562.69
405.317	603.69
405.541	632.69
405.765	599.69
405.988	561.69
406.212	548.69
406.436	589.69
406.66	601.69
406.883	591.69
407.107	606.69
407.331	623.69
407.555	687.69
407.778	726.69
408.002	652.69
408.226	590.69
408.449	589.69
408.673	585.69
408.896	610.69
409.12	639.69
409.344	634.69
409.567	576.69
409.791	551.69
410.014	550.69
410.238	509.69
410.461	554.69
410.685	540.69
410.908	559.69
411.132	582.69
411.355	598.69
411.578	597.69
411.802	555.69
412.025	530.69
412.249	530.69
412.472	557.69
412.695	613.69
412.919	577.69
413.142	542.69
413.365	531.69
413.589	548.69
413.812	503.69
414.035	500.69
414.258	519.69
414.482	498.69
414.705	515.69
414.928	478.69
415.151	507.69
415.374	519.69
415.597	510.69
415.821	494.69
416.044	509.69
416.267	491.69
416.49	532.69
416.713	502.69
416.936	534.69
417.159	515.69
417.382	510.69
417.605	515.69
417.828	535.69
418.051	530.69
418.274	517.69
418.497	510.69
418.72	510.69
418.943	501.69
419.166	518.69
419.389	582.69
419.611	541.69
419.834	529.69
420.057	554.69
420.28	539.69
420.503	543.69
420.726	543.69
420.948	547.69
421.171	602.69
421.394	625.69
421.617	569.69
421.839	527.69
422.062	543.69
422.285	543.69
422.507	618.69
422.73	699.69
422.953	695.69
423.175	601.69
423.398	555.69
423.621	554.69
423.843	582.69
424.066	600.69
424.288	559.69
424.511	614.69
424.733	672.69
424.956	750.69
425.178	722.69
425.401	728.69
425.623	722.69
425.846	625.69
426.068	578.69
426.291	565.69
426.513	586.69
426.735	595.69
426.958	651.69
427.18	716.69
427.402	862.69
427.625	958.69
427.847	853.69
428.069	742.69
428.292	685.69
428.514	622.69
428.736	605.69
428.958	571.69
429.181	546.69
429.403	563.69
429.625	581.69
429.847	607.69
430.069	682.69
430.292	649.69
430.514	590.69
430.736	557.69
430.958	534.69
431.18	536.69
431.402	518.69
431.624	499.69
431.846	509.69
432.068	528.69
432.29	528.69
432.512	521.69
432.734	546.69
432.956	535.69
433.178	536.69
433.4	561.69
433.622	521.69
433.844	506.69
434.066	524.69
434.287	510.69
434.509	517.69
434.731	528.69
434.953	542.69
435.175	542.69
435.397	570.69
435.618	587.69
435.84	641.69
436.062	728.69
436.284	779.69
436.505	701.69
436.727	614.69
436.949	554.69
437.17	551.69
437.392	571.69
437.614	574.69
437.835	598.69
438.057	715.69
438.278	810.69
438.5	785.69
438.721	859.69
438.943	838.69
439.165	673.69
439.386	629.69
439.608	585.69
439.829	609.69
440.05	641.69
440.272	685.69
440.493	666.69
440.715	617.69
440.936	603.69
441.158	557.69
441.379	562.69
441.6	589.69
441.822	616.69
442.043	650.69
442.264	739.69
442.486	789.69
442.707	665.69
442.928	599.69
443.149	618.69
443.371	617.69
443.592	652.69
443.813	797.69
444.034	815.69
444.255	712.69
444.476	632.69
444.698	590.69
444.919	571.69
445.14	690.69
445.361	670.69
445.582	657.69
445.803	708.69
446.024	813.69
446.245	825.69
446.466	729.69
446.687	668.69
446.908	601.69
447.129	569.69
447.35	562.69
447.571	559.69
447.792	582.69
448.013	576.69
448.234	565.69
448.455	655.69
448.675	742.69
448.896	858.69
449.117	737.69
449.338	722.69
449.559	809.69
449.779	875.69
450	754.69
450.221	626.69
450.442	583.69
450.662	540.69
450.883	573.69
451.104	595.69
451.324	551.69
451.545	530.69
451.766	508.69
451.986	500.69
452.207	486.69
452.428	484.69
452.648	503.69
452.869	484.69
453.089	505.69
453.31	518.69
453.53	505.69
453.751	504.69
453.971	510.69
454.192	530.69
454.412	499.69
454.633	483.69
454.853	494.69
455.073	482.69
455.294	543.69
455.514	594.69
455.734	609.69
455.955	518.69
456.175	466.69
456.395	477.69
456.616	463.69
456.836	458.69
457.056	465.69
457.276	465.69
457.497	486.69
457.717	484.69
457.937	469.69
458.157	480.69
458.377	481.69
458.598	523.69
458.818	578.69
459.038	667.69
459.258	659.69
459.478	594.69
459.698	547.69
459.918	506.69
460.138	515.69
460.358	507.69
460.578	509.69
460.798	511.69
461.018	518.69
461.238	507.69
461.458	499.69
461.678	520.69
461.898	525.69
462.118	511.69
462.338	494.69
462.558	527.69
462.777	538.69
462.997	527.69
463.217	557.69
463.437	522.69
463.657	535.69
463.876	544.69
464.096	534.69
464.316	532.69
464.536	547.69
464.755	535.69
464.975	569.69
465.195	609.69
465.414	701.69
465.634	636.69
465.854	574.69
466.073	546.69
466.293	521.69
466.512	486.69
466.732	498.69
466.951	519.69
467.171	497.69
467.391	514.69
467.61	519.69
467.829	520.69
468.049	533.69
468.268	522.69
468.488	486.69
468.707	489.69
468.927	465.69
469.146	509.69
469.365	484.69
469.585	496.69
469.804	504.69
470.023	512.69
470.243	543.69
470.462	513.69
470.681	541.69
470.901	529.69
471.12	513.69
471.339	522.69
471.558	529.69
471.777	532.69
471.997	518.69
472.216	501.69
472.435	567.69
472.654	536.69
472.873	521.69
473.092	503.69
473.311	513.69
473.53	517.69
473.749	530.69
473.968	586.69
474.187	689.69
474.406	697.69
474.625	584.69
474.844	520.69
475.063	517.69
475.282	514.69
475.501	531.69
475.72	552.69
475.939	529.69
476.158	526.69
476.377	551.69
476.596	558.69
476.814	554.69
477.033	534.69
477.252	535.69
477.471	551.69
477.69	560.69
477.908	565.69
478.127	552.69
478.346	575.69
478.564	541.69
478.783	565.69
479.002	578.69
479.22	586.69
479.439	613.69
479.658	610.69
479.876	632.69
480.095	616.69
480.313	652.69
480.532	639.69
480.751	615.69
480.969	643.69
481.188	708.69
481.406	778.69
481.624	659.69
481.843	639.69
482.061	629.69
482.28	625.69
482.498	630.69
482.717	602.69
482.935	593.69
483.153	580.69
483.372	624.69
483.59	603.69
483.808	621.69
484.027	595.69
484.245	609.69
484.463	626.69
484.681	631.69
484.9	636.69
485.118	638.69
485.336	663.69
485.554	635.69
485.772	643.69
485.99	635.69
486.209	655.69
486.427	669.69
486.645	681.69
486.863	696.69
487.081	695.69
487.299	660.69
487.517	671.69
487.735	657.69
487.953	673.69
488.171	696.69
488.389	667.69
488.607	673.69
488.825	643.69
489.043	678.69
489.261	701.69
489.479	691.69
489.696	705.69
489.914	694.69
490.132	687.69
490.35	690.69
490.568	743.69
490.786	713.69
491.003	749.69
491.221	765.69
491.439	746.69
491.657	757.69
491.874	773.69
492.092	769.69
492.31	807.69
492.527	794.69
492.745	795.69
492.963	820.69
493.18	809.69
493.398	818.69
493.615	811.69
493.833	810.69
494.05	801.69
494.268	798.69
494.485	800.69
494.703	797.69
494.92	784.69
495.138	800.69
495.355	803.69
495.573	844.69
495.79	779.69
496.008	812.69
496.225	816.69
496.442	814.69
496.66	792.69
496.877	822.69
497.094	831.69
497.312	834.69
497.529	815.69
497.746	811.69
497.963	821.69
498.181	839.69
498.398	871.69
498.615	842.69
498.832	864.69
499.049	886.69
499.267	897.69
499.484	895.69
499.701	908.69
499.918	952.69
500.135	986.69
500.352	997.69
500.569	1025.69
500.786	1012.69
501.003	1018.69
501.22	991.69
501.437	991.69
501.654	961.69
501.871	952.69
502.088	945.69
502.305	916.69
502.522	873.69
502.739	857.69
502.956	857.69
503.172	843.69
503.389	827.69
503.606	851.69
503.823	820.69
504.04	849.69
504.256	814.69
504.473	801.69
504.69	802.69
504.907	778.69
505.123	788.69
505.34	755.69
505.557	772.69
505.773	803.69
505.99	791.69
506.207	760.69
506.423	781.69
506.64	799.69
506.856	772.69
507.073	744.69
507.289	762.69
507.506	766.69
507.722	752.69
507.939	805.69
508.155	789.69
508.372	773.69
508.588	740.69
508.805	738.69
509.021	737.69
509.238	746.69
509.454	761.69
509.67	753.69
509.887	738.69
510.103	764.69
510.319	747.69
510.536	879.69
510.752	1441.69
510.968	1173.69
511.184	789.69
511.401	736.69
511.617	722.69
511.833	719.69
512.049	712.69
512.265	710.69
512.481	730.69
512.698	703.69
512.914	688.69
513.13	719.69
513.346	704.69
513.562	719.69
513.778	714.69
513.994	703.69
514.21	722.69
514.426	754.69
514.642	809.69
514.858	849.69
515.074	903.69
515.29	1110.69
515.506	1667.69
515.721	1341.69
515.937	872.69
516.153	803.69
516.369	741.69
516.585	722.69
516.801	737.69
517.016	722.69
517.232	709.69
517.448	720.69
517.664	715.69
517.879	726.69
518.095	696.69
518.311	697.69
518.527	710.69
518.742	696.69
518.958	697.69
519.173	695.69
519.389	691.69
519.605	695.69
519.82	722.69
520.036	728.69
520.251	744.69
520.467	786.69
520.682	798.69
520.898	799.69
521.113	831.69
521.329	890.69
521.544	1021.69
521.76	1279.69
521.975	2181.69
522.19	2101.69
522.406	1147.69
522.621	854.69
522.836	782.69
523.052	716.69
523.267	675.69
523.482	676.69
523.698	640.69
523.913	637.69
524.128	642.69
524.343	656.69
524.559	623.69
524.774	615.69
524.989	639.69
525.204	634.69
525.419	657.69
525.634	607.69
525.849	604.69
526.064	583.69
526.28	575.69
526.495	565.69
526.71	606.69
526.925	576.69
527.14	564.69
527.355	561.69
527.57	563.69
527.785	550.69
527.999	571.69
528.214	557.69
528.429	570.69
528.644	569.69
528.859	565.69
529.074	578.69
529.289	597.69
529.503	704.69
529.718	687.69
529.933	617.69
530.148	588.69
530.363	599.69
530.577	552.69
530.792	571.69
531.007	558.69
531.221	527.69
531.436	564.69
531.651	532.69
531.865	565.69
532.08	547.69
532.295	538.69
532.509	552.69
532.724	544.69
532.938	533.69
533.153	527.69
533.367	522.69
533.582	532.69
533.796	544.69
534.011	537.69
534.225	534.69
534.44	527.69
534.654	532.69
534.868	521.69
535.083	533.69
535.297	531.69
535.511	536.69
535.726	537.69
535.94	537.69
536.154	551.69
536.369	549.69
536.583	507.69
536.797	540.69
537.011	490.69
537.225	518.69
537.44	519.69
537.654	513.69
537.868	511.69
538.082	525.69
538.296	515.69
538.51	523.69
538.724	492.69
538.938	519.69
539.153	503.69
539.367	497.69
539.581	557.69
539.795	511.69
540.009	528.69
540.222	519.69
540.436	514.69
540.65	497.69
540.864	517.69
541.078	528.69
541.292	502.69
541.506	521.69
541.72	516.69
541.934	527.69
542.147	531.69
542.361	518.69
542.575	522.69
542.789	521.69
543.002	498.69
543.216	486.69
543.43	515.69
543.644	511.69
543.857	522.69
544.071	529.69
544.285	536.69
544.498	527.69
544.712	510.69
544.925	487.69
545.139	493.69
545.352	513.69
545.566	510.69
545.779	515.69
545.993	521.69
546.206	499.69
546.42	518.69
546.633	481.69
546.847	488.69
547.06	496.69
547.274	496.69
547.487	487.69
547.7	517.69
547.914	515.69
548.127	477.69
548.34	488.69
548.554	474.69
548.767	512.69
548.98	494.69
549.193	479.69
549.407	480.69
549.62	490.69
549.833	477.69
550.046	479.69
550.259	489.69
550.473	472.69
550.686	481.69
550.899	494.69
551.112	469.69
551.325	467.69
551.538	477.69
551.751	445.69
551.964	459.69
552.177	502.69
552.39	455.69
552.603	469.69
552.816	486.69
553.029	474.69
553.242	469.69
553.455	487.69
553.667	482.69
553.88	507.69
554.093	501.69
554.306	480.69
554.519	481.69
554.732	481.69
554.944	479.69
555.157	481.69
555.37	470.69
555.583	457.69
555.795	464.69
556.008	431.69
556.221	460.69
556.433	426.69
556.646	458.69
556.859	428.69
557.071	455.69
557.284	438.69
557.496	456.69
557.709	451.69
557.921	409.69
558.134	424.69
558.346	422.69
558.559	438.69
558.771	447.69
558.984	418.69
559.196	418.69
559.409	436.69
559.621	405.69
559.833	409.69
560.046	422.69
560.258	422.69
560.47	423.69
560.683	425.69
560.895	426.69
561.107	430.69
561.32	443.69
561.532	440.69
561.744	433.69
561.956	417.69
562.168	408.69
562.381	426.69
562.593	406.69
562.805	447.69
563.017	435.69
563.229	436.69
563.441	441.69
563.653	429.69
563.865	434.69
564.077	430.69
564.289	432.69
564.501	396.69
564.713	441.69
564.925	457.69
565.137	444.69
565.349	456.69
565.561	462.69
565.773	490.69
565.985	446.69
566.197	466.69
566.408	479.69
566.62	470.69
566.832	471.69
567.044	478.69
567.255	496.69
567.467	493.69
567.679	474.69
567.891	496.69
568.102	494.69
568.314	475.69
568.526	475.69
568.737	453.69
568.949	447.69
569.161	445.69
569.372	427.69
569.584	452.69
569.795	422.69
570.007	414.69
570.218	499.69
570.43	477.69
570.641	411.69
570.853	409.69
571.064	402.69
571.276	406.69
571.487	397.69
571.698	399.69
571.91	383.69
572.121	394.69
572.333	391.69
572.544	366.69
572.755	374.69
572.966	375.69
573.178	373.69
573.389	372.69
573.6	368.69
573.811	365.69
574.023	359.69
574.234	362.69
574.445	391.69
574.656	369.69
574.867	367.69
575.078	358.69
575.289	371.69
575.501	354.69
575.712	342.69
575.923	356.69
576.134	362.69
576.345	373.69
576.556	367.69
576.767	346.69
576.978	357.69
577.188	353.69
577.399	352.69
577.61	339.69
577.821	334.69
578.032	359.69
578.243	387.69
578.454	673.69
578.665	501.69
578.875	386.69
579.086	351.69
579.297	362.69
579.508	342.69
579.718	367.69
579.929	343.69
580.14	330.69
580.35	331.69
580.561	327.69
580.772	347.69
580.982	323.69
581.193	346.69
581.403	345.69
581.614	327.69
581.825	347.69
582.035	325.69
582.246	333.69
582.456	321.69
582.667	348.69
582.877	331.69
583.087	322.69
583.298	313.69
583.508	335.69
583.719	330.69
583.929	339.69
584.139	326.69
584.35	306.69
584.56	332.69
584.77	328.69
584.981	324.69
585.191	328.69
585.401	342.69
585.611	330.69
585.821	327.69
586.032	340.69
586.242	325.69
586.452	308.69
586.662	326.69
586.872	313.69
587.082	337.69
587.292	325.69
587.502	303.69
587.713	322.69
587.923	325.69
588.133	314.69
588.343	321.69
588.553	317.69
588.762	317.69
588.972	318.69
589.182	303.69
589.392	329.69
589.602	299.69
589.812	322.69
590.022	314.69
590.232	321.69
590.441	301.69
590.651	289.69
590.861	331.69
591.071	303.69
591.281	312.69
591.49	314.69
591.7	329.69
591.91	327.69
592.119	307.69
592.329	325.69
592.539	332.69
592.748	323.69
592.958	332.69
593.167	307.69
593.377	325.69
593.587	342.69
593.796	319.69
594.006	310.69
594.215	319.69
594.424	316.69
594.634	312.69
594.843	327.69
595.053	314.69
595.262	314.69
595.472	313.69
595.681	313.69
595.89	295.69
596.1	317.69
596.309	306.69
596.518	293.69
596.727	296.69
596.937	285.69
597.146	289.69
597.355	313.69
597.564	306.69
597.774	294.69
597.983	279.69
598.192	298.69
598.401	291.69
598.61	278.69
598.819	267.69
599.028	295.69
599.237	288.69
599.446	287.69
599.655	281.69
599.864	275.69
600.073	272.69
600.282	272.69
600.491	274.69
600.7	282.69
600.909	280.69
601.118	273.69
601.327	262.69
601.536	268.69
601.745	267.69
601.953	266.69
602.162	271.69
602.371	273.69
602.58	281.69
602.789	267.69
602.997	285.69
603.206	279.69
603.415	276.69
603.623	283.69
603.832	271.69
604.041	274.69
604.249	283.69
604.458	260.69
604.666	268.69
604.875	264.69
605.084	253.69
605.292	282.69
605.501	273.69
605.709	269.69
605.918	261.69
606.126	269.69
606.334	267.69
606.543	250.69
606.751	251.69
606.96	260.69
607.168	291.69
607.376	267.69
607.585	274.69
607.793	266.69
608.001	262.69
608.21	247.69
608.418	258.69
608.626	260.69
608.834	277.69
609.043	265.69
609.251	278.69
609.459	261.69
609.667	257.69
609.875	256.69
610.083	273.69
610.291	251.69
610.499	258.69
610.707	265.69
610.916	252.69
611.124	269.69
611.332	276.69
611.54	283.69
611.748	266.69
611.955	264.69
612.163	254.69
612.371	266.69
612.579	247.69
612.787	249.69
612.995	263.69
613.203	264.69
613.411	276.69
613.618	265.69
613.826	252.69
614.034	249.69
614.242	255.69
614.449	245.69
614.657	265.69
614.865	234.69
615.072	266.69
615.28	253.69
615.488	254.69
615.695	265.69
615.903	249.69
616.111	246.69
616.318	234.69
616.526	238.69
616.733	246.69
616.941	256.69
617.148	242.69
617.356	247.69
617.563	243.69
617.771	228.69
617.978	248.69
618.185	229.69
618.393	249.69
618.6	241.69
618.807	238.69
619.015	246.69
619.222	238.69
619.429	238.69
619.637	251.69
619.844	242.69
620.051	252.69
620.258	247.69
620.466	242.69
620.673	238.69
620.88	233.69
621.087	235.69
621.294	239.69
621.501	231.69
621.708	237.69
621.915	245.69
622.122	247.69
622.329	237.69
622.536	232.69
622.743	248.69
622.95	232.69
623.157	230.69
623.364	234.69
623.571	241.69
623.778	241.69
623.985	226.69
624.192	226.69
624.399	233.69
624.606	237.69
624.812	234.69
625.019	224.69
625.226	231.69
625.433	242.69
625.639	198.69
625.846	217.69
626.053	225.69
626.259	218.69
626.466	207.69
626.673	212.69
626.879	217.69
627.086	240.69
627.293	234.69
627.499	218.69
627.706	234.69
627.912	228.69
628.119	230.69
628.325	226.69
628.532	198.69
628.738	213.69
628.945	220.69
629.151	226.69
629.357	214.69
629.564	210.69
629.77	212.69
629.976	210.69
630.183	206.69
630.389	202.69
630.595	205.69
630.802	210.69
631.008	215.69
631.214	205.69
631.42	208.69
631.627	222.69
631.833	215.69
632.039	206.69
632.245	191.69
632.451	202.69
632.657	209.69
632.863	212.69
633.069	203.69
633.275	195.69
633.481	200.69
633.688	196.69
633.893	205.69
634.099	190.69
634.305	188.69
634.511	201.69
634.717	192.69
634.923	192.69
635.129	187.69
635.335	195.69
635.541	188.69
635.747	182.69
635.952	197.69
636.158	189.69
636.364	211.69
636.57	198.69
636.775	191.69
636.981	197.69
637.187	191.69
637.392	193.69
637.598	188.69
637.804	187.69
638.009	192.69
638.215	184.69
638.421	179.69
638.626	178.69
638.832	173.69
639.037	191.69
639.243	190.69
639.448	181.69
639.654	162.69
639.859	194.69
640.065	192.69
640.27	201.69
640.475	183.69
640.681	176.69
640.886	184.69
641.091	187.69
641.297	179.69
641.502	180.69
641.707	181.69
641.913	169.69
642.118	181.69
642.323	165.69
642.528	187.69
642.733	169.69
642.939	180.69
643.144	190.69
643.349	189.69
643.554	170.69
643.759	162.69
643.964	157.69
644.169	160.69
644.374	163.69
644.579	165.69
644.784	181.69
644.989	169.69
645.194	175.69
645.399	165.69
645.604	189.69
645.809	190.69
646.014	159.69
646.219	189.69
646.423	164.69
646.628	185.69
646.833	166.69
647.038	175.69
647.243	189.69
647.447	169.69
647.652	165.69
647.857	161.69
648.062	159.69
648.266	176.69
648.471	166.69
648.676	183.69
648.88	166.69
649.085	171.69
649.289	177.69
649.494	183.69
649.698	202.69
649.903	181.69
650.107	161.69
650.312	161.69
650.516	166.69
650.721	183.69
650.925	151.69
651.13	155.69
651.334	160.69
651.539	154.69
651.743	164.69
651.947	144.69
652.152	158.69
652.356	147.69
652.56	149.69
652.764	157.69
652.969	146.69
653.173	147.69
653.377	133.69
653.581	153.69
653.785	139.69
653.99	137.69
654.194	144.69
654.398	136.69
654.602	141.69
654.806	125.69
655.01	140.69
655.214	160.69
655.418	134.69
655.622	136.69
655.826	150.69
656.03	134.69
656.234	139.69
656.438	134.69
656.642	148.69
656.846	119.69
657.049	119.69
657.253	126.69
657.457	117.69
657.661	107.69
657.865	132.69
658.068	117.69
658.272	121.69
658.476	103.69
658.68	112.69
658.883	101.69
659.087	94.69
659.291	98.69
659.494	95.69
659.698	93.69
659.901	101.69
660.105	83.69
660.309	87.69
660.512	103.69
660.716	97.69
660.919	84.69
661.123	85.69
661.326	84.69
661.53	83.69
661.733	80.69
661.936	82.69
662.14	76.69
662.343	80.69
662.546	82.69
662.75	76.69
662.953	81.69
663.156	81.69
663.36	78.69
663.563	83.69
663.766	81.69
663.969	81.69
664.173	69.69
664.376	73.69
664.579	74.69
664.782	74.69
664.985	83.69
665.188	66.69
665.391	81.69
665.594	75.69
665.797	75.69
666	78.69
666.203	96.69
666.406	66.69
666.609	78.69
666.812	76.69
667.015	77.69
667.218	100.69
667.421	74.69
667.624	84.69
667.827	91.69
668.03	80.69
668.232	77.69
668.435	85.69
668.638	68.69
668.841	90.69
669.043	69.69
669.246	94.69
669.449	65.69
669.651	84.69
669.854	73.69
670.057	71.69
670.259	74.69
670.462	89.69
670.665	68.69
670.867	78.69
671.07	78.69
671.272	82.69
671.475	86.69
671.677	77.69
671.88	66.69
672.082	83.69
672.284	75.69
672.487	64.69
672.689	82.69
672.892	60.69
