Data from 1970.PennyLincolnUp.Lamp.En5.5.200Scan.071719.P1._HRD10591_15-14-34-843.txt Node
Date: Thu Jul 18 15:14:34 EDT 2019
User: cochatt
Spectrometer: HR+D1059
Trigger mode: 1
Integration Time (sec): 1.000000E-1
Scans to average: 1
Electric dark correction enabled: true
Nonlinearity correction enabled: false
Boxcar width: 0
XAxis mode: Wavelengths
Number of Pixels in Spectrum: 2048
>>>>>Begin Spectral Data<<<<<
223.165	-18.31
223.4	-18.31
223.635	-18.31
223.869	-10.31
224.104	-10.31
224.338	-13.31
224.573	1.69
224.808	-7.31
225.042	-12.31
225.277	-12.31
225.511	-8.31
225.746	5.69
225.98	4.69
226.215	1.69
226.449	7.69
226.683	21.69
226.918	20.69
227.152	28.69
227.387	33.69
227.621	42.69
227.856	36.69
228.09	55.69
228.324	61.69
228.559	69.69
228.793	59.69
229.027	110.69
229.262	115.69
229.496	137.69
229.73	144.69
229.964	157.69
230.199	145.69
230.433	134.69
230.667	103.69
230.901	109.69
231.136	124.69
231.37	112.69
231.604	115.69
231.838	107.69
232.072	119.69
232.306	111.69
232.541	105.69
232.775	129.69
233.009	108.69
233.243	106.69
233.477	116.69
233.711	123.69
233.945	119.69
234.179	126.69
234.413	101.69
234.647	111.69
234.881	115.69
235.115	123.69
235.349	118.69
235.583	138.69
235.817	140.69
236.051	142.69
236.285	144.69
236.519	126.69
236.753	138.69
236.987	145.69
237.221	194.69
237.455	236.69
237.689	200.69
237.922	154.69
238.156	131.69
238.39	120.69
238.624	128.69
238.858	124.69
239.091	132.69
239.325	129.69
239.559	144.69
239.793	136.69
240.027	140.69
240.26	141.69
240.494	151.69
240.728	165.69
240.961	161.69
241.195	172.69
241.429	135.69
241.662	139.69
241.896	137.69
242.13	153.69
242.363	131.69
242.597	116.69
242.83	147.69
243.064	135.69
243.298	139.69
243.531	141.69
243.765	152.69
243.998	150.69
244.232	139.69
244.465	161.69
244.699	151.69
244.932	155.69
245.166	153.69
245.399	160.69
245.633	167.69
245.866	153.69
246.099	151.69
246.333	153.69
246.566	169.69
246.8	167.69
247.033	179.69
247.266	166.69
247.5	166.69
247.733	177.69
247.966	177.69
248.2	164.69
248.433	185.69
248.666	187.69
248.899	183.69
249.133	221.69
249.366	221.69
249.599	213.69
249.832	200.69
250.066	196.69
250.299	187.69
250.532	197.69
250.765	224.69
250.998	254.69
251.231	247.69
251.465	233.69
251.698	224.69
251.931	216.69
252.164	199.69
252.397	215.69
252.63	206.69
252.863	224.69
253.096	228.69
253.329	248.69
253.562	243.69
253.795	229.69
254.028	223.69
254.261	236.69
254.494	247.69
254.727	269.69
254.96	297.69
255.193	286.69
255.426	271.69
255.659	258.69
255.892	247.69
256.124	248.69
256.357	235.69
256.59	245.69
256.823	213.69
257.056	224.69
257.289	207.69
257.521	222.69
257.754	226.69
257.987	217.69
258.22	229.69
258.452	203.69
258.685	214.69
258.918	208.69
259.151	213.69
259.383	231.69
259.616	228.69
259.849	227.69
260.081	244.69
260.314	269.69
260.547	270.69
260.779	254.69
261.012	239.69
261.244	232.69
261.477	231.69
261.71	224.69
261.942	227.69
262.175	254.69
262.407	232.69
262.64	228.69
262.872	222.69
263.105	208.69
263.337	220.69
263.57	211.69
263.802	213.69
264.035	207.69
264.267	218.69
264.499	209.69
264.732	226.69
264.964	222.69
265.197	202.69
265.429	222.69
265.661	221.69
265.894	212.69
266.126	200.69
266.358	202.69
266.591	214.69
266.823	217.69
267.055	212.69
267.287	240.69
267.52	221.69
267.752	223.69
267.984	220.69
268.216	239.69
268.448	220.69
268.681	253.69
268.913	219.69
269.145	257.69
269.377	272.69
269.609	270.69
269.841	277.69
270.073	269.69
270.306	278.69
270.538	325.69
270.77	331.69
271.002	305.69
271.234	281.69
271.466	293.69
271.698	307.69
271.93	320.69
272.162	326.69
272.394	317.69
272.626	315.69
272.858	291.69
273.09	267.69
273.322	279.69
273.553	255.69
273.785	251.69
274.017	264.69
274.249	264.69
274.481	261.69
274.713	256.69
274.945	268.69
275.176	258.69
275.408	250.69
275.64	236.69
275.872	253.69
276.104	251.69
276.335	248.69
276.567	259.69
276.799	270.69
277.031	303.69
277.262	310.69
277.494	319.69
277.726	289.69
277.957	271.69
278.189	287.69
278.421	266.69
278.652	276.69
278.884	257.69
279.115	280.69
279.347	232.69
279.579	241.69
279.81	258.69
280.042	267.69
280.273	255.69
280.505	256.69
280.736	248.69
280.968	271.69
281.199	263.69
281.431	220.69
281.662	245.69
281.894	238.69
282.125	239.69
282.356	262.69
282.588	296.69
282.819	288.69
283.051	257.69
283.282	253.69
283.513	247.69
283.745	283.69
283.976	256.69
284.207	273.69
284.439	272.69
284.67	263.69
284.901	259.69
285.132	261.69
285.364	244.69
285.595	260.69
285.826	237.69
286.057	239.69
286.288	260.69
286.52	250.69
286.751	278.69
286.982	246.69
287.213	276.69
287.444	260.69
287.675	261.69
287.906	256.69
288.138	275.69
288.369	287.69
288.6	290.69
288.831	277.69
289.062	275.69
289.293	267.69
289.524	272.69
289.755	271.69
289.986	279.69
290.217	268.69
290.448	270.69
290.679	263.69
290.91	275.69
291.141	259.69
291.371	289.69
291.602	261.69
291.833	243.69
292.064	254.69
292.295	261.69
292.526	265.69
292.757	253.69
292.987	265.69
293.218	265.69
293.449	283.69
293.68	258.69
293.91	277.69
294.141	262.69
294.372	252.69
294.603	253.69
294.833	271.69
295.064	288.69
295.295	273.69
295.525	275.69
295.756	277.69
295.987	287.69
296.217	297.69
296.448	310.69
296.679	272.69
296.909	276.69
297.14	256.69
297.37	264.69
297.601	269.69
297.831	272.69
298.062	273.69
298.292	266.69
298.523	284.69
298.753	272.69
298.984	267.69
299.214	272.69
299.445	283.69
299.675	294.69
299.905	287.69
300.136	297.69
300.366	273.69
300.597	284.69
300.827	300.69
301.057	281.69
301.288	288.69
301.518	281.69
301.748	287.69
301.979	295.69
302.209	287.69
302.439	293.69
302.669	303.69
302.9	294.69
303.13	283.69
303.36	293.69
303.59	307.69
303.82	298.69
304.051	290.69
304.281	300.69
304.511	308.69
304.741	296.69
304.971	289.69
305.201	305.69
305.431	279.69
305.661	308.69
305.891	292.69
306.121	293.69
306.352	301.69
306.582	313.69
306.812	304.69
307.042	316.69
307.272	298.69
307.502	312.69
307.731	311.69
307.961	306.69
308.191	306.69
308.421	312.69
308.651	308.69
308.881	323.69
309.111	331.69
309.341	337.69
309.571	317.69
309.8	342.69
310.03	345.69
310.26	357.69
310.49	367.69
310.72	368.69
310.949	398.69
311.179	383.69
311.409	371.69
311.639	351.69
311.868	361.69
312.098	361.69
312.328	379.69
312.557	379.69
312.787	378.69
313.017	413.69
313.246	378.69
313.476	359.69
313.706	341.69
313.935	355.69
314.165	377.69
314.394	397.69
314.624	383.69
314.853	368.69
315.083	351.69
315.312	366.69
315.542	342.69
315.771	343.69
316.001	350.69
316.23	356.69
316.46	347.69
316.689	353.69
316.919	342.69
317.148	358.69
317.377	350.69
317.607	383.69
317.836	371.69
318.065	347.69
318.295	336.69
318.524	350.69
318.753	355.69
318.983	350.69
319.212	343.69
319.441	371.69
319.67	391.69
319.9	375.69
320.129	368.69
320.358	354.69
320.587	367.69
320.816	370.69
321.046	380.69
321.275	392.69
321.504	395.69
321.733	389.69
321.962	393.69
322.191	404.69
322.42	431.69
322.649	458.69
322.878	455.69
323.108	464.69
323.337	483.69
323.566	486.69
323.795	540.69
324.024	603.69
324.253	717.69
324.482	1048.69
324.71	1545.69
324.939	2160.69
325.168	1901.69
325.397	1072.69
325.626	694.69
325.855	571.69
326.084	499.69
326.313	501.69
326.542	512.69
326.77	550.69
326.999	664.69
327.228	892.69
327.457	1353.69
327.686	1657.69
327.914	1125.69
328.143	795.69
328.372	674.69
328.6	619.69
328.829	584.69
329.058	581.69
329.287	600.69
329.515	602.69
329.744	507.69
329.972	501.69
330.201	539.69
330.43	596.69
330.658	617.69
330.887	647.69
331.115	617.69
331.344	524.69
331.572	501.69
331.801	481.69
332.03	488.69
332.258	465.69
332.486	430.69
332.715	439.69
332.943	441.69
333.172	428.69
333.4	431.69
333.629	428.69
333.857	440.69
334.085	476.69
334.314	461.69
334.542	520.69
334.771	543.69
334.999	482.69
335.227	457.69
335.455	424.69
335.684	427.69
335.912	416.69
336.14	416.69
336.369	423.69
336.597	415.69
336.825	443.69
337.053	423.69
337.281	414.69
337.51	406.69
337.738	413.69
337.966	407.69
338.194	420.69
338.422	425.69
338.65	411.69
338.878	392.69
339.106	393.69
339.334	396.69
339.562	417.69
339.79	401.69
340.018	412.69
340.246	382.69
340.474	405.69
340.702	411.69
340.93	419.69
341.158	401.69
341.386	417.69
341.614	411.69
341.842	390.69
342.07	406.69
342.298	393.69
342.526	393.69
342.754	389.69
342.981	358.69
343.209	369.69
343.437	389.69
343.665	397.69
343.893	407.69
344.12	410.69
344.348	419.69
344.576	393.69
344.804	433.69
345.031	441.69
345.259	443.69
345.487	405.69
345.714	441.69
345.942	413.69
346.17	402.69
346.397	391.69
346.625	385.69
346.853	404.69
347.08	395.69
347.308	396.69
347.535	407.69
347.763	449.69
347.99	423.69
348.218	401.69
348.445	411.69
348.673	421.69
348.9	423.69
349.128	399.69
349.355	395.69
349.583	383.69
349.81	398.69
350.037	395.69
350.265	380.69
350.492	381.69
350.72	422.69
350.947	375.69
351.174	399.69
351.402	418.69
351.629	408.69
351.856	439.69
352.083	423.69
352.311	425.69
352.538	414.69
352.765	440.69
352.992	430.69
353.22	423.69
353.447	405.69
353.674	386.69
353.901	369.69
354.128	359.69
354.355	394.69
354.583	375.69
354.81	368.69
355.037	377.69
355.264	372.69
355.491	350.69
355.718	376.69
355.945	366.69
356.172	379.69
356.399	371.69
356.626	372.69
356.853	368.69
357.08	387.69
357.307	382.69
357.534	364.69
357.761	380.69
357.988	382.69
358.215	378.69
358.441	378.69
358.668	366.69
358.895	385.69
359.122	375.69
359.349	399.69
359.576	408.69
359.802	445.69
360.029	456.69
360.256	496.69
360.483	456.69
360.709	429.69
360.936	440.69
361.163	399.69
361.39	405.69
361.616	460.69
361.843	430.69
362.07	412.69
362.296	410.69
362.523	415.69
362.749	403.69
362.976	413.69
363.203	398.69
363.429	384.69
363.656	385.69
363.882	390.69
364.109	394.69
364.335	389.69
364.562	391.69
364.788	388.69
365.015	375.69
365.241	405.69
365.468	379.69
365.694	409.69
365.92	420.69
366.147	394.69
366.373	376.69
366.599	384.69
366.826	385.69
367.052	374.69
367.278	384.69
367.505	384.69
367.731	384.69
367.957	394.69
368.184	392.69
368.41	391.69
368.636	411.69
368.862	430.69
369.089	403.69
369.315	395.69
369.541	379.69
369.767	382.69
369.993	392.69
370.219	381.69
370.445	371.69
370.672	385.69
370.898	391.69
371.124	379.69
371.35	382.69
371.576	371.69
371.802	413.69
372.028	373.69
372.254	382.69
372.48	391.69
372.706	384.69
372.932	394.69
373.158	381.69
373.384	375.69
373.61	376.69
373.835	378.69
374.061	391.69
374.287	398.69
374.513	395.69
374.739	396.69
374.965	413.69
375.191	401.69
375.416	394.69
375.642	364.69
375.868	402.69
376.094	390.69
376.319	389.69
376.545	381.69
376.771	377.69
376.997	387.69
377.222	390.69
377.448	390.69
377.674	380.69
377.899	391.69
378.125	387.69
378.35	383.69
378.576	376.69
378.802	378.69
379.027	398.69
379.253	373.69
379.478	383.69
379.704	373.69
379.929	381.69
380.155	395.69
380.38	406.69
380.606	407.69
380.831	389.69
381.057	380.69
381.282	371.69
381.507	383.69
381.733	393.69
381.958	371.69
382.184	384.69
382.409	397.69
382.634	372.69
382.86	395.69
383.085	389.69
383.31	389.69
383.535	385.69
383.761	391.69
383.986	417.69
384.211	410.69
384.436	405.69
384.662	383.69
384.887	409.69
385.112	405.69
385.337	405.69
385.562	407.69
385.787	405.69
386.013	423.69
386.238	439.69
386.463	414.69
386.688	416.69
386.913	385.69
387.138	414.69
387.363	402.69
387.588	422.69
387.813	424.69
388.038	412.69
388.263	416.69
388.488	406.69
388.713	413.69
388.938	416.69
389.163	400.69
389.387	426.69
389.612	409.69
389.837	399.69
390.062	410.69
390.287	409.69
390.512	425.69
390.736	408.69
390.961	406.69
391.186	407.69
391.411	396.69
391.636	401.69
391.86	416.69
392.085	429.69
392.31	401.69
392.534	397.69
392.759	427.69
392.984	416.69
393.208	413.69
393.433	431.69
393.658	414.69
393.882	382.69
394.107	432.69
394.331	423.69
394.556	424.69
394.78	412.69
395.005	413.69
395.229	420.69
395.454	435.69
395.678	417.69
395.903	435.69
396.127	472.69
396.352	474.69
396.576	437.69
396.801	437.69
397.025	446.69
397.249	447.69
397.474	425.69
397.698	453.69
397.922	460.69
398.147	466.69
398.371	485.69
398.595	473.69
398.82	470.69
399.044	468.69
399.268	484.69
399.492	486.69
399.717	528.69
399.941	543.69
400.165	557.69
400.389	585.69
400.613	515.69
400.837	504.69
401.062	476.69
401.286	479.69
401.51	460.69
401.734	447.69
401.958	472.69
402.182	481.69
402.406	479.69
402.63	489.69
402.854	488.69
403.078	510.69
403.302	492.69
403.526	479.69
403.75	491.69
403.974	470.69
404.198	508.69
404.422	469.69
404.645	511.69
404.869	510.69
405.093	524.69
405.317	594.69
405.541	627.69
405.765	542.69
405.988	523.69
406.212	552.69
406.436	545.69
406.66	557.69
406.883	547.69
407.107	554.69
407.331	581.69
407.555	668.69
407.778	643.69
408.002	605.69
408.226	569.69
408.449	573.69
408.673	551.69
408.896	583.69
409.12	604.69
409.344	578.69
409.567	507.69
409.791	512.69
410.014	517.69
410.238	512.69
410.461	506.69
410.685	511.69
410.908	517.69
411.132	541.69
411.355	592.69
411.578	560.69
411.802	517.69
412.025	500.69
412.249	525.69
412.472	529.69
412.695	583.69
412.919	585.69
413.142	547.69
413.365	504.69
413.589	471.69
413.812	465.69
414.035	495.69
414.258	490.69
414.482	476.69
414.705	459.69
414.928	491.69
415.151	458.69
415.374	461.69
415.597	455.69
415.821	468.69
416.044	473.69
416.267	484.69
416.49	491.69
416.713	470.69
416.936	477.69
417.159	485.69
417.382	487.69
417.605	494.69
417.828	495.69
418.051	484.69
418.274	512.69
418.497	475.69
418.72	480.69
418.943	496.69
419.166	481.69
419.389	519.69
419.611	524.69
419.834	518.69
420.057	475.69
420.28	520.69
420.503	523.69
420.726	509.69
420.948	516.69
421.171	564.69
421.394	604.69
421.617	524.69
421.839	497.69
422.062	491.69
422.285	531.69
422.507	560.69
422.73	661.69
422.953	639.69
423.175	575.69
423.398	537.69
423.621	510.69
423.843	561.69
424.066	545.69
424.288	542.69
424.511	568.69
424.733	630.69
424.956	685.69
425.178	704.69
425.401	674.69
425.623	678.69
425.846	617.69
426.068	576.69
426.291	556.69
426.513	566.69
426.735	569.69
426.958	621.69
427.18	681.69
427.402	800.69
427.625	896.69
427.847	798.69
428.069	715.69
428.292	641.69
428.514	553.69
428.736	541.69
428.958	535.69
429.181	532.69
429.403	534.69
429.625	543.69
429.847	565.69
430.069	641.69
430.292	613.69
430.514	542.69
430.736	518.69
430.958	509.69
431.18	485.69
431.402	503.69
431.624	498.69
431.846	497.69
432.068	484.69
432.29	500.69
432.512	482.69
432.734	488.69
432.956	511.69
433.178	505.69
433.4	528.69
433.622	485.69
433.844	493.69
434.066	485.69
434.287	490.69
434.509	502.69
434.731	499.69
434.953	512.69
435.175	518.69
435.397	543.69
435.618	565.69
435.84	627.69
436.062	709.69
436.284	757.69
436.505	670.69
436.727	599.69
436.949	552.69
437.17	525.69
437.392	532.69
437.614	537.69
437.835	571.69
438.057	679.69
438.278	771.69
438.5	760.69
438.721	817.69
438.943	789.69
439.165	649.69
439.386	599.69
439.608	592.69
439.829	582.69
440.05	612.69
440.272	635.69
440.493	617.69
440.715	571.69
440.936	568.69
441.158	543.69
441.379	546.69
441.6	544.69
441.822	537.69
442.043	618.69
442.264	668.69
442.486	736.69
442.707	602.69
442.928	586.69
443.149	592.69
443.371	629.69
443.592	658.69
443.813	725.69
444.034	796.69
444.255	658.69
444.476	590.69
444.698	557.69
444.919	553.69
445.14	658.69
445.361	636.69
445.582	603.69
445.803	665.69
446.024	775.69
446.245	785.69
446.466	733.69
446.687	625.69
446.908	573.69
447.129	554.69
447.35	545.69
447.571	527.69
447.792	534.69
448.013	555.69
448.234	570.69
448.455	598.69
448.675	714.69
448.896	794.69
449.117	710.69
449.338	700.69
449.559	757.69
449.779	845.69
450	689.69
450.221	575.69
450.442	573.69
450.662	521.69
450.883	536.69
451.104	529.69
451.324	551.69
451.545	524.69
451.766	491.69
451.986	485.69
452.207	485.69
452.428	466.69
452.648	469.69
452.869	526.69
453.089	484.69
453.31	499.69
453.53	489.69
453.751	493.69
453.971	474.69
454.192	501.69
454.412	483.69
454.633	465.69
454.853	468.69
455.073	483.69
455.294	502.69
455.514	589.69
455.734	565.69
455.955	491.69
456.175	463.69
456.395	428.69
456.616	440.69
456.836	447.69
457.056	437.69
457.276	437.69
457.497	440.69
457.717	456.69
457.937	470.69
458.157	455.69
458.377	474.69
458.598	477.69
458.818	537.69
459.038	638.69
459.258	643.69
459.478	555.69
459.698	501.69
459.918	483.69
460.138	486.69
460.358	482.69
460.578	490.69
460.798	488.69
461.018	487.69
461.238	484.69
461.458	492.69
461.678	500.69
461.898	485.69
462.118	476.69
462.338	479.69
462.558	476.69
462.777	478.69
462.997	490.69
463.217	484.69
463.437	510.69
463.657	503.69
463.876	504.69
464.096	508.69
464.316	479.69
464.536	512.69
464.755	518.69
464.975	524.69
465.195	561.69
465.414	676.69
465.634	614.69
465.854	561.69
466.073	525.69
466.293	484.69
466.512	469.69
466.732	469.69
466.951	476.69
467.171	464.69
467.391	483.69
467.61	478.69
467.829	515.69
468.049	511.69
468.268	510.69
468.488	492.69
468.707	476.69
468.927	471.69
469.146	471.69
469.365	460.69
469.585	474.69
469.804	477.69
470.023	496.69
470.243	476.69
470.462	485.69
470.681	488.69
470.901	520.69
471.12	471.69
471.339	472.69
471.558	476.69
471.777	511.69
471.997	476.69
472.216	520.69
472.435	533.69
472.654	531.69
472.873	488.69
473.092	501.69
473.311	489.69
473.53	511.69
473.749	521.69
473.968	551.69
474.187	655.69
474.406	687.69
474.625	554.69
474.844	504.69
475.063	496.69
475.282	496.69
475.501	497.69
475.72	525.69
475.939	507.69
476.158	515.69
476.377	487.69
476.596	487.69
476.814	512.69
477.033	531.69
477.252	523.69
477.471	508.69
477.69	520.69
477.908	526.69
478.127	543.69
478.346	541.69
478.564	536.69
478.783	527.69
479.002	544.69
479.22	550.69
479.439	570.69
479.658	573.69
479.876	603.69
480.095	582.69
480.313	604.69
480.532	610.69
480.751	585.69
480.969	603.69
481.188	674.69
481.406	733.69
481.624	645.69
481.843	617.69
482.061	607.69
482.28	594.69
482.498	604.69
482.717	593.69
482.935	587.69
483.153	571.69
483.372	581.69
483.59	586.69
483.808	583.69
484.027	615.69
484.245	570.69
484.463	574.69
484.681	599.69
484.9	581.69
485.118	603.69
485.336	612.69
485.554	599.69
485.772	581.69
485.99	615.69
486.209	589.69
486.427	597.69
486.645	638.69
486.863	653.69
487.081	656.69
487.299	635.69
487.517	645.69
487.735	647.69
487.953	641.69
488.171	631.69
488.389	656.69
488.607	657.69
488.825	639.69
489.043	633.69
489.261	648.69
489.479	633.69
489.696	631.69
489.914	640.69
490.132	683.69
490.35	663.69
490.568	684.69
490.786	681.69
491.003	710.69
491.221	699.69
491.439	736.69
491.657	739.69
491.874	729.69
492.092	723.69
492.31	767.69
492.527	756.69
492.745	775.69
492.963	757.69
493.18	752.69
493.398	767.69
493.615	750.69
493.833	775.69
494.05	747.69
494.268	769.69
494.485	775.69
494.703	761.69
494.92	760.69
495.138	757.69
495.355	777.69
495.573	796.69
495.79	755.69
496.008	762.69
496.225	759.69
496.442	751.69
496.66	753.69
496.877	758.69
497.094	777.69
497.312	777.69
497.529	780.69
497.746	777.69
497.963	753.69
498.181	810.69
498.398	817.69
498.615	827.69
498.832	821.69
499.049	810.69
499.267	816.69
499.484	847.69
499.701	889.69
499.918	897.69
500.135	898.69
500.352	951.69
500.569	931.69
500.786	949.69
501.003	931.69
501.22	940.69
501.437	927.69
501.654	906.69
501.871	905.69
502.088	888.69
502.305	868.69
502.522	825.69
502.739	827.69
502.956	806.69
503.172	790.69
503.389	774.69
503.606	800.69
503.823	805.69
504.04	779.69
504.256	763.69
504.473	756.69
504.69	735.69
504.907	742.69
505.123	744.69
505.34	739.69
505.557	740.69
505.773	756.69
505.99	735.69
506.207	720.69
506.423	714.69
506.64	740.69
506.856	767.69
507.073	718.69
507.289	716.69
507.506	701.69
507.722	745.69
507.939	753.69
508.155	746.69
508.372	711.69
508.588	705.69
508.805	692.69
509.021	727.69
509.238	723.69
509.454	703.69
509.67	703.69
509.887	697.69
510.103	713.69
510.319	742.69
510.536	852.69
510.752	1365.69
510.968	1132.69
511.184	741.69
511.401	722.69
511.617	701.69
511.833	722.69
512.049	667.69
512.265	668.69
512.481	675.69
512.698	682.69
512.914	691.69
513.13	686.69
513.346	677.69
513.562	672.69
513.778	687.69
513.994	686.69
514.21	717.69
514.426	723.69
514.642	797.69
514.858	779.69
515.074	852.69
515.29	1046.69
515.506	1582.69
515.721	1295.69
515.937	842.69
516.153	760.69
516.369	709.69
516.585	710.69
516.801	696.69
517.016	679.69
517.232	678.69
517.448	675.69
517.664	672.69
517.879	698.69
518.095	667.69
518.311	675.69
518.527	683.69
518.742	683.69
518.958	656.69
519.173	677.69
519.389	655.69
519.605	669.69
519.82	680.69
520.036	667.69
520.251	703.69
520.467	744.69
520.682	783.69
520.898	780.69
521.113	797.69
521.329	874.69
521.544	971.69
521.76	1245.69
521.975	2007.69
522.19	2039.69
522.406	1080.69
522.621	807.69
522.836	729.69
523.052	720.69
523.267	695.69
523.482	640.69
523.698	636.69
523.913	632.69
524.128	610.69
524.343	612.69
524.559	592.69
524.774	588.69
524.989	590.69
525.204	583.69
525.419	607.69
525.634	575.69
525.849	557.69
526.064	558.69
526.28	573.69
526.495	597.69
526.71	539.69
526.925	546.69
527.14	518.69
527.355	539.69
527.57	528.69
527.785	538.69
527.999	537.69
528.214	550.69
528.429	531.69
528.644	563.69
528.859	551.69
529.074	549.69
529.289	607.69
529.503	680.69
529.718	667.69
529.933	593.69
530.148	583.69
530.363	559.69
530.577	535.69
530.792	528.69
531.007	545.69
531.221	539.69
531.436	537.69
531.651	529.69
531.865	528.69
532.08	544.69
532.295	522.69
532.509	524.69
532.724	514.69
532.938	511.69
533.153	512.69
533.367	530.69
533.582	515.69
533.796	514.69
534.011	514.69
534.225	487.69
534.44	502.69
534.654	505.69
534.868	504.69
535.083	488.69
535.297	483.69
535.511	503.69
535.726	527.69
535.94	533.69
536.154	522.69
536.369	503.69
536.583	532.69
536.797	480.69
537.011	507.69
537.225	503.69
537.44	500.69
537.654	505.69
537.868	487.69
538.082	484.69
538.296	493.69
538.51	491.69
538.724	493.69
538.938	474.69
539.153	508.69
539.367	501.69
539.581	500.69
539.795	493.69
540.009	489.69
540.222	495.69
540.436	474.69
540.65	499.69
540.864	495.69
541.078	519.69
541.292	493.69
541.506	498.69
541.72	483.69
541.934	506.69
542.147	512.69
542.361	510.69
542.575	473.69
542.789	490.69
543.002	478.69
543.216	469.69
543.43	477.69
543.644	500.69
543.857	501.69
544.071	509.69
544.285	488.69
544.498	490.69
544.712	466.69
544.925	491.69
545.139	485.69
545.352	479.69
545.566	459.69
545.779	466.69
545.993	470.69
546.206	486.69
546.42	471.69
546.633	464.69
546.847	456.69
547.06	451.69
547.274	474.69
547.487	467.69
547.7	457.69
547.914	475.69
548.127	459.69
548.34	454.69
548.554	445.69
548.767	459.69
548.98	474.69
549.193	460.69
549.407	459.69
549.62	438.69
549.833	441.69
550.046	452.69
550.259	458.69
550.473	454.69
550.686	463.69
550.899	454.69
551.112	447.69
551.325	452.69
551.538	439.69
551.751	456.69
551.964	428.69
552.177	449.69
552.39	437.69
552.603	439.69
552.816	465.69
553.029	447.69
553.242	461.69
553.455	471.69
553.667	473.69
553.88	463.69
554.093	442.69
554.306	448.69
554.519	447.69
554.732	442.69
554.944	432.69
555.157	431.69
555.37	436.69
555.583	448.69
555.795	445.69
556.008	422.69
556.221	430.69
556.433	417.69
556.646	431.69
556.859	409.69
557.071	426.69
557.284	402.69
557.496	421.69
557.709	411.69
557.921	412.69
558.134	398.69
558.346	402.69
558.559	396.69
558.771	409.69
558.984	398.69
559.196	416.69
559.409	420.69
559.621	423.69
559.833	403.69
560.046	392.69
560.258	385.69
560.47	407.69
560.683	405.69
560.895	419.69
561.107	407.69
561.32	402.69
561.532	406.69
561.744	391.69
561.956	411.69
562.168	417.69
562.381	405.69
562.593	407.69
562.805	389.69
563.017	412.69
563.229	407.69
563.441	420.69
563.653	413.69
563.865	399.69
564.077	409.69
564.289	405.69
564.501	383.69
564.713	412.69
564.925	420.69
565.137	431.69
565.349	420.69
565.561	442.69
565.773	435.69
565.985	430.69
566.197	440.69
566.408	447.69
566.62	448.69
566.832	471.69
567.044	446.69
567.255	467.69
567.467	469.69
567.679	466.69
567.891	466.69
568.102	450.69
568.314	464.69
568.526	455.69
568.737	427.69
568.949	421.69
569.161	409.69
569.372	427.69
569.584	395.69
569.795	423.69
570.007	411.69
570.218	446.69
570.43	445.69
570.641	397.69
570.853	389.69
571.064	407.69
571.276	393.69
571.487	388.69
571.698	382.69
571.91	366.69
572.121	388.69
572.333	373.69
572.544	351.69
572.755	339.69
572.966	356.69
573.178	368.69
573.389	359.69
573.6	347.69
573.811	361.69
574.023	364.69
574.234	346.69
574.445	344.69
574.656	336.69
574.867	326.69
575.078	358.69
575.289	354.69
575.501	356.69
575.712	320.69
575.923	319.69
576.134	346.69
576.345	338.69
576.556	346.69
576.767	343.69
576.978	352.69
577.188	347.69
577.399	343.69
577.61	325.69
577.821	343.69
578.032	343.69
578.243	391.69
578.454	633.69
578.665	475.69
578.875	348.69
579.086	337.69
579.297	335.69
579.508	350.69
579.718	344.69
579.929	339.69
580.14	318.69
580.35	327.69
580.561	342.69
580.772	313.69
580.982	318.69
581.193	302.69
581.403	329.69
581.614	310.69
581.825	315.69
582.035	323.69
582.246	307.69
582.456	321.69
582.667	319.69
582.877	304.69
583.087	306.69
583.298	311.69
583.508	314.69
583.719	329.69
583.929	315.69
584.139	303.69
584.35	320.69
584.56	331.69
584.77	325.69
584.981	284.69
585.191	317.69
585.401	319.69
585.611	313.69
585.821	308.69
586.032	314.69
586.242	299.69
586.452	311.69
586.662	309.69
586.872	305.69
587.082	303.69
587.292	310.69
587.502	296.69
587.713	329.69
587.923	308.69
588.133	315.69
588.343	316.69
588.553	291.69
588.762	309.69
588.972	308.69
589.182	311.69
589.392	291.69
589.602	279.69
589.812	306.69
590.022	291.69
590.232	299.69
590.441	302.69
590.651	315.69
590.861	295.69
591.071	304.69
591.281	280.69
591.49	297.69
591.7	302.69
591.91	295.69
592.119	303.69
592.329	279.69
592.539	304.69
592.748	315.69
592.958	291.69
593.167	303.69
593.377	317.69
593.587	293.69
593.796	303.69
594.006	313.69
594.215	295.69
594.424	291.69
594.634	286.69
594.843	308.69
595.053	293.69
595.262	290.69
595.472	304.69
595.681	280.69
595.89	300.69
596.1	309.69
596.309	284.69
596.518	281.69
596.727	283.69
596.937	273.69
597.146	294.69
597.355	288.69
597.564	290.69
597.774	288.69
597.983	268.69
598.192	295.69
598.401	281.69
598.61	285.69
598.819	288.69
599.028	271.69
599.237	264.69
599.446	272.69
599.655	280.69
599.864	259.69
600.073	253.69
600.282	267.69
600.491	245.69
600.7	263.69
600.909	244.69
601.118	251.69
601.327	267.69
601.536	259.69
601.745	255.69
601.953	261.69
602.162	277.69
602.371	262.69
602.58	270.69
602.789	263.69
602.997	275.69
603.206	263.69
603.415	241.69
603.623	246.69
603.832	262.69
604.041	287.69
604.249	264.69
604.458	264.69
604.666	264.69
604.875	274.69
605.084	244.69
605.292	249.69
605.501	265.69
605.709	273.69
605.918	261.69
606.126	262.69
606.334	259.69
606.543	273.69
606.751	251.69
606.96	259.69
607.168	247.69
607.376	246.69
607.585	269.69
607.793	259.69
608.001	265.69
608.21	249.69
608.418	266.69
608.626	247.69
608.834	256.69
609.043	255.69
609.251	268.69
609.459	261.69
609.667	260.69
609.875	245.69
610.083	246.69
610.291	259.69
610.499	244.69
610.707	250.69
610.916	251.69
611.124	260.69
611.332	259.69
611.54	259.69
611.748	246.69
611.955	257.69
612.163	241.69
612.371	247.69
612.579	268.69
612.787	259.69
612.995	243.69
613.203	258.69
613.411	253.69
613.618	254.69
613.826	261.69
614.034	249.69
614.242	239.69
614.449	243.69
614.657	231.69
614.865	245.69
615.072	240.69
615.28	245.69
615.488	243.69
615.695	248.69
615.903	249.69
616.111	251.69
616.318	257.69
616.526	245.69
616.733	249.69
616.941	246.69
617.148	258.69
617.356	241.69
617.563	247.69
617.771	249.69
617.978	246.69
618.185	250.69
618.393	230.69
618.6	238.69
618.807	239.69
619.015	230.69
619.222	244.69
619.429	248.69
619.637	227.69
619.844	231.69
620.051	237.69
620.258	243.69
620.466	235.69
620.673	216.69
620.88	230.69
621.087	217.69
621.294	245.69
621.501	228.69
621.708	226.69
621.915	220.69
622.122	233.69
622.329	234.69
622.536	232.69
622.743	224.69
622.95	218.69
623.157	219.69
623.364	236.69
623.571	237.69
623.778	231.69
623.985	222.69
624.192	233.69
624.399	214.69
624.606	222.69
624.812	223.69
625.019	228.69
625.226	222.69
625.433	217.69
625.639	211.69
625.846	215.69
626.053	203.69
626.259	220.69
626.466	203.69
626.673	221.69
626.879	205.69
627.086	221.69
627.293	214.69
627.499	204.69
627.706	215.69
627.912	215.69
628.119	207.69
628.325	204.69
628.532	202.69
628.738	208.69
628.945	201.69
629.151	196.69
629.357	215.69
629.564	214.69
629.77	202.69
629.976	212.69
630.183	194.69
630.389	214.69
630.595	189.69
630.802	195.69
631.008	191.69
631.214	202.69
631.42	199.69
631.627	195.69
631.833	197.69
632.039	192.69
632.245	199.69
632.451	203.69
632.657	202.69
632.863	190.69
633.069	195.69
633.275	205.69
633.481	201.69
633.688	208.69
633.893	199.69
634.099	182.69
634.305	205.69
634.511	193.69
634.717	198.69
634.923	202.69
635.129	204.69
635.335	190.69
635.541	185.69
635.747	198.69
635.952	175.69
636.158	198.69
636.364	204.69
636.57	205.69
636.775	199.69
636.981	192.69
637.187	188.69
637.392	185.69
637.598	196.69
637.804	196.69
638.009	183.69
638.215	180.69
638.421	191.69
638.626	187.69
638.832	189.69
639.037	187.69
639.243	163.69
639.448	173.69
639.654	179.69
639.859	175.69
640.065	185.69
640.27	169.69
640.475	186.69
640.681	172.69
640.886	168.69
641.091	175.69
641.297	165.69
641.502	169.69
641.707	186.69
641.913	181.69
642.118	184.69
642.323	175.69
642.528	169.69
642.733	181.69
642.939	183.69
643.144	174.69
643.349	177.69
643.554	187.69
643.759	171.69
643.964	172.69
644.169	167.69
644.374	168.69
644.579	186.69
644.784	159.69
644.989	179.69
645.194	169.69
645.399	165.69
645.604	155.69
645.809	154.69
646.014	180.69
646.219	168.69
646.423	160.69
646.628	169.69
646.833	175.69
647.038	175.69
647.243	168.69
647.447	179.69
647.652	187.69
647.857	164.69
648.062	176.69
648.266	166.69
648.471	176.69
648.676	168.69
648.88	173.69
649.085	178.69
649.289	167.69
649.494	173.69
649.698	188.69
649.903	162.69
650.107	164.69
650.312	176.69
650.516	146.69
650.721	153.69
650.925	148.69
651.13	160.69
651.334	135.69
651.539	147.69
651.743	145.69
651.947	165.69
652.152	151.69
652.356	143.69
652.56	142.69
652.764	162.69
652.969	142.69
653.173	139.69
653.377	148.69
653.581	135.69
653.785	160.69
653.99	146.69
654.194	145.69
654.398	143.69
654.602	131.69
654.806	135.69
655.01	139.69
655.214	135.69
655.418	155.69
655.622	147.69
655.826	127.69
656.03	133.69
656.234	140.69
656.438	135.69
656.642	133.69
656.846	144.69
657.049	129.69
657.253	126.69
657.457	131.69
657.661	115.69
657.865	108.69
658.068	106.69
658.272	117.69
658.476	104.69
658.68	101.69
658.883	103.69
659.087	107.69
659.291	106.69
659.494	102.69
659.698	107.69
659.901	107.69
660.105	97.69
660.309	95.69
660.512	104.69
660.716	96.69
660.919	95.69
661.123	81.69
661.326	70.69
661.53	96.69
661.733	81.69
661.936	112.69
662.14	96.69
662.343	84.69
662.546	89.69
662.75	81.69
662.953	79.69
663.156	84.69
663.36	77.69
663.563	84.69
663.766	90.69
663.969	85.69
664.173	86.69
664.376	87.69
664.579	81.69
664.782	100.69
664.985	83.69
665.188	82.69
665.391	77.69
665.594	75.69
665.797	84.69
666	79.69
666.203	84.69
666.406	83.69
666.609	98.69
666.812	86.69
667.015	90.69
667.218	81.69
667.421	76.69
667.624	92.69
667.827	90.69
668.03	75.69
668.232	89.69
668.435	72.69
668.638	90.69
668.841	87.69
669.043	93.69
669.246	77.69
669.449	90.69
669.651	71.69
669.854	79.69
670.057	69.69
670.259	89.69
670.462	92.69
670.665	85.69
670.867	92.69
671.07	93.69
671.272	86.69
671.475	91.69
671.677	68.69
671.88	102.69
672.082	83.69
672.284	76.69
672.487	79.69
672.689	80.69
672.892	91.69
