Data from 1970.PennyLincolnUp.Lamp.En5.5.200Scan.071719.P1._HRD10591_15-14-05-842.txt Node
Date: Thu Jul 18 15:14:05 EDT 2019
User: cochatt
Spectrometer: HR+D1059
Trigger mode: 1
Integration Time (sec): 1.000000E-1
Scans to average: 1
Electric dark correction enabled: true
Nonlinearity correction enabled: false
Boxcar width: 0
XAxis mode: Wavelengths
Number of Pixels in Spectrum: 2048
>>>>>Begin Spectral Data<<<<<
223.165	-22.94
223.4	-22.94
223.635	-22.94
223.869	-12.94
224.104	-12.94
224.338	-23.94
224.573	-7.94
224.808	-10.94
225.042	-8.94
225.277	-10.94
225.511	-10.94
225.746	-0.94
225.98	28.06
226.215	3.06
226.449	35.06
226.683	19.06
226.918	18.06
227.152	20.06
227.387	43.06
227.621	37.06
227.856	41.06
228.09	38.06
228.324	52.06
228.559	49.06
228.793	67.06
229.027	115.06
229.262	104.06
229.496	113.06
229.73	132.06
229.964	159.06
230.199	143.06
230.433	123.06
230.667	104.06
230.901	117.06
231.136	119.06
231.37	121.06
231.604	104.06
231.838	108.06
232.072	122.06
232.306	113.06
232.541	114.06
232.775	122.06
233.009	112.06
233.243	133.06
233.477	123.06
233.711	127.06
233.945	120.06
234.179	106.06
234.413	117.06
234.647	116.06
234.881	100.06
235.115	127.06
235.349	117.06
235.583	121.06
235.817	133.06
236.051	133.06
236.285	136.06
236.519	128.06
236.753	138.06
236.987	147.06
237.221	188.06
237.455	257.06
237.689	211.06
237.922	161.06
238.156	147.06
238.39	131.06
238.624	124.06
238.858	133.06
239.091	139.06
239.325	130.06
239.559	144.06
239.793	132.06
240.027	152.06
240.26	132.06
240.494	179.06
240.728	162.06
240.961	141.06
241.195	160.06
241.429	147.06
241.662	141.06
241.896	139.06
242.13	143.06
242.363	131.06
242.597	142.06
242.83	133.06
243.064	154.06
243.298	143.06
243.531	144.06
243.765	148.06
243.998	130.06
244.232	151.06
244.465	142.06
244.699	147.06
244.932	155.06
245.166	165.06
245.399	150.06
245.633	159.06
245.866	172.06
246.099	150.06
246.333	151.06
246.566	166.06
246.8	149.06
247.033	157.06
247.266	180.06
247.5	161.06
247.733	173.06
247.966	175.06
248.2	177.06
248.433	191.06
248.666	188.06
248.899	191.06
249.133	213.06
249.366	220.06
249.599	220.06
249.832	210.06
250.066	202.06
250.299	189.06
250.532	199.06
250.765	214.06
250.998	230.06
251.231	236.06
251.465	232.06
251.698	235.06
251.931	218.06
252.164	211.06
252.397	217.06
252.63	224.06
252.863	210.06
253.096	229.06
253.329	261.06
253.562	234.06
253.795	232.06
254.028	233.06
254.261	228.06
254.494	234.06
254.727	267.06
254.96	289.06
255.193	289.06
255.426	287.06
255.659	270.06
255.892	264.06
256.124	245.06
256.357	241.06
256.59	246.06
256.823	239.06
257.056	226.06
257.289	225.06
257.521	218.06
257.754	225.06
257.987	223.06
258.22	219.06
258.452	228.06
258.685	205.06
258.918	225.06
259.151	218.06
259.383	231.06
259.616	234.06
259.849	231.06
260.081	257.06
260.314	273.06
260.547	275.06
260.779	263.06
261.012	255.06
261.244	243.06
261.477	234.06
261.71	228.06
261.942	228.06
262.175	251.06
262.407	231.06
262.64	233.06
262.872	215.06
263.105	216.06
263.337	217.06
263.57	217.06
263.802	216.06
264.035	222.06
264.267	218.06
264.499	220.06
264.732	217.06
264.964	219.06
265.197	214.06
265.429	198.06
265.661	202.06
265.894	206.06
266.126	213.06
266.358	221.06
266.591	208.06
266.823	209.06
267.055	207.06
267.287	234.06
267.52	231.06
267.752	220.06
267.984	220.06
268.216	212.06
268.448	228.06
268.681	230.06
268.913	242.06
269.145	267.06
269.377	283.06
269.609	273.06
269.841	289.06
270.073	285.06
270.306	294.06
270.538	327.06
270.77	320.06
271.002	297.06
271.234	304.06
271.466	331.06
271.698	314.06
271.93	334.06
272.162	324.06
272.394	326.06
272.626	321.06
272.858	296.06
273.09	300.06
273.322	278.06
273.553	260.06
273.785	263.06
274.017	257.06
274.249	263.06
274.481	264.06
274.713	260.06
274.945	269.06
275.176	275.06
275.408	279.06
275.64	277.06
275.872	267.06
276.104	241.06
276.335	257.06
276.567	271.06
276.799	290.06
277.031	309.06
277.262	315.06
277.494	319.06
277.726	320.06
277.957	294.06
278.189	275.06
278.421	274.06
278.652	279.06
278.884	259.06
279.115	261.06
279.347	262.06
279.579	272.06
279.81	249.06
280.042	245.06
280.273	268.06
280.505	268.06
280.736	269.06
280.968	266.06
281.199	270.06
281.431	249.06
281.662	243.06
281.894	257.06
282.125	266.06
282.356	281.06
282.588	296.06
282.819	304.06
283.051	280.06
283.282	252.06
283.513	273.06
283.745	267.06
283.976	286.06
284.207	260.06
284.439	281.06
284.67	259.06
284.901	259.06
285.132	258.06
285.364	260.06
285.595	269.06
285.826	263.06
286.057	276.06
286.288	270.06
286.52	270.06
286.751	251.06
286.982	259.06
287.213	268.06
287.444	275.06
287.675	282.06
287.906	286.06
288.138	298.06
288.369	287.06
288.6	289.06
288.831	294.06
289.062	299.06
289.293	279.06
289.524	287.06
289.755	265.06
289.986	267.06
290.217	284.06
290.448	280.06
290.679	258.06
290.91	275.06
291.141	277.06
291.371	283.06
291.602	292.06
291.833	266.06
292.064	289.06
292.295	278.06
292.526	280.06
292.757	276.06
292.987	281.06
293.218	283.06
293.449	282.06
293.68	270.06
293.91	262.06
294.141	304.06
294.372	276.06
294.603	287.06
294.833	276.06
295.064	281.06
295.295	273.06
295.525	286.06
295.756	284.06
295.987	293.06
296.217	323.06
296.448	317.06
296.679	293.06
296.909	288.06
297.14	287.06
297.37	281.06
297.601	298.06
297.831	293.06
298.062	289.06
298.292	292.06
298.523	288.06
298.753	276.06
298.984	293.06
299.214	284.06
299.445	290.06
299.675	297.06
299.905	305.06
300.136	296.06
300.366	309.06
300.597	299.06
300.827	296.06
301.057	297.06
301.288	311.06
301.518	319.06
301.748	316.06
301.979	286.06
302.209	300.06
302.439	311.06
302.669	311.06
302.9	324.06
303.13	309.06
303.36	298.06
303.59	318.06
303.82	316.06
304.051	328.06
304.281	326.06
304.511	308.06
304.741	319.06
304.971	311.06
305.201	322.06
305.431	302.06
305.661	336.06
305.891	307.06
306.121	320.06
306.352	321.06
306.582	314.06
306.812	330.06
307.042	323.06
307.272	310.06
307.502	315.06
307.731	354.06
307.961	323.06
308.191	315.06
308.421	300.06
308.651	297.06
308.881	319.06
309.111	341.06
309.341	315.06
309.571	355.06
309.8	338.06
310.03	378.06
310.26	375.06
310.49	390.06
310.72	399.06
310.949	405.06
311.179	380.06
311.409	390.06
311.639	375.06
311.868	365.06
312.098	371.06
312.328	358.06
312.557	375.06
312.787	405.06
313.017	397.06
313.246	383.06
313.476	385.06
313.706	380.06
313.935	382.06
314.165	367.06
314.394	384.06
314.624	397.06
314.853	382.06
315.083	357.06
315.312	387.06
315.542	354.06
315.771	360.06
316.001	381.06
316.23	364.06
316.46	363.06
316.689	383.06
316.919	375.06
317.148	379.06
317.377	389.06
317.607	387.06
317.836	386.06
318.065	350.06
318.295	375.06
318.524	357.06
318.753	364.06
318.983	388.06
319.212	371.06
319.441	382.06
319.67	410.06
319.9	375.06
320.129	390.06
320.358	377.06
320.587	385.06
320.816	383.06
321.046	385.06
321.275	402.06
321.504	391.06
321.733	398.06
321.962	393.06
322.191	416.06
322.42	433.06
322.649	460.06
322.878	466.06
323.108	455.06
323.337	498.06
323.566	520.06
323.795	552.06
324.024	595.06
324.253	739.06
324.482	994.06
324.71	1559.06
324.939	2192.06
325.168	1920.06
325.397	1076.06
325.626	710.06
325.855	571.06
326.084	531.06
326.313	497.06
326.542	535.06
326.77	580.06
326.999	701.06
327.228	907.06
327.457	1384.06
327.686	1648.06
327.914	1159.06
328.143	764.06
328.372	647.06
328.6	626.06
328.829	575.06
329.058	621.06
329.287	619.06
329.515	582.06
329.744	538.06
329.972	526.06
330.201	554.06
330.43	589.06
330.658	605.06
330.887	637.06
331.115	615.06
331.344	554.06
331.572	507.06
331.801	498.06
332.03	493.06
332.258	476.06
332.486	481.06
332.715	436.06
332.943	439.06
333.172	439.06
333.4	455.06
333.629	468.06
333.857	483.06
334.085	486.06
334.314	498.06
334.542	539.06
334.771	547.06
334.999	490.06
335.227	483.06
335.455	469.06
335.684	431.06
335.912	425.06
336.14	435.06
336.369	428.06
336.597	452.06
336.825	452.06
337.053	425.06
337.281	410.06
337.51	431.06
337.738	445.06
337.966	433.06
338.194	443.06
338.422	432.06
338.65	439.06
338.878	422.06
339.106	431.06
339.334	433.06
339.562	439.06
339.79	426.06
340.018	431.06
340.246	429.06
340.474	441.06
340.702	421.06
340.93	415.06
341.158	435.06
341.386	449.06
341.614	419.06
341.842	433.06
342.07	401.06
342.298	418.06
342.526	419.06
342.754	413.06
342.981	434.06
343.209	385.06
343.437	412.06
343.665	417.06
343.893	421.06
344.12	435.06
344.348	436.06
344.576	438.06
344.804	444.06
345.031	439.06
345.259	443.06
345.487	419.06
345.714	456.06
345.942	431.06
346.17	447.06
346.397	411.06
346.625	425.06
346.853	436.06
347.08	405.06
347.308	439.06
347.535	449.06
347.763	433.06
347.99	439.06
348.218	433.06
348.445	426.06
348.673	449.06
348.9	424.06
349.128	435.06
349.355	409.06
349.583	387.06
349.81	401.06
350.037	399.06
350.265	384.06
350.492	421.06
350.72	397.06
350.947	428.06
351.174	431.06
351.402	429.06
351.629	450.06
351.856	431.06
352.083	457.06
352.311	442.06
352.538	451.06
352.765	445.06
352.992	445.06
353.22	413.06
353.447	450.06
353.674	427.06
353.901	385.06
354.128	409.06
354.355	401.06
354.583	378.06
354.81	396.06
355.037	378.06
355.264	403.06
355.491	391.06
355.718	393.06
355.945	389.06
356.172	406.06
356.399	403.06
356.626	388.06
356.853	393.06
357.08	402.06
357.307	409.06
357.534	389.06
357.761	371.06
357.988	381.06
358.215	393.06
358.441	404.06
358.668	385.06
358.895	395.06
359.122	400.06
359.349	417.06
359.576	426.06
359.802	469.06
360.029	474.06
360.256	495.06
360.483	494.06
360.709	455.06
360.936	397.06
361.163	430.06
361.39	466.06
361.616	445.06
361.843	407.06
362.07	396.06
362.296	418.06
362.523	409.06
362.749	429.06
362.976	429.06
363.203	433.06
363.429	406.06
363.656	403.06
363.882	405.06
364.109	416.06
364.335	416.06
364.562	428.06
364.788	416.06
365.015	404.06
365.241	404.06
365.468	412.06
365.694	415.06
365.92	415.06
366.147	417.06
366.373	416.06
366.599	412.06
366.826	403.06
367.052	398.06
367.278	396.06
367.505	421.06
367.731	420.06
367.957	408.06
368.184	413.06
368.41	420.06
368.636	424.06
368.862	421.06
369.089	425.06
369.315	405.06
369.541	412.06
369.767	417.06
369.993	409.06
370.219	417.06
370.445	432.06
370.672	391.06
370.898	392.06
371.124	418.06
371.35	396.06
371.576	410.06
371.802	393.06
372.028	391.06
372.254	414.06
372.48	417.06
372.706	418.06
372.932	423.06
373.158	401.06
373.384	423.06
373.61	412.06
373.835	405.06
374.061	425.06
374.287	414.06
374.513	419.06
374.739	428.06
374.965	401.06
375.191	434.06
375.416	405.06
375.642	416.06
375.868	405.06
376.094	421.06
376.319	413.06
376.545	397.06
376.771	411.06
376.997	409.06
377.222	390.06
377.448	417.06
377.674	424.06
377.899	398.06
378.125	403.06
378.35	410.06
378.576	407.06
378.802	405.06
379.027	408.06
379.253	415.06
379.478	417.06
379.704	405.06
379.929	400.06
380.155	434.06
380.38	407.06
380.606	434.06
380.831	411.06
381.057	415.06
381.282	418.06
381.507	425.06
381.733	431.06
381.958	429.06
382.184	426.06
382.409	448.06
382.634	418.06
382.86	393.06
383.085	416.06
383.31	428.06
383.535	420.06
383.761	421.06
383.986	442.06
384.211	435.06
384.436	433.06
384.662	445.06
384.887	459.06
385.112	435.06
385.337	441.06
385.562	448.06
385.787	432.06
386.013	464.06
386.238	425.06
386.463	434.06
386.688	447.06
386.913	460.06
387.138	443.06
387.363	471.06
387.588	456.06
387.813	462.06
388.038	445.06
388.263	477.06
388.488	440.06
388.713	433.06
388.938	438.06
389.163	442.06
389.387	445.06
389.612	434.06
389.837	435.06
390.062	436.06
390.287	446.06
390.512	448.06
390.736	460.06
390.961	444.06
391.186	445.06
391.411	431.06
391.636	437.06
391.86	463.06
392.085	465.06
392.31	454.06
392.534	457.06
392.759	455.06
392.984	444.06
393.208	448.06
393.433	474.06
393.658	476.06
393.882	435.06
394.107	458.06
394.331	448.06
394.556	455.06
394.78	435.06
395.005	445.06
395.229	470.06
395.454	458.06
395.678	474.06
395.903	460.06
396.127	505.06
396.352	502.06
396.576	473.06
396.801	469.06
397.025	466.06
397.249	486.06
397.474	464.06
397.698	464.06
397.922	488.06
398.147	483.06
398.371	514.06
398.595	474.06
398.82	509.06
399.044	503.06
399.268	507.06
399.492	549.06
399.717	556.06
399.941	565.06
400.165	606.06
400.389	604.06
400.613	578.06
400.837	535.06
401.062	543.06
401.286	528.06
401.51	523.06
401.734	517.06
401.958	507.06
402.182	517.06
402.406	514.06
402.63	543.06
402.854	553.06
403.078	535.06
403.302	535.06
403.526	513.06
403.75	546.06
403.974	551.06
404.198	520.06
404.422	538.06
404.645	548.06
404.869	560.06
405.093	598.06
405.317	618.06
405.541	641.06
405.765	607.06
405.988	559.06
406.212	575.06
406.436	620.06
406.66	623.06
406.883	585.06
407.107	591.06
407.331	639.06
407.555	713.06
407.778	705.06
408.002	635.06
408.226	584.06
408.449	577.06
408.673	588.06
408.896	623.06
409.12	641.06
409.344	648.06
409.567	568.06
409.791	551.06
410.014	559.06
410.238	543.06
410.461	539.06
410.685	535.06
410.908	553.06
411.132	616.06
411.355	616.06
411.578	614.06
411.802	555.06
412.025	521.06
412.249	559.06
412.472	571.06
412.695	620.06
412.919	616.06
413.142	539.06
413.365	549.06
413.589	524.06
413.812	540.06
414.035	524.06
414.258	507.06
414.482	503.06
414.705	490.06
414.928	503.06
415.151	513.06
415.374	520.06
415.597	501.06
415.821	499.06
416.044	523.06
416.267	501.06
416.49	520.06
416.713	502.06
416.936	483.06
417.159	506.06
417.382	524.06
417.605	504.06
417.828	533.06
418.051	550.06
418.274	539.06
418.497	523.06
418.72	525.06
418.943	529.06
419.166	548.06
419.389	553.06
419.611	564.06
419.834	565.06
420.057	555.06
420.28	572.06
420.503	544.06
420.726	542.06
420.948	566.06
421.171	623.06
421.394	635.06
421.617	583.06
421.839	559.06
422.062	560.06
422.285	551.06
422.507	641.06
422.73	679.06
422.953	675.06
423.175	607.06
423.398	620.06
423.621	578.06
423.843	604.06
424.066	597.06
424.288	577.06
424.511	598.06
424.733	661.06
424.956	757.06
425.178	732.06
425.401	712.06
425.623	738.06
425.846	639.06
426.068	597.06
426.291	595.06
426.513	587.06
426.735	604.06
426.958	650.06
427.18	717.06
427.402	899.06
427.625	947.06
427.847	850.06
428.069	735.06
428.292	665.06
428.514	618.06
428.736	602.06
428.958	582.06
429.181	569.06
429.403	556.06
429.625	577.06
429.847	581.06
430.069	665.06
430.292	680.06
430.514	582.06
430.736	545.06
430.958	548.06
431.18	527.06
431.402	545.06
431.624	520.06
431.846	507.06
432.068	526.06
432.29	532.06
432.512	516.06
432.734	544.06
432.956	535.06
433.178	548.06
433.4	544.06
433.622	538.06
433.844	521.06
434.066	512.06
434.287	501.06
434.509	536.06
434.731	522.06
434.953	549.06
435.175	576.06
435.397	585.06
435.618	592.06
435.84	644.06
436.062	724.06
436.284	797.06
436.505	675.06
436.727	629.06
436.949	582.06
437.17	571.06
437.392	561.06
437.614	568.06
437.835	619.06
438.057	708.06
438.278	845.06
438.5	827.06
438.721	907.06
438.943	841.06
439.165	683.06
439.386	659.06
439.608	615.06
439.829	586.06
440.05	641.06
440.272	695.06
440.493	667.06
440.715	594.06
440.936	553.06
441.158	580.06
441.379	557.06
441.6	577.06
441.822	587.06
442.043	650.06
442.264	735.06
442.486	777.06
442.707	669.06
442.928	648.06
443.149	628.06
443.371	651.06
443.592	705.06
443.813	780.06
444.034	817.06
444.255	701.06
444.476	627.06
444.698	620.06
444.919	614.06
445.14	704.06
445.361	677.06
445.582	650.06
445.803	718.06
446.024	801.06
446.245	848.06
446.466	746.06
446.687	666.06
446.908	626.06
447.129	598.06
447.35	593.06
447.571	576.06
447.792	556.06
448.013	565.06
448.234	587.06
448.455	638.06
448.675	739.06
448.896	840.06
449.117	757.06
449.338	721.06
449.559	819.06
449.779	875.06
450	766.06
450.221	620.06
450.442	576.06
450.662	585.06
450.883	575.06
451.104	566.06
451.324	568.06
451.545	534.06
451.766	511.06
451.986	537.06
452.207	518.06
452.428	503.06
452.648	484.06
452.869	501.06
453.089	506.06
453.31	521.06
453.53	501.06
453.751	509.06
453.971	496.06
454.192	539.06
454.412	519.06
454.633	524.06
454.853	490.06
455.073	477.06
455.294	550.06
455.514	591.06
455.734	563.06
455.955	513.06
456.175	490.06
456.395	475.06
456.616	472.06
456.836	487.06
457.056	460.06
457.276	441.06
457.497	477.06
457.717	471.06
457.937	481.06
458.157	485.06
458.377	501.06
458.598	524.06
458.818	583.06
459.038	691.06
459.258	694.06
459.478	589.06
459.698	522.06
459.918	521.06
460.138	521.06
460.358	510.06
460.578	523.06
460.798	512.06
461.018	515.06
461.238	523.06
461.458	521.06
461.678	510.06
461.898	504.06
462.118	530.06
462.338	542.06
462.558	537.06
462.777	533.06
462.997	551.06
463.217	565.06
463.437	565.06
463.657	539.06
463.876	540.06
464.096	563.06
464.316	559.06
464.536	558.06
464.755	572.06
464.975	562.06
465.195	624.06
465.414	697.06
465.634	642.06
465.854	571.06
466.073	539.06
466.293	543.06
466.512	518.06
466.732	508.06
466.951	514.06
467.171	483.06
467.391	507.06
467.61	538.06
467.829	532.06
468.049	535.06
468.268	529.06
468.488	520.06
468.707	511.06
468.927	519.06
469.146	516.06
469.365	502.06
469.585	506.06
469.804	501.06
470.023	522.06
470.243	531.06
470.462	543.06
470.681	559.06
470.901	550.06
471.12	532.06
471.339	507.06
471.558	524.06
471.777	544.06
471.997	535.06
472.216	538.06
472.435	564.06
472.654	552.06
472.873	531.06
473.092	541.06
473.311	535.06
473.53	553.06
473.749	539.06
473.968	577.06
474.187	706.06
474.406	685.06
474.625	584.06
474.844	550.06
475.063	528.06
475.282	526.06
475.501	534.06
475.72	535.06
475.939	529.06
476.158	537.06
476.377	537.06
476.596	554.06
476.814	550.06
477.033	535.06
477.252	551.06
477.471	569.06
477.69	558.06
477.908	562.06
478.127	576.06
478.346	545.06
478.564	566.06
478.783	585.06
479.002	588.06
479.22	570.06
479.439	608.06
479.658	643.06
479.876	635.06
480.095	657.06
480.313	661.06
480.532	636.06
480.751	649.06
480.969	650.06
481.188	713.06
481.406	771.06
481.624	661.06
481.843	647.06
482.061	638.06
482.28	631.06
482.498	624.06
482.717	621.06
482.935	620.06
483.153	618.06
483.372	616.06
483.59	631.06
483.808	657.06
484.027	619.06
484.245	615.06
484.463	632.06
484.681	638.06
484.9	648.06
485.118	650.06
485.336	613.06
485.554	650.06
485.772	660.06
485.99	648.06
486.209	638.06
486.427	664.06
486.645	653.06
486.863	692.06
487.081	710.06
487.299	692.06
487.517	677.06
487.735	671.06
487.953	683.06
488.171	688.06
488.389	687.06
488.607	713.06
488.825	694.06
489.043	691.06
489.261	673.06
489.479	699.06
489.696	704.06
489.914	681.06
490.132	712.06
490.35	732.06
490.568	730.06
490.786	722.06
491.003	760.06
491.221	749.06
491.439	755.06
491.657	773.06
491.874	769.06
492.092	792.06
492.31	803.06
492.527	830.06
492.745	802.06
492.963	788.06
493.18	809.06
493.398	808.06
493.615	803.06
493.833	787.06
494.05	801.06
494.268	819.06
494.485	799.06
494.703	810.06
494.92	799.06
495.138	820.06
495.355	839.06
495.573	822.06
495.79	825.06
496.008	827.06
496.225	820.06
496.442	815.06
496.66	814.06
496.877	830.06
497.094	820.06
497.312	837.06
497.529	838.06
497.746	847.06
497.963	853.06
498.181	859.06
498.398	873.06
498.615	889.06
498.832	899.06
499.049	901.06
499.267	907.06
499.484	890.06
499.701	951.06
499.918	968.06
500.135	1013.06
500.352	983.06
500.569	1008.06
500.786	1007.06
501.003	1028.06
501.22	1023.06
501.437	989.06
501.654	969.06
501.871	964.06
502.088	939.06
502.305	909.06
502.522	893.06
502.739	883.06
502.956	863.06
503.172	850.06
503.389	844.06
503.606	842.06
503.823	828.06
504.04	832.06
504.256	796.06
504.473	821.06
504.69	801.06
504.907	794.06
505.123	785.06
505.34	778.06
505.557	783.06
505.773	792.06
505.99	800.06
506.207	762.06
506.423	794.06
506.64	773.06
506.856	795.06
507.073	789.06
507.289	770.06
507.506	758.06
507.722	772.06
507.939	809.06
508.155	796.06
508.372	761.06
508.588	728.06
508.805	745.06
509.021	764.06
509.238	777.06
509.454	790.06
509.67	748.06
509.887	735.06
510.103	751.06
510.319	781.06
510.536	892.06
510.752	1416.06
510.968	1190.06
511.184	799.06
511.401	767.06
511.617	759.06
511.833	691.06
512.049	741.06
512.265	739.06
512.481	705.06
512.698	710.06
512.914	711.06
513.13	714.06
513.346	714.06
513.562	695.06
513.778	709.06
513.994	716.06
514.21	737.06
514.426	775.06
514.642	792.06
514.858	855.06
515.074	904.06
515.29	1077.06
515.506	1594.06
515.721	1337.06
515.937	892.06
516.153	797.06
516.369	772.06
516.585	740.06
516.801	757.06
517.016	712.06
517.232	698.06
517.448	756.06
517.664	720.06
517.879	695.06
518.095	727.06
518.311	719.06
518.527	724.06
518.742	725.06
518.958	703.06
519.173	699.06
519.389	732.06
519.605	713.06
519.82	738.06
520.036	730.06
520.251	762.06
520.467	773.06
520.682	780.06
520.898	793.06
521.113	825.06
521.329	869.06
521.544	991.06
521.76	1236.06
521.975	2101.06
522.19	2045.06
522.406	1096.06
522.621	840.06
522.836	772.06
523.052	728.06
523.267	687.06
523.482	663.06
523.698	666.06
523.913	660.06
524.128	658.06
524.343	644.06
524.559	653.06
524.774	610.06
524.989	624.06
525.204	626.06
525.419	647.06
525.634	609.06
525.849	599.06
526.064	604.06
526.28	592.06
526.495	583.06
526.71	597.06
526.925	590.06
527.14	578.06
527.355	592.06
527.57	575.06
527.785	598.06
527.999	585.06
528.214	566.06
528.429	553.06
528.644	575.06
528.859	575.06
529.074	571.06
529.289	604.06
529.503	717.06
529.718	704.06
529.933	613.06
530.148	592.06
530.363	586.06
530.577	578.06
530.792	568.06
531.007	557.06
531.221	576.06
531.436	555.06
531.651	547.06
531.865	529.06
532.08	551.06
532.295	552.06
532.509	537.06
532.724	555.06
532.938	570.06
533.153	542.06
533.367	548.06
533.582	553.06
533.796	561.06
534.011	534.06
534.225	530.06
534.44	553.06
534.654	529.06
534.868	528.06
535.083	504.06
535.297	533.06
535.511	544.06
535.726	559.06
535.94	567.06
536.154	553.06
536.369	522.06
536.583	531.06
536.797	524.06
537.011	529.06
537.225	527.06
537.44	525.06
537.654	524.06
537.868	508.06
538.082	530.06
538.296	512.06
538.51	524.06
538.724	528.06
538.938	532.06
539.153	541.06
539.367	543.06
539.581	554.06
539.795	520.06
540.009	530.06
540.222	525.06
540.436	507.06
540.65	525.06
540.864	525.06
541.078	534.06
541.292	552.06
541.506	551.06
541.72	553.06
541.934	542.06
542.147	552.06
542.361	501.06
542.575	497.06
542.789	497.06
543.002	512.06
543.216	519.06
543.43	518.06
543.644	517.06
543.857	514.06
544.071	512.06
544.285	517.06
544.498	505.06
544.712	519.06
544.925	511.06
545.139	497.06
545.352	524.06
545.566	497.06
545.779	501.06
545.993	497.06
546.206	508.06
546.42	515.06
546.633	483.06
546.847	492.06
547.06	495.06
547.274	499.06
547.487	498.06
547.7	500.06
547.914	504.06
548.127	510.06
548.34	487.06
548.554	478.06
548.767	486.06
548.98	520.06
549.193	489.06
549.407	509.06
549.62	487.06
549.833	473.06
550.046	483.06
550.259	485.06
550.473	495.06
550.686	486.06
550.899	502.06
551.112	464.06
551.325	493.06
551.538	500.06
551.751	458.06
551.964	465.06
552.177	481.06
552.39	485.06
552.603	489.06
552.816	482.06
553.029	491.06
553.242	490.06
553.455	494.06
553.667	497.06
553.88	497.06
554.093	481.06
554.306	490.06
554.519	490.06
554.732	479.06
554.944	468.06
555.157	476.06
555.37	472.06
555.583	464.06
555.795	476.06
556.008	440.06
556.221	457.06
556.433	477.06
556.646	459.06
556.859	460.06
557.071	456.06
557.284	455.06
557.496	447.06
557.709	448.06
557.921	450.06
558.134	423.06
558.346	451.06
558.559	442.06
558.771	435.06
558.984	456.06
559.196	447.06
559.409	448.06
559.621	453.06
559.833	422.06
560.046	420.06
560.258	435.06
560.47	434.06
560.683	408.06
560.895	433.06
561.107	429.06
561.32	423.06
561.532	438.06
561.744	437.06
561.956	427.06
562.168	429.06
562.381	437.06
562.593	437.06
562.805	423.06
563.017	415.06
563.229	434.06
563.441	443.06
563.653	448.06
563.865	427.06
564.077	437.06
564.289	442.06
564.501	453.06
564.713	459.06
564.925	458.06
565.137	455.06
565.349	458.06
565.561	441.06
565.773	457.06
565.985	466.06
566.197	469.06
566.408	471.06
566.62	499.06
566.832	487.06
567.044	492.06
567.255	507.06
567.467	511.06
567.679	509.06
567.891	498.06
568.102	503.06
568.314	501.06
568.526	494.06
568.737	470.06
568.949	457.06
569.161	435.06
569.372	443.06
569.584	432.06
569.795	411.06
570.007	453.06
570.218	484.06
570.43	452.06
570.641	443.06
570.853	405.06
571.064	410.06
571.276	413.06
571.487	406.06
571.698	405.06
571.91	403.06
572.121	417.06
572.333	429.06
572.544	386.06
572.755	390.06
572.966	371.06
573.178	394.06
573.389	378.06
573.6	391.06
573.811	389.06
574.023	372.06
574.234	371.06
574.445	388.06
574.656	378.06
574.867	358.06
575.078	379.06
575.289	352.06
575.501	385.06
575.712	367.06
575.923	361.06
576.134	367.06
576.345	341.06
576.556	348.06
576.767	371.06
576.978	358.06
577.188	364.06
577.399	381.06
577.61	364.06
577.821	359.06
578.032	358.06
578.243	423.06
578.454	688.06
578.665	488.06
578.875	373.06
579.086	363.06
579.297	348.06
579.508	344.06
579.718	352.06
579.929	345.06
580.14	346.06
580.35	351.06
580.561	352.06
580.772	316.06
580.982	331.06
581.193	322.06
581.403	320.06
581.614	352.06
581.825	333.06
582.035	346.06
582.246	343.06
582.456	361.06
582.667	338.06
582.877	355.06
583.087	340.06
583.298	325.06
583.508	343.06
583.719	327.06
583.929	319.06
584.139	323.06
584.35	338.06
584.56	320.06
584.77	349.06
584.981	373.06
585.191	329.06
585.401	337.06
585.611	333.06
585.821	331.06
586.032	338.06
586.242	309.06
586.452	319.06
586.662	315.06
586.872	326.06
587.082	324.06
587.292	319.06
587.502	331.06
587.713	342.06
587.923	322.06
588.133	319.06
588.343	323.06
588.553	321.06
588.762	322.06
588.972	323.06
589.182	334.06
589.392	319.06
589.602	329.06
589.812	303.06
590.022	342.06
590.232	300.06
590.441	318.06
590.651	329.06
590.861	309.06
591.071	308.06
591.281	312.06
591.49	313.06
591.7	305.06
591.91	320.06
592.119	325.06
592.329	315.06
592.539	340.06
592.748	328.06
592.958	325.06
593.167	327.06
593.377	332.06
593.587	334.06
593.796	362.06
594.006	333.06
594.215	337.06
594.424	321.06
594.634	330.06
594.843	315.06
595.053	320.06
595.262	320.06
595.472	347.06
595.681	311.06
595.89	317.06
596.1	324.06
596.309	310.06
596.518	295.06
596.727	293.06
596.937	267.06
597.146	305.06
597.355	294.06
597.564	296.06
597.774	296.06
597.983	279.06
598.192	298.06
598.401	300.06
598.61	279.06
598.819	289.06
599.028	306.06
599.237	293.06
599.446	295.06
599.655	282.06
599.864	300.06
600.073	261.06
600.282	287.06
600.491	275.06
600.7	283.06
600.909	292.06
601.118	287.06
601.327	303.06
601.536	289.06
601.745	283.06
601.953	293.06
602.162	282.06
602.371	267.06
602.58	263.06
602.789	278.06
602.997	282.06
603.206	289.06
603.415	289.06
603.623	279.06
603.832	288.06
604.041	268.06
604.249	282.06
604.458	255.06
604.666	270.06
604.875	271.06
605.084	276.06
605.292	267.06
605.501	292.06
605.709	272.06
605.918	275.06
606.126	270.06
606.334	274.06
606.543	257.06
606.751	273.06
606.96	273.06
607.168	276.06
607.376	273.06
607.585	278.06
607.793	255.06
608.001	293.06
608.21	275.06
608.418	259.06
608.626	274.06
608.834	260.06
609.043	254.06
609.251	261.06
609.459	248.06
609.667	264.06
609.875	277.06
610.083	270.06
610.291	248.06
610.499	283.06
610.707	259.06
610.916	267.06
611.124	270.06
611.332	269.06
611.54	273.06
611.748	287.06
611.955	271.06
612.163	269.06
612.371	257.06
612.579	249.06
612.787	266.06
612.995	273.06
613.203	264.06
613.411	258.06
613.618	259.06
613.826	256.06
614.034	247.06
614.242	259.06
614.449	256.06
614.657	270.06
614.865	246.06
615.072	258.06
615.28	252.06
615.488	263.06
615.695	261.06
615.903	243.06
616.111	241.06
616.318	272.06
616.526	271.06
616.733	242.06
616.941	267.06
617.148	247.06
617.356	252.06
617.563	250.06
617.771	251.06
617.978	246.06
618.185	261.06
618.393	246.06
618.6	262.06
618.807	246.06
619.015	273.06
619.222	265.06
619.429	240.06
619.637	245.06
619.844	276.06
620.051	247.06
620.258	244.06
620.466	268.06
620.673	237.06
620.88	239.06
621.087	232.06
621.294	242.06
621.501	248.06
621.708	225.06
621.915	258.06
622.122	239.06
622.329	242.06
622.536	248.06
622.743	248.06
622.95	247.06
623.157	231.06
623.364	228.06
623.571	229.06
623.778	229.06
623.985	231.06
624.192	216.06
624.399	225.06
624.606	230.06
624.812	220.06
625.019	233.06
625.226	244.06
625.433	232.06
625.639	224.06
625.846	227.06
626.053	216.06
626.259	235.06
626.466	226.06
626.673	226.06
626.879	228.06
627.086	217.06
627.293	211.06
627.499	205.06
627.706	238.06
627.912	210.06
628.119	219.06
628.325	227.06
628.532	219.06
628.738	221.06
628.945	221.06
629.151	203.06
629.357	221.06
629.564	208.06
629.77	218.06
629.976	214.06
630.183	218.06
630.389	201.06
630.595	199.06
630.802	218.06
631.008	205.06
631.214	212.06
631.42	206.06
631.627	215.06
631.833	208.06
632.039	193.06
632.245	194.06
632.451	204.06
632.657	195.06
632.863	200.06
633.069	205.06
633.275	199.06
633.481	188.06
633.688	207.06
633.893	221.06
634.099	196.06
634.305	203.06
634.511	193.06
634.717	207.06
634.923	195.06
635.129	188.06
635.335	183.06
635.541	208.06
635.747	171.06
635.952	188.06
636.158	199.06
636.364	185.06
636.57	218.06
636.775	184.06
636.981	182.06
637.187	209.06
637.392	194.06
637.598	180.06
637.804	191.06
638.009	191.06
638.215	209.06
638.421	185.06
638.626	180.06
638.832	191.06
639.037	179.06
639.243	187.06
639.448	183.06
639.654	185.06
639.859	177.06
640.065	187.06
640.27	186.06
640.475	189.06
640.681	185.06
640.886	192.06
641.091	191.06
641.297	187.06
641.502	183.06
641.707	173.06
641.913	193.06
642.118	172.06
642.323	189.06
642.528	178.06
642.733	207.06
642.939	175.06
643.144	184.06
643.349	183.06
643.554	179.06
643.759	159.06
643.964	179.06
644.169	178.06
644.374	153.06
644.579	173.06
644.784	163.06
644.989	198.06
645.194	184.06
645.399	176.06
645.604	164.06
645.809	179.06
646.014	170.06
646.219	182.06
646.423	181.06
646.628	181.06
646.833	181.06
647.038	184.06
647.243	162.06
647.447	167.06
647.652	170.06
647.857	178.06
648.062	166.06
648.266	187.06
648.471	181.06
648.676	183.06
648.88	177.06
649.085	180.06
649.289	186.06
649.494	188.06
649.698	204.06
649.903	176.06
650.107	187.06
650.312	177.06
650.516	156.06
650.721	171.06
650.925	160.06
651.13	162.06
651.334	149.06
651.539	163.06
651.743	157.06
651.947	163.06
652.152	141.06
652.356	135.06
652.56	153.06
652.764	156.06
652.969	148.06
653.173	136.06
653.377	136.06
653.581	150.06
653.785	140.06
653.99	153.06
654.194	149.06
654.398	151.06
654.602	143.06
654.806	136.06
655.01	131.06
655.214	152.06
655.418	139.06
655.622	129.06
655.826	128.06
656.03	136.06
656.234	123.06
656.438	143.06
656.642	121.06
656.846	127.06
657.049	147.06
657.253	132.06
657.457	108.06
657.661	122.06
657.865	99.06
658.068	108.06
658.272	107.06
658.476	115.06
658.68	111.06
658.883	108.06
659.087	101.06
659.291	90.06
659.494	102.06
659.698	97.06
659.901	91.06
660.105	99.06
660.309	105.06
660.512	96.06
660.716	89.06
660.919	83.06
661.123	83.06
661.326	92.06
661.53	94.06
661.733	99.06
661.936	90.06
662.14	86.06
662.343	89.06
662.546	83.06
662.75	88.06
662.953	93.06
663.156	68.06
663.36	74.06
663.563	70.06
663.766	74.06
663.969	97.06
664.173	79.06
664.376	52.06
664.579	74.06
664.782	83.06
664.985	78.06
665.188	91.06
665.391	89.06
665.594	76.06
665.797	75.06
666	88.06
666.203	65.06
666.406	87.06
666.609	85.06
666.812	95.06
667.015	105.06
667.218	73.06
667.421	78.06
667.624	91.06
667.827	89.06
668.03	83.06
668.232	86.06
668.435	91.06
668.638	86.06
668.841	72.06
669.043	78.06
669.246	71.06
669.449	84.06
669.651	81.06
669.854	84.06
670.057	79.06
670.259	79.06
670.462	80.06
670.665	84.06
670.867	83.06
671.07	73.06
671.272	92.06
671.475	86.06
671.677	79.06
671.88	74.06
672.082	76.06
672.284	101.06
672.487	75.06
672.689	84.06
672.892	72.06
