Data from 1970.PennyLincolnUp.Lamp.En5.5.200Scan.071719.P1._HRD10591_15-13-06-843.txt Node
Date: Thu Jul 18 15:13:06 EDT 2019
User: cochatt
Spectrometer: HR+D1059
Trigger mode: 1
Integration Time (sec): 1.000000E-1
Scans to average: 1
Electric dark correction enabled: true
Nonlinearity correction enabled: false
Boxcar width: 0
XAxis mode: Wavelengths
Number of Pixels in Spectrum: 2048
>>>>>Begin Spectral Data<<<<<
223.165	-14.94
223.4	-14.94
223.635	-14.94
223.869	-4.94
224.104	-26.94
224.338	-18.94
224.573	-13.94
224.808	-8.94
225.042	-8.94
225.277	-3.94
225.511	-0.94
225.746	0.06
225.98	-0.94
226.215	17.06
226.449	28.06
226.683	15.06
226.918	23.06
227.152	20.06
227.387	30.06
227.621	32.06
227.856	39.06
228.09	39.06
228.324	53.06
228.559	55.06
228.793	62.06
229.027	89.06
229.262	84.06
229.496	102.06
229.73	113.06
229.964	129.06
230.199	127.06
230.433	103.06
230.667	99.06
230.901	103.06
231.136	110.06
231.37	100.06
231.604	105.06
231.838	112.06
232.072	97.06
232.306	111.06
232.541	112.06
232.775	103.06
233.009	106.06
233.243	100.06
233.477	100.06
233.711	108.06
233.945	97.06
234.179	111.06
234.413	91.06
234.647	108.06
234.881	93.06
235.115	122.06
235.349	95.06
235.583	113.06
235.817	115.06
236.051	102.06
236.285	108.06
236.519	109.06
236.753	120.06
236.987	129.06
237.221	172.06
237.455	179.06
237.689	148.06
237.922	118.06
238.156	121.06
238.39	107.06
238.624	108.06
238.858	110.06
239.091	105.06
239.325	117.06
239.559	106.06
239.793	119.06
240.027	131.06
240.26	132.06
240.494	134.06
240.728	131.06
240.961	130.06
241.195	135.06
241.429	122.06
241.662	128.06
241.896	109.06
242.13	113.06
242.363	134.06
242.597	119.06
242.83	116.06
243.064	126.06
243.298	129.06
243.531	144.06
243.765	117.06
243.998	137.06
244.232	136.06
244.465	128.06
244.699	144.06
244.932	125.06
245.166	138.06
245.399	148.06
245.633	136.06
245.866	130.06
246.099	137.06
246.333	137.06
246.566	152.06
246.8	154.06
247.033	139.06
247.266	147.06
247.5	151.06
247.733	147.06
247.966	155.06
248.2	160.06
248.433	178.06
248.666	163.06
248.899	181.06
249.133	183.06
249.366	190.06
249.599	179.06
249.832	181.06
250.066	165.06
250.299	151.06
250.532	167.06
250.765	175.06
250.998	172.06
251.231	197.06
251.465	187.06
251.698	181.06
251.931	176.06
252.164	196.06
252.397	178.06
252.63	170.06
252.863	186.06
253.096	183.06
253.329	204.06
253.562	184.06
253.795	188.06
254.028	193.06
254.261	197.06
254.494	205.06
254.727	227.06
254.96	243.06
255.193	236.06
255.426	211.06
255.659	207.06
255.892	220.06
256.124	199.06
256.357	216.06
256.59	200.06
256.823	202.06
257.056	187.06
257.289	179.06
257.521	173.06
257.754	181.06
257.987	169.06
258.22	191.06
258.452	192.06
258.685	196.06
258.918	187.06
259.151	175.06
259.383	193.06
259.616	193.06
259.849	202.06
260.081	205.06
260.314	215.06
260.547	217.06
260.779	205.06
261.012	205.06
261.244	192.06
261.477	193.06
261.71	199.06
261.942	209.06
262.175	188.06
262.407	179.06
262.64	168.06
262.872	190.06
263.105	196.06
263.337	192.06
263.57	194.06
263.802	187.06
264.035	173.06
264.267	188.06
264.499	177.06
264.732	167.06
264.964	183.06
265.197	193.06
265.429	183.06
265.661	175.06
265.894	185.06
266.126	176.06
266.358	196.06
266.591	187.06
266.823	188.06
267.055	186.06
267.287	188.06
267.52	186.06
267.752	194.06
267.984	199.06
268.216	188.06
268.448	200.06
268.681	202.06
268.913	215.06
269.145	207.06
269.377	225.06
269.609	213.06
269.841	215.06
270.073	224.06
270.306	230.06
270.538	250.06
270.77	251.06
271.002	234.06
271.234	239.06
271.466	228.06
271.698	240.06
271.93	247.06
272.162	263.06
272.394	246.06
272.626	248.06
272.858	235.06
273.09	221.06
273.322	227.06
273.553	198.06
273.785	217.06
274.017	225.06
274.249	216.06
274.481	235.06
274.713	223.06
274.945	222.06
275.176	216.06
275.408	182.06
275.64	219.06
275.872	216.06
276.104	205.06
276.335	225.06
276.567	220.06
276.799	217.06
277.031	230.06
277.262	249.06
277.494	252.06
277.726	240.06
277.957	223.06
278.189	232.06
278.421	220.06
278.652	207.06
278.884	220.06
279.115	216.06
279.347	211.06
279.579	213.06
279.81	215.06
280.042	230.06
280.273	219.06
280.505	209.06
280.736	214.06
280.968	197.06
281.199	219.06
281.431	219.06
281.662	208.06
281.894	203.06
282.125	199.06
282.356	228.06
282.588	234.06
282.819	231.06
283.051	225.06
283.282	224.06
283.513	210.06
283.745	220.06
283.976	219.06
284.207	225.06
284.439	217.06
284.67	202.06
284.901	229.06
285.132	210.06
285.364	231.06
285.595	223.06
285.826	233.06
286.057	220.06
286.288	231.06
286.52	226.06
286.751	222.06
286.982	216.06
287.213	221.06
287.444	213.06
287.675	224.06
287.906	217.06
288.138	245.06
288.369	235.06
288.6	231.06
288.831	231.06
289.062	253.06
289.293	219.06
289.524	230.06
289.755	239.06
289.986	225.06
290.217	235.06
290.448	233.06
290.679	235.06
290.91	218.06
291.141	211.06
291.371	232.06
291.602	229.06
291.833	220.06
292.064	220.06
292.295	236.06
292.526	223.06
292.757	220.06
292.987	227.06
293.218	230.06
293.449	219.06
293.68	225.06
293.91	218.06
294.141	212.06
294.372	243.06
294.603	225.06
294.833	239.06
295.064	224.06
295.295	228.06
295.525	230.06
295.756	236.06
295.987	252.06
296.217	241.06
296.448	245.06
296.679	230.06
296.909	237.06
297.14	235.06
297.37	238.06
297.601	249.06
297.831	227.06
298.062	239.06
298.292	259.06
298.523	241.06
298.753	258.06
298.984	239.06
299.214	236.06
299.445	233.06
299.675	236.06
299.905	252.06
300.136	255.06
300.366	235.06
300.597	231.06
300.827	251.06
301.057	257.06
301.288	258.06
301.518	250.06
301.748	241.06
301.979	246.06
302.209	272.06
302.439	246.06
302.669	255.06
302.9	249.06
303.13	260.06
303.36	251.06
303.59	283.06
303.82	259.06
304.051	248.06
304.281	255.06
304.511	251.06
304.741	250.06
304.971	254.06
305.201	265.06
305.431	264.06
305.661	257.06
305.891	263.06
306.121	253.06
306.352	256.06
306.582	282.06
306.812	259.06
307.042	264.06
307.272	259.06
307.502	263.06
307.731	258.06
307.961	241.06
308.191	271.06
308.421	258.06
308.651	259.06
308.881	258.06
309.111	262.06
309.341	276.06
309.571	265.06
309.8	294.06
310.03	278.06
310.26	278.06
310.49	281.06
310.72	296.06
310.949	302.06
311.179	303.06
311.409	286.06
311.639	285.06
311.868	303.06
312.098	293.06
312.328	285.06
312.557	309.06
312.787	289.06
313.017	323.06
313.246	284.06
313.476	278.06
313.706	269.06
313.935	285.06
314.165	315.06
314.394	303.06
314.624	307.06
314.853	307.06
315.083	282.06
315.312	279.06
315.542	279.06
315.771	273.06
316.001	289.06
316.23	275.06
316.46	316.06
316.689	281.06
316.919	295.06
317.148	307.06
317.377	299.06
317.607	269.06
317.836	301.06
318.065	304.06
318.295	313.06
318.524	299.06
318.753	293.06
318.983	283.06
319.212	288.06
319.441	285.06
319.67	318.06
319.9	300.06
320.129	291.06
320.358	309.06
320.587	307.06
320.816	301.06
321.046	296.06
321.275	312.06
321.504	303.06
321.733	297.06
321.962	321.06
322.191	313.06
322.42	324.06
322.649	324.06
322.878	334.06
323.108	353.06
323.337	361.06
323.566	353.06
323.795	362.06
324.024	427.06
324.253	477.06
324.482	661.06
324.71	1041.06
324.939	1488.06
325.168	1263.06
325.397	674.06
325.626	472.06
325.855	421.06
326.084	387.06
326.313	380.06
326.542	389.06
326.77	396.06
326.999	464.06
327.228	607.06
327.457	935.06
327.686	1115.06
327.914	789.06
328.143	503.06
328.372	455.06
328.6	424.06
328.829	405.06
329.058	428.06
329.287	425.06
329.515	395.06
329.744	395.06
329.972	370.06
330.201	391.06
330.43	403.06
330.658	411.06
330.887	445.06
331.115	472.06
331.344	402.06
331.572	372.06
331.801	387.06
332.03	370.06
332.258	385.06
332.486	364.06
332.715	338.06
332.943	344.06
333.172	338.06
333.4	363.06
333.629	336.06
333.857	371.06
334.085	355.06
334.314	370.06
334.542	386.06
334.771	413.06
334.999	379.06
335.227	368.06
335.455	339.06
335.684	364.06
335.912	339.06
336.14	339.06
336.369	344.06
336.597	377.06
336.825	370.06
337.053	345.06
337.281	340.06
337.51	345.06
337.738	357.06
337.966	337.06
338.194	329.06
338.422	328.06
338.65	333.06
338.878	345.06
339.106	325.06
339.334	345.06
339.562	324.06
339.79	331.06
340.018	342.06
340.246	341.06
340.474	339.06
340.702	359.06
340.93	331.06
341.158	345.06
341.386	333.06
341.614	325.06
341.842	343.06
342.07	337.06
342.298	348.06
342.526	309.06
342.754	319.06
342.981	333.06
343.209	340.06
343.437	323.06
343.665	335.06
343.893	324.06
344.12	334.06
344.348	337.06
344.576	352.06
344.804	337.06
345.031	348.06
345.259	359.06
345.487	344.06
345.714	334.06
345.942	345.06
346.17	353.06
346.397	328.06
346.625	348.06
346.853	342.06
347.08	330.06
347.308	340.06
347.535	344.06
347.763	345.06
347.99	331.06
348.218	341.06
348.445	343.06
348.673	338.06
348.9	348.06
349.128	316.06
349.355	316.06
349.583	341.06
349.81	331.06
350.037	332.06
350.265	348.06
350.492	323.06
350.72	330.06
350.947	334.06
351.174	326.06
351.402	355.06
351.629	335.06
351.856	321.06
352.083	333.06
352.311	335.06
352.538	337.06
352.765	361.06
352.992	343.06
353.22	335.06
353.447	332.06
353.674	322.06
353.901	315.06
354.128	335.06
354.355	315.06
354.583	308.06
354.81	315.06
355.037	319.06
355.264	321.06
355.491	315.06
355.718	326.06
355.945	299.06
356.172	314.06
356.399	337.06
356.626	314.06
356.853	315.06
357.08	300.06
357.307	323.06
357.534	320.06
357.761	317.06
357.988	326.06
358.215	329.06
358.441	335.06
358.668	321.06
358.895	319.06
359.122	323.06
359.349	333.06
359.576	332.06
359.802	349.06
360.029	364.06
360.256	381.06
360.483	357.06
360.709	353.06
360.936	337.06
361.163	329.06
361.39	336.06
361.616	347.06
361.843	331.06
362.07	323.06
362.296	356.06
362.523	333.06
362.749	362.06
362.976	339.06
363.203	336.06
363.429	337.06
363.656	348.06
363.882	355.06
364.109	335.06
364.335	346.06
364.562	352.06
364.788	346.06
365.015	322.06
365.241	328.06
365.468	331.06
365.694	334.06
365.92	347.06
366.147	352.06
366.373	327.06
366.599	325.06
366.826	329.06
367.052	308.06
367.278	329.06
367.505	338.06
367.731	344.06
367.957	325.06
368.184	339.06
368.41	330.06
368.636	329.06
368.862	355.06
369.089	337.06
369.315	338.06
369.541	337.06
369.767	339.06
369.993	348.06
370.219	336.06
370.445	338.06
370.672	348.06
370.898	336.06
371.124	336.06
371.35	339.06
371.576	322.06
371.802	330.06
372.028	344.06
372.254	350.06
372.48	354.06
372.706	344.06
372.932	346.06
373.158	333.06
373.384	347.06
373.61	333.06
373.835	338.06
374.061	339.06
374.287	347.06
374.513	353.06
374.739	347.06
374.965	344.06
375.191	368.06
375.416	356.06
375.642	331.06
375.868	349.06
376.094	357.06
376.319	351.06
376.545	355.06
376.771	344.06
376.997	327.06
377.222	338.06
377.448	347.06
377.674	311.06
377.899	339.06
378.125	336.06
378.35	333.06
378.576	340.06
378.802	359.06
379.027	342.06
379.253	335.06
379.478	334.06
379.704	360.06
379.929	333.06
380.155	348.06
380.38	354.06
380.606	357.06
380.831	368.06
381.057	353.06
381.282	363.06
381.507	340.06
381.733	325.06
381.958	350.06
382.184	355.06
382.409	354.06
382.634	357.06
382.86	339.06
383.085	356.06
383.31	362.06
383.535	350.06
383.761	347.06
383.986	365.06
384.211	356.06
384.436	371.06
384.662	364.06
384.887	378.06
385.112	377.06
385.337	361.06
385.562	379.06
385.787	390.06
386.013	405.06
386.238	387.06
386.463	388.06
386.688	377.06
386.913	371.06
387.138	388.06
387.363	362.06
387.588	367.06
387.813	371.06
388.038	385.06
388.263	375.06
388.488	376.06
388.713	372.06
388.938	370.06
389.163	363.06
389.387	377.06
389.612	393.06
389.837	385.06
390.062	370.06
390.287	404.06
390.512	372.06
390.736	372.06
390.961	384.06
391.186	371.06
391.411	381.06
391.636	364.06
391.86	385.06
392.085	380.06
392.31	383.06
392.534	393.06
392.759	397.06
392.984	373.06
393.208	398.06
393.433	449.06
393.658	441.06
393.882	389.06
394.107	389.06
394.331	391.06
394.556	380.06
394.78	396.06
395.005	393.06
395.229	374.06
395.454	386.06
395.678	388.06
395.903	402.06
396.127	421.06
396.352	422.06
396.576	412.06
396.801	403.06
397.025	403.06
397.249	432.06
397.474	411.06
397.698	397.06
397.922	436.06
398.147	424.06
398.371	446.06
398.595	423.06
398.82	438.06
399.044	442.06
399.268	447.06
399.492	469.06
399.717	461.06
399.941	515.06
400.165	515.06
400.389	515.06
400.613	480.06
400.837	459.06
401.062	419.06
401.286	439.06
401.51	427.06
401.734	416.06
401.958	426.06
402.182	442.06
402.406	443.06
402.63	469.06
402.854	429.06
403.078	421.06
403.302	452.06
403.526	457.06
403.75	446.06
403.974	440.06
404.198	432.06
404.422	444.06
404.645	435.06
404.869	456.06
405.093	469.06
405.317	511.06
405.541	539.06
405.765	476.06
405.988	458.06
406.212	479.06
406.436	488.06
406.66	501.06
406.883	488.06
407.107	492.06
407.331	534.06
407.555	586.06
407.778	577.06
408.002	535.06
408.226	491.06
408.449	484.06
408.673	490.06
408.896	523.06
409.12	539.06
409.344	523.06
409.567	459.06
409.791	464.06
410.014	460.06
410.238	444.06
410.461	447.06
410.685	457.06
410.908	467.06
411.132	507.06
411.355	522.06
411.578	500.06
411.802	455.06
412.025	459.06
412.249	467.06
412.472	458.06
412.695	489.06
412.919	485.06
413.142	470.06
413.365	455.06
413.589	443.06
413.812	461.06
414.035	439.06
414.258	433.06
414.482	424.06
414.705	421.06
414.928	414.06
415.151	431.06
415.374	432.06
415.597	420.06
415.821	432.06
416.044	431.06
416.267	439.06
416.49	435.06
416.713	451.06
416.936	441.06
417.159	423.06
417.382	445.06
417.605	432.06
417.828	443.06
418.051	432.06
418.274	451.06
418.497	432.06
418.72	433.06
418.943	445.06
419.166	450.06
419.389	466.06
419.611	471.06
419.834	453.06
420.057	439.06
420.28	439.06
420.503	445.06
420.726	450.06
420.948	469.06
421.171	501.06
421.394	497.06
421.617	471.06
421.839	466.06
422.062	457.06
422.285	477.06
422.507	519.06
422.73	595.06
422.953	570.06
423.175	495.06
423.398	474.06
423.621	465.06
423.843	482.06
424.066	488.06
424.288	474.06
424.511	492.06
424.733	547.06
424.956	617.06
425.178	576.06
425.401	597.06
425.623	613.06
425.846	515.06
426.068	505.06
426.291	496.06
426.513	495.06
426.735	469.06
426.958	519.06
427.18	585.06
427.402	683.06
427.625	771.06
427.847	701.06
428.069	585.06
428.292	522.06
428.514	503.06
428.736	492.06
428.958	465.06
429.181	437.06
429.403	455.06
429.625	453.06
429.847	479.06
430.069	551.06
430.292	546.06
430.514	468.06
430.736	483.06
430.958	449.06
431.18	437.06
431.402	441.06
431.624	421.06
431.846	424.06
432.068	434.06
432.29	426.06
432.512	430.06
432.734	436.06
432.956	465.06
433.178	468.06
433.4	437.06
433.622	452.06
433.844	440.06
434.066	415.06
434.287	426.06
434.509	445.06
434.731	444.06
434.953	463.06
435.175	465.06
435.397	489.06
435.618	464.06
435.84	503.06
436.062	607.06
436.284	649.06
436.505	550.06
436.727	511.06
436.949	484.06
437.17	463.06
437.392	444.06
437.614	453.06
437.835	497.06
438.057	564.06
438.278	657.06
438.5	661.06
438.721	723.06
438.943	675.06
439.165	573.06
439.386	513.06
439.608	500.06
439.829	492.06
440.05	537.06
440.272	559.06
440.493	539.06
440.715	470.06
440.936	480.06
441.158	460.06
441.379	473.06
441.6	448.06
441.822	481.06
442.043	524.06
442.264	611.06
442.486	604.06
442.707	548.06
442.928	512.06
443.149	508.06
443.371	523.06
443.592	541.06
443.813	665.06
444.034	691.06
444.255	584.06
444.476	521.06
444.698	508.06
444.919	486.06
445.14	602.06
445.361	543.06
445.582	510.06
445.803	568.06
446.024	652.06
446.245	659.06
446.466	609.06
446.687	533.06
446.908	511.06
447.129	474.06
447.35	460.06
447.571	455.06
447.792	445.06
448.013	454.06
448.234	459.06
448.455	511.06
448.675	615.06
448.896	695.06
449.117	599.06
449.338	562.06
449.559	659.06
449.779	748.06
450	624.06
450.221	523.06
450.442	467.06
450.662	464.06
450.883	471.06
451.104	463.06
451.324	456.06
451.545	435.06
451.766	431.06
451.986	428.06
452.207	401.06
452.428	415.06
452.648	409.06
452.869	411.06
453.089	407.06
453.31	426.06
453.53	400.06
453.751	421.06
453.971	402.06
454.192	441.06
454.412	412.06
454.633	403.06
454.853	407.06
455.073	413.06
455.294	419.06
455.514	499.06
455.734	461.06
455.955	413.06
456.175	390.06
456.395	387.06
456.616	399.06
456.836	384.06
457.056	361.06
457.276	380.06
457.497	373.06
457.717	389.06
457.937	394.06
458.157	385.06
458.377	416.06
458.598	425.06
458.818	448.06
459.038	524.06
459.258	537.06
459.478	468.06
459.698	451.06
459.918	422.06
460.138	411.06
460.358	428.06
460.578	438.06
460.798	442.06
461.018	459.06
461.238	427.06
461.458	452.06
461.678	452.06
461.898	456.06
462.118	432.06
462.338	448.06
462.558	434.06
462.777	437.06
462.997	477.06
463.217	456.06
463.437	496.06
463.657	469.06
463.876	461.06
464.096	466.06
464.316	451.06
464.536	475.06
464.755	471.06
464.975	464.06
465.195	470.06
465.414	539.06
465.634	491.06
465.854	463.06
466.073	444.06
466.293	432.06
466.512	437.06
466.732	411.06
466.951	438.06
467.171	397.06
467.391	406.06
467.61	425.06
467.829	421.06
468.049	437.06
468.268	407.06
468.488	441.06
468.707	405.06
468.927	419.06
469.146	412.06
469.365	395.06
469.585	398.06
469.804	417.06
470.023	442.06
470.243	441.06
470.462	428.06
470.681	415.06
470.901	432.06
471.12	428.06
471.339	424.06
471.558	427.06
471.777	417.06
471.997	447.06
472.216	429.06
472.435	433.06
472.654	428.06
472.873	426.06
473.092	434.06
473.311	405.06
473.53	426.06
473.749	449.06
473.968	451.06
474.187	526.06
474.406	553.06
474.625	492.06
474.844	449.06
475.063	437.06
475.282	428.06
475.501	425.06
475.72	447.06
475.939	425.06
476.158	439.06
476.377	453.06
476.596	458.06
476.814	459.06
477.033	464.06
477.252	456.06
477.471	482.06
477.69	461.06
477.908	465.06
478.127	471.06
478.346	466.06
478.564	469.06
478.783	480.06
479.002	479.06
479.22	489.06
479.439	517.06
479.658	488.06
479.876	512.06
480.095	511.06
480.313	534.06
480.532	546.06
480.751	524.06
480.969	497.06
481.188	554.06
481.406	580.06
481.624	532.06
481.843	517.06
482.061	511.06
482.28	504.06
482.498	507.06
482.717	509.06
482.935	509.06
483.153	510.06
483.372	507.06
483.59	513.06
483.808	521.06
484.027	538.06
484.245	525.06
484.463	523.06
484.681	510.06
484.9	522.06
485.118	522.06
485.336	514.06
485.554	524.06
485.772	551.06
485.99	545.06
486.209	548.06
486.427	526.06
486.645	544.06
486.863	550.06
487.081	569.06
487.299	561.06
487.517	558.06
487.735	545.06
487.953	540.06
488.171	561.06
488.389	543.06
488.607	553.06
488.825	552.06
489.043	580.06
489.261	561.06
489.479	553.06
489.696	563.06
489.914	587.06
490.132	580.06
490.35	601.06
490.568	571.06
490.786	585.06
491.003	602.06
491.221	609.06
491.439	624.06
491.657	641.06
491.874	637.06
492.092	655.06
492.31	625.06
492.527	668.06
492.745	642.06
492.963	656.06
493.18	653.06
493.398	643.06
493.615	665.06
493.833	661.06
494.05	666.06
494.268	664.06
494.485	635.06
494.703	648.06
494.92	669.06
495.138	679.06
495.355	651.06
495.573	647.06
495.79	665.06
496.008	660.06
496.225	659.06
496.442	646.06
496.66	647.06
496.877	660.06
497.094	694.06
497.312	670.06
497.529	703.06
497.746	697.06
497.963	697.06
498.181	700.06
498.398	714.06
498.615	731.06
498.832	744.06
499.049	754.06
499.267	759.06
499.484	755.06
499.701	799.06
499.918	826.06
500.135	859.06
500.352	891.06
500.569	887.06
500.786	853.06
501.003	860.06
501.22	853.06
501.437	863.06
501.654	819.06
501.871	825.06
502.088	782.06
502.305	767.06
502.522	722.06
502.739	721.06
502.956	715.06
503.172	695.06
503.389	701.06
503.606	694.06
503.823	683.06
504.04	691.06
504.256	680.06
504.473	651.06
504.69	643.06
504.907	648.06
505.123	657.06
505.34	655.06
505.557	614.06
505.773	641.06
505.99	629.06
506.207	640.06
506.423	660.06
506.64	620.06
506.856	625.06
507.073	615.06
507.289	639.06
507.506	599.06
507.722	615.06
507.939	618.06
508.155	600.06
508.372	596.06
508.588	605.06
508.805	599.06
509.021	608.06
509.238	632.06
509.454	608.06
509.67	595.06
509.887	603.06
510.103	607.06
510.319	588.06
510.536	679.06
510.752	970.06
510.968	824.06
511.184	610.06
511.401	573.06
511.617	584.06
511.833	593.06
512.049	586.06
512.265	577.06
512.481	557.06
512.698	583.06
512.914	561.06
513.13	574.06
513.346	582.06
513.562	566.06
513.778	577.06
513.994	567.06
514.21	556.06
514.426	588.06
514.642	583.06
514.858	628.06
515.074	655.06
515.29	741.06
515.506	1019.06
515.721	857.06
515.937	668.06
516.153	613.06
516.369	599.06
516.585	596.06
516.801	584.06
517.016	586.06
517.232	599.06
517.448	569.06
517.664	583.06
517.879	572.06
518.095	562.06
518.311	574.06
518.527	563.06
518.742	583.06
518.958	563.06
519.173	569.06
519.389	577.06
519.605	577.06
519.82	568.06
520.036	576.06
520.251	576.06
520.467	600.06
520.682	596.06
520.898	610.06
521.113	613.06
521.329	632.06
521.544	693.06
521.76	833.06
521.975	1283.06
522.19	1287.06
522.406	771.06
522.621	626.06
522.836	590.06
523.052	562.06
523.267	545.06
523.482	529.06
523.698	499.06
523.913	498.06
524.128	520.06
524.343	512.06
524.559	520.06
524.774	501.06
524.989	500.06
525.204	503.06
525.419	514.06
525.634	486.06
525.849	491.06
526.064	499.06
526.28	498.06
526.495	483.06
526.71	481.06
526.925	466.06
527.14	477.06
527.355	477.06
527.57	464.06
527.785	499.06
527.999	455.06
528.214	455.06
528.429	465.06
528.644	480.06
528.859	474.06
529.074	482.06
529.289	502.06
529.503	538.06
529.718	521.06
529.933	482.06
530.148	492.06
530.363	471.06
530.577	476.06
530.792	465.06
531.007	460.06
531.221	456.06
531.436	458.06
531.651	456.06
531.865	462.06
532.08	461.06
532.295	445.06
532.509	434.06
532.724	453.06
532.938	481.06
533.153	445.06
533.367	444.06
533.582	449.06
533.796	438.06
534.011	451.06
534.225	451.06
534.44	433.06
534.654	458.06
534.868	437.06
535.083	439.06
535.297	437.06
535.511	434.06
535.726	451.06
535.94	454.06
536.154	455.06
536.369	423.06
536.583	442.06
536.797	445.06
537.011	452.06
537.225	442.06
537.44	449.06
537.654	443.06
537.868	438.06
538.082	424.06
538.296	437.06
538.51	427.06
538.724	431.06
538.938	452.06
539.153	455.06
539.367	457.06
539.581	454.06
539.795	441.06
540.009	433.06
540.222	444.06
540.436	430.06
540.65	432.06
540.864	412.06
541.078	449.06
541.292	434.06
541.506	447.06
541.72	423.06
541.934	424.06
542.147	434.06
542.361	423.06
542.575	419.06
542.789	423.06
543.002	436.06
543.216	439.06
543.43	431.06
543.644	426.06
543.857	440.06
544.071	427.06
544.285	430.06
544.498	435.06
544.712	425.06
544.925	438.06
545.139	419.06
545.352	437.06
545.566	421.06
545.779	449.06
545.993	426.06
546.206	424.06
546.42	439.06
546.633	415.06
546.847	421.06
547.06	430.06
547.274	432.06
547.487	418.06
547.7	435.06
547.914	417.06
548.127	447.06
548.34	426.06
548.554	423.06
548.767	423.06
548.98	409.06
549.193	417.06
549.407	432.06
549.62	416.06
549.833	428.06
550.046	408.06
550.259	428.06
550.473	422.06
550.686	423.06
550.899	420.06
551.112	407.06
551.325	417.06
551.538	389.06
551.751	406.06
551.964	394.06
552.177	419.06
552.39	407.06
552.603	419.06
552.816	398.06
553.029	418.06
553.242	430.06
553.455	425.06
553.667	439.06
553.88	421.06
554.093	439.06
554.306	413.06
554.519	427.06
554.732	413.06
554.944	404.06
555.157	392.06
555.37	407.06
555.583	411.06
555.795	404.06
556.008	422.06
556.221	394.06
556.433	401.06
556.646	399.06
556.859	384.06
557.071	387.06
557.284	401.06
557.496	378.06
557.709	373.06
557.921	404.06
558.134	379.06
558.346	370.06
558.559	373.06
558.771	378.06
558.984	385.06
559.196	392.06
559.409	378.06
559.621	368.06
559.833	386.06
560.046	373.06
560.258	399.06
560.47	382.06
560.683	395.06
560.895	382.06
561.107	368.06
561.32	360.06
561.532	370.06
561.744	377.06
561.956	361.06
562.168	379.06
562.381	380.06
562.593	384.06
562.805	393.06
563.017	376.06
563.229	382.06
563.441	378.06
563.653	370.06
563.865	365.06
564.077	367.06
564.289	392.06
564.501	377.06
564.713	388.06
564.925	409.06
565.137	407.06
565.349	403.06
565.561	417.06
565.773	411.06
565.985	397.06
566.197	408.06
566.408	416.06
566.62	419.06
566.832	434.06
567.044	445.06
567.255	445.06
567.467	459.06
567.679	449.06
567.891	453.06
568.102	448.06
568.314	432.06
568.526	433.06
568.737	416.06
568.949	411.06
569.161	394.06
569.372	391.06
569.584	384.06
569.795	381.06
570.007	391.06
570.218	413.06
570.43	380.06
570.641	362.06
570.853	365.06
571.064	369.06
571.276	361.06
571.487	363.06
571.698	358.06
571.91	340.06
572.121	359.06
572.333	360.06
572.544	325.06
572.755	334.06
572.966	346.06
573.178	329.06
573.389	327.06
573.6	322.06
573.811	352.06
574.023	323.06
574.234	315.06
574.445	330.06
574.656	313.06
574.867	331.06
575.078	337.06
575.289	339.06
575.501	332.06
575.712	315.06
575.923	321.06
576.134	326.06
576.345	300.06
576.556	314.06
576.767	331.06
576.978	334.06
577.188	308.06
577.399	299.06
577.61	296.06
577.821	303.06
578.032	316.06
578.243	316.06
578.454	483.06
578.665	391.06
578.875	309.06
579.086	295.06
579.297	313.06
579.508	299.06
579.718	301.06
579.929	308.06
580.14	291.06
580.35	294.06
580.561	287.06
580.772	297.06
580.982	296.06
581.193	282.06
581.403	293.06
581.614	275.06
581.825	311.06
582.035	286.06
582.246	313.06
582.456	284.06
582.667	292.06
582.877	293.06
583.087	309.06
583.298	287.06
583.508	295.06
583.719	273.06
583.929	309.06
584.139	283.06
584.35	268.06
584.56	280.06
584.77	267.06
584.981	283.06
585.191	301.06
585.401	283.06
585.611	296.06
585.821	297.06
586.032	282.06
586.242	274.06
586.452	270.06
586.662	296.06
586.872	280.06
587.082	290.06
587.292	278.06
587.502	290.06
587.713	269.06
587.923	287.06
588.133	280.06
588.343	267.06
588.553	283.06
588.762	290.06
588.972	275.06
589.182	294.06
589.392	305.06
589.602	285.06
589.812	300.06
590.022	306.06
590.232	282.06
590.441	282.06
590.651	282.06
590.861	278.06
591.071	272.06
591.281	273.06
591.49	287.06
591.7	277.06
591.91	287.06
592.119	287.06
592.329	287.06
592.539	298.06
592.748	282.06
592.958	292.06
593.167	284.06
593.377	297.06
593.587	295.06
593.796	312.06
594.006	309.06
594.215	307.06
594.424	274.06
594.634	299.06
594.843	288.06
595.053	271.06
595.262	279.06
595.472	287.06
595.681	290.06
595.89	275.06
596.1	278.06
596.309	277.06
596.518	282.06
596.727	296.06
596.937	265.06
597.146	249.06
597.355	262.06
597.564	244.06
597.774	260.06
597.983	265.06
598.192	252.06
598.401	273.06
598.61	245.06
598.819	260.06
599.028	281.06
599.237	241.06
599.446	268.06
599.655	244.06
599.864	269.06
600.073	260.06
600.282	260.06
600.491	247.06
600.7	266.06
600.909	263.06
601.118	242.06
601.327	250.06
601.536	261.06
601.745	247.06
601.953	247.06
602.162	250.06
602.371	249.06
602.58	251.06
602.789	236.06
602.997	261.06
603.206	238.06
603.415	241.06
603.623	260.06
603.832	268.06
604.041	257.06
604.249	241.06
604.458	262.06
604.666	258.06
604.875	230.06
605.084	249.06
605.292	228.06
605.501	224.06
605.709	253.06
605.918	235.06
606.126	242.06
606.334	250.06
606.543	242.06
606.751	245.06
606.96	232.06
607.168	229.06
607.376	233.06
607.585	245.06
607.793	247.06
608.001	247.06
608.21	236.06
608.418	231.06
608.626	225.06
608.834	229.06
609.043	255.06
609.251	230.06
609.459	227.06
609.667	226.06
609.875	227.06
610.083	223.06
610.291	239.06
610.499	234.06
610.707	239.06
610.916	232.06
611.124	232.06
611.332	240.06
611.54	265.06
611.748	245.06
611.955	233.06
612.163	243.06
612.371	227.06
612.579	236.06
612.787	240.06
612.995	234.06
613.203	228.06
613.411	233.06
613.618	226.06
613.826	248.06
614.034	235.06
614.242	217.06
614.449	226.06
614.657	233.06
614.865	211.06
615.072	220.06
615.28	220.06
615.488	217.06
615.695	216.06
615.903	229.06
616.111	227.06
616.318	232.06
616.526	235.06
616.733	241.06
616.941	225.06
617.148	223.06
617.356	230.06
617.563	220.06
617.771	228.06
617.978	235.06
618.185	222.06
618.393	210.06
618.6	228.06
618.807	218.06
619.015	220.06
619.222	225.06
619.429	226.06
619.637	222.06
619.844	226.06
620.051	206.06
620.258	213.06
620.466	203.06
620.673	220.06
620.88	218.06
621.087	223.06
621.294	227.06
621.501	212.06
621.708	230.06
621.915	199.06
622.122	211.06
622.329	211.06
622.536	221.06
622.743	215.06
622.95	225.06
623.157	211.06
623.364	207.06
623.571	214.06
623.778	207.06
623.985	196.06
624.192	199.06
624.399	216.06
624.606	224.06
624.812	216.06
625.019	188.06
625.226	205.06
625.433	200.06
625.639	204.06
625.846	204.06
626.053	185.06
626.259	202.06
626.466	193.06
626.673	191.06
626.879	204.06
627.086	202.06
627.293	188.06
627.499	196.06
627.706	220.06
627.912	216.06
628.119	201.06
628.325	207.06
628.532	191.06
628.738	200.06
628.945	195.06
629.151	196.06
629.357	194.06
629.564	178.06
629.77	191.06
629.976	191.06
630.183	186.06
630.389	195.06
630.595	179.06
630.802	184.06
631.008	192.06
631.214	179.06
631.42	197.06
631.627	192.06
631.833	183.06
632.039	195.06
632.245	196.06
632.451	199.06
632.657	183.06
632.863	191.06
633.069	182.06
633.275	177.06
633.481	177.06
633.688	188.06
633.893	200.06
634.099	175.06
634.305	202.06
634.511	187.06
634.717	178.06
634.923	176.06
635.129	200.06
635.335	173.06
635.541	185.06
635.747	189.06
635.952	177.06
636.158	179.06
636.364	183.06
636.57	182.06
636.775	172.06
636.981	171.06
637.187	185.06
637.392	190.06
637.598	182.06
637.804	169.06
638.009	169.06
638.215	178.06
638.421	168.06
638.626	164.06
638.832	167.06
639.037	185.06
639.243	173.06
639.448	191.06
639.654	186.06
639.859	170.06
640.065	170.06
640.27	181.06
640.475	168.06
640.681	166.06
640.886	175.06
641.091	184.06
641.297	176.06
641.502	169.06
641.707	155.06
641.913	171.06
642.118	175.06
642.323	170.06
642.528	161.06
642.733	161.06
642.939	170.06
643.144	170.06
643.349	177.06
643.554	168.06
643.759	176.06
643.964	169.06
644.169	157.06
644.374	170.06
644.579	163.06
644.784	169.06
644.989	164.06
645.194	180.06
645.399	159.06
645.604	171.06
645.809	174.06
646.014	156.06
646.219	149.06
646.423	165.06
646.628	178.06
646.833	162.06
647.038	153.06
647.243	170.06
647.447	173.06
647.652	180.06
647.857	163.06
648.062	165.06
648.266	173.06
648.471	152.06
648.676	180.06
648.88	164.06
649.085	163.06
649.289	169.06
649.494	156.06
649.698	185.06
649.903	154.06
650.107	164.06
650.312	154.06
650.516	156.06
650.721	158.06
650.925	153.06
651.13	140.06
651.334	141.06
651.539	150.06
651.743	152.06
651.947	150.06
652.152	147.06
652.356	149.06
652.56	141.06
652.764	130.06
652.969	151.06
653.173	141.06
653.377	140.06
653.581	129.06
653.785	148.06
653.99	127.06
654.194	143.06
654.398	134.06
654.602	129.06
654.806	140.06
655.01	136.06
655.214	125.06
655.418	142.06
655.622	121.06
655.826	129.06
656.03	131.06
656.234	131.06
656.438	134.06
656.642	125.06
656.846	141.06
657.049	122.06
657.253	113.06
657.457	127.06
657.661	113.06
657.865	105.06
658.068	111.06
658.272	105.06
658.476	113.06
658.68	85.06
658.883	98.06
659.087	108.06
659.291	107.06
659.494	90.06
659.698	106.06
659.901	96.06
660.105	93.06
660.309	92.06
660.512	98.06
660.716	93.06
660.919	75.06
661.123	92.06
661.326	79.06
661.53	97.06
661.733	111.06
661.936	101.06
662.14	97.06
662.343	88.06
662.546	90.06
662.75	88.06
662.953	89.06
663.156	89.06
663.36	93.06
663.563	92.06
663.766	92.06
663.969	74.06
664.173	91.06
664.376	89.06
664.579	73.06
664.782	88.06
664.985	75.06
665.188	73.06
665.391	78.06
665.594	73.06
665.797	73.06
666	73.06
666.203	87.06
666.406	90.06
666.609	82.06
666.812	87.06
667.015	89.06
667.218	71.06
667.421	83.06
667.624	83.06
667.827	83.06
668.03	80.06
668.232	79.06
668.435	70.06
668.638	77.06
668.841	98.06
669.043	68.06
669.246	89.06
669.449	83.06
669.651	82.06
669.854	74.06
670.057	87.06
670.259	95.06
670.462	97.06
670.665	76.06
670.867	76.06
671.07	75.06
671.272	83.06
671.475	88.06
671.677	76.06
671.88	76.06
672.082	60.06
672.284	84.06
672.487	87.06
672.689	83.06
672.892	85.06
