Data from 1970.PennyLincolnUp.Lamp.En5.5.200Scan.071719.P1._HRD10591_15-14-36-842.txt Node
Date: Thu Jul 18 15:14:36 EDT 2019
User: cochatt
Spectrometer: HR+D1059
Trigger mode: 1
Integration Time (sec): 1.000000E-1
Scans to average: 1
Electric dark correction enabled: true
Nonlinearity correction enabled: false
Boxcar width: 0
XAxis mode: Wavelengths
Number of Pixels in Spectrum: 2048
>>>>>Begin Spectral Data<<<<<
223.165	-26.62
223.4	-26.62
223.635	-26.62
223.869	-18.62
224.104	-17.62
224.338	-16.62
224.573	-25.62
224.808	-12.62
225.042	-1.62
225.277	-3.62
225.511	10.38
225.746	9.38
225.98	3.38
226.215	17.38
226.449	16.38
226.683	26.38
226.918	16.38
227.152	23.38
227.387	41.38
227.621	30.38
227.856	56.38
228.09	45.38
228.324	36.38
228.559	62.38
228.793	70.38
229.027	94.38
229.262	108.38
229.496	106.38
229.73	136.38
229.964	188.38
230.199	126.38
230.433	134.38
230.667	126.38
230.901	106.38
231.136	104.38
231.37	126.38
231.604	127.38
231.838	111.38
232.072	116.38
232.306	123.38
232.541	119.38
232.775	118.38
233.009	110.38
233.243	114.38
233.477	108.38
233.711	113.38
233.945	125.38
234.179	121.38
234.413	121.38
234.647	107.38
234.881	122.38
235.115	124.38
235.349	127.38
235.583	127.38
235.817	121.38
236.051	130.38
236.285	147.38
236.519	129.38
236.753	142.38
236.987	150.38
237.221	179.38
237.455	238.38
237.689	205.38
237.922	159.38
238.156	126.38
238.39	120.38
238.624	125.38
238.858	134.38
239.091	138.38
239.325	135.38
239.559	128.38
239.793	145.38
240.027	134.38
240.26	158.38
240.494	165.38
240.728	164.38
240.961	138.38
241.195	145.38
241.429	134.38
241.662	136.38
241.896	151.38
242.13	141.38
242.363	138.38
242.597	139.38
242.83	131.38
243.064	145.38
243.298	143.38
243.531	155.38
243.765	148.38
243.998	146.38
244.232	149.38
244.465	146.38
244.699	162.38
244.932	143.38
245.166	152.38
245.399	147.38
245.633	162.38
245.866	148.38
246.099	155.38
246.333	156.38
246.566	167.38
246.8	148.38
247.033	151.38
247.266	184.38
247.5	151.38
247.733	175.38
247.966	182.38
248.2	180.38
248.433	188.38
248.666	169.38
248.899	176.38
249.133	213.38
249.366	206.38
249.599	214.38
249.832	187.38
250.066	194.38
250.299	186.38
250.532	219.38
250.765	204.38
250.998	231.38
251.231	237.38
251.465	222.38
251.698	214.38
251.931	222.38
252.164	207.38
252.397	220.38
252.63	209.38
252.863	215.38
253.096	231.38
253.329	227.38
253.562	235.38
253.795	229.38
254.028	239.38
254.261	236.38
254.494	233.38
254.727	244.38
254.96	300.38
255.193	291.38
255.426	251.38
255.659	245.38
255.892	248.38
256.124	244.38
256.357	263.38
256.59	233.38
256.823	228.38
257.056	207.38
257.289	206.38
257.521	208.38
257.754	231.38
257.987	217.38
258.22	215.38
258.452	214.38
258.685	205.38
258.918	218.38
259.151	211.38
259.383	219.38
259.616	212.38
259.849	228.38
260.081	245.38
260.314	268.38
260.547	269.38
260.779	266.38
261.012	234.38
261.244	218.38
261.477	233.38
261.71	232.38
261.942	234.38
262.175	231.38
262.407	212.38
262.64	204.38
262.872	213.38
263.105	213.38
263.337	213.38
263.57	208.38
263.802	203.38
264.035	217.38
264.267	218.38
264.499	202.38
264.732	207.38
264.964	204.38
265.197	194.38
265.429	202.38
265.661	215.38
265.894	216.38
266.126	217.38
266.358	235.38
266.591	203.38
266.823	210.38
267.055	215.38
267.287	216.38
267.52	216.38
267.752	224.38
267.984	219.38
268.216	218.38
268.448	222.38
268.681	226.38
268.913	235.38
269.145	249.38
269.377	281.38
269.609	273.38
269.841	265.38
270.073	260.38
270.306	292.38
270.538	288.38
270.77	320.38
271.002	299.38
271.234	300.38
271.466	300.38
271.698	323.38
271.93	294.38
272.162	322.38
272.394	319.38
272.626	323.38
272.858	285.38
273.09	294.38
273.322	271.38
273.553	259.38
273.785	262.38
274.017	264.38
274.249	228.38
274.481	265.38
274.713	266.38
274.945	266.38
275.176	259.38
275.408	267.38
275.64	269.38
275.872	247.38
276.104	254.38
276.335	258.38
276.567	268.38
276.799	258.38
277.031	283.38
277.262	301.38
277.494	291.38
277.726	293.38
277.957	291.38
278.189	261.38
278.421	256.38
278.652	254.38
278.884	249.38
279.115	247.38
279.347	239.38
279.579	271.38
279.81	248.38
280.042	246.38
280.273	251.38
280.505	246.38
280.736	235.38
280.968	216.38
281.199	239.38
281.431	244.38
281.662	249.38
281.894	253.38
282.125	263.38
282.356	271.38
282.588	285.38
282.819	285.38
283.051	278.38
283.282	232.38
283.513	247.38
283.745	234.38
283.976	248.38
284.207	265.38
284.439	244.38
284.67	269.38
284.901	252.38
285.132	248.38
285.364	256.38
285.595	241.38
285.826	238.38
286.057	236.38
286.288	244.38
286.52	273.38
286.751	257.38
286.982	249.38
287.213	248.38
287.444	251.38
287.675	250.38
287.906	276.38
288.138	262.38
288.369	280.38
288.6	274.38
288.831	281.38
289.062	258.38
289.293	247.38
289.524	285.38
289.755	265.38
289.986	251.38
290.217	262.38
290.448	254.38
290.679	260.38
290.91	244.38
291.141	252.38
291.371	262.38
291.602	249.38
291.833	258.38
292.064	258.38
292.295	259.38
292.526	265.38
292.757	262.38
292.987	268.38
293.218	269.38
293.449	262.38
293.68	266.38
293.91	260.38
294.141	252.38
294.372	215.38
294.603	258.38
294.833	254.38
295.064	262.38
295.295	262.38
295.525	252.38
295.756	252.38
295.987	268.38
296.217	298.38
296.448	304.38
296.679	286.38
296.909	266.38
297.14	262.38
297.37	272.38
297.601	258.38
297.831	270.38
298.062	260.38
298.292	251.38
298.523	277.38
298.753	275.38
298.984	280.38
299.214	271.38
299.445	255.38
299.675	261.38
299.905	277.38
300.136	285.38
300.366	260.38
300.597	268.38
300.827	285.38
301.057	272.38
301.288	296.38
301.518	283.38
301.748	285.38
301.979	288.38
302.209	283.38
302.439	299.38
302.669	291.38
302.9	284.38
303.13	280.38
303.36	294.38
303.59	279.38
303.82	303.38
304.051	279.38
304.281	291.38
304.511	287.38
304.741	281.38
304.971	287.38
305.201	315.38
305.431	299.38
305.661	279.38
305.891	285.38
306.121	288.38
306.352	301.38
306.582	315.38
306.812	282.38
307.042	299.38
307.272	310.38
307.502	296.38
307.731	303.38
307.961	300.38
308.191	298.38
308.421	292.38
308.651	289.38
308.881	314.38
309.111	300.38
309.341	307.38
309.571	322.38
309.8	341.38
310.03	340.38
310.26	353.38
310.49	344.38
310.72	359.38
310.949	370.38
311.179	374.38
311.409	346.38
311.639	351.38
311.868	336.38
312.098	332.38
312.328	358.38
312.557	354.38
312.787	388.38
313.017	389.38
313.246	367.38
313.476	349.38
313.706	350.38
313.935	352.38
314.165	368.38
314.394	380.38
314.624	382.38
314.853	364.38
315.083	356.38
315.312	338.38
315.542	330.38
315.771	341.38
316.001	330.38
316.23	326.38
316.46	339.38
316.689	344.38
316.919	341.38
317.148	351.38
317.377	350.38
317.607	356.38
317.836	356.38
318.065	348.38
318.295	343.38
318.524	355.38
318.753	334.38
318.983	339.38
319.212	342.38
319.441	365.38
319.67	371.38
319.9	330.38
320.129	334.38
320.358	357.38
320.587	351.38
320.816	346.38
321.046	391.38
321.275	370.38
321.504	377.38
321.733	393.38
321.962	388.38
322.191	394.38
322.42	417.38
322.649	432.38
322.878	467.38
323.108	431.38
323.337	456.38
323.566	486.38
323.795	540.38
324.024	562.38
324.253	719.38
324.482	1017.38
324.71	1518.38
324.939	2170.38
325.168	1897.38
325.397	1050.38
325.626	687.38
325.855	562.38
326.084	520.38
326.313	514.38
326.542	489.38
326.77	539.38
326.999	644.38
327.228	879.38
327.457	1355.38
327.686	1646.38
327.914	1139.38
328.143	768.38
328.372	677.38
328.6	614.38
328.829	572.38
329.058	583.38
329.287	605.38
329.515	561.38
329.744	509.38
329.972	511.38
330.201	536.38
330.43	552.38
330.658	620.38
330.887	628.38
331.115	601.38
331.344	532.38
331.572	495.38
331.801	464.38
332.03	494.38
332.258	465.38
332.486	405.38
332.715	426.38
332.943	420.38
333.172	411.38
333.4	429.38
333.629	436.38
333.857	456.38
334.085	459.38
334.314	482.38
334.542	505.38
334.771	524.38
334.999	489.38
335.227	439.38
335.455	426.38
335.684	407.38
335.912	413.38
336.14	406.38
336.369	389.38
336.597	412.38
336.825	408.38
337.053	396.38
337.281	404.38
337.51	378.38
337.738	405.38
337.966	410.38
338.194	401.38
338.422	400.38
338.65	406.38
338.878	395.38
339.106	390.38
339.334	387.38
339.562	391.38
339.79	378.38
340.018	395.38
340.246	386.38
340.474	428.38
340.702	396.38
340.93	415.38
341.158	375.38
341.386	388.38
341.614	403.38
341.842	400.38
342.07	394.38
342.298	363.38
342.526	384.38
342.754	387.38
342.981	378.38
343.209	373.38
343.437	383.38
343.665	373.38
343.893	387.38
344.12	399.38
344.348	383.38
344.576	393.38
344.804	384.38
345.031	415.38
345.259	404.38
345.487	428.38
345.714	412.38
345.942	397.38
346.17	398.38
346.397	386.38
346.625	381.38
346.853	368.38
347.08	386.38
347.308	378.38
347.535	410.38
347.763	411.38
347.99	410.38
348.218	404.38
348.445	400.38
348.673	401.38
348.9	403.38
349.128	384.38
349.355	366.38
349.583	370.38
349.81	362.38
350.037	376.38
350.265	388.38
350.492	380.38
350.72	381.38
350.947	381.38
351.174	390.38
351.402	384.38
351.629	392.38
351.856	407.38
352.083	408.38
352.311	427.38
352.538	414.38
352.765	421.38
352.992	424.38
353.22	411.38
353.447	389.38
353.674	384.38
353.901	377.38
354.128	368.38
354.355	382.38
354.583	379.38
354.81	368.38
355.037	370.38
355.264	365.38
355.491	345.38
355.718	364.38
355.945	353.38
356.172	357.38
356.399	358.38
356.626	353.38
356.853	358.38
357.08	364.38
357.307	370.38
357.534	363.38
357.761	357.38
357.988	360.38
358.215	362.38
358.441	363.38
358.668	357.38
358.895	366.38
359.122	382.38
359.349	390.38
359.576	381.38
359.802	397.38
360.029	439.38
360.256	460.38
360.483	437.38
360.709	406.38
360.936	409.38
361.163	399.38
361.39	394.38
361.616	407.38
361.843	377.38
362.07	405.38
362.296	399.38
362.523	392.38
362.749	394.38
362.976	413.38
363.203	385.38
363.429	371.38
363.656	380.38
363.882	383.38
364.109	386.38
364.335	361.38
364.562	379.38
364.788	372.38
365.015	376.38
365.241	387.38
365.468	392.38
365.694	392.38
365.92	409.38
366.147	378.38
366.373	388.38
366.599	363.38
366.826	360.38
367.052	358.38
367.278	367.38
367.505	364.38
367.731	370.38
367.957	391.38
368.184	367.38
368.41	404.38
368.636	416.38
368.862	387.38
369.089	398.38
369.315	379.38
369.541	372.38
369.767	360.38
369.993	356.38
370.219	381.38
370.445	384.38
370.672	381.38
370.898	378.38
371.124	386.38
371.35	402.38
371.576	364.38
371.802	360.38
372.028	346.38
372.254	367.38
372.48	386.38
372.706	374.38
372.932	380.38
373.158	365.38
373.384	390.38
373.61	376.38
373.835	399.38
374.061	380.38
374.287	396.38
374.513	383.38
374.739	385.38
374.965	380.38
375.191	396.38
375.416	375.38
375.642	383.38
375.868	385.38
376.094	384.38
376.319	375.38
376.545	376.38
376.771	387.38
376.997	389.38
377.222	380.38
377.448	365.38
377.674	357.38
377.899	382.38
378.125	378.38
378.35	373.38
378.576	376.38
378.802	359.38
379.027	374.38
379.253	367.38
379.478	365.38
379.704	387.38
379.929	383.38
380.155	395.38
380.38	387.38
380.606	375.38
380.831	371.38
381.057	375.38
381.282	378.38
381.507	377.38
381.733	391.38
381.958	377.38
382.184	384.38
382.409	396.38
382.634	378.38
382.86	386.38
383.085	389.38
383.31	372.38
383.535	382.38
383.761	370.38
383.986	381.38
384.211	378.38
384.436	388.38
384.662	379.38
384.887	390.38
385.112	374.38
385.337	421.38
385.562	406.38
385.787	407.38
386.013	406.38
386.238	413.38
386.463	394.38
386.688	386.38
386.913	398.38
387.138	403.38
387.363	404.38
387.588	408.38
387.813	413.38
388.038	396.38
388.263	407.38
388.488	394.38
388.713	400.38
388.938	410.38
389.163	399.38
389.387	394.38
389.612	400.38
389.837	396.38
390.062	396.38
390.287	403.38
390.512	404.38
390.736	397.38
390.961	390.38
391.186	388.38
391.411	398.38
391.636	408.38
391.86	418.38
392.085	420.38
392.31	394.38
392.534	399.38
392.759	419.38
392.984	418.38
393.208	423.38
393.433	386.38
393.658	393.38
393.882	413.38
394.107	415.38
394.331	404.38
394.556	418.38
394.78	373.38
395.005	397.38
395.229	399.38
395.454	403.38
395.678	420.38
395.903	416.38
396.127	452.38
396.352	446.38
396.576	437.38
396.801	413.38
397.025	409.38
397.249	422.38
397.474	420.38
397.698	430.38
397.922	447.38
398.147	452.38
398.371	458.38
398.595	449.38
398.82	462.38
399.044	436.38
399.268	454.38
399.492	480.38
399.717	482.38
399.941	503.38
400.165	546.38
400.389	555.38
400.613	510.38
400.837	492.38
401.062	461.38
401.286	454.38
401.51	470.38
401.734	462.38
401.958	464.38
402.182	471.38
402.406	446.38
402.63	460.38
402.854	461.38
403.078	482.38
403.302	456.38
403.526	478.38
403.75	482.38
403.974	469.38
404.198	464.38
404.422	497.38
404.645	483.38
404.869	488.38
405.093	510.38
405.317	575.38
405.541	586.38
405.765	551.38
405.988	507.38
406.212	520.38
406.436	551.38
406.66	547.38
406.883	539.38
407.107	568.38
407.331	592.38
407.555	639.38
407.778	616.38
408.002	609.38
408.226	544.38
408.449	560.38
408.673	526.38
408.896	564.38
409.12	607.38
409.344	571.38
409.567	528.38
409.791	509.38
410.014	508.38
410.238	475.38
410.461	490.38
410.685	489.38
410.908	513.38
411.132	520.38
411.355	569.38
411.578	559.38
411.802	512.38
412.025	491.38
412.249	504.38
412.472	513.38
412.695	543.38
412.919	555.38
413.142	542.38
413.365	458.38
413.589	468.38
413.812	468.38
414.035	468.38
414.258	470.38
414.482	461.38
414.705	449.38
414.928	461.38
415.151	436.38
415.374	461.38
415.597	444.38
415.821	437.38
416.044	466.38
416.267	471.38
416.49	462.38
416.713	458.38
416.936	449.38
417.159	449.38
417.382	459.38
417.605	464.38
417.828	474.38
418.051	484.38
418.274	499.38
418.497	472.38
418.72	476.38
418.943	473.38
419.166	493.38
419.389	484.38
419.611	493.38
419.834	504.38
420.057	494.38
420.28	520.38
420.503	490.38
420.726	492.38
420.948	514.38
421.171	575.38
421.394	578.38
421.617	524.38
421.839	503.38
422.062	511.38
422.285	508.38
422.507	564.38
422.73	628.38
422.953	603.38
423.175	547.38
423.398	493.38
423.621	525.38
423.843	564.38
424.066	545.38
424.288	509.38
424.511	557.38
424.733	613.38
424.956	687.38
425.178	664.38
425.401	669.38
425.623	662.38
425.846	591.38
426.068	570.38
426.291	534.38
426.513	548.38
426.735	549.38
426.958	599.38
427.18	662.38
427.402	795.38
427.625	856.38
427.847	833.38
428.069	717.38
428.292	621.38
428.514	570.38
428.736	532.38
428.958	548.38
429.181	550.38
429.403	510.38
429.625	521.38
429.847	555.38
430.069	631.38
430.292	640.38
430.514	542.38
430.736	529.38
430.958	502.38
431.18	492.38
431.402	498.38
431.624	476.38
431.846	483.38
432.068	465.38
432.29	477.38
432.512	501.38
432.734	491.38
432.956	482.38
433.178	490.38
433.4	491.38
433.622	484.38
433.844	490.38
434.066	474.38
434.287	471.38
434.509	490.38
434.731	500.38
434.953	502.38
435.175	495.38
435.397	535.38
435.618	539.38
435.84	581.38
436.062	679.38
436.284	721.38
436.505	623.38
436.727	583.38
436.949	536.38
437.17	508.38
437.392	516.38
437.614	562.38
437.835	564.38
438.057	651.38
438.278	755.38
438.5	746.38
438.721	811.38
438.943	766.38
439.165	646.38
439.386	606.38
439.608	572.38
439.829	604.38
440.05	610.38
440.272	638.38
440.493	618.38
440.715	559.38
440.936	535.38
441.158	534.38
441.379	502.38
441.6	531.38
441.822	574.38
442.043	597.38
442.264	656.38
442.486	702.38
442.707	619.38
442.928	557.38
443.149	575.38
443.371	590.38
443.592	646.38
443.813	735.38
444.034	775.38
444.255	666.38
444.476	595.38
444.698	540.38
444.919	538.38
445.14	628.38
445.361	605.38
445.582	601.38
445.803	657.38
446.024	736.38
446.245	740.38
446.466	680.38
446.687	632.38
446.908	564.38
447.129	534.38
447.35	524.38
447.571	522.38
447.792	511.38
448.013	516.38
448.234	526.38
448.455	629.38
448.675	676.38
448.896	794.38
449.117	696.38
449.338	653.38
449.559	735.38
449.779	819.38
450	704.38
450.221	573.38
450.442	512.38
450.662	528.38
450.883	555.38
451.104	546.38
451.324	523.38
451.545	501.38
451.766	504.38
451.986	478.38
452.207	461.38
452.428	464.38
452.648	466.38
452.869	474.38
453.089	471.38
453.31	499.38
453.53	469.38
453.751	451.38
453.971	468.38
454.192	491.38
454.412	480.38
454.633	495.38
454.853	465.38
455.073	461.38
455.294	487.38
455.514	560.38
455.734	547.38
455.955	480.38
456.175	452.38
456.395	429.38
456.616	443.38
456.836	442.38
457.056	442.38
457.276	420.38
457.497	420.38
457.717	434.38
457.937	447.38
458.157	447.38
458.377	443.38
458.598	442.38
458.818	530.38
459.038	614.38
459.258	648.38
459.478	543.38
459.698	491.38
459.918	480.38
460.138	495.38
460.358	459.38
460.578	462.38
460.798	459.38
461.018	477.38
461.238	459.38
461.458	454.38
461.678	459.38
461.898	470.38
462.118	453.38
462.338	461.38
462.558	455.38
462.777	462.38
462.997	457.38
463.217	476.38
463.437	498.38
463.657	461.38
463.876	492.38
464.096	481.38
464.316	493.38
464.536	502.38
464.755	519.38
464.975	506.38
465.195	570.38
465.414	652.38
465.634	568.38
465.854	550.38
466.073	496.38
466.293	475.38
466.512	480.38
466.732	462.38
466.951	484.38
467.171	465.38
467.391	460.38
467.61	480.38
467.829	509.38
468.049	479.38
468.268	498.38
468.488	486.38
468.707	455.38
468.927	451.38
469.146	446.38
469.365	436.38
469.585	444.38
469.804	472.38
470.023	465.38
470.243	476.38
470.462	467.38
470.681	488.38
470.901	514.38
471.12	482.38
471.339	485.38
471.558	475.38
471.777	483.38
471.997	477.38
472.216	482.38
472.435	528.38
472.654	525.38
472.873	494.38
473.092	488.38
473.311	494.38
473.53	482.38
473.749	502.38
473.968	541.38
474.187	636.38
474.406	648.38
474.625	526.38
474.844	514.38
475.063	491.38
475.282	518.38
475.501	477.38
475.72	500.38
475.939	520.38
476.158	502.38
476.377	488.38
476.596	494.38
476.814	520.38
477.033	500.38
477.252	510.38
477.471	508.38
477.69	504.38
477.908	490.38
478.127	500.38
478.346	522.38
478.564	505.38
478.783	532.38
479.002	541.38
479.22	540.38
479.439	567.38
479.658	582.38
479.876	578.38
480.095	638.38
480.313	630.38
480.532	610.38
480.751	587.38
480.969	578.38
481.188	660.38
481.406	724.38
481.624	645.38
481.843	602.38
482.061	604.38
482.28	583.38
482.498	561.38
482.717	580.38
482.935	565.38
483.153	580.38
483.372	581.38
483.59	578.38
483.808	546.38
484.027	568.38
484.245	578.38
484.463	568.38
484.681	595.38
484.9	568.38
485.118	579.38
485.336	578.38
485.554	589.38
485.772	597.38
485.99	599.38
486.209	594.38
486.427	602.38
486.645	599.38
486.863	646.38
487.081	637.38
487.299	649.38
487.517	628.38
487.735	630.38
487.953	631.38
488.171	632.38
488.389	629.38
488.607	642.38
488.825	632.38
489.043	652.38
489.261	640.38
489.479	634.38
489.696	660.38
489.914	656.38
490.132	648.38
490.35	682.38
490.568	653.38
490.786	684.38
491.003	711.38
491.221	712.38
491.439	739.38
491.657	712.38
491.874	720.38
492.092	760.38
492.31	735.38
492.527	748.38
492.745	739.38
492.963	771.38
493.18	742.38
493.398	782.38
493.615	761.38
493.833	727.38
494.05	773.38
494.268	784.38
494.485	731.38
494.703	729.38
494.92	750.38
495.138	739.38
495.355	759.38
495.573	743.38
495.79	764.38
496.008	777.38
496.225	759.38
496.442	759.38
496.66	742.38
496.877	754.38
497.094	750.38
497.312	756.38
497.529	739.38
497.746	792.38
497.963	775.38
498.181	807.38
498.398	784.38
498.615	782.38
498.832	815.38
499.049	806.38
499.267	791.38
499.484	831.38
499.701	852.38
499.918	842.38
500.135	879.38
500.352	898.38
500.569	891.38
500.786	880.38
501.003	912.38
501.22	881.38
501.437	894.38
501.654	872.38
501.871	877.38
502.088	853.38
502.305	843.38
502.522	800.38
502.739	800.38
502.956	773.38
503.172	755.38
503.389	780.38
503.606	763.38
503.823	771.38
504.04	763.38
504.256	773.38
504.473	744.38
504.69	738.38
504.907	746.38
505.123	746.38
505.34	720.38
505.557	714.38
505.773	719.38
505.99	770.38
506.207	744.38
506.423	711.38
506.64	715.38
506.856	726.38
507.073	712.38
507.289	707.38
507.506	731.38
507.722	723.38
507.939	758.38
508.155	726.38
508.372	741.38
508.588	682.38
508.805	706.38
509.021	715.38
509.238	679.38
509.454	699.38
509.67	710.38
509.887	695.38
510.103	679.38
510.319	721.38
510.536	815.38
510.752	1355.38
510.968	1140.38
511.184	750.38
511.401	701.38
511.617	687.38
511.833	650.38
512.049	671.38
512.265	668.38
512.481	674.38
512.698	656.38
512.914	668.38
513.13	679.38
513.346	664.38
513.562	652.38
513.778	676.38
513.994	680.38
514.21	715.38
514.426	712.38
514.642	751.38
514.858	798.38
515.074	838.38
515.29	1029.38
515.506	1529.38
515.721	1246.38
515.937	831.38
516.153	758.38
516.369	717.38
516.585	700.38
516.801	663.38
517.016	669.38
517.232	666.38
517.448	652.38
517.664	665.38
517.879	683.38
518.095	655.38
518.311	669.38
518.527	664.38
518.742	668.38
518.958	631.38
519.173	646.38
519.389	661.38
519.605	659.38
519.82	684.38
520.036	700.38
520.251	720.38
520.467	726.38
520.682	774.38
520.898	754.38
521.113	782.38
521.329	840.38
521.544	932.38
521.76	1218.38
521.975	2061.38
522.19	1964.38
522.406	1069.38
522.621	810.38
522.836	690.38
523.052	692.38
523.267	648.38
523.482	652.38
523.698	632.38
523.913	609.38
524.128	623.38
524.343	624.38
524.559	597.38
524.774	564.38
524.989	564.38
525.204	580.38
525.419	583.38
525.634	568.38
525.849	596.38
526.064	569.38
526.28	547.38
526.495	546.38
526.71	550.38
526.925	530.38
527.14	530.38
527.355	517.38
527.57	547.38
527.785	542.38
527.999	537.38
528.214	520.38
528.429	523.38
528.644	543.38
528.859	544.38
529.074	518.38
529.289	596.38
529.503	652.38
529.718	650.38
529.933	607.38
530.148	560.38
530.363	556.38
530.577	531.38
530.792	523.38
531.007	514.38
531.221	506.38
531.436	500.38
531.651	523.38
531.865	521.38
532.08	514.38
532.295	515.38
532.509	486.38
532.724	476.38
532.938	498.38
533.153	495.38
533.367	500.38
533.582	508.38
533.796	498.38
534.011	500.38
534.225	511.38
534.44	472.38
534.654	503.38
534.868	498.38
535.083	504.38
535.297	482.38
535.511	509.38
535.726	501.38
535.94	507.38
536.154	491.38
536.369	464.38
536.583	489.38
536.797	482.38
537.011	489.38
537.225	478.38
537.44	465.38
537.654	470.38
537.868	463.38
538.082	483.38
538.296	477.38
538.51	475.38
538.724	497.38
538.938	477.38
539.153	480.38
539.367	518.38
539.581	507.38
539.795	501.38
540.009	478.38
540.222	482.38
540.436	467.38
540.65	473.38
540.864	469.38
541.078	487.38
541.292	505.38
541.506	500.38
541.72	482.38
541.934	469.38
542.147	493.38
542.361	483.38
542.575	487.38
542.789	493.38
543.002	473.38
543.216	467.38
543.43	471.38
543.644	489.38
543.857	481.38
544.071	489.38
544.285	486.38
544.498	469.38
544.712	486.38
544.925	492.38
545.139	476.38
545.352	452.38
545.566	447.38
545.779	457.38
545.993	455.38
546.206	477.38
546.42	460.38
546.633	439.38
546.847	471.38
547.06	471.38
547.274	452.38
547.487	445.38
547.7	446.38
547.914	437.38
548.127	455.38
548.34	460.38
548.554	454.38
548.767	449.38
548.98	423.38
549.193	450.38
549.407	462.38
549.62	466.38
549.833	453.38
550.046	434.38
550.259	450.38
550.473	450.38
550.686	443.38
550.899	443.38
551.112	447.38
551.325	446.38
551.538	426.38
551.751	437.38
551.964	435.38
552.177	414.38
552.39	446.38
552.603	439.38
552.816	453.38
553.029	453.38
553.242	437.38
553.455	451.38
553.667	469.38
553.88	462.38
554.093	452.38
554.306	461.38
554.519	458.38
554.732	453.38
554.944	426.38
555.157	420.38
555.37	406.38
555.583	413.38
555.795	427.38
556.008	386.38
556.221	421.38
556.433	415.38
556.646	415.38
556.859	395.38
557.071	398.38
557.284	443.38
557.496	418.38
557.709	420.38
557.921	420.38
558.134	414.38
558.346	400.38
558.559	402.38
558.771	411.38
558.984	387.38
559.196	400.38
559.409	398.38
559.621	399.38
559.833	410.38
560.046	388.38
560.258	394.38
560.47	414.38
560.683	383.38
560.895	405.38
561.107	412.38
561.32	390.38
561.532	383.38
561.744	421.38
561.956	394.38
562.168	391.38
562.381	429.38
562.593	394.38
562.805	394.38
563.017	419.38
563.229	400.38
563.441	394.38
563.653	397.38
563.865	400.38
564.077	394.38
564.289	402.38
564.501	416.38
564.713	401.38
564.925	413.38
565.137	413.38
565.349	414.38
565.561	408.38
565.773	415.38
565.985	435.38
566.197	426.38
566.408	414.38
566.62	444.38
566.832	410.38
567.044	429.38
567.255	439.38
567.467	453.38
567.679	445.38
567.891	440.38
568.102	437.38
568.314	440.38
568.526	436.38
568.737	414.38
568.949	404.38
569.161	405.38
569.372	383.38
569.584	384.38
569.795	378.38
570.007	396.38
570.218	435.38
570.43	436.38
570.641	396.38
570.853	392.38
571.064	389.38
571.276	383.38
571.487	375.38
571.698	371.38
571.91	364.38
572.121	359.38
572.333	348.38
572.544	351.38
572.755	361.38
572.966	351.38
573.178	362.38
573.389	331.38
573.6	349.38
573.811	335.38
574.023	332.38
574.234	340.38
574.445	329.38
574.656	327.38
574.867	347.38
575.078	339.38
575.289	339.38
575.501	343.38
575.712	352.38
575.923	326.38
576.134	331.38
576.345	319.38
576.556	344.38
576.767	336.38
576.978	332.38
577.188	326.38
577.399	327.38
577.61	335.38
577.821	330.38
578.032	334.38
578.243	377.38
578.454	623.38
578.665	485.38
578.875	332.38
579.086	324.38
579.297	324.38
579.508	331.38
579.718	326.38
579.929	325.38
580.14	323.38
580.35	319.38
580.561	335.38
580.772	315.38
580.982	318.38
581.193	308.38
581.403	335.38
581.614	303.38
581.825	310.38
582.035	320.38
582.246	314.38
582.456	304.38
582.667	311.38
582.877	309.38
583.087	317.38
583.298	310.38
583.508	293.38
583.719	309.38
583.929	301.38
584.139	295.38
584.35	310.38
584.56	313.38
584.77	306.38
584.981	322.38
585.191	303.38
585.401	316.38
585.611	298.38
585.821	291.38
586.032	295.38
586.242	300.38
586.452	320.38
586.662	298.38
586.872	316.38
587.082	306.38
587.292	292.38
587.502	288.38
587.713	308.38
587.923	297.38
588.133	290.38
588.343	307.38
588.553	298.38
588.762	303.38
588.972	296.38
589.182	310.38
589.392	291.38
589.602	292.38
589.812	304.38
590.022	303.38
590.232	283.38
590.441	294.38
590.651	292.38
590.861	288.38
591.071	296.38
591.281	297.38
591.49	297.38
591.7	298.38
591.91	283.38
592.119	291.38
592.329	303.38
592.539	313.38
592.748	306.38
592.958	300.38
593.167	303.38
593.377	310.38
593.587	318.38
593.796	306.38
594.006	263.38
594.215	290.38
594.424	286.38
594.634	293.38
594.843	300.38
595.053	278.38
595.262	292.38
595.472	288.38
595.681	280.38
595.89	290.38
596.1	281.38
596.309	272.38
596.518	279.38
596.727	288.38
596.937	284.38
597.146	284.38
597.355	271.38
597.564	271.38
597.774	278.38
597.983	266.38
598.192	276.38
598.401	278.38
598.61	271.38
598.819	282.38
599.028	266.38
599.237	279.38
599.446	276.38
599.655	265.38
599.864	274.38
600.073	261.38
600.282	291.38
600.491	281.38
600.7	255.38
600.909	270.38
601.118	267.38
601.327	251.38
601.536	244.38
601.745	263.38
601.953	262.38
602.162	263.38
602.371	254.38
602.58	254.38
602.789	269.38
602.997	264.38
603.206	250.38
603.415	254.38
603.623	252.38
603.832	258.38
604.041	248.38
604.249	235.38
604.458	238.38
604.666	252.38
604.875	245.38
605.084	264.38
605.292	271.38
605.501	248.38
605.709	237.38
605.918	251.38
606.126	247.38
606.334	254.38
606.543	248.38
606.751	254.38
606.96	264.38
607.168	242.38
607.376	247.38
607.585	236.38
607.793	247.38
608.001	246.38
608.21	238.38
608.418	244.38
608.626	231.38
608.834	233.38
609.043	256.38
609.251	259.38
609.459	252.38
609.667	240.38
609.875	262.38
610.083	243.38
610.291	248.38
610.499	245.38
610.707	257.38
610.916	257.38
611.124	252.38
611.332	257.38
611.54	262.38
611.748	238.38
611.955	264.38
612.163	245.38
612.371	250.38
612.579	240.38
612.787	238.38
612.995	232.38
613.203	242.38
613.411	229.38
613.618	241.38
613.826	239.38
614.034	224.38
614.242	239.38
614.449	247.38
614.657	255.38
614.865	230.38
615.072	228.38
615.28	249.38
615.488	229.38
615.695	248.38
615.903	233.38
616.111	235.38
616.318	247.38
616.526	231.38
616.733	249.38
616.941	237.38
617.148	245.38
617.356	235.38
617.563	242.38
617.771	252.38
617.978	247.38
618.185	251.38
618.393	213.38
618.6	235.38
618.807	238.38
619.015	221.38
619.222	228.38
619.429	244.38
619.637	228.38
619.844	238.38
620.051	232.38
620.258	229.38
620.466	230.38
620.673	214.38
620.88	213.38
621.087	211.38
621.294	219.38
621.501	218.38
621.708	221.38
621.915	225.38
622.122	245.38
622.329	241.38
622.536	227.38
622.743	231.38
622.95	220.38
623.157	225.38
623.364	222.38
623.571	236.38
623.778	216.38
623.985	231.38
624.192	227.38
624.399	221.38
624.606	216.38
624.812	231.38
625.019	209.38
625.226	218.38
625.433	208.38
625.639	213.38
625.846	202.38
626.053	204.38
626.259	213.38
626.466	228.38
626.673	208.38
626.879	205.38
627.086	222.38
627.293	222.38
627.499	223.38
627.706	224.38
627.912	208.38
628.119	215.38
628.325	221.38
628.532	205.38
628.738	209.38
628.945	215.38
629.151	202.38
629.357	203.38
629.564	205.38
629.77	204.38
629.976	213.38
630.183	186.38
630.389	185.38
630.595	216.38
630.802	203.38
631.008	206.38
631.214	198.38
631.42	203.38
631.627	216.38
631.833	189.38
632.039	200.38
632.245	198.38
632.451	192.38
632.657	194.38
632.863	194.38
633.069	182.38
633.275	189.38
633.481	183.38
633.688	198.38
633.893	187.38
634.099	186.38
634.305	195.38
634.511	188.38
634.717	184.38
634.923	200.38
635.129	191.38
635.335	196.38
635.541	184.38
635.747	198.38
635.952	197.38
636.158	185.38
636.364	198.38
636.57	196.38
636.775	169.38
636.981	199.38
637.187	181.38
637.392	187.38
637.598	176.38
637.804	174.38
638.009	182.38
638.215	172.38
638.421	180.38
638.626	186.38
638.832	175.38
639.037	173.38
639.243	175.38
639.448	177.38
639.654	174.38
639.859	175.38
640.065	163.38
640.27	174.38
640.475	171.38
640.681	158.38
640.886	172.38
641.091	184.38
641.297	182.38
641.502	175.38
641.707	165.38
641.913	177.38
642.118	195.38
642.323	163.38
642.528	159.38
642.733	164.38
642.939	164.38
643.144	164.38
643.349	176.38
643.554	171.38
643.759	164.38
643.964	161.38
644.169	166.38
644.374	164.38
644.579	175.38
644.784	170.38
644.989	157.38
645.194	170.38
645.399	163.38
645.604	166.38
645.809	174.38
646.014	166.38
646.219	181.38
646.423	166.38
646.628	156.38
646.833	163.38
647.038	164.38
647.243	169.38
647.447	164.38
647.652	153.38
647.857	174.38
648.062	170.38
648.266	161.38
648.471	181.38
648.676	178.38
648.88	176.38
649.085	166.38
649.289	170.38
649.494	168.38
649.698	183.38
649.903	196.38
650.107	170.38
650.312	167.38
650.516	164.38
650.721	167.38
650.925	152.38
651.13	163.38
651.334	144.38
651.539	141.38
651.743	155.38
651.947	148.38
652.152	145.38
652.356	139.38
652.56	136.38
652.764	132.38
652.969	126.38
653.173	128.38
653.377	143.38
653.581	122.38
653.785	138.38
653.99	127.38
654.194	126.38
654.398	142.38
654.602	138.38
654.806	139.38
655.01	146.38
655.214	141.38
655.418	137.38
655.622	134.38
655.826	130.38
656.03	138.38
656.234	127.38
656.438	134.38
656.642	127.38
656.846	128.38
657.049	135.38
657.253	116.38
657.457	102.38
657.661	134.38
657.865	125.38
658.068	105.38
658.272	120.38
658.476	85.38
658.68	109.38
658.883	100.38
659.087	95.38
659.291	110.38
659.494	106.38
659.698	96.38
659.901	94.38
660.105	102.38
660.309	109.38
660.512	75.38
660.716	90.38
660.919	93.38
661.123	89.38
661.326	92.38
661.53	92.38
661.733	88.38
661.936	84.38
662.14	91.38
662.343	89.38
662.546	90.38
662.75	100.38
662.953	86.38
663.156	92.38
663.36	83.38
663.563	90.38
663.766	79.38
663.969	84.38
664.173	77.38
664.376	98.38
664.579	83.38
664.782	85.38
664.985	88.38
665.188	77.38
665.391	76.38
665.594	79.38
665.797	83.38
666	87.38
666.203	84.38
666.406	74.38
666.609	85.38
666.812	93.38
667.015	91.38
667.218	80.38
667.421	86.38
667.624	84.38
667.827	83.38
668.03	71.38
668.232	86.38
668.435	94.38
668.638	84.38
668.841	89.38
669.043	74.38
669.246	74.38
669.449	81.38
669.651	96.38
669.854	86.38
670.057	77.38
670.259	82.38
670.462	75.38
670.665	80.38
670.867	91.38
671.07	80.38
671.272	86.38
671.475	80.38
671.677	82.38
671.88	86.38
672.082	78.38
672.284	87.38
672.487	80.38
672.689	80.38
672.892	66.38
