Data from 1970.PennyLincolnUp.Lamp.En5.5.200Scan.071719.P1._HRD10591_15-13-18-844.txt Node
Date: Thu Jul 18 15:13:18 EDT 2019
User: cochatt
Spectrometer: HR+D1059
Trigger mode: 1
Integration Time (sec): 1.000000E-1
Scans to average: 1
Electric dark correction enabled: true
Nonlinearity correction enabled: false
Boxcar width: 0
XAxis mode: Wavelengths
Number of Pixels in Spectrum: 2048
>>>>>Begin Spectral Data<<<<<
223.165	-8.62
223.4	-8.62
223.635	-8.62
223.869	-19.62
224.104	-20.62
224.338	-8.62
224.573	-8.62
224.808	-12.62
225.042	-13.62
225.277	0.38
225.511	5.38
225.746	-9.62
225.98	4.38
226.215	16.38
226.449	7.38
226.683	21.38
226.918	19.38
227.152	27.38
227.387	27.38
227.621	32.38
227.856	34.38
228.09	48.38
228.324	44.38
228.559	64.38
228.793	60.38
229.027	89.38
229.262	93.38
229.496	109.38
229.73	125.38
229.964	145.38
230.199	112.38
230.433	118.38
230.667	102.38
230.901	106.38
231.136	109.38
231.37	106.38
231.604	104.38
231.838	113.38
232.072	101.38
232.306	119.38
232.541	105.38
232.775	94.38
233.009	108.38
233.243	122.38
233.477	116.38
233.711	112.38
233.945	114.38
234.179	109.38
234.413	116.38
234.647	106.38
234.881	90.38
235.115	90.38
235.349	132.38
235.583	107.38
235.817	116.38
236.051	121.38
236.285	123.38
236.519	123.38
236.753	114.38
236.987	140.38
237.221	148.38
237.455	205.38
237.689	168.38
237.922	138.38
238.156	131.38
238.39	114.38
238.624	137.38
238.858	119.38
239.091	109.38
239.325	108.38
239.559	111.38
239.793	131.38
240.027	136.38
240.26	142.38
240.494	146.38
240.728	136.38
240.961	146.38
241.195	132.38
241.429	128.38
241.662	130.38
241.896	128.38
242.13	137.38
242.363	136.38
242.597	127.38
242.83	149.38
243.064	140.38
243.298	138.38
243.531	132.38
243.765	135.38
243.998	135.38
244.232	128.38
244.465	123.38
244.699	136.38
244.932	138.38
245.166	138.38
245.399	142.38
245.633	134.38
245.866	135.38
246.099	146.38
246.333	128.38
246.566	145.38
246.8	144.38
247.033	147.38
247.266	157.38
247.5	149.38
247.733	180.38
247.966	155.38
248.2	172.38
248.433	184.38
248.666	160.38
248.899	166.38
249.133	182.38
249.366	183.38
249.599	191.38
249.832	180.38
250.066	166.38
250.299	168.38
250.532	185.38
250.765	193.38
250.998	199.38
251.231	237.38
251.465	213.38
251.698	190.38
251.931	196.38
252.164	182.38
252.397	189.38
252.63	186.38
252.863	184.38
253.096	201.38
253.329	204.38
253.562	213.38
253.795	213.38
254.028	206.38
254.261	195.38
254.494	204.38
254.727	245.38
254.96	248.38
255.193	252.38
255.426	240.38
255.659	220.38
255.892	220.38
256.124	223.38
256.357	230.38
256.59	216.38
256.823	211.38
257.056	189.38
257.289	194.38
257.521	198.38
257.754	178.38
257.987	191.38
258.22	202.38
258.452	195.38
258.685	212.38
258.918	184.38
259.151	202.38
259.383	196.38
259.616	192.38
259.849	197.38
260.081	224.38
260.314	208.38
260.547	229.38
260.779	222.38
261.012	217.38
261.244	216.38
261.477	209.38
261.71	186.38
261.942	212.38
262.175	203.38
262.407	220.38
262.64	192.38
262.872	184.38
263.105	202.38
263.337	202.38
263.57	206.38
263.802	198.38
264.035	199.38
264.267	198.38
264.499	206.38
264.732	205.38
264.964	165.38
265.197	180.38
265.429	187.38
265.661	188.38
265.894	183.38
266.126	193.38
266.358	189.38
266.591	195.38
266.823	186.38
267.055	178.38
267.287	193.38
267.52	194.38
267.752	206.38
267.984	185.38
268.216	187.38
268.448	200.38
268.681	212.38
268.913	229.38
269.145	220.38
269.377	229.38
269.609	246.38
269.841	220.38
270.073	238.38
270.306	260.38
270.538	266.38
270.77	280.38
271.002	252.38
271.234	240.38
271.466	259.38
271.698	268.38
271.93	278.38
272.162	278.38
272.394	254.38
272.626	254.38
272.858	265.38
273.09	239.38
273.322	242.38
273.553	233.38
273.785	218.38
274.017	218.38
274.249	234.38
274.481	245.38
274.713	228.38
274.945	232.38
275.176	223.38
275.408	215.38
275.64	220.38
275.872	211.38
276.104	229.38
276.335	213.38
276.567	226.38
276.799	222.38
277.031	256.38
277.262	262.38
277.494	266.38
277.726	246.38
277.957	244.38
278.189	247.38
278.421	227.38
278.652	240.38
278.884	237.38
279.115	233.38
279.347	217.38
279.579	233.38
279.81	228.38
280.042	225.38
280.273	223.38
280.505	214.38
280.736	225.38
280.968	219.38
281.199	218.38
281.431	210.38
281.662	226.38
281.894	220.38
282.125	220.38
282.356	217.38
282.588	237.38
282.819	265.38
283.051	237.38
283.282	230.38
283.513	233.38
283.745	242.38
283.976	228.38
284.207	241.38
284.439	238.38
284.67	222.38
284.901	230.38
285.132	213.38
285.364	228.38
285.595	225.38
285.826	235.38
286.057	232.38
286.288	220.38
286.52	238.38
286.751	233.38
286.982	229.38
287.213	225.38
287.444	234.38
287.675	223.38
287.906	235.38
288.138	235.38
288.369	262.38
288.6	262.38
288.831	250.38
289.062	238.38
289.293	238.38
289.524	242.38
289.755	209.38
289.986	240.38
290.217	244.38
290.448	233.38
290.679	234.38
290.91	225.38
291.141	215.38
291.371	241.38
291.602	243.38
291.833	244.38
292.064	235.38
292.295	238.38
292.526	234.38
292.757	240.38
292.987	253.38
293.218	249.38
293.449	248.38
293.68	263.38
293.91	245.38
294.141	226.38
294.372	235.38
294.603	244.38
294.833	246.38
295.064	243.38
295.295	245.38
295.525	250.38
295.756	234.38
295.987	256.38
296.217	245.38
296.448	269.38
296.679	262.38
296.909	248.38
297.14	236.38
297.37	245.38
297.601	249.38
297.831	251.38
298.062	229.38
298.292	246.38
298.523	251.38
298.753	251.38
298.984	258.38
299.214	236.38
299.445	242.38
299.675	238.38
299.905	240.38
300.136	242.38
300.366	250.38
300.597	252.38
300.827	267.38
301.057	246.38
301.288	283.38
301.518	262.38
301.748	262.38
301.979	268.38
302.209	273.38
302.439	278.38
302.669	280.38
302.9	261.38
303.13	273.38
303.36	281.38
303.59	273.38
303.82	280.38
304.051	289.38
304.281	271.38
304.511	259.38
304.741	271.38
304.971	270.38
305.201	292.38
305.431	285.38
305.661	276.38
305.891	264.38
306.121	279.38
306.352	275.38
306.582	288.38
306.812	269.38
307.042	269.38
307.272	257.38
307.502	287.38
307.731	274.38
307.961	276.38
308.191	250.38
308.421	260.38
308.651	262.38
308.881	285.38
309.111	293.38
309.341	277.38
309.571	292.38
309.8	299.38
310.03	302.38
310.26	293.38
310.49	289.38
310.72	301.38
310.949	344.38
311.179	328.38
311.409	321.38
311.639	310.38
311.868	310.38
312.098	293.38
312.328	299.38
312.557	332.38
312.787	342.38
313.017	308.38
313.246	328.38
313.476	318.38
313.706	299.38
313.935	314.38
314.165	331.38
314.394	320.38
314.624	314.38
314.853	311.38
315.083	318.38
315.312	290.38
315.542	323.38
315.771	313.38
316.001	311.38
316.23	320.38
316.46	312.38
316.689	309.38
316.919	316.38
317.148	329.38
317.377	306.38
317.607	296.38
317.836	325.38
318.065	314.38
318.295	305.38
318.524	336.38
318.753	313.38
318.983	319.38
319.212	297.38
319.441	313.38
319.67	320.38
319.9	305.38
320.129	298.38
320.358	319.38
320.587	308.38
320.816	324.38
321.046	320.38
321.275	328.38
321.504	332.38
321.733	321.38
321.962	325.38
322.191	341.38
322.42	348.38
322.649	347.38
322.878	341.38
323.108	367.38
323.337	389.38
323.566	393.38
323.795	438.38
324.024	453.38
324.253	557.38
324.482	768.38
324.71	1165.38
324.939	1658.38
325.168	1423.38
325.397	796.38
325.626	542.38
325.855	468.38
326.084	438.38
326.313	393.38
326.542	411.38
326.77	455.38
326.999	496.38
327.228	717.38
327.457	1020.38
327.686	1261.38
327.914	876.38
328.143	593.38
328.372	512.38
328.6	491.38
328.829	465.38
329.058	458.38
329.287	477.38
329.515	449.38
329.744	400.38
329.972	411.38
330.201	434.38
330.43	456.38
330.658	458.38
330.887	505.38
331.115	485.38
331.344	427.38
331.572	404.38
331.801	402.38
332.03	416.38
332.258	360.38
332.486	383.38
332.715	379.38
332.943	360.38
333.172	362.38
333.4	374.38
333.629	393.38
333.857	378.38
334.085	372.38
334.314	390.38
334.542	422.38
334.771	439.38
334.999	416.38
335.227	376.38
335.455	376.38
335.684	358.38
335.912	378.38
336.14	345.38
336.369	373.38
336.597	369.38
336.825	362.38
337.053	356.38
337.281	364.38
337.51	362.38
337.738	353.38
337.966	354.38
338.194	378.38
338.422	361.38
338.65	361.38
338.878	342.38
339.106	345.38
339.334	357.38
339.562	357.38
339.79	334.38
340.018	357.38
340.246	343.38
340.474	378.38
340.702	352.38
340.93	343.38
341.158	342.38
341.386	359.38
341.614	377.38
341.842	365.38
342.07	355.38
342.298	348.38
342.526	355.38
342.754	345.38
342.981	329.38
343.209	346.38
343.437	349.38
343.665	331.38
343.893	340.38
344.12	340.38
344.348	344.38
344.576	368.38
344.804	366.38
345.031	363.38
345.259	348.38
345.487	361.38
345.714	392.38
345.942	375.38
346.17	339.38
346.397	349.38
346.625	356.38
346.853	352.38
347.08	349.38
347.308	358.38
347.535	364.38
347.763	371.38
347.99	362.38
348.218	361.38
348.445	346.38
348.673	365.38
348.9	370.38
349.128	359.38
349.355	336.38
349.583	336.38
349.81	341.38
350.037	337.38
350.265	339.38
350.492	333.38
350.72	343.38
350.947	369.38
351.174	372.38
351.402	369.38
351.629	370.38
351.856	365.38
352.083	373.38
352.311	365.38
352.538	375.38
352.765	379.38
352.992	361.38
353.22	362.38
353.447	360.38
353.674	351.38
353.901	343.38
354.128	352.38
354.355	322.38
354.583	343.38
354.81	342.38
355.037	342.38
355.264	332.38
355.491	336.38
355.718	335.38
355.945	306.38
356.172	321.38
356.399	330.38
356.626	310.38
356.853	355.38
357.08	327.38
357.307	340.38
357.534	341.38
357.761	330.38
357.988	345.38
358.215	345.38
358.441	333.38
358.668	333.38
358.895	323.38
359.122	345.38
359.349	355.38
359.576	343.38
359.802	367.38
360.029	414.38
360.256	403.38
360.483	388.38
360.709	358.38
360.936	361.38
361.163	353.38
361.39	355.38
361.616	361.38
361.843	356.38
362.07	356.38
362.296	360.38
362.523	353.38
362.749	372.38
362.976	368.38
363.203	364.38
363.429	342.38
363.656	342.38
363.882	357.38
364.109	352.38
364.335	353.38
364.562	354.38
364.788	358.38
365.015	331.38
365.241	347.38
365.468	351.38
365.694	341.38
365.92	351.38
366.147	373.38
366.373	347.38
366.599	362.38
366.826	353.38
367.052	340.38
367.278	347.38
367.505	345.38
367.731	365.38
367.957	337.38
368.184	332.38
368.41	386.38
368.636	378.38
368.862	375.38
369.089	346.38
369.315	362.38
369.541	370.38
369.767	336.38
369.993	339.38
370.219	357.38
370.445	356.38
370.672	360.38
370.898	330.38
371.124	339.38
371.35	345.38
371.576	330.38
371.802	363.38
372.028	352.38
372.254	345.38
372.48	351.38
372.706	363.38
372.932	363.38
373.158	369.38
373.384	376.38
373.61	358.38
373.835	343.38
374.061	359.38
374.287	351.38
374.513	370.38
374.739	354.38
374.965	350.38
375.191	362.38
375.416	359.38
375.642	359.38
375.868	354.38
376.094	369.38
376.319	352.38
376.545	358.38
376.771	364.38
376.997	360.38
377.222	357.38
377.448	347.38
377.674	368.38
377.899	350.38
378.125	366.38
378.35	358.38
378.576	368.38
378.802	360.38
379.027	364.38
379.253	350.38
379.478	363.38
379.704	359.38
379.929	349.38
380.155	364.38
380.38	357.38
380.606	358.38
380.831	362.38
381.057	365.38
381.282	344.38
381.507	350.38
381.733	373.38
381.958	371.38
382.184	361.38
382.409	365.38
382.634	354.38
382.86	372.38
383.085	376.38
383.31	386.38
383.535	380.38
383.761	375.38
383.986	373.38
384.211	380.38
384.436	387.38
384.662	384.38
384.887	416.38
385.112	364.38
385.337	380.38
385.562	386.38
385.787	361.38
386.013	382.38
386.238	392.38
386.463	395.38
386.688	384.38
386.913	403.38
387.138	393.38
387.363	388.38
387.588	397.38
387.813	388.38
388.038	384.38
388.263	393.38
388.488	411.38
388.713	385.38
388.938	378.38
389.163	393.38
389.387	390.38
389.612	405.38
389.837	397.38
390.062	390.38
390.287	386.38
390.512	374.38
390.736	390.38
390.961	394.38
391.186	405.38
391.411	388.38
391.636	381.38
391.86	410.38
392.085	391.38
392.31	398.38
392.534	388.38
392.759	412.38
392.984	387.38
393.208	380.38
393.433	411.38
393.658	434.38
393.882	390.38
394.107	396.38
394.331	390.38
394.556	393.38
394.78	387.38
395.005	397.38
395.229	402.38
395.454	400.38
395.678	397.38
395.903	420.38
396.127	444.38
396.352	419.38
396.576	425.38
396.801	440.38
397.025	412.38
397.249	402.38
397.474	421.38
397.698	422.38
397.922	428.38
398.147	449.38
398.371	443.38
398.595	425.38
398.82	422.38
399.044	438.38
399.268	439.38
399.492	451.38
399.717	467.38
399.941	488.38
400.165	526.38
400.389	547.38
400.613	481.38
400.837	472.38
401.062	472.38
401.286	434.38
401.51	443.38
401.734	442.38
401.958	435.38
402.182	443.38
402.406	442.38
402.63	455.38
402.854	457.38
403.078	449.38
403.302	452.38
403.526	457.38
403.75	468.38
403.974	456.38
404.198	449.38
404.422	450.38
404.645	468.38
404.869	464.38
405.093	496.38
405.317	528.38
405.541	565.38
405.765	511.38
405.988	482.38
406.212	510.38
406.436	501.38
406.66	524.38
406.883	498.38
407.107	528.38
407.331	555.38
407.555	604.38
407.778	580.38
408.002	549.38
408.226	524.38
408.449	524.38
408.673	490.38
408.896	531.38
409.12	568.38
409.344	542.38
409.567	500.38
409.791	498.38
410.014	461.38
410.238	446.38
410.461	474.38
410.685	483.38
410.908	491.38
411.132	516.38
411.355	530.38
411.578	484.38
411.802	466.38
412.025	472.38
412.249	482.38
412.472	500.38
412.695	521.38
412.919	512.38
413.142	472.38
413.365	469.38
413.589	443.38
413.812	457.38
414.035	431.38
414.258	442.38
414.482	432.38
414.705	443.38
414.928	436.38
415.151	450.38
415.374	441.38
415.597	428.38
415.821	425.38
416.044	424.38
416.267	452.38
416.49	436.38
416.713	452.38
416.936	472.38
417.159	451.38
417.382	448.38
417.605	432.38
417.828	452.38
418.051	464.38
418.274	458.38
418.497	439.38
418.72	461.38
418.943	440.38
419.166	457.38
419.389	480.38
419.611	468.38
419.834	456.38
420.057	473.38
420.28	467.38
420.503	473.38
420.726	477.38
420.948	483.38
421.171	517.38
421.394	541.38
421.617	502.38
421.839	485.38
422.062	475.38
422.285	492.38
422.507	537.38
422.73	601.38
422.953	581.38
423.175	518.38
423.398	474.38
423.621	489.38
423.843	481.38
424.066	512.38
424.288	499.38
424.511	528.38
424.733	571.38
424.956	638.38
425.178	606.38
425.401	608.38
425.623	619.38
425.846	573.38
426.068	525.38
426.291	522.38
426.513	501.38
426.735	497.38
426.958	562.38
427.18	643.38
427.402	732.38
427.625	797.38
427.847	700.38
428.069	638.38
428.292	549.38
428.514	518.38
428.736	507.38
428.958	477.38
429.181	478.38
429.403	479.38
429.625	495.38
429.847	510.38
430.069	565.38
430.292	564.38
430.514	485.38
430.736	465.38
430.958	475.38
431.18	459.38
431.402	449.38
431.624	453.38
431.846	434.38
432.068	430.38
432.29	458.38
432.512	438.38
432.734	452.38
432.956	440.38
433.178	445.38
433.4	450.38
433.622	467.38
433.844	450.38
434.066	437.38
434.287	457.38
434.509	449.38
434.731	456.38
434.953	443.38
435.175	462.38
435.397	507.38
435.618	530.38
435.84	556.38
436.062	640.38
436.284	677.38
436.505	612.38
436.727	552.38
436.949	499.38
437.17	468.38
437.392	498.38
437.614	518.38
437.835	504.38
438.057	614.38
438.278	694.38
438.5	694.38
438.721	711.38
438.943	718.38
439.165	588.38
439.386	539.38
439.608	526.38
439.829	518.38
440.05	551.38
440.272	557.38
440.493	565.38
440.715	508.38
440.936	490.38
441.158	473.38
441.379	492.38
441.6	490.38
441.822	516.38
442.043	538.38
442.264	620.38
442.486	656.38
442.707	566.38
442.928	528.38
443.149	530.38
443.371	544.38
443.592	579.38
443.813	675.38
444.034	729.38
444.255	609.38
444.476	534.38
444.698	530.38
444.919	502.38
445.14	634.38
445.361	570.38
445.582	543.38
445.803	588.38
446.024	662.38
446.245	687.38
446.466	643.38
446.687	562.38
446.908	530.38
447.129	521.38
447.35	498.38
447.571	497.38
447.792	483.38
448.013	486.38
448.234	484.38
448.455	549.38
448.675	659.38
448.896	711.38
449.117	644.38
449.338	592.38
449.559	702.38
449.779	770.38
450	632.38
450.221	542.38
450.442	502.38
450.662	472.38
450.883	472.38
451.104	477.38
451.324	483.38
451.545	452.38
451.766	439.38
451.986	442.38
452.207	443.38
452.428	399.38
452.648	453.38
452.869	440.38
453.089	425.38
453.31	422.38
453.53	441.38
453.751	438.38
453.971	443.38
454.192	441.38
454.412	432.38
454.633	428.38
454.853	423.38
455.073	410.38
455.294	459.38
455.514	510.38
455.734	505.38
455.955	447.38
456.175	419.38
456.395	398.38
456.616	389.38
456.836	408.38
457.056	398.38
457.276	407.38
457.497	389.38
457.717	409.38
457.937	417.38
458.157	414.38
458.377	428.38
458.598	459.38
458.818	492.38
459.038	548.38
459.258	565.38
459.478	502.38
459.698	456.38
459.918	456.38
460.138	443.38
460.358	449.38
460.578	443.38
460.798	467.38
461.018	457.38
461.238	426.38
461.458	447.38
461.678	445.38
461.898	434.38
462.118	456.38
462.338	434.38
462.558	467.38
462.777	459.38
462.997	467.38
463.217	468.38
463.437	482.38
463.657	501.38
463.876	493.38
464.096	484.38
464.316	469.38
464.536	488.38
464.755	498.38
464.975	495.38
465.195	509.38
465.414	566.38
465.634	520.38
465.854	497.38
466.073	463.38
466.293	454.38
466.512	457.38
466.732	449.38
466.951	445.38
467.171	459.38
467.391	445.38
467.61	438.38
467.829	451.38
468.049	455.38
468.268	439.38
468.488	443.38
468.707	451.38
468.927	429.38
469.146	429.38
469.365	426.38
469.585	443.38
469.804	444.38
470.023	457.38
470.243	452.38
470.462	448.38
470.681	443.38
470.901	457.38
471.12	436.38
471.339	438.38
471.558	443.38
471.777	442.38
471.997	443.38
472.216	461.38
472.435	482.38
472.654	478.38
472.873	444.38
473.092	462.38
473.311	453.38
473.53	426.38
473.749	447.38
473.968	463.38
474.187	580.38
474.406	595.38
474.625	509.38
474.844	476.38
475.063	472.38
475.282	457.38
475.501	459.38
475.72	477.38
475.939	452.38
476.158	469.38
476.377	460.38
476.596	459.38
476.814	456.38
477.033	468.38
477.252	475.38
477.471	470.38
477.69	484.38
477.908	480.38
478.127	474.38
478.346	482.38
478.564	512.38
478.783	507.38
479.002	491.38
479.22	500.38
479.439	517.38
479.658	536.38
479.876	545.38
480.095	512.38
480.313	548.38
480.532	538.38
480.751	532.38
480.969	561.38
481.188	590.38
481.406	588.38
481.624	575.38
481.843	545.38
482.061	538.38
482.28	538.38
482.498	531.38
482.717	529.38
482.935	525.38
483.153	542.38
483.372	546.38
483.59	538.38
483.808	545.38
484.027	530.38
484.245	557.38
484.463	539.38
484.681	565.38
484.9	557.38
485.118	549.38
485.336	527.38
485.554	556.38
485.772	568.38
485.99	551.38
486.209	549.38
486.427	573.38
486.645	575.38
486.863	590.38
487.081	588.38
487.299	603.38
487.517	586.38
487.735	572.38
487.953	601.38
488.171	563.38
488.389	595.38
488.607	575.38
488.825	572.38
489.043	587.38
489.261	573.38
489.479	579.38
489.696	590.38
489.914	586.38
490.132	607.38
490.35	629.38
490.568	615.38
490.786	625.38
491.003	636.38
491.221	650.38
491.439	676.38
491.657	650.38
491.874	655.38
492.092	678.38
492.31	664.38
492.527	657.38
492.745	699.38
492.963	694.38
493.18	690.38
493.398	684.38
493.615	692.38
493.833	679.38
494.05	707.38
494.268	696.38
494.485	660.38
494.703	676.38
494.92	685.38
495.138	675.38
495.355	674.38
495.573	701.38
495.79	706.38
496.008	711.38
496.225	693.38
496.442	685.38
496.66	723.38
496.877	721.38
497.094	693.38
497.312	714.38
497.529	716.38
497.746	709.38
497.963	694.38
498.181	732.38
498.398	747.38
498.615	742.38
498.832	775.38
499.049	750.38
499.267	774.38
499.484	806.38
499.701	813.38
499.918	845.38
500.135	847.38
500.352	861.38
500.569	898.38
500.786	916.38
501.003	902.38
501.22	873.38
501.437	880.38
501.654	850.38
501.871	843.38
502.088	798.38
502.305	806.38
502.522	742.38
502.739	787.38
502.956	768.38
503.172	729.38
503.389	736.38
503.606	727.38
503.823	733.38
504.04	692.38
504.256	695.38
504.473	698.38
504.69	685.38
504.907	678.38
505.123	683.38
505.34	674.38
505.557	655.38
505.773	663.38
505.99	681.38
506.207	650.38
506.423	669.38
506.64	670.38
506.856	646.38
507.073	664.38
507.289	659.38
507.506	640.38
507.722	660.38
507.939	672.38
508.155	655.38
508.372	669.38
508.588	631.38
508.805	640.38
509.021	630.38
509.238	645.38
509.454	650.38
509.67	613.38
509.887	644.38
510.103	635.38
510.319	655.38
510.536	729.38
510.752	1106.38
510.968	946.38
511.184	664.38
511.401	641.38
511.617	597.38
511.833	600.38
512.049	585.38
512.265	597.38
512.481	596.38
512.698	607.38
512.914	597.38
513.13	580.38
513.346	581.38
513.562	574.38
513.778	611.38
513.994	597.38
514.21	611.38
514.426	610.38
514.642	651.38
514.858	664.38
515.074	707.38
515.29	804.38
515.506	1188.38
515.721	1002.38
515.937	715.38
516.153	650.38
516.369	629.38
516.585	632.38
516.801	611.38
517.016	613.38
517.232	617.38
517.448	614.38
517.664	613.38
517.879	615.38
518.095	593.38
518.311	631.38
518.527	623.38
518.742	604.38
518.958	599.38
519.173	595.38
519.389	581.38
519.605	586.38
519.82	597.38
520.036	594.38
520.251	621.38
520.467	659.38
520.682	652.38
520.898	652.38
521.113	660.38
521.329	693.38
521.544	787.38
521.76	950.38
521.975	1513.38
522.19	1465.38
522.406	878.38
522.621	664.38
522.836	631.38
523.052	581.38
523.267	598.38
523.482	528.38
523.698	560.38
523.913	558.38
524.128	548.38
524.343	553.38
524.559	541.38
524.774	529.38
524.989	549.38
525.204	544.38
525.419	543.38
525.634	528.38
525.849	509.38
526.064	512.38
526.28	498.38
526.495	491.38
526.71	484.38
526.925	495.38
527.14	503.38
527.355	513.38
527.57	502.38
527.785	480.38
527.999	490.38
528.214	485.38
528.429	491.38
528.644	499.38
528.859	487.38
529.074	501.38
529.289	513.38
529.503	556.38
529.718	562.38
529.933	524.38
530.148	508.38
530.363	493.38
530.577	482.38
530.792	487.38
531.007	474.38
531.221	481.38
531.436	470.38
531.651	469.38
531.865	466.38
532.08	466.38
532.295	470.38
532.509	461.38
532.724	458.38
532.938	469.38
533.153	468.38
533.367	485.38
533.582	465.38
533.796	462.38
534.011	457.38
534.225	468.38
534.44	474.38
534.654	497.38
534.868	447.38
535.083	449.38
535.297	456.38
535.511	462.38
535.726	482.38
535.94	471.38
536.154	460.38
536.369	465.38
536.583	461.38
536.797	447.38
537.011	441.38
537.225	439.38
537.44	451.38
537.654	462.38
537.868	449.38
538.082	456.38
538.296	436.38
538.51	452.38
538.724	443.38
538.938	432.38
539.153	436.38
539.367	451.38
539.581	452.38
539.795	454.38
540.009	448.38
540.222	439.38
540.436	454.38
540.65	445.38
540.864	434.38
541.078	459.38
541.292	467.38
541.506	464.38
541.72	458.38
541.934	456.38
542.147	436.38
542.361	449.38
542.575	441.38
542.789	446.38
543.002	439.38
543.216	458.38
543.43	440.38
543.644	457.38
543.857	461.38
544.071	438.38
544.285	448.38
544.498	445.38
544.712	444.38
544.925	460.38
545.139	443.38
545.352	453.38
545.566	434.38
545.779	435.38
545.993	456.38
546.206	464.38
546.42	440.38
546.633	438.38
546.847	459.38
547.06	453.38
547.274	455.38
547.487	435.38
547.7	426.38
547.914	448.38
548.127	436.38
548.34	429.38
548.554	412.38
548.767	425.38
548.98	425.38
549.193	412.38
549.407	420.38
549.62	437.38
549.833	424.38
550.046	404.38
550.259	425.38
550.473	434.38
550.686	427.38
550.899	402.38
551.112	406.38
551.325	427.38
551.538	419.38
551.751	404.38
551.964	402.38
552.177	427.38
552.39	405.38
552.603	421.38
552.816	426.38
553.029	415.38
553.242	416.38
553.455	446.38
553.667	446.38
553.88	432.38
554.093	429.38
554.306	424.38
554.519	427.38
554.732	435.38
554.944	425.38
555.157	431.38
555.37	416.38
555.583	391.38
555.795	415.38
556.008	417.38
556.221	409.38
556.433	392.38
556.646	394.38
556.859	411.38
557.071	398.38
557.284	408.38
557.496	388.38
557.709	407.38
557.921	401.38
558.134	410.38
558.346	401.38
558.559	378.38
558.771	382.38
558.984	378.38
559.196	383.38
559.409	372.38
559.621	384.38
559.833	376.38
560.046	369.38
560.258	380.38
560.47	382.38
560.683	378.38
560.895	387.38
561.107	382.38
561.32	393.38
561.532	394.38
561.744	394.38
561.956	385.38
562.168	373.38
562.381	374.38
562.593	385.38
562.805	382.38
563.017	402.38
563.229	370.38
563.441	379.38
563.653	353.38
563.865	382.38
564.077	382.38
564.289	385.38
564.501	416.38
564.713	374.38
564.925	385.38
565.137	398.38
565.349	421.38
565.561	394.38
565.773	397.38
565.985	401.38
566.197	412.38
566.408	401.38
566.62	425.38
566.832	439.38
567.044	430.38
567.255	436.38
567.467	438.38
567.679	445.38
567.891	450.38
568.102	457.38
568.314	460.38
568.526	436.38
568.737	423.38
568.949	416.38
569.161	381.38
569.372	400.38
569.584	378.38
569.795	377.38
570.007	385.38
570.218	430.38
570.43	390.38
570.641	380.38
570.853	374.38
571.064	362.38
571.276	365.38
571.487	340.38
571.698	355.38
571.91	365.38
572.121	353.38
572.333	369.38
572.544	355.38
572.755	327.38
572.966	348.38
573.178	330.38
573.389	351.38
573.6	329.38
573.811	329.38
574.023	318.38
574.234	330.38
574.445	322.38
574.656	328.38
574.867	320.38
575.078	330.38
575.289	309.38
575.501	325.38
575.712	326.38
575.923	344.38
576.134	322.38
576.345	342.38
576.556	333.38
576.767	304.38
576.978	343.38
577.188	325.38
577.399	307.38
577.61	326.38
577.821	319.38
578.032	314.38
578.243	359.38
578.454	535.38
578.665	414.38
578.875	328.38
579.086	314.38
579.297	311.38
579.508	293.38
579.718	299.38
579.929	308.38
580.14	306.38
580.35	315.38
580.561	305.38
580.772	302.38
580.982	289.38
581.193	320.38
581.403	313.38
581.614	290.38
581.825	310.38
582.035	304.38
582.246	284.38
582.456	312.38
582.667	300.38
582.877	288.38
583.087	300.38
583.298	309.38
583.508	301.38
583.719	297.38
583.929	278.38
584.139	302.38
584.35	297.38
584.56	286.38
584.77	298.38
584.981	276.38
585.191	280.38
585.401	287.38
585.611	292.38
585.821	296.38
586.032	288.38
586.242	289.38
586.452	282.38
586.662	282.38
586.872	288.38
587.082	288.38
587.292	282.38
587.502	296.38
587.713	285.38
587.923	285.38
588.133	283.38
588.343	293.38
588.553	287.38
588.762	286.38
588.972	288.38
589.182	282.38
589.392	291.38
589.602	278.38
589.812	282.38
590.022	270.38
590.232	293.38
590.441	293.38
590.651	281.38
590.861	281.38
591.071	297.38
591.281	293.38
591.49	287.38
591.7	288.38
591.91	280.38
592.119	292.38
592.329	285.38
592.539	305.38
592.748	306.38
592.958	293.38
593.167	280.38
593.377	279.38
593.587	301.38
593.796	283.38
594.006	295.38
594.215	292.38
594.424	295.38
594.634	292.38
594.843	291.38
595.053	291.38
595.262	285.38
595.472	288.38
595.681	282.38
595.89	274.38
596.1	278.38
596.309	274.38
596.518	276.38
596.727	280.38
596.937	269.38
597.146	269.38
597.355	270.38
597.564	283.38
597.774	269.38
597.983	251.38
598.192	268.38
598.401	265.38
598.61	264.38
598.819	269.38
599.028	270.38
599.237	260.38
599.446	258.38
599.655	272.38
599.864	256.38
600.073	256.38
600.282	258.38
600.491	250.38
600.7	262.38
600.909	232.38
601.118	260.38
601.327	268.38
601.536	266.38
601.745	275.38
601.953	260.38
602.162	248.38
602.371	237.38
602.58	268.38
602.789	231.38
602.997	249.38
603.206	245.38
603.415	250.38
603.623	257.38
603.832	253.38
604.041	246.38
604.249	242.38
604.458	243.38
604.666	252.38
604.875	224.38
605.084	237.38
605.292	260.38
605.501	259.38
605.709	246.38
605.918	248.38
606.126	232.38
606.334	233.38
606.543	242.38
606.751	250.38
606.96	265.38
607.168	243.38
607.376	252.38
607.585	246.38
607.793	245.38
608.001	262.38
608.21	233.38
608.418	244.38
608.626	236.38
608.834	256.38
609.043	230.38
609.251	235.38
609.459	248.38
609.667	252.38
609.875	251.38
610.083	228.38
610.291	236.38
610.499	230.38
610.707	227.38
610.916	238.38
611.124	265.38
611.332	244.38
611.54	258.38
611.748	244.38
611.955	232.38
612.163	219.38
612.371	233.38
612.579	240.38
612.787	258.38
612.995	227.38
613.203	245.38
613.411	233.38
613.618	236.38
613.826	238.38
614.034	225.38
614.242	232.38
614.449	246.38
614.657	227.38
614.865	237.38
615.072	245.38
615.28	221.38
615.488	210.38
615.695	240.38
615.903	231.38
616.111	244.38
616.318	240.38
616.526	233.38
616.733	245.38
616.941	233.38
617.148	236.38
617.356	234.38
617.563	235.38
617.771	231.38
617.978	209.38
618.185	229.38
618.393	229.38
618.6	213.38
618.807	233.38
619.015	220.38
619.222	219.38
619.429	235.38
619.637	244.38
619.844	232.38
620.051	225.38
620.258	237.38
620.466	211.38
620.673	226.38
620.88	221.38
621.087	215.38
621.294	234.38
621.501	233.38
621.708	222.38
621.915	202.38
622.122	206.38
622.329	236.38
622.536	230.38
622.743	233.38
622.95	202.38
623.157	215.38
623.364	220.38
623.571	223.38
623.778	213.38
623.985	212.38
624.192	220.38
624.399	205.38
624.606	220.38
624.812	208.38
625.019	223.38
625.226	201.38
625.433	217.38
625.639	224.38
625.846	209.38
626.053	206.38
626.259	210.38
626.466	205.38
626.673	190.38
626.879	193.38
627.086	196.38
627.293	220.38
627.499	207.38
627.706	210.38
627.912	200.38
628.119	198.38
628.325	217.38
628.532	201.38
628.738	198.38
628.945	190.38
629.151	197.38
629.357	185.38
629.564	196.38
629.77	205.38
629.976	204.38
630.183	167.38
630.389	180.38
630.595	188.38
630.802	188.38
631.008	191.38
631.214	202.38
631.42	194.38
631.627	194.38
631.833	199.38
632.039	195.38
632.245	193.38
632.451	173.38
632.657	199.38
632.863	192.38
633.069	166.38
633.275	190.38
633.481	176.38
633.688	196.38
633.893	184.38
634.099	177.38
634.305	188.38
634.511	203.38
634.717	180.38
634.923	184.38
635.129	192.38
635.335	174.38
635.541	179.38
635.747	188.38
635.952	188.38
636.158	186.38
636.364	181.38
636.57	184.38
636.775	168.38
636.981	186.38
637.187	174.38
637.392	178.38
637.598	171.38
637.804	180.38
638.009	192.38
638.215	171.38
638.421	181.38
638.626	180.38
638.832	166.38
639.037	182.38
639.243	176.38
639.448	171.38
639.654	180.38
639.859	184.38
640.065	174.38
640.27	172.38
640.475	161.38
640.681	168.38
640.886	176.38
641.091	190.38
641.297	188.38
641.502	172.38
641.707	164.38
641.913	189.38
642.118	170.38
642.323	153.38
642.528	152.38
642.733	177.38
642.939	172.38
643.144	149.38
643.349	169.38
643.554	168.38
643.759	142.38
643.964	169.38
644.169	168.38
644.374	180.38
644.579	167.38
644.784	164.38
644.989	154.38
645.194	179.38
645.399	157.38
645.604	148.38
645.809	170.38
646.014	157.38
646.219	173.38
646.423	165.38
646.628	159.38
646.833	185.38
647.038	171.38
647.243	164.38
647.447	170.38
647.652	174.38
647.857	171.38
648.062	167.38
648.266	155.38
648.471	163.38
648.676	164.38
648.88	156.38
649.085	146.38
649.289	157.38
649.494	156.38
649.698	160.38
649.903	166.38
650.107	161.38
650.312	177.38
650.516	164.38
650.721	148.38
650.925	163.38
651.13	152.38
651.334	153.38
651.539	155.38
651.743	166.38
651.947	154.38
652.152	146.38
652.356	143.38
652.56	134.38
652.764	144.38
652.969	138.38
653.173	140.38
653.377	138.38
653.581	142.38
653.785	154.38
653.99	156.38
654.194	146.38
654.398	138.38
654.602	141.38
654.806	136.38
655.01	139.38
655.214	138.38
655.418	112.38
655.622	132.38
655.826	133.38
656.03	119.38
656.234	120.38
656.438	128.38
656.642	131.38
656.846	126.38
657.049	122.38
657.253	122.38
657.457	125.38
657.661	123.38
657.865	111.38
658.068	101.38
658.272	115.38
658.476	110.38
658.68	111.38
658.883	98.38
659.087	104.38
659.291	106.38
659.494	126.38
659.698	98.38
659.901	93.38
660.105	92.38
660.309	87.38
660.512	76.38
660.716	90.38
660.919	103.38
661.123	112.38
661.326	91.38
661.53	94.38
661.733	93.38
661.936	79.38
662.14	78.38
662.343	91.38
662.546	83.38
662.75	99.38
662.953	93.38
663.156	76.38
663.36	82.38
663.563	86.38
663.766	91.38
663.969	85.38
664.173	95.38
664.376	82.38
664.579	84.38
664.782	77.38
664.985	87.38
665.188	81.38
665.391	81.38
665.594	96.38
665.797	90.38
666	81.38
666.203	74.38
666.406	83.38
666.609	88.38
666.812	98.38
667.015	72.38
667.218	91.38
667.421	88.38
667.624	90.38
667.827	75.38
668.03	83.38
668.232	88.38
668.435	81.38
668.638	93.38
668.841	93.38
669.043	77.38
669.246	89.38
669.449	94.38
669.651	85.38
669.854	87.38
670.057	89.38
670.259	84.38
670.462	69.38
670.665	90.38
670.867	76.38
671.07	83.38
671.272	90.38
671.475	88.38
671.677	72.38
671.88	79.38
672.082	77.38
672.284	93.38
672.487	90.38
672.689	82.38
672.892	77.38
