Data from 1970.PennyLincolnUp.Lamp.En5.5.200Scan.071719.P1._HRD10591_15-15-35-842.txt Node
Date: Thu Jul 18 15:15:35 EDT 2019
User: cochatt
Spectrometer: HR+D1059
Trigger mode: 1
Integration Time (sec): 1.000000E-1
Scans to average: 1
Electric dark correction enabled: true
Nonlinearity correction enabled: false
Boxcar width: 0
XAxis mode: Wavelengths
Number of Pixels in Spectrum: 2048
>>>>>Begin Spectral Data<<<<<
223.165	-19.31
223.4	-19.31
223.635	-19.31
223.869	-3.31
224.104	-18.31
224.338	-27.31
224.573	-14.31
224.808	-3.31
225.042	-6.31
225.277	-20.31
225.511	-11.31
225.746	12.69
225.98	5.69
226.215	11.69
226.449	15.69
226.683	23.69
226.918	21.69
227.152	32.69
227.387	50.69
227.621	32.69
227.856	52.69
228.09	46.69
228.324	54.69
228.559	64.69
228.793	73.69
229.027	110.69
229.262	125.69
229.496	119.69
229.73	151.69
229.964	183.69
230.199	142.69
230.433	128.69
230.667	110.69
230.901	125.69
231.136	107.69
231.37	121.69
231.604	120.69
231.838	143.69
232.072	115.69
232.306	119.69
232.541	127.69
232.775	117.69
233.009	139.69
233.243	129.69
233.477	116.69
233.711	129.69
233.945	125.69
234.179	141.69
234.413	119.69
234.647	117.69
234.881	120.69
235.115	131.69
235.349	139.69
235.583	120.69
235.817	120.69
236.051	133.69
236.285	124.69
236.519	131.69
236.753	136.69
236.987	172.69
237.221	203.69
237.455	279.69
237.689	204.69
237.922	142.69
238.156	149.69
238.39	141.69
238.624	146.69
238.858	132.69
239.091	128.69
239.325	139.69
239.559	146.69
239.793	139.69
240.027	151.69
240.26	160.69
240.494	167.69
240.728	168.69
240.961	160.69
241.195	161.69
241.429	135.69
241.662	155.69
241.896	155.69
242.13	146.69
242.363	141.69
242.597	141.69
242.83	151.69
243.064	147.69
243.298	136.69
243.531	163.69
243.765	151.69
243.998	160.69
244.232	154.69
244.465	136.69
244.699	148.69
244.932	152.69
245.166	156.69
245.399	148.69
245.633	156.69
245.866	155.69
246.099	161.69
246.333	161.69
246.566	170.69
246.8	153.69
247.033	175.69
247.266	168.69
247.5	180.69
247.733	204.69
247.966	197.69
248.2	193.69
248.433	181.69
248.666	199.69
248.899	219.69
249.133	215.69
249.366	213.69
249.599	223.69
249.832	198.69
250.066	206.69
250.299	204.69
250.532	216.69
250.765	210.69
250.998	257.69
251.231	263.69
251.465	233.69
251.698	218.69
251.931	227.69
252.164	221.69
252.397	232.69
252.63	220.69
252.863	228.69
253.096	239.69
253.329	260.69
253.562	264.69
253.795	243.69
254.028	236.69
254.261	247.69
254.494	267.69
254.727	279.69
254.96	322.69
255.193	330.69
255.426	279.69
255.659	267.69
255.892	262.69
256.124	265.69
256.357	275.69
256.59	265.69
256.823	253.69
257.056	239.69
257.289	229.69
257.521	241.69
257.754	230.69
257.987	232.69
258.22	237.69
258.452	232.69
258.685	231.69
258.918	234.69
259.151	219.69
259.383	253.69
259.616	240.69
259.849	238.69
260.081	246.69
260.314	292.69
260.547	292.69
260.779	273.69
261.012	261.69
261.244	249.69
261.477	248.69
261.71	238.69
261.942	250.69
262.175	253.69
262.407	259.69
262.64	231.69
262.872	238.69
263.105	245.69
263.337	217.69
263.57	233.69
263.802	240.69
264.035	231.69
264.267	241.69
264.499	215.69
264.732	249.69
264.964	236.69
265.197	235.69
265.429	213.69
265.661	232.69
265.894	228.69
266.126	223.69
266.358	228.69
266.591	220.69
266.823	220.69
267.055	226.69
267.287	245.69
267.52	232.69
267.752	248.69
267.984	230.69
268.216	249.69
268.448	245.69
268.681	246.69
268.913	269.69
269.145	303.69
269.377	303.69
269.609	279.69
269.841	299.69
270.073	311.69
270.306	311.69
270.538	323.69
270.77	332.69
271.002	330.69
271.234	337.69
271.466	327.69
271.698	332.69
271.93	338.69
272.162	334.69
272.394	350.69
272.626	336.69
272.858	331.69
273.09	298.69
273.322	288.69
273.553	290.69
273.785	270.69
274.017	284.69
274.249	298.69
274.481	277.69
274.713	278.69
274.945	293.69
275.176	256.69
275.408	282.69
275.64	282.69
275.872	279.69
276.104	287.69
276.335	295.69
276.567	283.69
276.799	294.69
277.031	332.69
277.262	328.69
277.494	313.69
277.726	320.69
277.957	299.69
278.189	293.69
278.421	295.69
278.652	288.69
278.884	288.69
279.115	271.69
279.347	292.69
279.579	268.69
279.81	284.69
280.042	273.69
280.273	258.69
280.505	261.69
280.736	276.69
280.968	273.69
281.199	257.69
281.431	260.69
281.662	276.69
281.894	266.69
282.125	270.69
282.356	283.69
282.588	327.69
282.819	336.69
283.051	304.69
283.282	266.69
283.513	283.69
283.745	270.69
283.976	256.69
284.207	277.69
284.439	276.69
284.67	277.69
284.901	293.69
285.132	272.69
285.364	285.69
285.595	256.69
285.826	296.69
286.057	271.69
286.288	279.69
286.52	268.69
286.751	280.69
286.982	287.69
287.213	271.69
287.444	271.69
287.675	295.69
287.906	297.69
288.138	317.69
288.369	331.69
288.6	311.69
288.831	316.69
289.062	292.69
289.293	293.69
289.524	294.69
289.755	295.69
289.986	312.69
290.217	311.69
290.448	288.69
290.679	288.69
290.91	285.69
291.141	283.69
291.371	281.69
291.602	290.69
291.833	293.69
292.064	288.69
292.295	281.69
292.526	291.69
292.757	314.69
292.987	283.69
293.218	288.69
293.449	283.69
293.68	280.69
293.91	275.69
294.141	291.69
294.372	291.69
294.603	278.69
294.833	286.69
295.064	297.69
295.295	278.69
295.525	299.69
295.756	301.69
295.987	296.69
296.217	346.69
296.448	331.69
296.679	283.69
296.909	291.69
297.14	301.69
297.37	316.69
297.601	299.69
297.831	281.69
298.062	293.69
298.292	295.69
298.523	301.69
298.753	318.69
298.984	296.69
299.214	305.69
299.445	299.69
299.675	319.69
299.905	313.69
300.136	315.69
300.366	326.69
300.597	307.69
300.827	312.69
301.057	310.69
301.288	330.69
301.518	334.69
301.748	321.69
301.979	318.69
302.209	320.69
302.439	309.69
302.669	333.69
302.9	329.69
303.13	326.69
303.36	324.69
303.59	341.69
303.82	336.69
304.051	333.69
304.281	347.69
304.511	319.69
304.741	336.69
304.971	327.69
305.201	340.69
305.431	316.69
305.661	325.69
305.891	328.69
306.121	346.69
306.352	333.69
306.582	322.69
306.812	324.69
307.042	322.69
307.272	311.69
307.502	333.69
307.731	332.69
307.961	344.69
308.191	335.69
308.421	333.69
308.651	346.69
308.881	337.69
309.111	339.69
309.341	350.69
309.571	350.69
309.8	358.69
310.03	382.69
310.26	391.69
310.49	381.69
310.72	387.69
310.949	425.69
311.179	417.69
311.409	401.69
311.639	415.69
311.868	408.69
312.098	393.69
312.328	394.69
312.557	411.69
312.787	425.69
313.017	449.69
313.246	409.69
313.476	387.69
313.706	381.69
313.935	390.69
314.165	408.69
314.394	445.69
314.624	422.69
314.853	421.69
315.083	391.69
315.312	404.69
315.542	380.69
315.771	382.69
316.001	382.69
316.23	380.69
316.46	384.69
316.689	378.69
316.919	392.69
317.148	410.69
317.377	399.69
317.607	404.69
317.836	389.69
318.065	388.69
318.295	382.69
318.524	376.69
318.753	376.69
318.983	379.69
319.212	390.69
319.441	411.69
319.67	408.69
319.9	393.69
320.129	390.69
320.358	408.69
320.587	401.69
320.816	410.69
321.046	423.69
321.275	422.69
321.504	411.69
321.733	424.69
321.962	433.69
322.191	442.69
322.42	489.69
322.649	486.69
322.878	514.69
323.108	503.69
323.337	524.69
323.566	561.69
323.795	611.69
324.024	634.69
324.253	803.69
324.482	1161.69
324.71	1744.69
324.939	2491.69
325.168	2157.69
325.397	1151.69
325.626	767.69
325.855	646.69
326.084	572.69
326.313	549.69
326.542	571.69
326.77	619.69
326.999	744.69
327.228	1000.69
327.457	1569.69
327.686	1914.69
327.914	1272.69
328.143	865.69
328.372	715.69
328.6	695.69
328.829	648.69
329.058	658.69
329.287	691.69
329.515	600.69
329.744	578.69
329.972	541.69
330.201	597.69
330.43	648.69
330.658	677.69
330.887	692.69
331.115	685.69
331.344	597.69
331.572	553.69
331.801	537.69
332.03	540.69
332.258	508.69
332.486	500.69
332.715	483.69
332.943	480.69
333.172	488.69
333.4	494.69
333.629	503.69
333.857	494.69
334.085	507.69
334.314	533.69
334.542	594.69
334.771	592.69
334.999	538.69
335.227	495.69
335.455	476.69
335.684	453.69
335.912	461.69
336.14	460.69
336.369	448.69
336.597	464.69
336.825	455.69
337.053	455.69
337.281	447.69
337.51	456.69
337.738	453.69
337.966	465.69
338.194	452.69
338.422	461.69
338.65	442.69
338.878	445.69
339.106	431.69
339.334	433.69
339.562	450.69
339.79	425.69
340.018	423.69
340.246	455.69
340.474	451.69
340.702	461.69
340.93	468.69
341.158	453.69
341.386	450.69
341.614	456.69
341.842	457.69
342.07	429.69
342.298	410.69
342.526	431.69
342.754	430.69
342.981	410.69
343.209	400.69
343.437	421.69
343.665	431.69
343.893	433.69
344.12	424.69
344.348	456.69
344.576	461.69
344.804	485.69
345.031	465.69
345.259	478.69
345.487	470.69
345.714	461.69
345.942	427.69
346.17	447.69
346.397	432.69
346.625	440.69
346.853	441.69
347.08	444.69
347.308	432.69
347.535	454.69
347.763	467.69
347.99	445.69
348.218	448.69
348.445	477.69
348.673	461.69
348.9	454.69
349.128	437.69
349.355	433.69
349.583	412.69
349.81	424.69
350.037	455.69
350.265	414.69
350.492	438.69
350.72	400.69
350.947	442.69
351.174	431.69
351.402	450.69
351.629	453.69
351.856	448.69
352.083	443.69
352.311	456.69
352.538	476.69
352.765	491.69
352.992	455.69
353.22	433.69
353.447	442.69
353.674	435.69
353.901	424.69
354.128	425.69
354.355	419.69
354.583	416.69
354.81	402.69
355.037	420.69
355.264	418.69
355.491	421.69
355.718	393.69
355.945	392.69
356.172	391.69
356.399	398.69
356.626	415.69
356.853	411.69
357.08	413.69
357.307	416.69
357.534	404.69
357.761	393.69
357.988	401.69
358.215	407.69
358.441	422.69
358.668	405.69
358.895	404.69
359.122	414.69
359.349	414.69
359.576	452.69
359.802	489.69
360.029	503.69
360.256	525.69
360.483	497.69
360.709	475.69
360.936	448.69
361.163	446.69
361.39	461.69
361.616	456.69
361.843	454.69
362.07	457.69
362.296	445.69
362.523	458.69
362.749	437.69
362.976	443.69
363.203	428.69
363.429	417.69
363.656	437.69
363.882	423.69
364.109	414.69
364.335	428.69
364.562	443.69
364.788	433.69
365.015	457.69
365.241	424.69
365.468	421.69
365.694	420.69
365.92	438.69
366.147	421.69
366.373	419.69
366.599	440.69
366.826	405.69
367.052	437.69
367.278	440.69
367.505	424.69
367.731	429.69
367.957	415.69
368.184	426.69
368.41	431.69
368.636	441.69
368.862	439.69
369.089	425.69
369.315	439.69
369.541	407.69
369.767	418.69
369.993	408.69
370.219	420.69
370.445	444.69
370.672	426.69
370.898	417.69
371.124	419.69
371.35	414.69
371.576	433.69
371.802	428.69
372.028	390.69
372.254	419.69
372.48	411.69
372.706	420.69
372.932	412.69
373.158	434.69
373.384	447.69
373.61	431.69
373.835	421.69
374.061	412.69
374.287	415.69
374.513	419.69
374.739	448.69
374.965	417.69
375.191	427.69
375.416	425.69
375.642	411.69
375.868	437.69
376.094	414.69
376.319	427.69
376.545	433.69
376.771	410.69
376.997	405.69
377.222	409.69
377.448	412.69
377.674	410.69
377.899	407.69
378.125	406.69
378.35	413.69
378.576	419.69
378.802	420.69
379.027	411.69
379.253	406.69
379.478	403.69
379.704	427.69
379.929	408.69
380.155	425.69
380.38	417.69
380.606	410.69
380.831	419.69
381.057	420.69
381.282	425.69
381.507	405.69
381.733	428.69
381.958	428.69
382.184	418.69
382.409	446.69
382.634	438.69
382.86	434.69
383.085	441.69
383.31	442.69
383.535	433.69
383.761	447.69
383.986	449.69
384.211	464.69
384.436	423.69
384.662	446.69
384.887	447.69
385.112	425.69
385.337	460.69
385.562	453.69
385.787	467.69
386.013	450.69
386.238	460.69
386.463	466.69
386.688	443.69
386.913	462.69
387.138	456.69
387.363	459.69
387.588	475.69
387.813	454.69
388.038	441.69
388.263	464.69
388.488	478.69
388.713	468.69
388.938	464.69
389.163	458.69
389.387	449.69
389.612	456.69
389.837	443.69
390.062	449.69
390.287	465.69
390.512	458.69
390.736	460.69
390.961	470.69
391.186	464.69
391.411	450.69
391.636	469.69
391.86	462.69
392.085	460.69
392.31	457.69
392.534	437.69
392.759	475.69
392.984	446.69
393.208	451.69
393.433	481.69
393.658	479.69
393.882	437.69
394.107	456.69
394.331	462.69
394.556	447.69
394.78	461.69
395.005	464.69
395.229	451.69
395.454	469.69
395.678	478.69
395.903	489.69
396.127	494.69
396.352	486.69
396.576	489.69
396.801	477.69
397.025	485.69
397.249	448.69
397.474	481.69
397.698	481.69
397.922	499.69
398.147	496.69
398.371	507.69
398.595	513.69
398.82	505.69
399.044	519.69
399.268	536.69
399.492	523.69
399.717	555.69
399.941	601.69
400.165	631.69
400.389	630.69
400.613	561.69
400.837	547.69
401.062	538.69
401.286	562.69
401.51	516.69
401.734	499.69
401.958	506.69
402.182	506.69
402.406	552.69
402.63	549.69
402.854	539.69
403.078	547.69
403.302	558.69
403.526	537.69
403.75	536.69
403.974	555.69
404.198	540.69
404.422	571.69
404.645	572.69
404.869	575.69
405.093	583.69
405.317	617.69
405.541	643.69
405.765	619.69
405.988	576.69
406.212	601.69
406.436	612.69
406.66	611.69
406.883	601.69
407.107	629.69
407.331	648.69
407.555	734.69
407.778	713.69
408.002	673.69
408.226	645.69
408.449	622.69
408.673	611.69
408.896	628.69
409.12	658.69
409.344	617.69
409.567	589.69
409.791	576.69
410.014	543.69
410.238	553.69
410.461	539.69
410.685	566.69
410.908	559.69
411.132	603.69
411.355	664.69
411.578	613.69
411.802	556.69
412.025	548.69
412.249	566.69
412.472	575.69
412.695	660.69
412.919	615.69
413.142	587.69
413.365	551.69
413.589	551.69
413.812	538.69
414.035	516.69
414.258	525.69
414.482	515.69
414.705	529.69
414.928	538.69
415.151	501.69
415.374	506.69
415.597	511.69
415.821	541.69
416.044	515.69
416.267	525.69
416.49	535.69
416.713	535.69
416.936	516.69
417.159	523.69
417.382	536.69
417.605	521.69
417.828	551.69
418.051	571.69
418.274	546.69
418.497	542.69
418.72	533.69
418.943	524.69
419.166	540.69
419.389	551.69
419.611	547.69
419.834	543.69
420.057	575.69
420.28	575.69
420.503	556.69
420.726	567.69
420.948	575.69
421.171	633.69
421.394	655.69
421.617	584.69
421.839	584.69
422.062	572.69
422.285	568.69
422.507	617.69
422.73	712.69
422.953	668.69
423.175	643.69
423.398	584.69
423.621	579.69
423.843	601.69
424.066	627.69
424.288	623.69
424.511	636.69
424.733	709.69
424.956	771.69
425.178	735.69
425.401	724.69
425.623	763.69
425.846	665.69
426.068	648.69
426.291	638.69
426.513	615.69
426.735	657.69
426.958	694.69
427.18	761.69
427.402	891.69
427.625	1024.69
427.847	889.69
428.069	796.69
428.292	721.69
428.514	652.69
428.736	616.69
428.958	598.69
429.181	581.69
429.403	573.69
429.625	599.69
429.847	643.69
430.069	712.69
430.292	686.69
430.514	609.69
430.736	581.69
430.958	565.69
431.18	556.69
431.402	535.69
431.624	528.69
431.846	529.69
432.068	525.69
432.29	533.69
432.512	563.69
432.734	558.69
432.956	541.69
433.178	572.69
433.4	561.69
433.622	533.69
433.844	563.69
434.066	530.69
434.287	541.69
434.509	546.69
434.731	566.69
434.953	567.69
435.175	567.69
435.397	582.69
435.618	594.69
435.84	649.69
436.062	774.69
436.284	849.69
436.505	687.69
436.727	643.69
436.949	589.69
437.17	585.69
437.392	574.69
437.614	611.69
437.835	635.69
438.057	731.69
438.278	892.69
438.5	851.69
438.721	907.69
438.943	855.69
439.165	703.69
439.386	675.69
439.608	620.69
439.829	653.69
440.05	667.69
440.272	703.69
440.493	674.69
440.715	637.69
440.936	605.69
441.158	566.69
441.379	575.69
441.6	609.69
441.822	622.69
442.043	663.69
442.264	774.69
442.486	790.69
442.707	703.69
442.928	628.69
443.149	645.69
443.371	671.69
443.592	702.69
443.813	827.69
444.034	862.69
444.255	750.69
444.476	649.69
444.698	633.69
444.919	610.69
445.14	733.69
445.361	685.69
445.582	688.69
445.803	775.69
446.024	875.69
446.245	854.69
446.466	798.69
446.687	692.69
446.908	631.69
447.129	614.69
447.35	581.69
447.571	566.69
447.792	581.69
448.013	587.69
448.234	609.69
448.455	678.69
448.675	792.69
448.896	888.69
449.117	791.69
449.338	747.69
449.559	835.69
449.779	927.69
450	781.69
450.221	645.69
450.442	581.69
450.662	601.69
450.883	605.69
451.104	606.69
451.324	603.69
451.545	576.69
451.766	537.69
451.986	519.69
452.207	519.69
452.428	537.69
452.648	511.69
452.869	533.69
453.089	525.69
453.31	552.69
453.53	534.69
453.751	532.69
453.971	525.69
454.192	567.69
454.412	570.69
454.633	536.69
454.853	525.69
455.073	513.69
455.294	554.69
455.514	622.69
455.734	602.69
455.955	530.69
456.175	502.69
456.395	451.69
456.616	491.69
456.836	485.69
457.056	459.69
457.276	443.69
457.497	471.69
457.717	487.69
457.937	505.69
458.157	499.69
458.377	492.69
458.598	534.69
458.818	586.69
459.038	697.69
459.258	696.69
459.478	603.69
459.698	553.69
459.918	523.69
460.138	527.69
460.358	494.69
460.578	529.69
460.798	563.69
461.018	522.69
461.238	533.69
461.458	548.69
461.678	525.69
461.898	537.69
462.118	544.69
462.338	522.69
462.558	520.69
462.777	533.69
462.997	559.69
463.217	544.69
463.437	558.69
463.657	549.69
463.876	555.69
464.096	543.69
464.316	558.69
464.536	569.69
464.755	573.69
464.975	580.69
465.195	654.69
465.414	735.69
465.634	661.69
465.854	605.69
466.073	576.69
466.293	558.69
466.512	523.69
466.732	539.69
466.951	519.69
467.171	523.69
467.391	532.69
467.61	530.69
467.829	565.69
468.049	554.69
468.268	547.69
468.488	539.69
468.707	527.69
468.927	511.69
469.146	513.69
469.365	507.69
469.585	510.69
469.804	504.69
470.023	538.69
470.243	547.69
470.462	557.69
470.681	586.69
470.901	574.69
471.12	559.69
471.339	532.69
471.558	523.69
471.777	536.69
471.997	551.69
472.216	550.69
472.435	583.69
472.654	582.69
472.873	561.69
473.092	549.69
473.311	514.69
473.53	554.69
473.749	551.69
473.968	594.69
474.187	702.69
474.406	733.69
474.625	621.69
474.844	582.69
475.063	558.69
475.282	552.69
475.501	548.69
475.72	549.69
475.939	568.69
476.158	559.69
476.377	569.69
476.596	547.69
476.814	558.69
477.033	578.69
477.252	569.69
477.471	570.69
477.69	587.69
477.908	597.69
478.127	593.69
478.346	615.69
478.564	584.69
478.783	587.69
479.002	589.69
479.22	607.69
479.439	627.69
479.658	647.69
479.876	647.69
480.095	644.69
480.313	670.69
480.532	676.69
480.751	652.69
480.969	672.69
481.188	750.69
481.406	827.69
481.624	727.69
481.843	675.69
482.061	665.69
482.28	648.69
482.498	667.69
482.717	635.69
482.935	648.69
483.153	628.69
483.372	671.69
483.59	624.69
483.808	652.69
484.027	652.69
484.245	660.69
484.463	643.69
484.681	661.69
484.9	669.69
485.118	666.69
485.336	647.69
485.554	666.69
485.772	654.69
485.99	655.69
486.209	655.69
486.427	687.69
486.645	683.69
486.863	731.69
487.081	709.69
487.299	715.69
487.517	687.69
487.735	715.69
487.953	708.69
488.171	719.69
488.389	720.69
488.607	699.69
488.825	706.69
489.043	697.69
489.261	700.69
489.479	721.69
489.696	729.69
489.914	730.69
490.132	726.69
490.35	757.69
490.568	758.69
490.786	762.69
491.003	753.69
491.221	771.69
491.439	787.69
491.657	789.69
491.874	812.69
492.092	799.69
492.31	819.69
492.527	825.69
492.745	823.69
492.963	817.69
493.18	799.69
493.398	828.69
493.615	821.69
493.833	877.69
494.05	847.69
494.268	852.69
494.485	835.69
494.703	829.69
494.92	837.69
495.138	850.69
495.355	829.69
495.573	878.69
495.79	859.69
496.008	854.69
496.225	862.69
496.442	809.69
496.66	843.69
496.877	813.69
497.094	848.69
497.312	869.69
497.529	862.69
497.746	872.69
497.963	867.69
498.181	897.69
498.398	885.69
498.615	903.69
498.832	880.69
499.049	895.69
499.267	901.69
499.484	918.69
499.701	959.69
499.918	964.69
500.135	1014.69
500.352	1015.69
500.569	1060.69
500.786	1054.69
501.003	1043.69
501.22	1025.69
501.437	1001.69
501.654	1003.69
501.871	1017.69
502.088	971.69
502.305	952.69
502.522	925.69
502.739	903.69
502.956	889.69
503.172	870.69
503.389	869.69
503.606	883.69
503.823	850.69
504.04	869.69
504.256	862.69
504.473	840.69
504.69	823.69
504.907	808.69
505.123	839.69
505.34	819.69
505.557	798.69
505.773	803.69
505.99	822.69
506.207	823.69
506.423	797.69
506.64	815.69
506.856	786.69
507.073	794.69
507.289	805.69
507.506	805.69
507.722	793.69
507.939	847.69
508.155	825.69
508.372	781.69
508.588	760.69
508.805	779.69
509.021	770.69
509.238	809.69
509.454	801.69
509.67	798.69
509.887	783.69
510.103	771.69
510.319	807.69
510.536	905.69
510.752	1562.69
510.968	1280.69
511.184	839.69
511.401	795.69
511.617	760.69
511.833	768.69
512.049	732.69
512.265	742.69
512.481	735.69
512.698	734.69
512.914	717.69
513.13	750.69
513.346	746.69
513.562	721.69
513.778	726.69
513.994	765.69
514.21	779.69
514.426	807.69
514.642	839.69
514.858	908.69
515.074	942.69
515.29	1119.69
515.506	1700.69
515.721	1383.69
515.937	919.69
516.153	839.69
516.369	807.69
516.585	762.69
516.801	732.69
517.016	745.69
517.232	749.69
517.448	757.69
517.664	744.69
517.879	740.69
518.095	761.69
518.311	741.69
518.527	721.69
518.742	729.69
518.958	721.69
519.173	716.69
519.389	741.69
519.605	743.69
519.82	748.69
520.036	699.69
520.251	799.69
520.467	838.69
520.682	831.69
520.898	847.69
521.113	890.69
521.329	941.69
521.544	1057.69
521.76	1331.69
521.975	2271.69
522.19	2204.69
522.406	1207.69
522.621	878.69
522.836	808.69
523.052	760.69
523.267	721.69
523.482	718.69
523.698	677.69
523.913	691.69
524.128	679.69
524.343	653.69
524.559	674.69
524.774	630.69
524.989	639.69
525.204	645.69
525.419	678.69
525.634	632.69
525.849	621.69
526.064	613.69
526.28	616.69
526.495	611.69
526.71	613.69
526.925	603.69
527.14	591.69
527.355	590.69
527.57	554.69
527.785	600.69
527.999	604.69
528.214	608.69
528.429	588.69
528.644	598.69
528.859	589.69
529.074	597.69
529.289	609.69
529.503	747.69
529.718	715.69
529.933	641.69
530.148	644.69
530.363	604.69
530.577	575.69
530.792	590.69
531.007	583.69
531.221	572.69
531.436	587.69
531.651	586.69
531.865	572.69
532.08	607.69
532.295	583.69
532.509	574.69
532.724	563.69
532.938	566.69
533.153	558.69
533.367	552.69
533.582	551.69
533.796	559.69
534.011	541.69
534.225	537.69
534.44	529.69
534.654	544.69
534.868	547.69
535.083	547.69
535.297	532.69
535.511	564.69
535.726	570.69
535.94	579.69
536.154	535.69
536.369	551.69
536.583	552.69
536.797	555.69
537.011	539.69
537.225	532.69
537.44	544.69
537.654	529.69
537.868	505.69
538.082	536.69
538.296	552.69
538.51	543.69
538.724	551.69
538.938	549.69
539.153	547.69
539.367	560.69
539.581	542.69
539.795	537.69
540.009	519.69
540.222	535.69
540.436	528.69
540.65	512.69
540.864	553.69
541.078	543.69
541.292	555.69
541.506	555.69
541.72	549.69
541.934	555.69
542.147	550.69
542.361	548.69
542.575	533.69
542.789	537.69
543.002	535.69
543.216	536.69
543.43	538.69
543.644	531.69
543.857	513.69
544.071	535.69
544.285	551.69
544.498	550.69
544.712	540.69
544.925	521.69
545.139	513.69
545.352	505.69
545.566	491.69
545.779	518.69
545.993	526.69
546.206	550.69
546.42	526.69
546.633	516.69
546.847	511.69
547.06	527.69
547.274	503.69
547.487	504.69
547.7	513.69
547.914	497.69
548.127	491.69
548.34	488.69
548.554	519.69
548.767	493.69
548.98	498.69
549.193	485.69
549.407	482.69
549.62	491.69
549.833	495.69
550.046	489.69
550.259	502.69
550.473	473.69
550.686	495.69
550.899	487.69
551.112	504.69
551.325	483.69
551.538	491.69
551.751	492.69
551.964	476.69
552.177	487.69
552.39	483.69
552.603	493.69
552.816	493.69
553.029	490.69
553.242	504.69
553.455	488.69
553.667	491.69
553.88	517.69
554.093	521.69
554.306	525.69
554.519	497.69
554.732	515.69
554.944	491.69
555.157	495.69
555.37	472.69
555.583	479.69
555.795	483.69
556.008	475.69
556.221	462.69
556.433	469.69
556.646	458.69
556.859	451.69
557.071	453.69
557.284	477.69
557.496	452.69
557.709	437.69
557.921	443.69
558.134	467.69
558.346	440.69
558.559	448.69
558.771	428.69
558.984	443.69
559.196	439.69
559.409	439.69
559.621	441.69
559.833	432.69
560.046	445.69
560.258	446.69
560.47	442.69
560.683	430.69
560.895	452.69
561.107	446.69
561.32	439.69
561.532	441.69
561.744	445.69
561.956	445.69
562.168	450.69
562.381	440.69
562.593	445.69
562.805	453.69
563.017	424.69
563.229	452.69
563.441	456.69
563.653	443.69
563.865	432.69
564.077	457.69
564.289	455.69
564.501	460.69
564.713	446.69
564.925	442.69
565.137	497.69
565.349	469.69
565.561	453.69
565.773	456.69
565.985	460.69
566.197	479.69
566.408	487.69
566.62	483.69
566.832	500.69
567.044	495.69
567.255	482.69
567.467	487.69
567.679	508.69
567.891	511.69
568.102	495.69
568.314	504.69
568.526	496.69
568.737	497.69
568.949	454.69
569.161	459.69
569.372	440.69
569.584	440.69
569.795	462.69
570.007	442.69
570.218	517.69
570.43	487.69
570.641	431.69
570.853	438.69
571.064	422.69
571.276	428.69
571.487	397.69
571.698	417.69
571.91	407.69
572.121	401.69
572.333	400.69
572.544	404.69
572.755	399.69
572.966	391.69
573.178	389.69
573.389	379.69
573.6	398.69
573.811	382.69
574.023	385.69
574.234	387.69
574.445	389.69
574.656	375.69
574.867	392.69
575.078	381.69
575.289	360.69
575.501	358.69
575.712	378.69
575.923	376.69
576.134	388.69
576.345	375.69
576.556	379.69
576.767	347.69
576.978	373.69
577.188	379.69
577.399	358.69
577.61	379.69
577.821	373.69
578.032	360.69
578.243	411.69
578.454	727.69
578.665	531.69
578.875	393.69
579.086	362.69
579.297	364.69
579.508	356.69
579.718	363.69
579.929	338.69
580.14	378.69
580.35	349.69
580.561	349.69
580.772	347.69
580.982	356.69
581.193	358.69
581.403	346.69
581.614	343.69
581.825	343.69
582.035	349.69
582.246	355.69
582.456	356.69
582.667	344.69
582.877	343.69
583.087	356.69
583.298	337.69
583.508	356.69
583.719	327.69
583.929	343.69
584.139	334.69
584.35	343.69
584.56	338.69
584.77	341.69
584.981	336.69
585.191	337.69
585.401	336.69
585.611	345.69
585.821	344.69
586.032	334.69
586.242	323.69
586.452	329.69
586.662	326.69
586.872	323.69
587.082	338.69
587.292	323.69
587.502	338.69
587.713	324.69
587.923	331.69
588.133	341.69
588.343	321.69
588.553	350.69
588.762	310.69
588.972	334.69
589.182	314.69
589.392	323.69
589.602	341.69
589.812	309.69
590.022	323.69
590.232	317.69
590.441	316.69
590.651	328.69
590.861	332.69
591.071	320.69
591.281	326.69
591.49	323.69
591.7	317.69
591.91	331.69
592.119	302.69
592.329	323.69
592.539	333.69
592.748	331.69
592.958	348.69
593.167	307.69
593.377	335.69
593.587	345.69
593.796	336.69
594.006	326.69
594.215	330.69
594.424	320.69
594.634	335.69
594.843	318.69
595.053	323.69
595.262	327.69
595.472	348.69
595.681	317.69
595.89	314.69
596.1	303.69
596.309	307.69
596.518	310.69
596.727	298.69
596.937	298.69
597.146	304.69
597.355	303.69
597.564	320.69
597.774	301.69
597.983	283.69
598.192	298.69
598.401	317.69
598.61	315.69
598.819	287.69
599.028	278.69
599.237	287.69
599.446	288.69
599.655	302.69
599.864	293.69
600.073	293.69
600.282	280.69
600.491	281.69
600.7	288.69
600.909	279.69
601.118	286.69
601.327	267.69
601.536	267.69
601.745	264.69
601.953	289.69
602.162	285.69
602.371	272.69
602.58	281.69
602.789	284.69
602.997	264.69
603.206	295.69
603.415	279.69
603.623	278.69
603.832	287.69
604.041	268.69
604.249	273.69
604.458	263.69
604.666	279.69
604.875	271.69
605.084	275.69
605.292	259.69
605.501	281.69
605.709	283.69
605.918	279.69
606.126	265.69
606.334	270.69
606.543	277.69
606.751	281.69
606.96	280.69
607.168	267.69
607.376	260.69
607.585	296.69
607.793	259.69
608.001	271.69
608.21	284.69
608.418	274.69
608.626	272.69
608.834	267.69
609.043	275.69
609.251	271.69
609.459	261.69
609.667	275.69
609.875	263.69
610.083	263.69
610.291	254.69
610.499	274.69
610.707	276.69
610.916	273.69
611.124	275.69
611.332	265.69
611.54	271.69
611.748	286.69
611.955	273.69
612.163	261.69
612.371	263.69
612.579	261.69
612.787	273.69
612.995	275.69
613.203	261.69
613.411	273.69
613.618	263.69
613.826	248.69
614.034	259.69
614.242	284.69
614.449	243.69
614.657	271.69
614.865	275.69
615.072	263.69
615.28	264.69
615.488	266.69
615.695	259.69
615.903	269.69
616.111	257.69
616.318	273.69
616.526	249.69
616.733	272.69
616.941	247.69
617.148	270.69
617.356	256.69
617.563	260.69
617.771	256.69
617.978	271.69
618.185	275.69
618.393	267.69
618.6	261.69
618.807	245.69
619.015	243.69
619.222	252.69
619.429	258.69
619.637	272.69
619.844	254.69
620.051	270.69
620.258	241.69
620.466	257.69
620.673	250.69
620.88	232.69
621.087	239.69
621.294	268.69
621.501	247.69
621.708	226.69
621.915	253.69
622.122	235.69
622.329	248.69
622.536	230.69
622.743	253.69
622.95	239.69
623.157	238.69
623.364	239.69
623.571	247.69
623.778	243.69
623.985	236.69
624.192	217.69
624.399	228.69
624.606	245.69
624.812	239.69
625.019	245.69
625.226	235.69
625.433	229.69
625.639	233.69
625.846	223.69
626.053	218.69
626.259	234.69
626.466	219.69
626.673	225.69
626.879	231.69
627.086	226.69
627.293	236.69
627.499	236.69
627.706	247.69
627.912	208.69
628.119	229.69
628.325	229.69
628.532	242.69
628.738	221.69
628.945	215.69
629.151	210.69
629.357	238.69
629.564	225.69
629.77	224.69
629.976	213.69
630.183	208.69
630.389	208.69
630.595	238.69
630.802	223.69
631.008	220.69
631.214	206.69
631.42	214.69
631.627	205.69
631.833	206.69
632.039	206.69
632.245	223.69
632.451	202.69
632.657	204.69
632.863	209.69
633.069	192.69
633.275	216.69
633.481	205.69
633.688	210.69
633.893	191.69
634.099	212.69
634.305	192.69
634.511	210.69
634.717	214.69
634.923	207.69
635.129	198.69
635.335	193.69
635.541	190.69
635.747	215.69
635.952	214.69
636.158	196.69
636.364	207.69
636.57	195.69
636.775	212.69
636.981	197.69
637.187	198.69
637.392	201.69
637.598	191.69
637.804	192.69
638.009	193.69
638.215	203.69
638.421	204.69
638.626	198.69
638.832	176.69
639.037	198.69
639.243	189.69
639.448	193.69
639.654	192.69
639.859	198.69
640.065	194.69
640.27	186.69
640.475	185.69
640.681	177.69
640.886	175.69
641.091	184.69
641.297	175.69
641.502	188.69
641.707	189.69
641.913	192.69
642.118	175.69
642.323	177.69
642.528	191.69
642.733	179.69
642.939	200.69
643.144	167.69
643.349	177.69
643.554	176.69
643.759	176.69
643.964	168.69
644.169	192.69
644.374	174.69
644.579	182.69
644.784	193.69
644.989	193.69
645.194	187.69
645.399	180.69
645.604	185.69
645.809	182.69
646.014	174.69
646.219	169.69
646.423	169.69
646.628	196.69
646.833	190.69
647.038	182.69
647.243	183.69
647.447	167.69
647.652	158.69
647.857	199.69
648.062	174.69
648.266	164.69
648.471	173.69
648.676	192.69
648.88	170.69
649.085	187.69
649.289	171.69
649.494	178.69
649.698	189.69
649.903	202.69
650.107	186.69
650.312	177.69
650.516	161.69
650.721	151.69
650.925	166.69
651.13	176.69
651.334	161.69
651.539	154.69
651.743	163.69
651.947	169.69
652.152	170.69
652.356	149.69
652.56	152.69
652.764	153.69
652.969	154.69
653.173	160.69
653.377	152.69
653.581	140.69
653.785	131.69
653.99	135.69
654.194	155.69
654.398	138.69
654.602	143.69
654.806	152.69
655.01	148.69
655.214	133.69
655.418	154.69
655.622	132.69
655.826	137.69
656.03	142.69
656.234	131.69
656.438	141.69
656.642	131.69
656.846	127.69
657.049	126.69
657.253	117.69
657.457	119.69
657.661	115.69
657.865	125.69
658.068	109.69
658.272	124.69
658.476	105.69
658.68	90.69
658.883	101.69
659.087	113.69
659.291	96.69
659.494	80.69
659.698	103.69
659.901	95.69
660.105	99.69
660.309	79.69
660.512	84.69
660.716	104.69
660.919	96.69
661.123	86.69
661.326	89.69
661.53	102.69
661.733	87.69
661.936	94.69
662.14	77.69
662.343	93.69
662.546	96.69
662.75	81.69
662.953	91.69
663.156	93.69
663.36	89.69
663.563	86.69
663.766	99.69
663.969	84.69
664.173	84.69
664.376	93.69
664.579	78.69
664.782	94.69
664.985	68.69
665.188	77.69
665.391	92.69
665.594	71.69
665.797	83.69
666	91.69
666.203	90.69
666.406	89.69
666.609	73.69
666.812	65.69
667.015	90.69
667.218	74.69
667.421	89.69
667.624	92.69
667.827	78.69
668.03	69.69
668.232	74.69
668.435	74.69
668.638	86.69
668.841	91.69
669.043	92.69
669.246	95.69
669.449	89.69
669.651	93.69
669.854	77.69
670.057	81.69
670.259	76.69
670.462	79.69
670.665	91.69
670.867	76.69
671.07	86.69
671.272	85.69
671.475	81.69
671.677	84.69
671.88	106.69
672.082	98.69
672.284	88.69
672.487	91.69
672.689	78.69
672.892	75.69
