Data from 1970.PennyLincolnUp.Lamp.En5.5.200Scan.071719.P1._HRD10591_15-13-24-843.txt Node
Date: Thu Jul 18 15:13:24 EDT 2019
User: cochatt
Spectrometer: HR+D1059
Trigger mode: 1
Integration Time (sec): 1.000000E-1
Scans to average: 1
Electric dark correction enabled: true
Nonlinearity correction enabled: false
Boxcar width: 0
XAxis mode: Wavelengths
Number of Pixels in Spectrum: 2048
>>>>>Begin Spectral Data<<<<<
223.165	-8.62
223.4	-8.62
223.635	-8.62
223.869	-21.62
224.104	-22.62
224.338	-10.62
224.573	-31.62
224.808	-7.62
225.042	-11.62
225.277	-17.62
225.511	3.38
225.746	2.38
225.98	6.38
226.215	7.38
226.449	27.38
226.683	26.38
226.918	27.38
227.152	31.38
227.387	33.38
227.621	39.38
227.856	38.38
228.09	47.38
228.324	53.38
228.559	63.38
228.793	78.38
229.027	99.38
229.262	106.38
229.496	111.38
229.73	135.38
229.964	153.38
230.199	127.38
230.433	129.38
230.667	118.38
230.901	108.38
231.136	106.38
231.37	100.38
231.604	100.38
231.838	124.38
232.072	99.38
232.306	127.38
232.541	114.38
232.775	109.38
233.009	120.38
233.243	113.38
233.477	113.38
233.711	123.38
233.945	121.38
234.179	126.38
234.413	118.38
234.647	119.38
234.881	109.38
235.115	110.38
235.349	111.38
235.583	97.38
235.817	125.38
236.051	105.38
236.285	117.38
236.519	118.38
236.753	118.38
236.987	131.38
237.221	183.38
237.455	217.38
237.689	195.38
237.922	138.38
238.156	150.38
238.39	120.38
238.624	136.38
238.858	119.38
239.091	130.38
239.325	127.38
239.559	124.38
239.793	113.38
240.027	123.38
240.26	127.38
240.494	156.38
240.728	136.38
240.961	152.38
241.195	155.38
241.429	132.38
241.662	135.38
241.896	128.38
242.13	123.38
242.363	128.38
242.597	137.38
242.83	128.38
243.064	135.38
243.298	129.38
243.531	138.38
243.765	133.38
243.998	130.38
244.232	129.38
244.465	154.38
244.699	152.38
244.932	158.38
245.166	151.38
245.399	141.38
245.633	160.38
245.866	146.38
246.099	157.38
246.333	147.38
246.566	152.38
246.8	145.38
247.033	160.38
247.266	157.38
247.5	158.38
247.733	158.38
247.966	172.38
248.2	168.38
248.433	170.38
248.666	186.38
248.899	181.38
249.133	196.38
249.366	195.38
249.599	194.38
249.832	171.38
250.066	176.38
250.299	189.38
250.532	185.38
250.765	210.38
250.998	211.38
251.231	207.38
251.465	211.38
251.698	203.38
251.931	202.38
252.164	207.38
252.397	202.38
252.63	199.38
252.863	206.38
253.096	215.38
253.329	218.38
253.562	227.38
253.795	230.38
254.028	197.38
254.261	212.38
254.494	225.38
254.727	235.38
254.96	264.38
255.193	279.38
255.426	231.38
255.659	231.38
255.892	227.38
256.124	220.38
256.357	230.38
256.59	224.38
256.823	216.38
257.056	212.38
257.289	199.38
257.521	204.38
257.754	202.38
257.987	206.38
258.22	188.38
258.452	212.38
258.685	217.38
258.918	215.38
259.151	196.38
259.383	223.38
259.616	209.38
259.849	213.38
260.081	216.38
260.314	236.38
260.547	246.38
260.779	241.38
261.012	221.38
261.244	217.38
261.477	207.38
261.71	216.38
261.942	213.38
262.175	228.38
262.407	229.38
262.64	192.38
262.872	189.38
263.105	198.38
263.337	215.38
263.57	181.38
263.802	202.38
264.035	192.38
264.267	188.38
264.499	204.38
264.732	215.38
264.964	200.38
265.197	181.38
265.429	189.38
265.661	198.38
265.894	215.38
266.126	205.38
266.358	205.38
266.591	198.38
266.823	205.38
267.055	187.38
267.287	210.38
267.52	208.38
267.752	211.38
267.984	202.38
268.216	204.38
268.448	213.38
268.681	215.38
268.913	220.38
269.145	237.38
269.377	250.38
269.609	243.38
269.841	245.38
270.073	250.38
270.306	264.38
270.538	283.38
270.77	266.38
271.002	257.38
271.234	264.38
271.466	268.38
271.698	292.38
271.93	301.38
272.162	289.38
272.394	282.38
272.626	265.38
272.858	253.38
273.09	264.38
273.322	243.38
273.553	238.38
273.785	237.38
274.017	235.38
274.249	244.38
274.481	240.38
274.713	233.38
274.945	239.38
275.176	231.38
275.408	225.38
275.64	229.38
275.872	230.38
276.104	233.38
276.335	254.38
276.567	240.38
276.799	246.38
277.031	271.38
277.262	267.38
277.494	291.38
277.726	267.38
277.957	276.38
278.189	259.38
278.421	225.38
278.652	228.38
278.884	219.38
279.115	229.38
279.347	223.38
279.579	239.38
279.81	254.38
280.042	235.38
280.273	240.38
280.505	256.38
280.736	235.38
280.968	232.38
281.199	219.38
281.431	223.38
281.662	220.38
281.894	237.38
282.125	234.38
282.356	265.38
282.588	272.38
282.819	264.38
283.051	243.38
283.282	224.38
283.513	234.38
283.745	236.38
283.976	227.38
284.207	234.38
284.439	244.38
284.67	253.38
284.901	245.38
285.132	229.38
285.364	239.38
285.595	226.38
285.826	240.38
286.057	228.38
286.288	229.38
286.52	235.38
286.751	242.38
286.982	239.38
287.213	235.38
287.444	243.38
287.675	260.38
287.906	256.38
288.138	262.38
288.369	262.38
288.6	271.38
288.831	239.38
289.062	238.38
289.293	247.38
289.524	231.38
289.755	267.38
289.986	239.38
290.217	240.38
290.448	256.38
290.679	240.38
290.91	239.38
291.141	251.38
291.371	243.38
291.602	252.38
291.833	246.38
292.064	239.38
292.295	246.38
292.526	247.38
292.757	263.38
292.987	245.38
293.218	240.38
293.449	250.38
293.68	240.38
293.91	235.38
294.141	251.38
294.372	232.38
294.603	238.38
294.833	250.38
295.064	236.38
295.295	251.38
295.525	235.38
295.756	256.38
295.987	266.38
296.217	273.38
296.448	273.38
296.679	268.38
296.909	248.38
297.14	257.38
297.37	256.38
297.601	255.38
297.831	266.38
298.062	253.38
298.292	255.38
298.523	244.38
298.753	265.38
298.984	254.38
299.214	255.38
299.445	270.38
299.675	269.38
299.905	260.38
300.136	277.38
300.366	251.38
300.597	255.38
300.827	277.38
301.057	276.38
301.288	276.38
301.518	280.38
301.748	284.38
301.979	265.38
302.209	263.38
302.439	278.38
302.669	252.38
302.9	265.38
303.13	279.38
303.36	281.38
303.59	290.38
303.82	272.38
304.051	273.38
304.281	277.38
304.511	281.38
304.741	277.38
304.971	273.38
305.201	264.38
305.431	266.38
305.661	277.38
305.891	270.38
306.121	277.38
306.352	279.38
306.582	274.38
306.812	303.38
307.042	288.38
307.272	272.38
307.502	288.38
307.731	289.38
307.961	292.38
308.191	290.38
308.421	279.38
308.651	274.38
308.881	279.38
309.111	302.38
309.341	285.38
309.571	298.38
309.8	295.38
310.03	314.38
310.26	295.38
310.49	316.38
310.72	326.38
310.949	333.38
311.179	334.38
311.409	316.38
311.639	313.38
311.868	338.38
312.098	328.38
312.328	334.38
312.557	330.38
312.787	348.38
313.017	346.38
313.246	324.38
313.476	336.38
313.706	311.38
313.935	323.38
314.165	329.38
314.394	349.38
314.624	334.38
314.853	330.38
315.083	336.38
315.312	332.38
315.542	304.38
315.771	310.38
316.001	321.38
316.23	311.38
316.46	334.38
316.689	314.38
316.919	332.38
317.148	323.38
317.377	326.38
317.607	328.38
317.836	319.38
318.065	328.38
318.295	310.38
318.524	308.38
318.753	347.38
318.983	315.38
319.212	324.38
319.441	333.38
319.67	333.38
319.9	314.38
320.129	345.38
320.358	320.38
320.587	351.38
320.816	320.38
321.046	335.38
321.275	352.38
321.504	359.38
321.733	349.38
321.962	364.38
322.191	347.38
322.42	371.38
322.649	376.38
322.878	396.38
323.108	393.38
323.337	421.38
323.566	433.38
323.795	451.38
324.024	494.38
324.253	593.38
324.482	824.38
324.71	1279.38
324.939	1759.38
325.168	1558.38
325.397	855.38
325.626	591.38
325.855	484.38
326.084	447.38
326.313	408.38
326.542	415.38
326.77	468.38
326.999	542.38
327.228	756.38
327.457	1091.38
327.686	1364.38
327.914	942.38
328.143	622.38
328.372	555.38
328.6	513.38
328.829	461.38
329.058	480.38
329.287	516.38
329.515	462.38
329.744	437.38
329.972	457.38
330.201	458.38
330.43	489.38
330.658	494.38
330.887	543.38
331.115	528.38
331.344	445.38
331.572	420.38
331.801	428.38
332.03	418.38
332.258	388.38
332.486	383.38
332.715	384.38
332.943	385.38
333.172	383.38
333.4	383.38
333.629	403.38
333.857	404.38
334.085	410.38
334.314	429.38
334.542	460.38
334.771	453.38
334.999	415.38
335.227	376.38
335.455	406.38
335.684	372.38
335.912	390.38
336.14	366.38
336.369	377.38
336.597	391.38
336.825	376.38
337.053	366.38
337.281	362.38
337.51	343.38
337.738	375.38
337.966	366.38
338.194	376.38
338.422	390.38
338.65	375.38
338.878	375.38
339.106	375.38
339.334	382.38
339.562	356.38
339.79	354.38
340.018	379.38
340.246	367.38
340.474	379.38
340.702	381.38
340.93	358.38
341.158	373.38
341.386	367.38
341.614	353.38
341.842	380.38
342.07	365.38
342.298	362.38
342.526	375.38
342.754	348.38
342.981	357.38
343.209	345.38
343.437	364.38
343.665	357.38
343.893	379.38
344.12	381.38
344.348	367.38
344.576	372.38
344.804	377.38
345.031	393.38
345.259	399.38
345.487	381.38
345.714	369.38
345.942	366.38
346.17	351.38
346.397	359.38
346.625	385.38
346.853	357.38
347.08	359.38
347.308	351.38
347.535	358.38
347.763	366.38
347.99	367.38
348.218	371.38
348.445	379.38
348.673	365.38
348.9	372.38
349.128	365.38
349.355	353.38
349.583	361.38
349.81	344.38
350.037	374.38
350.265	361.38
350.492	357.38
350.72	340.38
350.947	359.38
351.174	378.38
351.402	364.38
351.629	355.38
351.856	384.38
352.083	367.38
352.311	392.38
352.538	383.38
352.765	381.38
352.992	379.38
353.22	359.38
353.447	381.38
353.674	391.38
353.901	355.38
354.128	337.38
354.355	353.38
354.583	354.38
354.81	343.38
355.037	357.38
355.264	354.38
355.491	345.38
355.718	363.38
355.945	345.38
356.172	349.38
356.399	341.38
356.626	352.38
356.853	330.38
357.08	342.38
357.307	332.38
357.534	351.38
357.761	359.38
357.988	359.38
358.215	351.38
358.441	353.38
358.668	346.38
358.895	360.38
359.122	360.38
359.349	377.38
359.576	366.38
359.802	382.38
360.029	404.38
360.256	439.38
360.483	405.38
360.709	390.38
360.936	364.38
361.163	379.38
361.39	387.38
361.616	377.38
361.843	380.38
362.07	373.38
362.296	380.38
362.523	375.38
362.749	368.38
362.976	355.38
363.203	366.38
363.429	371.38
363.656	363.38
363.882	373.38
364.109	369.38
364.335	351.38
364.562	361.38
364.788	380.38
365.015	371.38
365.241	359.38
365.468	361.38
365.694	363.38
365.92	372.38
366.147	355.38
366.373	368.38
366.599	366.38
366.826	359.38
367.052	350.38
367.278	375.38
367.505	357.38
367.731	365.38
367.957	370.38
368.184	363.38
368.41	371.38
368.636	363.38
368.862	386.38
369.089	373.38
369.315	394.38
369.541	359.38
369.767	355.38
369.993	357.38
370.219	348.38
370.445	359.38
370.672	350.38
370.898	360.38
371.124	368.38
371.35	384.38
371.576	352.38
371.802	363.38
372.028	349.38
372.254	368.38
372.48	366.38
372.706	361.38
372.932	372.38
373.158	352.38
373.384	363.38
373.61	361.38
373.835	358.38
374.061	357.38
374.287	358.38
374.513	356.38
374.739	364.38
374.965	376.38
375.191	351.38
375.416	351.38
375.642	368.38
375.868	367.38
376.094	369.38
376.319	366.38
376.545	357.38
376.771	358.38
376.997	350.38
377.222	365.38
377.448	367.38
377.674	376.38
377.899	381.38
378.125	373.38
378.35	371.38
378.576	339.38
378.802	344.38
379.027	375.38
379.253	364.38
379.478	362.38
379.704	356.38
379.929	374.38
380.155	385.38
380.38	382.38
380.606	368.38
380.831	366.38
381.057	371.38
381.282	359.38
381.507	391.38
381.733	368.38
381.958	369.38
382.184	356.38
382.409	382.38
382.634	383.38
382.86	363.38
383.085	359.38
383.31	388.38
383.535	391.38
383.761	390.38
383.986	381.38
384.211	373.38
384.436	380.38
384.662	407.38
384.887	383.38
385.112	366.38
385.337	393.38
385.562	393.38
385.787	380.38
386.013	401.38
386.238	407.38
386.463	399.38
386.688	394.38
386.913	399.38
387.138	407.38
387.363	384.38
387.588	399.38
387.813	403.38
388.038	388.38
388.263	397.38
388.488	413.38
388.713	399.38
388.938	404.38
389.163	391.38
389.387	383.38
389.612	402.38
389.837	420.38
390.062	385.38
390.287	378.38
390.512	380.38
390.736	404.38
390.961	413.38
391.186	398.38
391.411	387.38
391.636	396.38
391.86	390.38
392.085	413.38
392.31	416.38
392.534	406.38
392.759	410.38
392.984	400.38
393.208	412.38
393.433	433.38
393.658	412.38
393.882	397.38
394.107	416.38
394.331	389.38
394.556	400.38
394.78	409.38
395.005	410.38
395.229	402.38
395.454	402.38
395.678	414.38
395.903	425.38
396.127	443.38
396.352	431.38
396.576	435.38
396.801	407.38
397.025	432.38
397.249	425.38
397.474	418.38
397.698	417.38
397.922	438.38
398.147	451.38
398.371	448.38
398.595	460.38
398.82	438.38
399.044	456.38
399.268	452.38
399.492	481.38
399.717	485.38
399.941	526.38
400.165	541.38
400.389	539.38
400.613	502.38
400.837	478.38
401.062	452.38
401.286	461.38
401.51	451.38
401.734	448.38
401.958	439.38
402.182	460.38
402.406	473.38
402.63	481.38
402.854	444.38
403.078	462.38
403.302	474.38
403.526	448.38
403.75	443.38
403.974	454.38
404.198	458.38
404.422	487.38
404.645	503.38
404.869	490.38
405.093	515.38
405.317	533.38
405.541	563.38
405.765	516.38
405.988	504.38
406.212	499.38
406.436	502.38
406.66	534.38
406.883	518.38
407.107	549.38
407.331	553.38
407.555	599.38
407.778	592.38
408.002	581.38
408.226	517.38
408.449	513.38
408.673	517.38
408.896	529.38
409.12	564.38
409.344	552.38
409.567	491.38
409.791	478.38
410.014	486.38
410.238	453.38
410.461	480.38
410.685	484.38
410.908	480.38
411.132	521.38
411.355	527.38
411.578	539.38
411.802	477.38
412.025	482.38
412.249	488.38
412.472	489.38
412.695	529.38
412.919	509.38
413.142	476.38
413.365	480.38
413.589	482.38
413.812	460.38
414.035	457.38
414.258	452.38
414.482	462.38
414.705	455.38
414.928	448.38
415.151	447.38
415.374	448.38
415.597	460.38
415.821	453.38
416.044	445.38
416.267	464.38
416.49	460.38
416.713	464.38
416.936	462.38
417.159	459.38
417.382	479.38
417.605	476.38
417.828	465.38
418.051	475.38
418.274	469.38
418.497	453.38
418.72	460.38
418.943	459.38
419.166	475.38
419.389	489.38
419.611	484.38
419.834	483.38
420.057	512.38
420.28	489.38
420.503	493.38
420.726	478.38
420.948	475.38
421.171	515.38
421.394	541.38
421.617	518.38
421.839	490.38
422.062	484.38
422.285	512.38
422.507	542.38
422.73	630.38
422.953	602.38
423.175	524.38
423.398	488.38
423.621	498.38
423.843	539.38
424.066	523.38
424.288	530.38
424.511	539.38
424.733	585.38
424.956	636.38
425.178	634.38
425.401	645.38
425.623	651.38
425.846	578.38
426.068	545.38
426.291	508.38
426.513	511.38
426.735	548.38
426.958	575.38
427.18	650.38
427.402	752.38
427.625	821.38
427.847	745.38
428.069	643.38
428.292	558.38
428.514	553.38
428.736	501.38
428.958	506.38
429.181	495.38
429.403	479.38
429.625	500.38
429.847	549.38
430.069	582.38
430.292	608.38
430.514	515.38
430.736	477.38
430.958	493.38
431.18	473.38
431.402	473.38
431.624	446.38
431.846	463.38
432.068	461.38
432.29	452.38
432.512	445.38
432.734	476.38
432.956	469.38
433.178	506.38
433.4	470.38
433.622	463.38
433.844	455.38
434.066	493.38
434.287	445.38
434.509	443.38
434.731	460.38
434.953	472.38
435.175	470.38
435.397	529.38
435.618	541.38
435.84	589.38
436.062	633.38
436.284	710.38
436.505	597.38
436.727	560.38
436.949	511.38
437.17	501.38
437.392	493.38
437.614	501.38
437.835	567.38
438.057	629.38
438.278	710.38
438.5	698.38
438.721	784.38
438.943	743.38
439.165	609.38
439.386	553.38
439.608	549.38
439.829	563.38
440.05	553.38
440.272	597.38
440.493	572.38
440.715	525.38
440.936	513.38
441.158	501.38
441.379	496.38
441.6	512.38
441.822	537.38
442.043	557.38
442.264	639.38
442.486	645.38
442.707	590.38
442.928	555.38
443.149	538.38
443.371	581.38
443.592	610.38
443.813	665.38
444.034	729.38
444.255	606.38
444.476	563.38
444.698	521.38
444.919	523.38
445.14	643.38
445.361	574.38
445.582	551.38
445.803	615.38
446.024	700.38
446.245	697.38
446.466	658.38
446.687	552.38
446.908	530.38
447.129	529.38
447.35	490.38
447.571	502.38
447.792	460.38
448.013	502.38
448.234	519.38
448.455	567.38
448.675	660.38
448.896	774.38
449.117	655.38
449.338	643.38
449.559	704.38
449.779	803.38
450	649.38
450.221	543.38
450.442	512.38
450.662	484.38
450.883	507.38
451.104	503.38
451.324	516.38
451.545	463.38
451.766	463.38
451.986	452.38
452.207	440.38
452.428	436.38
452.648	455.38
452.869	427.38
453.089	454.38
453.31	455.38
453.53	440.38
453.751	436.38
453.971	435.38
454.192	456.38
454.412	469.38
454.633	440.38
454.853	431.38
455.073	435.38
455.294	461.38
455.514	532.38
455.734	503.38
455.955	439.38
456.175	442.38
456.395	429.38
456.616	431.38
456.836	405.38
457.056	407.38
457.276	384.38
457.497	417.38
457.717	428.38
457.937	420.38
458.157	435.38
458.377	427.38
458.598	436.38
458.818	523.38
459.038	559.38
459.258	568.38
459.478	517.38
459.698	470.38
459.918	463.38
460.138	465.38
460.358	456.38
460.578	432.38
460.798	451.38
461.018	454.38
461.238	441.38
461.458	440.38
461.678	445.38
461.898	480.38
462.118	478.38
462.338	444.38
462.558	468.38
462.777	473.38
462.997	476.38
463.217	478.38
463.437	505.38
463.657	489.38
463.876	495.38
464.096	474.38
464.316	460.38
464.536	486.38
464.755	503.38
464.975	519.38
465.195	536.38
465.414	596.38
465.634	542.38
465.854	496.38
466.073	466.38
466.293	461.38
466.512	464.38
466.732	466.38
466.951	439.38
467.171	438.38
467.391	476.38
467.61	466.38
467.829	468.38
468.049	447.38
468.268	470.38
468.488	451.38
468.707	445.38
468.927	434.38
469.146	431.38
469.365	442.38
469.585	437.38
469.804	469.38
470.023	469.38
470.243	467.38
470.462	461.38
470.681	469.38
470.901	452.38
471.12	457.38
471.339	443.38
471.558	465.38
471.777	446.38
471.997	457.38
472.216	461.38
472.435	500.38
472.654	473.38
472.873	461.38
473.092	442.38
473.311	428.38
473.53	468.38
473.749	456.38
473.968	506.38
474.187	594.38
474.406	611.38
474.625	527.38
474.844	478.38
475.063	455.38
475.282	472.38
475.501	466.38
475.72	488.38
475.939	477.38
476.158	476.38
476.377	475.38
476.596	469.38
476.814	480.38
477.033	492.38
477.252	483.38
477.471	491.38
477.69	482.38
477.908	490.38
478.127	522.38
478.346	504.38
478.564	513.38
478.783	522.38
479.002	527.38
479.22	527.38
479.439	527.38
479.658	525.38
479.876	570.38
480.095	515.38
480.313	565.38
480.532	565.38
480.751	539.38
480.969	564.38
481.188	603.38
481.406	647.38
481.624	592.38
481.843	551.38
482.061	559.38
482.28	568.38
482.498	547.38
482.717	533.38
482.935	547.38
483.153	553.38
483.372	552.38
483.59	556.38
483.808	524.38
484.027	557.38
484.245	532.38
484.463	553.38
484.681	567.38
484.9	538.38
485.118	569.38
485.336	564.38
485.554	560.38
485.772	563.38
485.99	574.38
486.209	575.38
486.427	585.38
486.645	599.38
486.863	585.38
487.081	584.38
487.299	605.38
487.517	585.38
487.735	578.38
487.953	579.38
488.171	617.38
488.389	605.38
488.607	590.38
488.825	617.38
489.043	612.38
489.261	604.38
489.479	607.38
489.696	608.38
489.914	619.38
490.132	611.38
490.35	625.38
490.568	624.38
490.786	662.38
491.003	619.38
491.221	656.38
491.439	661.38
491.657	658.38
491.874	693.38
492.092	700.38
492.31	685.38
492.527	689.38
492.745	697.38
492.963	699.38
493.18	701.38
493.398	710.38
493.615	715.38
493.833	697.38
494.05	722.38
494.268	733.38
494.485	698.38
494.703	688.38
494.92	717.38
495.138	728.38
495.355	735.38
495.573	707.38
495.79	728.38
496.008	734.38
496.225	726.38
496.442	701.38
496.66	693.38
496.877	719.38
497.094	712.38
497.312	724.38
497.529	731.38
497.746	744.38
497.963	728.38
498.181	757.38
498.398	750.38
498.615	755.38
498.832	781.38
499.049	781.38
499.267	794.38
499.484	805.38
499.701	823.38
499.918	855.38
500.135	851.38
500.352	907.38
500.569	883.38
500.786	924.38
501.003	903.38
501.22	884.38
501.437	867.38
501.654	869.38
501.871	857.38
502.088	852.38
502.305	815.38
502.522	767.38
502.739	746.38
502.956	757.38
503.172	742.38
503.389	730.38
503.606	760.38
503.823	734.38
504.04	708.38
504.256	712.38
504.473	718.38
504.69	704.38
504.907	698.38
505.123	698.38
505.34	694.38
505.557	669.38
505.773	705.38
505.99	675.38
506.207	695.38
506.423	698.38
506.64	695.38
506.856	682.38
507.073	692.38
507.289	667.38
507.506	675.38
507.722	668.38
507.939	695.38
508.155	677.38
508.372	661.38
508.588	646.38
508.805	655.38
509.021	620.38
509.238	655.38
509.454	661.38
509.67	662.38
509.887	673.38
510.103	675.38
510.319	652.38
510.536	755.38
510.752	1171.38
510.968	974.38
511.184	696.38
511.401	662.38
511.617	645.38
511.833	621.38
512.049	637.38
512.265	608.38
512.481	633.38
512.698	613.38
512.914	620.38
513.13	619.38
513.346	639.38
513.562	633.38
513.778	622.38
513.994	620.38
514.21	629.38
514.426	657.38
514.642	682.38
514.858	702.38
515.074	741.38
515.29	905.38
515.506	1269.38
515.721	1061.38
515.937	747.38
516.153	679.38
516.369	650.38
516.585	637.38
516.801	631.38
517.016	621.38
517.232	595.38
517.448	634.38
517.664	630.38
517.879	630.38
518.095	614.38
518.311	627.38
518.527	616.38
518.742	613.38
518.958	629.38
519.173	617.38
519.389	647.38
519.605	608.38
519.82	615.38
520.036	632.38
520.251	657.38
520.467	660.38
520.682	669.38
520.898	695.38
521.113	695.38
521.329	731.38
521.544	840.38
521.76	995.38
521.975	1655.38
522.19	1633.38
522.406	912.38
522.621	701.38
522.836	651.38
523.052	607.38
523.267	585.38
523.482	571.38
523.698	558.38
523.913	574.38
524.128	574.38
524.343	554.38
524.559	542.38
524.774	541.38
524.989	541.38
525.204	559.38
525.419	549.38
525.634	556.38
525.849	527.38
526.064	512.38
526.28	515.38
526.495	509.38
526.71	521.38
526.925	541.38
527.14	500.38
527.355	537.38
527.57	504.38
527.785	502.38
527.999	516.38
528.214	500.38
528.429	512.38
528.644	505.38
528.859	516.38
529.074	523.38
529.289	535.38
529.503	611.38
529.718	594.38
529.933	543.38
530.148	529.38
530.363	523.38
530.577	502.38
530.792	500.38
531.007	504.38
531.221	519.38
531.436	484.38
531.651	496.38
531.865	481.38
532.08	500.38
532.295	476.38
532.509	479.38
532.724	463.38
532.938	464.38
533.153	468.38
533.367	467.38
533.582	485.38
533.796	480.38
534.011	469.38
534.225	476.38
534.44	469.38
534.654	468.38
534.868	466.38
535.083	477.38
535.297	469.38
535.511	486.38
535.726	473.38
535.94	485.38
536.154	474.38
536.369	476.38
536.583	464.38
536.797	474.38
537.011	454.38
537.225	459.38
537.44	464.38
537.654	455.38
537.868	451.38
538.082	457.38
538.296	452.38
538.51	452.38
538.724	471.38
538.938	461.38
539.153	479.38
539.367	493.38
539.581	471.38
539.795	469.38
540.009	448.38
540.222	457.38
540.436	459.38
540.65	454.38
540.864	467.38
541.078	470.38
541.292	462.38
541.506	464.38
541.72	458.38
541.934	454.38
542.147	485.38
542.361	486.38
542.575	477.38
542.789	460.38
543.002	454.38
543.216	458.38
543.43	465.38
543.644	468.38
543.857	463.38
544.071	447.38
544.285	470.38
544.498	453.38
544.712	473.38
544.925	442.38
545.139	466.38
545.352	463.38
545.566	449.38
545.779	447.38
545.993	475.38
546.206	446.38
546.42	471.38
546.633	450.38
546.847	436.38
547.06	436.38
547.274	432.38
547.487	428.38
547.7	450.38
547.914	444.38
548.127	447.38
548.34	452.38
548.554	454.38
548.767	437.38
548.98	440.38
549.193	429.38
549.407	419.38
549.62	444.38
549.833	413.38
550.046	432.38
550.259	438.38
550.473	441.38
550.686	443.38
550.899	425.38
551.112	433.38
551.325	419.38
551.538	423.38
551.751	427.38
551.964	443.38
552.177	429.38
552.39	419.38
552.603	407.38
552.816	445.38
553.029	442.38
553.242	440.38
553.455	449.38
553.667	440.38
553.88	446.38
554.093	451.38
554.306	448.38
554.519	436.38
554.732	431.38
554.944	417.38
555.157	423.38
555.37	445.38
555.583	415.38
555.795	411.38
556.008	409.38
556.221	428.38
556.433	403.38
556.646	414.38
556.859	382.38
557.071	389.38
557.284	391.38
557.496	421.38
557.709	407.38
557.921	390.38
558.134	405.38
558.346	396.38
558.559	375.38
558.771	401.38
558.984	398.38
559.196	374.38
559.409	412.38
559.621	404.38
559.833	394.38
560.046	405.38
560.258	387.38
560.47	407.38
560.683	385.38
560.895	391.38
561.107	387.38
561.32	376.38
561.532	374.38
561.744	411.38
561.956	383.38
562.168	391.38
562.381	387.38
562.593	391.38
562.805	402.38
563.017	396.38
563.229	393.38
563.441	382.38
563.653	413.38
563.865	412.38
564.077	395.38
564.289	379.38
564.501	401.38
564.713	403.38
564.925	403.38
565.137	424.38
565.349	407.38
565.561	418.38
565.773	410.38
565.985	415.38
566.197	428.38
566.408	429.38
566.62	428.38
566.832	451.38
567.044	434.38
567.255	457.38
567.467	457.38
567.679	452.38
567.891	465.38
568.102	452.38
568.314	455.38
568.526	435.38
568.737	424.38
568.949	421.38
569.161	407.38
569.372	379.38
569.584	394.38
569.795	380.38
570.007	377.38
570.218	414.38
570.43	420.38
570.641	383.38
570.853	371.38
571.064	379.38
571.276	364.38
571.487	352.38
571.698	363.38
571.91	360.38
572.121	359.38
572.333	348.38
572.544	355.38
572.755	344.38
572.966	332.38
573.178	358.38
573.389	347.38
573.6	339.38
573.811	337.38
574.023	355.38
574.234	349.38
574.445	329.38
574.656	315.38
574.867	332.38
575.078	338.38
575.289	336.38
575.501	323.38
575.712	305.38
575.923	342.38
576.134	340.38
576.345	342.38
576.556	316.38
576.767	330.38
576.978	325.38
577.188	323.38
577.399	347.38
577.61	334.38
577.821	327.38
578.032	329.38
578.243	358.38
578.454	559.38
578.665	431.38
578.875	340.38
579.086	309.38
579.297	312.38
579.508	317.38
579.718	317.38
579.929	334.38
580.14	315.38
580.35	301.38
580.561	313.38
580.772	308.38
580.982	283.38
581.193	307.38
581.403	312.38
581.614	315.38
581.825	316.38
582.035	302.38
582.246	317.38
582.456	313.38
582.667	290.38
582.877	305.38
583.087	319.38
583.298	295.38
583.508	309.38
583.719	283.38
583.929	308.38
584.139	283.38
584.35	317.38
584.56	283.38
584.77	299.38
584.981	308.38
585.191	287.38
585.401	298.38
585.611	295.38
585.821	317.38
586.032	315.38
586.242	302.38
586.452	296.38
586.662	291.38
586.872	305.38
587.082	264.38
587.292	293.38
587.502	293.38
587.713	273.38
587.923	283.38
588.133	319.38
588.343	287.38
588.553	295.38
588.762	286.38
588.972	289.38
589.182	323.38
589.392	323.38
589.602	304.38
589.812	300.38
590.022	299.38
590.232	280.38
590.441	269.38
590.651	284.38
590.861	288.38
591.071	295.38
591.281	274.38
591.49	297.38
591.7	291.38
591.91	281.38
592.119	306.38
592.329	286.38
592.539	300.38
592.748	308.38
592.958	284.38
593.167	290.38
593.377	279.38
593.587	300.38
593.796	297.38
594.006	289.38
594.215	283.38
594.424	295.38
594.634	294.38
594.843	289.38
595.053	291.38
595.262	311.38
595.472	300.38
595.681	292.38
595.89	284.38
596.1	274.38
596.309	261.38
596.518	283.38
596.727	296.38
596.937	280.38
597.146	286.38
597.355	279.38
597.564	265.38
597.774	278.38
597.983	268.38
598.192	271.38
598.401	266.38
598.61	265.38
598.819	292.38
599.028	272.38
599.237	267.38
599.446	268.38
599.655	266.38
599.864	250.38
600.073	265.38
600.282	279.38
600.491	273.38
600.7	275.38
600.909	259.38
601.118	260.38
601.327	275.38
601.536	253.38
601.745	239.38
601.953	261.38
602.162	273.38
602.371	257.38
602.58	259.38
602.789	255.38
602.997	250.38
603.206	262.38
603.415	258.38
603.623	249.38
603.832	248.38
604.041	259.38
604.249	246.38
604.458	249.38
604.666	230.38
604.875	237.38
605.084	231.38
605.292	249.38
605.501	266.38
605.709	253.38
605.918	257.38
606.126	260.38
606.334	251.38
606.543	245.38
606.751	248.38
606.96	245.38
607.168	256.38
607.376	243.38
607.585	243.38
607.793	238.38
608.001	240.38
608.21	234.38
608.418	246.38
608.626	233.38
608.834	250.38
609.043	247.38
609.251	243.38
609.459	242.38
609.667	228.38
609.875	231.38
610.083	246.38
610.291	253.38
610.499	244.38
610.707	245.38
610.916	248.38
611.124	258.38
611.332	244.38
611.54	247.38
611.748	237.38
611.955	247.38
612.163	262.38
612.371	256.38
612.579	241.38
612.787	243.38
612.995	249.38
613.203	233.38
613.411	245.38
613.618	266.38
613.826	257.38
614.034	238.38
614.242	243.38
614.449	256.38
614.657	236.38
614.865	231.38
615.072	239.38
615.28	244.38
615.488	228.38
615.695	244.38
615.903	237.38
616.111	221.38
616.318	231.38
616.526	247.38
616.733	255.38
616.941	251.38
617.148	252.38
617.356	234.38
617.563	240.38
617.771	233.38
617.978	231.38
618.185	223.38
618.393	236.38
618.6	238.38
618.807	240.38
619.015	241.38
619.222	230.38
619.429	236.38
619.637	219.38
619.844	233.38
620.051	224.38
620.258	236.38
620.466	228.38
620.673	216.38
620.88	244.38
621.087	219.38
621.294	236.38
621.501	231.38
621.708	222.38
621.915	231.38
622.122	236.38
622.329	231.38
622.536	219.38
622.743	215.38
622.95	239.38
623.157	211.38
623.364	224.38
623.571	214.38
623.778	217.38
623.985	223.38
624.192	217.38
624.399	222.38
624.606	215.38
624.812	203.38
625.019	228.38
625.226	236.38
625.433	211.38
625.639	219.38
625.846	214.38
626.053	212.38
626.259	195.38
626.466	198.38
626.673	200.38
626.879	203.38
627.086	205.38
627.293	224.38
627.499	212.38
627.706	209.38
627.912	202.38
628.119	208.38
628.325	199.38
628.532	201.38
628.738	219.38
628.945	213.38
629.151	204.38
629.357	182.38
629.564	192.38
629.77	210.38
629.976	196.38
630.183	211.38
630.389	207.38
630.595	198.38
630.802	207.38
631.008	213.38
631.214	213.38
631.42	199.38
631.627	195.38
631.833	187.38
632.039	185.38
632.245	191.38
632.451	208.38
632.657	197.38
632.863	193.38
633.069	189.38
633.275	216.38
633.481	202.38
633.688	198.38
633.893	198.38
634.099	212.38
634.305	197.38
634.511	183.38
634.717	190.38
634.923	192.38
635.129	199.38
635.335	182.38
635.541	205.38
635.747	184.38
635.952	198.38
636.158	196.38
636.364	196.38
636.57	193.38
636.775	214.38
636.981	183.38
637.187	184.38
637.392	177.38
637.598	175.38
637.804	187.38
638.009	195.38
638.215	192.38
638.421	180.38
638.626	190.38
638.832	176.38
639.037	164.38
639.243	175.38
639.448	183.38
639.654	192.38
639.859	173.38
640.065	173.38
640.27	166.38
640.475	179.38
640.681	189.38
640.886	178.38
641.091	191.38
641.297	168.38
641.502	193.38
641.707	190.38
641.913	163.38
642.118	187.38
642.323	181.38
642.528	168.38
642.733	179.38
642.939	168.38
643.144	176.38
643.349	176.38
643.554	183.38
643.759	178.38
643.964	164.38
644.169	156.38
644.374	171.38
644.579	169.38
644.784	188.38
644.989	176.38
645.194	158.38
645.399	161.38
645.604	161.38
645.809	181.38
646.014	143.38
646.219	174.38
646.423	163.38
646.628	166.38
646.833	163.38
647.038	176.38
647.243	163.38
647.447	175.38
647.652	161.38
647.857	169.38
648.062	164.38
648.266	161.38
648.471	179.38
648.676	164.38
648.88	172.38
649.085	172.38
649.289	165.38
649.494	152.38
649.698	183.38
649.903	170.38
650.107	167.38
650.312	160.38
650.516	163.38
650.721	163.38
650.925	167.38
651.13	160.38
651.334	167.38
651.539	157.38
651.743	143.38
651.947	151.38
652.152	151.38
652.356	136.38
652.56	149.38
652.764	156.38
652.969	159.38
653.173	144.38
653.377	151.38
653.581	139.38
653.785	134.38
653.99	140.38
654.194	136.38
654.398	138.38
654.602	139.38
654.806	133.38
655.01	146.38
655.214	131.38
655.418	124.38
655.622	121.38
655.826	137.38
656.03	132.38
656.234	115.38
656.438	135.38
656.642	120.38
656.846	124.38
657.049	127.38
657.253	126.38
657.457	128.38
657.661	124.38
657.865	103.38
658.068	114.38
658.272	97.38
658.476	119.38
658.68	93.38
658.883	117.38
659.087	110.38
659.291	112.38
659.494	105.38
659.698	103.38
659.901	121.38
660.105	92.38
660.309	107.38
660.512	94.38
660.716	92.38
660.919	85.38
661.123	100.38
661.326	96.38
661.53	100.38
661.733	85.38
661.936	97.38
662.14	102.38
662.343	93.38
662.546	88.38
662.75	80.38
662.953	76.38
663.156	81.38
663.36	97.38
663.563	79.38
663.766	73.38
663.969	82.38
664.173	93.38
664.376	88.38
664.579	92.38
664.782	83.38
664.985	84.38
665.188	95.38
665.391	88.38
665.594	78.38
665.797	85.38
666	79.38
666.203	84.38
666.406	84.38
666.609	79.38
666.812	79.38
667.015	91.38
667.218	76.38
667.421	90.38
667.624	86.38
667.827	71.38
668.03	93.38
668.232	79.38
668.435	76.38
668.638	106.38
668.841	91.38
669.043	77.38
669.246	83.38
669.449	83.38
669.651	86.38
669.854	91.38
670.057	75.38
670.259	77.38
670.462	93.38
670.665	93.38
670.867	86.38
671.07	93.38
671.272	79.38
671.475	77.38
671.677	86.38
671.88	92.38
672.082	79.38
672.284	81.38
672.487	90.38
672.689	82.38
672.892	80.38
