Data from 1970.PennyLincolnUp.Lamp.En5.5.200Scan.071719.P1._HRD10591_15-14-17-842.txt Node
Date: Thu Jul 18 15:14:17 EDT 2019
User: cochatt
Spectrometer: HR+D1059
Trigger mode: 1
Integration Time (sec): 1.000000E-1
Scans to average: 1
Electric dark correction enabled: true
Nonlinearity correction enabled: false
Boxcar width: 0
XAxis mode: Wavelengths
Number of Pixels in Spectrum: 2048
>>>>>Begin Spectral Data<<<<<
223.165	-3.12
223.4	-3.12
223.635	-3.12
223.869	-27.12
224.104	-24.12
224.338	-3.12
224.573	-12.12
224.808	-7.12
225.042	-10.12
225.277	-9.12
225.511	8.88
225.746	-7.12
225.98	8.88
226.215	8.88
226.449	17.88
226.683	16.88
226.918	17.88
227.152	23.88
227.387	46.88
227.621	42.88
227.856	43.88
228.09	42.88
228.324	49.88
228.559	57.88
228.793	66.88
229.027	115.88
229.262	110.88
229.496	126.88
229.73	143.88
229.964	172.88
230.199	143.88
230.433	113.88
230.667	122.88
230.901	117.88
231.136	112.88
231.37	112.88
231.604	113.88
231.838	106.88
232.072	114.88
232.306	118.88
232.541	110.88
232.775	101.88
233.009	121.88
233.243	113.88
233.477	121.88
233.711	124.88
233.945	130.88
234.179	129.88
234.413	121.88
234.647	120.88
234.881	112.88
235.115	126.88
235.349	137.88
235.583	130.88
235.817	120.88
236.051	134.88
236.285	142.88
236.519	129.88
236.753	139.88
236.987	160.88
237.221	198.88
237.455	261.88
237.689	217.88
237.922	160.88
238.156	150.88
238.39	151.88
238.624	141.88
238.858	133.88
239.091	140.88
239.325	125.88
239.559	136.88
239.793	134.88
240.027	142.88
240.26	147.88
240.494	181.88
240.728	171.88
240.961	152.88
241.195	149.88
241.429	160.88
241.662	136.88
241.896	130.88
242.13	140.88
242.363	143.88
242.597	140.88
242.83	144.88
243.064	138.88
243.298	149.88
243.531	158.88
243.765	165.88
243.998	135.88
244.232	139.88
244.465	132.88
244.699	155.88
244.932	151.88
245.166	157.88
245.399	149.88
245.633	139.88
245.866	159.88
246.099	168.88
246.333	161.88
246.566	167.88
246.8	164.88
247.033	169.88
247.266	174.88
247.5	173.88
247.733	192.88
247.966	190.88
248.2	183.88
248.433	202.88
248.666	200.88
248.899	192.88
249.133	215.88
249.366	242.88
249.599	222.88
249.832	201.88
250.066	216.88
250.299	192.88
250.532	217.88
250.765	222.88
250.998	244.88
251.231	251.88
251.465	242.88
251.698	235.88
251.931	228.88
252.164	219.88
252.397	214.88
252.63	225.88
252.863	233.88
253.096	247.88
253.329	254.88
253.562	251.88
253.795	233.88
254.028	234.88
254.261	234.88
254.494	269.88
254.727	277.88
254.96	296.88
255.193	295.88
255.426	283.88
255.659	260.88
255.892	265.88
256.124	240.88
256.357	248.88
256.59	247.88
256.823	244.88
257.056	248.88
257.289	220.88
257.521	249.88
257.754	232.88
257.987	224.88
258.22	240.88
258.452	209.88
258.685	221.88
258.918	232.88
259.151	236.88
259.383	230.88
259.616	232.88
259.849	235.88
260.081	246.88
260.314	271.88
260.547	272.88
260.779	258.88
261.012	253.88
261.244	245.88
261.477	236.88
261.71	250.88
261.942	272.88
262.175	268.88
262.407	248.88
262.64	230.88
262.872	237.88
263.105	228.88
263.337	229.88
263.57	199.88
263.802	210.88
264.035	224.88
264.267	206.88
264.499	225.88
264.732	232.88
264.964	206.88
265.197	217.88
265.429	209.88
265.661	220.88
265.894	226.88
266.126	211.88
266.358	216.88
266.591	228.88
266.823	235.88
267.055	242.88
267.287	240.88
267.52	225.88
267.752	232.88
267.984	228.88
268.216	218.88
268.448	253.88
268.681	240.88
268.913	265.88
269.145	274.88
269.377	296.88
269.609	300.88
269.841	281.88
270.073	292.88
270.306	309.88
270.538	331.88
270.77	333.88
271.002	325.88
271.234	334.88
271.466	338.88
271.698	355.88
271.93	342.88
272.162	325.88
272.394	331.88
272.626	333.88
272.858	306.88
273.09	282.88
273.322	285.88
273.553	288.88
273.785	275.88
274.017	277.88
274.249	269.88
274.481	275.88
274.713	261.88
274.945	276.88
275.176	271.88
275.408	268.88
275.64	260.88
275.872	273.88
276.104	264.88
276.335	280.88
276.567	291.88
276.799	288.88
277.031	312.88
277.262	321.88
277.494	313.88
277.726	311.88
277.957	294.88
278.189	292.88
278.421	267.88
278.652	280.88
278.884	264.88
279.115	276.88
279.347	264.88
279.579	279.88
279.81	282.88
280.042	260.88
280.273	264.88
280.505	274.88
280.736	279.88
280.968	268.88
281.199	261.88
281.431	244.88
281.662	274.88
281.894	266.88
282.125	269.88
282.356	278.88
282.588	299.88
282.819	320.88
283.051	293.88
283.282	297.88
283.513	271.88
283.745	252.88
283.976	261.88
284.207	269.88
284.439	279.88
284.67	281.88
284.901	266.88
285.132	278.88
285.364	243.88
285.595	269.88
285.826	270.88
286.057	278.88
286.288	275.88
286.52	287.88
286.751	284.88
286.982	283.88
287.213	288.88
287.444	283.88
287.675	274.88
287.906	285.88
288.138	296.88
288.369	279.88
288.6	293.88
288.831	275.88
289.062	287.88
289.293	284.88
289.524	266.88
289.755	285.88
289.986	292.88
290.217	274.88
290.448	280.88
290.679	269.88
290.91	303.88
291.141	288.88
291.371	273.88
291.602	275.88
291.833	285.88
292.064	281.88
292.295	268.88
292.526	290.88
292.757	270.88
292.987	281.88
293.218	283.88
293.449	267.88
293.68	274.88
293.91	260.88
294.141	288.88
294.372	288.88
294.603	298.88
294.833	298.88
295.064	281.88
295.295	274.88
295.525	283.88
295.756	312.88
295.987	310.88
296.217	328.88
296.448	329.88
296.679	294.88
296.909	294.88
297.14	290.88
297.37	289.88
297.601	296.88
297.831	295.88
298.062	308.88
298.292	276.88
298.523	307.88
298.753	288.88
298.984	294.88
299.214	306.88
299.445	312.88
299.675	310.88
299.905	308.88
300.136	314.88
300.366	281.88
300.597	323.88
300.827	312.88
301.057	306.88
301.288	305.88
301.518	315.88
301.748	311.88
301.979	330.88
302.209	291.88
302.439	321.88
302.669	324.88
302.9	311.88
303.13	313.88
303.36	313.88
303.59	329.88
303.82	340.88
304.051	324.88
304.281	325.88
304.511	331.88
304.741	293.88
304.971	318.88
305.201	315.88
305.431	318.88
305.661	329.88
305.891	333.88
306.121	323.88
306.352	321.88
306.582	336.88
306.812	324.88
307.042	336.88
307.272	330.88
307.502	318.88
307.731	325.88
307.961	324.88
308.191	329.88
308.421	348.88
308.651	333.88
308.881	320.88
309.111	356.88
309.341	330.88
309.571	352.88
309.8	354.88
310.03	360.88
310.26	386.88
310.49	365.88
310.72	386.88
310.949	400.88
311.179	395.88
311.409	364.88
311.639	395.88
311.868	377.88
312.098	386.88
312.328	374.88
312.557	421.88
312.787	436.88
313.017	407.88
313.246	386.88
313.476	374.88
313.706	371.88
313.935	379.88
314.165	397.88
314.394	406.88
314.624	399.88
314.853	378.88
315.083	397.88
315.312	380.88
315.542	361.88
315.771	388.88
316.001	372.88
316.23	376.88
316.46	381.88
316.689	392.88
316.919	389.88
317.148	395.88
317.377	385.88
317.607	397.88
317.836	378.88
318.065	362.88
318.295	386.88
318.524	370.88
318.753	382.88
318.983	390.88
319.212	364.88
319.441	382.88
319.67	374.88
319.9	364.88
320.129	375.88
320.358	394.88
320.587	393.88
320.816	388.88
321.046	421.88
321.275	404.88
321.504	406.88
321.733	409.88
321.962	423.88
322.191	431.88
322.42	452.88
322.649	444.88
322.878	484.88
323.108	499.88
323.337	506.88
323.566	538.88
323.795	562.88
324.024	586.88
324.253	760.88
324.482	1096.88
324.71	1661.88
324.939	2338.88
325.168	2068.88
325.397	1112.88
325.626	740.88
325.855	605.88
326.084	557.88
326.313	562.88
326.542	547.88
326.77	582.88
326.999	706.88
327.228	941.88
327.457	1472.88
327.686	1810.88
327.914	1226.88
328.143	802.88
328.372	722.88
328.6	658.88
328.829	617.88
329.058	628.88
329.287	662.88
329.515	602.88
329.744	560.88
329.972	546.88
330.201	575.88
330.43	637.88
330.658	656.88
330.887	674.88
331.115	640.88
331.344	568.88
331.572	541.88
331.801	534.88
332.03	513.88
332.258	497.88
332.486	468.88
332.715	454.88
332.943	466.88
333.172	459.88
333.4	470.88
333.629	485.88
333.857	496.88
334.085	494.88
334.314	512.88
334.542	552.88
334.771	572.88
334.999	527.88
335.227	500.88
335.455	476.88
335.684	468.88
335.912	458.88
336.14	442.88
336.369	449.88
336.597	456.88
336.825	450.88
337.053	436.88
337.281	441.88
337.51	444.88
337.738	455.88
337.966	454.88
338.194	451.88
338.422	448.88
338.65	436.88
338.878	432.88
339.106	432.88
339.334	427.88
339.562	433.88
339.79	441.88
340.018	413.88
340.246	442.88
340.474	452.88
340.702	442.88
340.93	425.88
341.158	440.88
341.386	419.88
341.614	441.88
341.842	440.88
342.07	442.88
342.298	436.88
342.526	416.88
342.754	417.88
342.981	427.88
343.209	414.88
343.437	412.88
343.665	411.88
343.893	436.88
344.12	428.88
344.348	434.88
344.576	443.88
344.804	440.88
345.031	449.88
345.259	481.88
345.487	450.88
345.714	457.88
345.942	436.88
346.17	454.88
346.397	433.88
346.625	418.88
346.853	426.88
347.08	418.88
347.308	439.88
347.535	450.88
347.763	456.88
347.99	457.88
348.218	432.88
348.445	453.88
348.673	444.88
348.9	427.88
349.128	429.88
349.355	424.88
349.583	420.88
349.81	417.88
350.037	413.88
350.265	445.88
350.492	413.88
350.72	410.88
350.947	437.88
351.174	444.88
351.402	433.88
351.629	439.88
351.856	429.88
352.083	430.88
352.311	451.88
352.538	464.88
352.765	471.88
352.992	444.88
353.22	460.88
353.447	437.88
353.674	416.88
353.901	410.88
354.128	393.88
354.355	408.88
354.583	413.88
354.81	411.88
355.037	382.88
355.264	393.88
355.491	385.88
355.718	379.88
355.945	398.88
356.172	393.88
356.399	407.88
356.626	394.88
356.853	408.88
357.08	411.88
357.307	394.88
357.534	397.88
357.761	402.88
357.988	385.88
358.215	391.88
358.441	389.88
358.668	393.88
358.895	399.88
359.122	413.88
359.349	440.88
359.576	438.88
359.802	466.88
360.029	493.88
360.256	530.88
360.483	497.88
360.709	450.88
360.936	450.88
361.163	433.88
361.39	450.88
361.616	456.88
361.843	448.88
362.07	438.88
362.296	464.88
362.523	433.88
362.749	435.88
362.976	413.88
363.203	415.88
363.429	416.88
363.656	429.88
363.882	420.88
364.109	421.88
364.335	417.88
364.562	435.88
364.788	409.88
365.015	392.88
365.241	409.88
365.468	421.88
365.694	408.88
365.92	440.88
366.147	409.88
366.373	399.88
366.599	418.88
366.826	408.88
367.052	412.88
367.278	412.88
367.505	406.88
367.731	416.88
367.957	420.88
368.184	427.88
368.41	409.88
368.636	445.88
368.862	450.88
369.089	432.88
369.315	413.88
369.541	418.88
369.767	412.88
369.993	414.88
370.219	425.88
370.445	412.88
370.672	407.88
370.898	406.88
371.124	402.88
371.35	425.88
371.576	422.88
371.802	405.88
372.028	410.88
372.254	418.88
372.48	396.88
372.706	397.88
372.932	374.88
373.158	397.88
373.384	403.88
373.61	425.88
373.835	410.88
374.061	409.88
374.287	442.88
374.513	415.88
374.739	402.88
374.965	438.88
375.191	414.88
375.416	414.88
375.642	432.88
375.868	418.88
376.094	425.88
376.319	411.88
376.545	420.88
376.771	399.88
376.997	406.88
377.222	404.88
377.448	403.88
377.674	413.88
377.899	395.88
378.125	430.88
378.35	395.88
378.576	388.88
378.802	393.88
379.027	400.88
379.253	408.88
379.478	401.88
379.704	394.88
379.929	399.88
380.155	402.88
380.38	406.88
380.606	399.88
380.831	411.88
381.057	399.88
381.282	424.88
381.507	405.88
381.733	416.88
381.958	411.88
382.184	424.88
382.409	424.88
382.634	432.88
382.86	410.88
383.085	422.88
383.31	418.88
383.535	393.88
383.761	431.88
383.986	412.88
384.211	428.88
384.436	431.88
384.662	446.88
384.887	420.88
385.112	432.88
385.337	424.88
385.562	434.88
385.787	440.88
386.013	456.88
386.238	457.88
386.463	439.88
386.688	458.88
386.913	449.88
387.138	421.88
387.363	453.88
387.588	429.88
387.813	459.88
388.038	452.88
388.263	424.88
388.488	430.88
388.713	439.88
388.938	454.88
389.163	453.88
389.387	450.88
389.612	438.88
389.837	437.88
390.062	459.88
390.287	468.88
390.512	439.88
390.736	459.88
390.961	457.88
391.186	417.88
391.411	464.88
391.636	456.88
391.86	442.88
392.085	451.88
392.31	434.88
392.534	456.88
392.759	450.88
392.984	453.88
393.208	466.88
393.433	461.88
393.658	464.88
393.882	456.88
394.107	452.88
394.331	441.88
394.556	435.88
394.78	448.88
395.005	445.88
395.229	453.88
395.454	442.88
395.678	455.88
395.903	494.88
396.127	500.88
396.352	491.88
396.576	484.88
396.801	456.88
397.025	501.88
397.249	481.88
397.474	440.88
397.698	468.88
397.922	481.88
398.147	511.88
398.371	494.88
398.595	470.88
398.82	501.88
399.044	512.88
399.268	536.88
399.492	544.88
399.717	562.88
399.941	577.88
400.165	632.88
400.389	644.88
400.613	585.88
400.837	555.88
401.062	527.88
401.286	520.88
401.51	526.88
401.734	506.88
401.958	531.88
402.182	506.88
402.406	533.88
402.63	513.88
402.854	514.88
403.078	549.88
403.302	514.88
403.526	528.88
403.75	514.88
403.974	531.88
404.198	547.88
404.422	531.88
404.645	556.88
404.869	544.88
405.093	578.88
405.317	626.88
405.541	641.88
405.765	610.88
405.988	580.88
406.212	570.88
406.436	604.88
406.66	633.88
406.883	581.88
407.107	617.88
407.331	671.88
407.555	706.88
407.778	712.88
408.002	668.88
408.226	619.88
408.449	595.88
408.673	610.88
408.896	608.88
409.12	668.88
409.344	646.88
409.567	574.88
409.791	568.88
410.014	537.88
410.238	532.88
410.461	544.88
410.685	540.88
410.908	575.88
411.132	604.88
411.355	644.88
411.578	592.88
411.802	578.88
412.025	560.88
412.249	550.88
412.472	578.88
412.695	632.88
412.919	626.88
413.142	571.88
413.365	558.88
413.589	527.88
413.812	524.88
414.035	495.88
414.258	508.88
414.482	520.88
414.705	506.88
414.928	522.88
415.151	512.88
415.374	506.88
415.597	514.88
415.821	523.88
416.044	515.88
416.267	522.88
416.49	507.88
416.713	526.88
416.936	519.88
417.159	512.88
417.382	525.88
417.605	511.88
417.828	540.88
418.051	552.88
418.274	525.88
418.497	522.88
418.72	503.88
418.943	504.88
419.166	532.88
419.389	559.88
419.611	536.88
419.834	531.88
420.057	546.88
420.28	568.88
420.503	555.88
420.726	548.88
420.948	572.88
421.171	613.88
421.394	649.88
421.617	582.88
421.839	557.88
422.062	578.88
422.285	568.88
422.507	651.88
422.73	706.88
422.953	688.88
423.175	634.88
423.398	604.88
423.621	592.88
423.843	605.88
424.066	597.88
424.288	582.88
424.511	624.88
424.733	678.88
424.956	763.88
425.178	749.88
425.401	721.88
425.623	738.88
425.846	660.88
426.068	594.88
426.291	600.88
426.513	612.88
426.735	603.88
426.958	651.88
427.18	739.88
427.402	850.88
427.625	973.88
427.847	880.88
428.069	781.88
428.292	682.88
428.514	614.88
428.736	594.88
428.958	581.88
429.181	566.88
429.403	549.88
429.625	560.88
429.847	608.88
430.069	690.88
430.292	676.88
430.514	609.88
430.736	569.88
430.958	562.88
431.18	567.88
431.402	536.88
431.624	520.88
431.846	517.88
432.068	516.88
432.29	518.88
432.512	518.88
432.734	536.88
432.956	534.88
433.178	552.88
433.4	544.88
433.622	532.88
433.844	538.88
434.066	529.88
434.287	516.88
434.509	522.88
434.731	544.88
434.953	555.88
435.175	584.88
435.397	581.88
435.618	603.88
435.84	659.88
436.062	759.88
436.284	810.88
436.505	674.88
436.727	617.88
436.949	589.88
437.17	576.88
437.392	572.88
437.614	570.88
437.835	618.88
438.057	734.88
438.278	834.88
438.5	865.88
438.721	910.88
438.943	858.88
439.165	710.88
439.386	642.88
439.608	629.88
439.829	647.88
440.05	646.88
440.272	706.88
440.493	649.88
440.715	613.88
440.936	589.88
441.158	566.88
441.379	575.88
441.6	577.88
441.822	617.88
442.043	664.88
442.264	755.88
442.486	789.88
442.707	648.88
442.928	659.88
443.149	624.88
443.371	675.88
443.592	725.88
443.813	773.88
444.034	812.88
444.255	702.88
444.476	647.88
444.698	608.88
444.919	620.88
445.14	725.88
445.361	698.88
445.582	656.88
445.803	718.88
446.024	848.88
446.245	861.88
446.466	770.88
446.687	650.88
446.908	625.88
447.129	590.88
447.35	587.88
447.571	575.88
447.792	560.88
448.013	554.88
448.234	575.88
448.455	650.88
448.675	769.88
448.896	857.88
449.117	768.88
449.338	744.88
449.559	837.88
449.779	906.88
450	742.88
450.221	639.88
450.442	627.88
450.662	589.88
450.883	569.88
451.104	587.88
451.324	596.88
451.545	548.88
451.766	534.88
451.986	523.88
452.207	519.88
452.428	513.88
452.648	520.88
452.869	528.88
453.089	523.88
453.31	540.88
453.53	518.88
453.751	503.88
453.971	522.88
454.192	550.88
454.412	534.88
454.633	550.88
454.853	508.88
455.073	529.88
455.294	532.88
455.514	597.88
455.734	610.88
455.955	509.88
456.175	511.88
456.395	470.88
456.616	500.88
456.836	457.88
457.056	442.88
457.276	461.88
457.497	473.88
457.717	476.88
457.937	463.88
458.157	475.88
458.377	494.88
458.598	538.88
458.818	603.88
459.038	683.88
459.258	681.88
459.478	590.88
459.698	544.88
459.918	554.88
460.138	526.88
460.358	517.88
460.578	523.88
460.798	525.88
461.018	540.88
461.238	517.88
461.458	547.88
461.678	521.88
461.898	516.88
462.118	520.88
462.338	515.88
462.558	527.88
462.777	518.88
462.997	546.88
463.217	556.88
463.437	548.88
463.657	550.88
463.876	526.88
464.096	555.88
464.316	536.88
464.536	582.88
464.755	580.88
464.975	573.88
465.195	608.88
465.414	718.88
465.634	635.88
465.854	587.88
466.073	566.88
466.293	547.88
466.512	527.88
466.732	516.88
466.951	500.88
467.171	488.88
467.391	532.88
467.61	534.88
467.829	544.88
468.049	537.88
468.268	523.88
468.488	511.88
468.707	500.88
468.927	511.88
469.146	484.88
469.365	505.88
469.585	498.88
469.804	504.88
470.023	523.88
470.243	529.88
470.462	537.88
470.681	554.88
470.901	548.88
471.12	541.88
471.339	526.88
471.558	510.88
471.777	531.88
471.997	534.88
472.216	524.88
472.435	562.88
472.654	544.88
472.873	532.88
473.092	533.88
473.311	534.88
473.53	542.88
473.749	529.88
473.968	595.88
474.187	688.88
474.406	727.88
474.625	589.88
474.844	543.88
475.063	542.88
475.282	551.88
475.501	562.88
475.72	532.88
475.939	532.88
476.158	551.88
476.377	558.88
476.596	519.88
476.814	542.88
477.033	542.88
477.252	543.88
477.471	566.88
477.69	555.88
477.908	556.88
478.127	567.88
478.346	567.88
478.564	577.88
478.783	568.88
479.002	615.88
479.22	595.88
479.439	615.88
479.658	630.88
479.876	652.88
480.095	640.88
480.313	681.88
480.532	652.88
480.751	642.88
480.969	668.88
481.188	726.88
481.406	795.88
481.624	712.88
481.843	644.88
482.061	662.88
482.28	666.88
482.498	639.88
482.717	634.88
482.935	624.88
483.153	649.88
483.372	644.88
483.59	630.88
483.808	616.88
484.027	636.88
484.245	651.88
484.463	634.88
484.681	662.88
484.9	656.88
485.118	638.88
485.336	632.88
485.554	622.88
485.772	646.88
485.99	656.88
486.209	642.88
486.427	653.88
486.645	673.88
486.863	715.88
487.081	708.88
487.299	688.88
487.517	669.88
487.735	686.88
487.953	696.88
488.171	706.88
488.389	662.88
488.607	699.88
488.825	702.88
489.043	665.88
489.261	703.88
489.479	718.88
489.696	690.88
489.914	712.88
490.132	699.88
490.35	721.88
490.568	740.88
490.786	733.88
491.003	745.88
491.221	772.88
491.439	797.88
491.657	802.88
491.874	801.88
492.092	803.88
492.31	810.88
492.527	791.88
492.745	783.88
492.963	827.88
493.18	856.88
493.398	838.88
493.615	814.88
493.833	829.88
494.05	831.88
494.268	830.88
494.485	812.88
494.703	837.88
494.92	816.88
495.138	827.88
495.355	834.88
495.573	858.88
495.79	850.88
496.008	804.88
496.225	830.88
496.442	839.88
496.66	845.88
496.877	816.88
497.094	833.88
497.312	842.88
497.529	846.88
497.746	846.88
497.963	863.88
498.181	871.88
498.398	867.88
498.615	886.88
498.832	894.88
499.049	903.88
499.267	896.88
499.484	950.88
499.701	934.88
499.918	949.88
500.135	983.88
500.352	1008.88
500.569	1005.88
500.786	1030.88
501.003	1026.88
501.22	1016.88
501.437	1002.88
501.654	963.88
501.871	1005.88
502.088	951.88
502.305	916.88
502.522	929.88
502.739	885.88
502.956	874.88
503.172	860.88
503.389	847.88
503.606	857.88
503.823	843.88
504.04	837.88
504.256	829.88
504.473	800.88
504.69	792.88
504.907	828.88
505.123	806.88
505.34	828.88
505.557	802.88
505.773	809.88
505.99	804.88
506.207	786.88
506.423	797.88
506.64	784.88
506.856	775.88
507.073	784.88
507.289	784.88
507.506	798.88
507.722	796.88
507.939	854.88
508.155	798.88
508.372	786.88
508.588	749.88
508.805	759.88
509.021	788.88
509.238	783.88
509.454	783.88
509.67	763.88
509.887	745.88
510.103	766.88
510.319	757.88
510.536	891.88
510.752	1467.88
510.968	1207.88
511.184	791.88
511.401	753.88
511.617	749.88
511.833	726.88
512.049	748.88
512.265	738.88
512.481	742.88
512.698	718.88
512.914	706.88
513.13	723.88
513.346	708.88
513.562	691.88
513.778	707.88
513.994	721.88
514.21	734.88
514.426	770.88
514.642	834.88
514.858	867.88
515.074	929.88
515.29	1132.88
515.506	1651.88
515.721	1357.88
515.937	907.88
516.153	806.88
516.369	791.88
516.585	776.88
516.801	756.88
517.016	714.88
517.232	756.88
517.448	714.88
517.664	733.88
517.879	722.88
518.095	716.88
518.311	730.88
518.527	710.88
518.742	693.88
518.958	723.88
519.173	709.88
519.389	728.88
519.605	731.88
519.82	716.88
520.036	717.88
520.251	762.88
520.467	810.88
520.682	802.88
520.898	832.88
521.113	850.88
521.329	908.88
521.544	1037.88
521.76	1319.88
521.975	2189.88
522.19	2151.88
522.406	1170.88
522.621	881.88
522.836	786.88
523.052	745.88
523.267	707.88
523.482	675.88
523.698	673.88
523.913	665.88
524.128	678.88
524.343	653.88
524.559	632.88
524.774	653.88
524.989	630.88
525.204	636.88
525.419	646.88
525.634	621.88
525.849	615.88
526.064	592.88
526.28	610.88
526.495	585.88
526.71	580.88
526.925	582.88
527.14	557.88
527.355	585.88
527.57	576.88
527.785	583.88
527.999	576.88
528.214	590.88
528.429	599.88
528.644	578.88
528.859	584.88
529.074	592.88
529.289	635.88
529.503	724.88
529.718	720.88
529.933	637.88
530.148	626.88
530.363	610.88
530.577	564.88
530.792	567.88
531.007	575.88
531.221	555.88
531.436	560.88
531.651	580.88
531.865	558.88
532.08	537.88
532.295	549.88
532.509	550.88
532.724	552.88
532.938	581.88
533.153	562.88
533.367	531.88
533.582	527.88
533.796	536.88
534.011	544.88
534.225	530.88
534.44	540.88
534.654	549.88
534.868	557.88
535.083	542.88
535.297	532.88
535.511	542.88
535.726	533.88
535.94	568.88
536.154	570.88
536.369	539.88
536.583	514.88
536.797	508.88
537.011	572.88
537.225	532.88
537.44	530.88
537.654	529.88
537.868	535.88
538.082	524.88
538.296	520.88
538.51	520.88
538.724	541.88
538.938	535.88
539.153	549.88
539.367	548.88
539.581	542.88
539.795	525.88
540.009	507.88
540.222	502.88
540.436	546.88
540.65	536.88
540.864	533.88
541.078	542.88
541.292	525.88
541.506	524.88
541.72	526.88
541.934	518.88
542.147	536.88
542.361	519.88
542.575	492.88
542.789	536.88
543.002	502.88
543.216	550.88
543.43	523.88
543.644	515.88
543.857	522.88
544.071	526.88
544.285	525.88
544.498	534.88
544.712	512.88
544.925	517.88
545.139	502.88
545.352	507.88
545.566	505.88
545.779	482.88
545.993	505.88
546.206	532.88
546.42	503.88
546.633	486.88
546.847	487.88
547.06	496.88
547.274	521.88
547.487	493.88
547.7	484.88
547.914	480.88
548.127	491.88
548.34	487.88
548.554	487.88
548.767	486.88
548.98	506.88
549.193	461.88
549.407	487.88
549.62	483.88
549.833	479.88
550.046	471.88
550.259	481.88
550.473	486.88
550.686	493.88
550.899	477.88
551.112	480.88
551.325	468.88
551.538	485.88
551.751	475.88
551.964	472.88
552.177	472.88
552.39	481.88
552.603	487.88
552.816	481.88
553.029	496.88
553.242	507.88
553.455	502.88
553.667	508.88
553.88	523.88
554.093	506.88
554.306	508.88
554.519	484.88
554.732	479.88
554.944	490.88
555.157	491.88
555.37	480.88
555.583	463.88
555.795	475.88
556.008	461.88
556.221	441.88
556.433	458.88
556.646	445.88
556.859	456.88
557.071	452.88
557.284	447.88
557.496	442.88
557.709	461.88
557.921	435.88
558.134	453.88
558.346	455.88
558.559	445.88
558.771	450.88
558.984	435.88
559.196	440.88
559.409	457.88
559.621	421.88
559.833	442.88
560.046	443.88
560.258	432.88
560.47	427.88
560.683	438.88
560.895	436.88
561.107	455.88
561.32	427.88
561.532	451.88
561.744	425.88
561.956	429.88
562.168	450.88
562.381	445.88
562.593	438.88
562.805	423.88
563.017	448.88
563.229	449.88
563.441	451.88
563.653	447.88
563.865	438.88
564.077	427.88
564.289	426.88
564.501	430.88
564.713	432.88
564.925	472.88
565.137	465.88
565.349	477.88
565.561	440.88
565.773	466.88
565.985	460.88
566.197	465.88
566.408	484.88
566.62	468.88
566.832	507.88
567.044	508.88
567.255	488.88
567.467	505.88
567.679	501.88
567.891	515.88
568.102	493.88
568.314	493.88
568.526	478.88
568.737	479.88
568.949	444.88
569.161	436.88
569.372	428.88
569.584	436.88
569.795	429.88
570.007	434.88
570.218	496.88
570.43	498.88
570.641	432.88
570.853	437.88
571.064	394.88
571.276	396.88
571.487	405.88
571.698	401.88
571.91	417.88
572.121	403.88
572.333	397.88
572.544	404.88
572.755	402.88
572.966	390.88
573.178	385.88
573.389	380.88
573.6	401.88
573.811	370.88
574.023	385.88
574.234	366.88
574.445	380.88
574.656	380.88
574.867	356.88
575.078	358.88
575.289	379.88
575.501	358.88
575.712	363.88
575.923	355.88
576.134	380.88
576.345	366.88
576.556	368.88
576.767	368.88
576.978	360.88
577.188	351.88
577.399	353.88
577.61	350.88
577.821	384.88
578.032	362.88
578.243	418.88
578.454	712.88
578.665	489.88
578.875	380.88
579.086	348.88
579.297	353.88
579.508	354.88
579.718	355.88
579.929	349.88
580.14	351.88
580.35	332.88
580.561	340.88
580.772	348.88
580.982	341.88
581.193	322.88
581.403	345.88
581.614	324.88
581.825	321.88
582.035	331.88
582.246	341.88
582.456	332.88
582.667	334.88
582.877	343.88
583.087	335.88
583.298	335.88
583.508	346.88
583.719	331.88
583.929	360.88
584.139	355.88
584.35	345.88
584.56	321.88
584.77	314.88
584.981	342.88
585.191	327.88
585.401	308.88
585.611	322.88
585.821	331.88
586.032	317.88
586.242	328.88
586.452	321.88
586.662	345.88
586.872	320.88
587.082	321.88
587.292	324.88
587.502	321.88
587.713	304.88
587.923	327.88
588.133	324.88
588.343	333.88
588.553	310.88
588.762	315.88
588.972	342.88
589.182	329.88
589.392	325.88
589.602	343.88
589.812	325.88
590.022	318.88
590.232	315.88
590.441	316.88
590.651	324.88
590.861	339.88
591.071	325.88
591.281	298.88
591.49	326.88
591.7	338.88
591.91	314.88
592.119	309.88
592.329	312.88
592.539	341.88
592.748	314.88
592.958	322.88
593.167	333.88
593.377	313.88
593.587	337.88
593.796	329.88
594.006	322.88
594.215	329.88
594.424	327.88
594.634	313.88
594.843	311.88
595.053	329.88
595.262	320.88
595.472	296.88
595.681	321.88
595.89	313.88
596.1	296.88
596.309	306.88
596.518	304.88
596.727	314.88
596.937	310.88
597.146	311.88
597.355	293.88
597.564	312.88
597.774	301.88
597.983	290.88
598.192	290.88
598.401	309.88
598.61	283.88
598.819	286.88
599.028	290.88
599.237	297.88
599.446	293.88
599.655	285.88
599.864	268.88
600.073	281.88
600.282	286.88
600.491	277.88
600.7	294.88
600.909	268.88
601.118	291.88
601.327	287.88
601.536	282.88
601.745	278.88
601.953	288.88
602.162	272.88
602.371	293.88
602.58	291.88
602.789	276.88
602.997	278.88
603.206	283.88
603.415	284.88
603.623	279.88
603.832	260.88
604.041	277.88
604.249	284.88
604.458	280.88
604.666	275.88
604.875	275.88
605.084	246.88
605.292	262.88
605.501	277.88
605.709	264.88
605.918	267.88
606.126	258.88
606.334	274.88
606.543	281.88
606.751	266.88
606.96	277.88
607.168	274.88
607.376	264.88
607.585	266.88
607.793	281.88
608.001	292.88
608.21	274.88
608.418	270.88
608.626	264.88
608.834	262.88
609.043	260.88
609.251	290.88
609.459	275.88
609.667	274.88
609.875	256.88
610.083	275.88
610.291	265.88
610.499	255.88
610.707	250.88
610.916	271.88
611.124	276.88
611.332	283.88
611.54	271.88
611.748	268.88
611.955	268.88
612.163	260.88
612.371	271.88
612.579	274.88
612.787	266.88
612.995	263.88
613.203	266.88
613.411	255.88
613.618	274.88
613.826	250.88
614.034	256.88
614.242	271.88
614.449	261.88
614.657	264.88
614.865	292.88
615.072	254.88
615.28	266.88
615.488	256.88
615.695	243.88
615.903	261.88
616.111	270.88
616.318	282.88
616.526	271.88
616.733	246.88
616.941	264.88
617.148	262.88
617.356	256.88
617.563	256.88
617.771	258.88
617.978	264.88
618.185	261.88
618.393	252.88
618.6	249.88
618.807	256.88
619.015	258.88
619.222	254.88
619.429	234.88
619.637	242.88
619.844	251.88
620.051	244.88
620.258	243.88
620.466	252.88
620.673	237.88
620.88	241.88
621.087	251.88
621.294	258.88
621.501	266.88
621.708	246.88
621.915	240.88
622.122	235.88
622.329	249.88
622.536	244.88
622.743	256.88
622.95	247.88
623.157	243.88
623.364	236.88
623.571	251.88
623.778	244.88
623.985	244.88
624.192	250.88
624.399	248.88
624.606	249.88
624.812	230.88
625.019	236.88
625.226	215.88
625.433	239.88
625.639	237.88
625.846	236.88
626.053	226.88
626.259	217.88
626.466	220.88
626.673	206.88
626.879	221.88
627.086	220.88
627.293	229.88
627.499	225.88
627.706	235.88
627.912	217.88
628.119	206.88
628.325	232.88
628.532	226.88
628.738	229.88
628.945	216.88
629.151	217.88
629.357	212.88
629.564	219.88
629.77	214.88
629.976	224.88
630.183	220.88
630.389	214.88
630.595	224.88
630.802	215.88
631.008	211.88
631.214	216.88
631.42	204.88
631.627	198.88
631.833	206.88
632.039	221.88
632.245	201.88
632.451	206.88
632.657	208.88
632.863	204.88
633.069	212.88
633.275	205.88
633.481	185.88
633.688	189.88
633.893	212.88
634.099	200.88
634.305	197.88
634.511	207.88
634.717	181.88
634.923	189.88
635.129	201.88
635.335	212.88
635.541	206.88
635.747	195.88
635.952	181.88
636.158	200.88
636.364	206.88
636.57	194.88
636.775	226.88
636.981	202.88
637.187	193.88
637.392	191.88
637.598	177.88
637.804	210.88
638.009	186.88
638.215	172.88
638.421	192.88
638.626	192.88
638.832	183.88
639.037	176.88
639.243	196.88
639.448	183.88
639.654	186.88
639.859	179.88
640.065	187.88
640.27	185.88
640.475	201.88
640.681	190.88
640.886	164.88
641.091	174.88
641.297	193.88
641.502	184.88
641.707	181.88
641.913	178.88
642.118	185.88
642.323	190.88
642.528	182.88
642.733	186.88
642.939	194.88
643.144	184.88
643.349	176.88
643.554	166.88
643.759	170.88
643.964	168.88
644.169	184.88
644.374	188.88
644.579	182.88
644.784	188.88
644.989	192.88
645.194	171.88
645.399	194.88
645.604	188.88
645.809	188.88
646.014	169.88
646.219	180.88
646.423	187.88
646.628	185.88
646.833	168.88
647.038	173.88
647.243	174.88
647.447	176.88
647.652	167.88
647.857	182.88
648.062	183.88
648.266	172.88
648.471	179.88
648.676	184.88
648.88	167.88
649.085	177.88
649.289	178.88
649.494	181.88
649.698	187.88
649.903	188.88
650.107	196.88
650.312	157.88
650.516	174.88
650.721	167.88
650.925	140.88
651.13	162.88
651.334	160.88
651.539	159.88
651.743	151.88
651.947	153.88
652.152	156.88
652.356	148.88
652.56	146.88
652.764	166.88
652.969	172.88
653.173	149.88
653.377	148.88
653.581	130.88
653.785	139.88
653.99	140.88
654.194	133.88
654.398	143.88
654.602	132.88
654.806	135.88
655.01	145.88
655.214	151.88
655.418	130.88
655.622	127.88
655.826	142.88
656.03	144.88
656.234	128.88
656.438	131.88
656.642	132.88
656.846	137.88
657.049	126.88
657.253	117.88
657.457	135.88
657.661	125.88
657.865	139.88
658.068	113.88
658.272	98.88
658.476	126.88
658.68	109.88
658.883	101.88
659.087	114.88
659.291	106.88
659.494	101.88
659.698	111.88
659.901	92.88
660.105	92.88
660.309	106.88
660.512	105.88
660.716	106.88
660.919	104.88
661.123	86.88
661.326	88.88
661.53	98.88
661.733	88.88
661.936	101.88
662.14	84.88
662.343	110.88
662.546	87.88
662.75	93.88
662.953	90.88
663.156	77.88
663.36	88.88
663.563	82.88
663.766	80.88
663.969	82.88
664.173	83.88
664.376	96.88
664.579	76.88
664.782	95.88
664.985	87.88
665.188	78.88
665.391	86.88
665.594	72.88
665.797	80.88
666	82.88
666.203	80.88
666.406	84.88
666.609	77.88
666.812	78.88
667.015	85.88
667.218	89.88
667.421	87.88
667.624	93.88
667.827	77.88
668.03	93.88
668.232	84.88
668.435	92.88
668.638	85.88
668.841	114.88
669.043	85.88
669.246	82.88
669.449	81.88
669.651	81.88
669.854	81.88
670.057	71.88
670.259	80.88
670.462	80.88
670.665	89.88
670.867	94.88
671.07	83.88
671.272	88.88
671.475	81.88
671.677	83.88
671.88	83.88
672.082	82.88
672.284	85.88
672.487	89.88
672.689	88.88
672.892	93.88
