Data from 1970.PennyLincolnUp.Lamp.En5.5.200Scan.071719.P1._HRD10591_15-16-18-842.txt Node
Date: Thu Jul 18 15:16:18 EDT 2019
User: cochatt
Spectrometer: HR+D1059
Trigger mode: 1
Integration Time (sec): 1.000000E-1
Scans to average: 1
Electric dark correction enabled: true
Nonlinearity correction enabled: false
Boxcar width: 0
XAxis mode: Wavelengths
Number of Pixels in Spectrum: 2048
>>>>>Begin Spectral Data<<<<<
223.165	-7.19
223.4	-7.19
223.635	-7.19
223.869	-29.19
224.104	-25.19
224.338	-17.19
224.573	-9.19
224.808	-10.19
225.042	-1.19
225.277	-1.19
225.511	5.81
225.746	20.81
225.98	-0.19
226.215	4.81
226.449	16.81
226.683	5.81
226.918	25.81
227.152	20.81
227.387	37.81
227.621	40.81
227.856	50.81
228.09	42.81
228.324	44.81
228.559	52.81
228.793	70.81
229.027	118.81
229.262	135.81
229.496	129.81
229.73	142.81
229.964	185.81
230.199	143.81
230.433	126.81
230.667	138.81
230.901	123.81
231.136	122.81
231.37	101.81
231.604	119.81
231.838	112.81
232.072	114.81
232.306	123.81
232.541	135.81
232.775	118.81
233.009	115.81
233.243	146.81
233.477	116.81
233.711	125.81
233.945	119.81
234.179	129.81
234.413	127.81
234.647	128.81
234.881	125.81
235.115	131.81
235.349	137.81
235.583	142.81
235.817	146.81
236.051	135.81
236.285	133.81
236.519	130.81
236.753	143.81
236.987	178.81
237.221	213.81
237.455	273.81
237.689	208.81
237.922	158.81
238.156	159.81
238.39	147.81
238.624	131.81
238.858	130.81
239.091	145.81
239.325	133.81
239.559	127.81
239.793	146.81
240.027	154.81
240.26	177.81
240.494	174.81
240.728	169.81
240.961	151.81
241.195	156.81
241.429	149.81
241.662	148.81
241.896	137.81
242.13	149.81
242.363	137.81
242.597	144.81
242.83	151.81
243.064	157.81
243.298	147.81
243.531	146.81
243.765	142.81
243.998	159.81
244.232	155.81
244.465	152.81
244.699	161.81
244.932	162.81
245.166	155.81
245.399	147.81
245.633	157.81
245.866	148.81
246.099	158.81
246.333	158.81
246.566	160.81
246.8	180.81
247.033	164.81
247.266	178.81
247.5	179.81
247.733	195.81
247.966	202.81
248.2	205.81
248.433	203.81
248.666	198.81
248.899	208.81
249.133	209.81
249.366	222.81
249.599	235.81
249.832	191.81
250.066	211.81
250.299	199.81
250.532	231.81
250.765	227.81
250.998	249.81
251.231	247.81
251.465	229.81
251.698	220.81
251.931	238.81
252.164	230.81
252.397	231.81
252.63	216.81
252.863	249.81
253.096	242.81
253.329	259.81
253.562	274.81
253.795	239.81
254.028	240.81
254.261	259.81
254.494	253.81
254.727	279.81
254.96	326.81
255.193	305.81
255.426	293.81
255.659	277.81
255.892	274.81
256.124	289.81
256.357	279.81
256.59	262.81
256.823	241.81
257.056	241.81
257.289	242.81
257.521	243.81
257.754	242.81
257.987	231.81
258.22	219.81
258.452	251.81
258.685	244.81
258.918	243.81
259.151	234.81
259.383	266.81
259.616	245.81
259.849	246.81
260.081	266.81
260.314	286.81
260.547	297.81
260.779	269.81
261.012	263.81
261.244	259.81
261.477	247.81
261.71	249.81
261.942	263.81
262.175	258.81
262.407	244.81
262.64	250.81
262.872	233.81
263.105	237.81
263.337	233.81
263.57	228.81
263.802	246.81
264.035	231.81
264.267	236.81
264.499	234.81
264.732	250.81
264.964	220.81
265.197	210.81
265.429	230.81
265.661	217.81
265.894	238.81
266.126	221.81
266.358	222.81
266.591	244.81
266.823	247.81
267.055	243.81
267.287	249.81
267.52	242.81
267.752	226.81
267.984	246.81
268.216	243.81
268.448	252.81
268.681	270.81
268.913	268.81
269.145	289.81
269.377	299.81
269.609	285.81
269.841	299.81
270.073	286.81
270.306	314.81
270.538	347.81
270.77	367.81
271.002	345.81
271.234	325.81
271.466	325.81
271.698	349.81
271.93	358.81
272.162	350.81
272.394	356.81
272.626	338.81
272.858	315.81
273.09	310.81
273.322	311.81
273.553	292.81
273.785	268.81
274.017	277.81
274.249	285.81
274.481	288.81
274.713	275.81
274.945	291.81
275.176	293.81
275.408	294.81
275.64	304.81
275.872	281.81
276.104	282.81
276.335	280.81
276.567	296.81
276.799	320.81
277.031	330.81
277.262	368.81
277.494	364.81
277.726	319.81
277.957	322.81
278.189	299.81
278.421	296.81
278.652	294.81
278.884	297.81
279.115	273.81
279.347	302.81
279.579	292.81
279.81	289.81
280.042	269.81
280.273	281.81
280.505	286.81
280.736	289.81
280.968	278.81
281.199	284.81
281.431	277.81
281.662	276.81
281.894	286.81
282.125	284.81
282.356	299.81
282.588	328.81
282.819	346.81
283.051	280.81
283.282	277.81
283.513	294.81
283.745	290.81
283.976	294.81
284.207	303.81
284.439	291.81
284.67	298.81
284.901	282.81
285.132	263.81
285.364	274.81
285.595	294.81
285.826	277.81
286.057	291.81
286.288	286.81
286.52	271.81
286.751	282.81
286.982	290.81
287.213	263.81
287.444	285.81
287.675	295.81
287.906	295.81
288.138	310.81
288.369	309.81
288.6	314.81
288.831	318.81
289.062	296.81
289.293	291.81
289.524	309.81
289.755	307.81
289.986	302.81
290.217	289.81
290.448	295.81
290.679	288.81
290.91	300.81
291.141	278.81
291.371	293.81
291.602	296.81
291.833	299.81
292.064	296.81
292.295	321.81
292.526	313.81
292.757	302.81
292.987	292.81
293.218	293.81
293.449	309.81
293.68	296.81
293.91	289.81
294.141	288.81
294.372	284.81
294.603	293.81
294.833	294.81
295.064	278.81
295.295	308.81
295.525	306.81
295.756	325.81
295.987	315.81
296.217	339.81
296.448	364.81
296.679	296.81
296.909	293.81
297.14	298.81
297.37	300.81
297.601	325.81
297.831	297.81
298.062	305.81
298.292	316.81
298.523	310.81
298.753	312.81
298.984	329.81
299.214	329.81
299.445	328.81
299.675	317.81
299.905	334.81
300.136	302.81
300.366	327.81
300.597	309.81
300.827	333.81
301.057	335.81
301.288	337.81
301.518	353.81
301.748	332.81
301.979	331.81
302.209	334.81
302.439	346.81
302.669	332.81
302.9	326.81
303.13	332.81
303.36	347.81
303.59	355.81
303.82	348.81
304.051	342.81
304.281	334.81
304.511	324.81
304.741	334.81
304.971	338.81
305.201	351.81
305.431	325.81
305.661	345.81
305.891	333.81
306.121	337.81
306.352	353.81
306.582	337.81
306.812	362.81
307.042	374.81
307.272	341.81
307.502	340.81
307.731	346.81
307.961	339.81
308.191	337.81
308.421	376.81
308.651	354.81
308.881	356.81
309.111	361.81
309.341	372.81
309.571	374.81
309.8	390.81
310.03	400.81
310.26	403.81
310.49	395.81
310.72	397.81
310.949	442.81
311.179	437.81
311.409	398.81
311.639	388.81
311.868	386.81
312.098	407.81
312.328	420.81
312.557	436.81
312.787	442.81
313.017	441.81
313.246	426.81
313.476	412.81
313.706	392.81
313.935	422.81
314.165	400.81
314.394	437.81
314.624	413.81
314.853	423.81
315.083	394.81
315.312	406.81
315.542	394.81
315.771	403.81
316.001	373.81
316.23	401.81
316.46	384.81
316.689	402.81
316.919	402.81
317.148	425.81
317.377	402.81
317.607	395.81
317.836	411.81
318.065	397.81
318.295	389.81
318.524	394.81
318.753	398.81
318.983	407.81
319.212	385.81
319.441	417.81
319.67	419.81
319.9	393.81
320.129	404.81
320.358	409.81
320.587	403.81
320.816	405.81
321.046	427.81
321.275	432.81
321.504	425.81
321.733	425.81
321.962	449.81
322.191	446.81
322.42	481.81
322.649	481.81
322.878	515.81
323.108	518.81
323.337	562.81
323.566	570.81
323.795	616.81
324.024	692.81
324.253	853.81
324.482	1186.81
324.71	1843.81
324.939	2627.81
325.168	2296.81
325.397	1205.81
325.626	808.81
325.855	678.81
326.084	603.81
326.313	587.81
326.542	586.81
326.77	656.81
326.999	773.81
327.228	1052.81
327.457	1630.81
327.686	1969.81
327.914	1366.81
328.143	885.81
328.372	753.81
328.6	697.81
328.829	665.81
329.058	667.81
329.287	709.81
329.515	641.81
329.744	604.81
329.972	593.81
330.201	622.81
330.43	671.81
330.658	710.81
330.887	735.81
331.115	704.81
331.344	613.81
331.572	555.81
331.801	551.81
332.03	565.81
332.258	519.81
332.486	484.81
332.715	463.81
332.943	481.81
333.172	483.81
333.4	482.81
333.629	492.81
333.857	535.81
334.085	526.81
334.314	543.81
334.542	600.81
334.771	609.81
334.999	543.81
335.227	538.81
335.455	474.81
335.684	499.81
335.912	460.81
336.14	490.81
336.369	472.81
336.597	476.81
336.825	487.81
337.053	470.81
337.281	440.81
337.51	470.81
337.738	482.81
337.966	466.81
338.194	477.81
338.422	489.81
338.65	463.81
338.878	475.81
339.106	469.81
339.334	463.81
339.562	433.81
339.79	433.81
340.018	452.81
340.246	475.81
340.474	499.81
340.702	467.81
340.93	467.81
341.158	454.81
341.386	447.81
341.614	468.81
341.842	467.81
342.07	442.81
342.298	450.81
342.526	445.81
342.754	440.81
342.981	427.81
343.209	449.81
343.437	459.81
343.665	445.81
343.893	454.81
344.12	457.81
344.348	453.81
344.576	448.81
344.804	467.81
345.031	507.81
345.259	494.81
345.487	471.81
345.714	466.81
345.942	464.81
346.17	443.81
346.397	454.81
346.625	462.81
346.853	454.81
347.08	437.81
347.308	445.81
347.535	468.81
347.763	501.81
347.99	471.81
348.218	443.81
348.445	470.81
348.673	460.81
348.9	466.81
349.128	448.81
349.355	428.81
349.583	427.81
349.81	430.81
350.037	437.81
350.265	422.81
350.492	428.81
350.72	436.81
350.947	467.81
351.174	474.81
351.402	464.81
351.629	474.81
351.856	448.81
352.083	459.81
352.311	483.81
352.538	477.81
352.765	475.81
352.992	475.81
353.22	443.81
353.447	448.81
353.674	453.81
353.901	442.81
354.128	446.81
354.355	418.81
354.583	425.81
354.81	422.81
355.037	402.81
355.264	415.81
355.491	420.81
355.718	416.81
355.945	406.81
356.172	425.81
356.399	415.81
356.626	427.81
356.853	419.81
357.08	400.81
357.307	412.81
357.534	421.81
357.761	407.81
357.988	428.81
358.215	423.81
358.441	419.81
358.668	430.81
358.895	423.81
359.122	431.81
359.349	450.81
359.576	443.81
359.802	478.81
360.029	510.81
360.256	526.81
360.483	517.81
360.709	475.81
360.936	473.81
361.163	466.81
361.39	453.81
361.616	453.81
361.843	470.81
362.07	468.81
362.296	460.81
362.523	467.81
362.749	448.81
362.976	445.81
363.203	458.81
363.429	446.81
363.656	450.81
363.882	436.81
364.109	442.81
364.335	427.81
364.562	435.81
364.788	431.81
365.015	439.81
365.241	416.81
365.468	443.81
365.694	466.81
365.92	450.81
366.147	443.81
366.373	425.81
366.599	420.81
366.826	425.81
367.052	414.81
367.278	436.81
367.505	448.81
367.731	420.81
367.957	445.81
368.184	453.81
368.41	439.81
368.636	441.81
368.862	463.81
369.089	440.81
369.315	437.81
369.541	422.81
369.767	438.81
369.993	442.81
370.219	422.81
370.445	424.81
370.672	436.81
370.898	434.81
371.124	428.81
371.35	431.81
371.576	429.81
371.802	435.81
372.028	437.81
372.254	417.81
372.48	441.81
372.706	415.81
372.932	426.81
373.158	416.81
373.384	444.81
373.61	435.81
373.835	443.81
374.061	439.81
374.287	470.81
374.513	428.81
374.739	430.81
374.965	432.81
375.191	433.81
375.416	435.81
375.642	453.81
375.868	425.81
376.094	434.81
376.319	426.81
376.545	437.81
376.771	411.81
376.997	412.81
377.222	430.81
377.448	435.81
377.674	412.81
377.899	407.81
378.125	415.81
378.35	426.81
378.576	414.81
378.802	428.81
379.027	444.81
379.253	421.81
379.478	423.81
379.704	440.81
379.929	429.81
380.155	436.81
380.38	414.81
380.606	430.81
380.831	460.81
381.057	439.81
381.282	435.81
381.507	450.81
381.733	453.81
381.958	419.81
382.184	443.81
382.409	430.81
382.634	417.81
382.86	441.81
383.085	437.81
383.31	431.81
383.535	447.81
383.761	444.81
383.986	445.81
384.211	455.81
384.436	445.81
384.662	428.81
384.887	437.81
385.112	453.81
385.337	475.81
385.562	446.81
385.787	428.81
386.013	473.81
386.238	471.81
386.463	476.81
386.688	483.81
386.913	453.81
387.138	479.81
387.363	471.81
387.588	459.81
387.813	469.81
388.038	469.81
388.263	461.81
388.488	454.81
388.713	463.81
388.938	465.81
389.163	465.81
389.387	471.81
389.612	473.81
389.837	488.81
390.062	460.81
390.287	480.81
390.512	477.81
390.736	484.81
390.961	462.81
391.186	486.81
391.411	479.81
391.636	471.81
391.86	469.81
392.085	466.81
392.31	482.81
392.534	482.81
392.759	468.81
392.984	478.81
393.208	449.81
393.433	462.81
393.658	471.81
393.882	470.81
394.107	471.81
394.331	464.81
394.556	454.81
394.78	493.81
395.005	476.81
395.229	469.81
395.454	480.81
395.678	489.81
395.903	503.81
396.127	523.81
396.352	515.81
396.576	493.81
396.801	486.81
397.025	513.81
397.249	478.81
397.474	484.81
397.698	489.81
397.922	522.81
398.147	531.81
398.371	501.81
398.595	506.81
398.82	522.81
399.044	539.81
399.268	536.81
399.492	575.81
399.717	579.81
399.941	588.81
400.165	635.81
400.389	656.81
400.613	622.81
400.837	577.81
401.062	536.81
401.286	558.81
401.51	531.81
401.734	532.81
401.958	532.81
402.182	533.81
402.406	543.81
402.63	575.81
402.854	584.81
403.078	556.81
403.302	551.81
403.526	562.81
403.75	571.81
403.974	571.81
404.198	545.81
404.422	582.81
404.645	577.81
404.869	586.81
405.093	616.81
405.317	655.81
405.541	670.81
405.765	636.81
405.988	602.81
406.212	623.81
406.436	641.81
406.66	651.81
406.883	620.81
407.107	637.81
407.331	701.81
407.555	729.81
407.778	769.81
408.002	698.81
408.226	631.81
408.449	611.81
408.673	619.81
408.896	630.81
409.12	699.81
409.344	682.81
409.567	585.81
409.791	591.81
410.014	573.81
410.238	572.81
410.461	559.81
410.685	583.81
410.908	612.81
411.132	626.81
411.355	653.81
411.578	619.81
411.802	578.81
412.025	554.81
412.249	590.81
412.472	646.81
412.695	674.81
412.919	651.81
413.142	589.81
413.365	561.81
413.589	547.81
413.812	541.81
414.035	548.81
414.258	544.81
414.482	517.81
414.705	538.81
414.928	520.81
415.151	528.81
415.374	505.81
415.597	526.81
415.821	533.81
416.044	514.81
416.267	530.81
416.49	516.81
416.713	516.81
416.936	518.81
417.159	541.81
417.382	547.81
417.605	547.81
417.828	558.81
418.051	583.81
418.274	586.81
418.497	555.81
418.72	550.81
418.943	531.81
419.166	563.81
419.389	565.81
419.611	581.81
419.834	586.81
420.057	570.81
420.28	594.81
420.503	602.81
420.726	570.81
420.948	618.81
421.171	623.81
421.394	669.81
421.617	595.81
421.839	586.81
422.062	606.81
422.285	603.81
422.507	660.81
422.73	741.81
422.953	744.81
423.175	650.81
423.398	590.81
423.621	631.81
423.843	628.81
424.066	636.81
424.288	601.81
424.511	654.81
424.733	698.81
424.956	794.81
425.178	795.81
425.401	774.81
425.623	786.81
425.846	685.81
426.068	653.81
426.291	627.81
426.513	641.81
426.735	645.81
426.958	682.81
427.18	786.81
427.402	921.81
427.625	1030.81
427.847	922.81
428.069	813.81
428.292	729.81
428.514	639.81
428.736	625.81
428.958	625.81
429.181	592.81
429.403	592.81
429.625	592.81
429.847	631.81
430.069	719.81
430.292	710.81
430.514	643.81
430.736	588.81
430.958	599.81
431.18	569.81
431.402	549.81
431.624	549.81
431.846	539.81
432.068	536.81
432.29	563.81
432.512	595.81
432.734	567.81
432.956	554.81
433.178	556.81
433.4	556.81
433.622	560.81
433.844	549.81
434.066	554.81
434.287	559.81
434.509	544.81
434.731	554.81
434.953	574.81
435.175	587.81
435.397	622.81
435.618	614.81
435.84	680.81
436.062	781.81
436.284	839.81
436.505	731.81
436.727	679.81
436.949	628.81
437.17	597.81
437.392	592.81
437.614	627.81
437.835	632.81
438.057	780.81
438.278	902.81
438.5	907.81
438.721	942.81
438.943	924.81
439.165	739.81
439.386	663.81
439.608	659.81
439.829	662.81
440.05	699.81
440.272	767.81
440.493	698.81
440.715	650.81
440.936	596.81
441.158	608.81
441.379	629.81
441.6	613.81
441.822	637.81
442.043	683.81
442.264	788.81
442.486	814.81
442.707	713.81
442.928	672.81
443.149	648.81
443.371	711.81
443.592	722.81
443.813	833.81
444.034	886.81
444.255	747.81
444.476	668.81
444.698	642.81
444.919	638.81
445.14	753.81
445.361	693.81
445.582	715.81
445.803	755.81
446.024	889.81
446.245	888.81
446.466	834.81
446.687	717.81
446.908	644.81
447.129	630.81
447.35	606.81
447.571	609.81
447.792	580.81
448.013	626.81
448.234	611.81
448.455	675.81
448.675	802.81
448.896	895.81
449.117	784.81
449.338	742.81
449.559	852.81
449.779	938.81
450	791.81
450.221	655.81
450.442	598.81
450.662	601.81
450.883	605.81
451.104	635.81
451.324	608.81
451.545	585.81
451.766	558.81
451.986	536.81
452.207	551.81
452.428	532.81
452.648	545.81
452.869	512.81
453.089	556.81
453.31	564.81
453.53	567.81
453.751	522.81
453.971	565.81
454.192	545.81
454.412	559.81
454.633	546.81
454.853	522.81
455.073	529.81
455.294	567.81
455.514	667.81
455.734	645.81
455.955	564.81
456.175	537.81
456.395	525.81
456.616	503.81
456.836	495.81
457.056	507.81
457.276	485.81
457.497	489.81
457.717	476.81
457.937	470.81
458.157	516.81
458.377	525.81
458.598	533.81
458.818	618.81
459.038	706.81
459.258	738.81
459.478	627.81
459.698	584.81
459.918	559.81
460.138	530.81
460.358	555.81
460.578	538.81
460.798	559.81
461.018	571.81
461.238	541.81
461.458	553.81
461.678	532.81
461.898	558.81
462.118	539.81
462.338	549.81
462.558	542.81
462.777	560.81
462.997	544.81
463.217	574.81
463.437	595.81
463.657	573.81
463.876	572.81
464.096	562.81
464.316	578.81
464.536	590.81
464.755	589.81
464.975	587.81
465.195	661.81
465.414	775.81
465.634	681.81
465.854	630.81
466.073	577.81
466.293	552.81
466.512	542.81
466.732	545.81
466.951	534.81
467.171	556.81
467.391	562.81
467.61	567.81
467.829	578.81
468.049	583.81
468.268	571.81
468.488	542.81
468.707	555.81
468.927	542.81
469.146	515.81
469.365	526.81
469.585	527.81
469.804	521.81
470.023	538.81
470.243	555.81
470.462	535.81
470.681	571.81
470.901	568.81
471.12	557.81
471.339	553.81
471.558	565.81
471.777	560.81
471.997	522.81
472.216	542.81
472.435	589.81
472.654	587.81
472.873	562.81
473.092	541.81
473.311	557.81
473.53	566.81
473.749	551.81
473.968	599.81
474.187	742.81
474.406	754.81
474.625	621.81
474.844	571.81
475.063	593.81
475.282	569.81
475.501	556.81
475.72	543.81
475.939	586.81
476.158	571.81
476.377	555.81
476.596	569.81
476.814	573.81
477.033	596.81
477.252	590.81
477.471	570.81
477.69	593.81
477.908	598.81
478.127	617.81
478.346	605.81
478.564	591.81
478.783	618.81
479.002	632.81
479.22	646.81
479.439	646.81
479.658	679.81
479.876	667.81
480.095	679.81
480.313	680.81
480.532	687.81
480.751	682.81
480.969	698.81
481.188	786.81
481.406	885.81
481.624	769.81
481.843	687.81
482.061	676.81
482.28	693.81
482.498	665.81
482.717	669.81
482.935	660.81
483.153	671.81
483.372	645.81
483.59	645.81
483.808	663.81
484.027	655.81
484.245	674.81
484.463	673.81
484.681	656.81
484.9	673.81
485.118	668.81
485.336	667.81
485.554	675.81
485.772	700.81
485.99	670.81
486.209	679.81
486.427	717.81
486.645	725.81
486.863	723.81
487.081	734.81
487.299	723.81
487.517	721.81
487.735	710.81
487.953	711.81
488.171	748.81
488.389	722.81
488.607	734.81
488.825	730.81
489.043	732.81
489.261	728.81
489.479	729.81
489.696	737.81
489.914	747.81
490.132	745.81
490.35	755.81
490.568	776.81
490.786	791.81
491.003	788.81
491.221	805.81
491.439	810.81
491.657	802.81
491.874	836.81
492.092	851.81
492.31	853.81
492.527	836.81
492.745	861.81
492.963	883.81
493.18	882.81
493.398	879.81
493.615	858.81
493.833	887.81
494.05	874.81
494.268	865.81
494.485	859.81
494.703	870.81
494.92	855.81
495.138	881.81
495.355	868.81
495.573	881.81
495.79	890.81
496.008	892.81
496.225	870.81
496.442	858.81
496.66	861.81
496.877	871.81
497.094	850.81
497.312	843.81
497.529	853.81
497.746	885.81
497.963	896.81
498.181	937.81
498.398	918.81
498.615	894.81
498.832	920.81
499.049	937.81
499.267	931.81
499.484	963.81
499.701	955.81
499.918	1023.81
500.135	1067.81
500.352	1051.81
500.569	1059.81
500.786	1074.81
501.003	1080.81
501.22	1070.81
501.437	1042.81
501.654	1033.81
501.871	1044.81
502.088	1006.81
502.305	976.81
502.522	938.81
502.739	923.81
502.956	914.81
503.172	875.81
503.389	881.81
503.606	900.81
503.823	897.81
504.04	877.81
504.256	857.81
504.473	850.81
504.69	857.81
504.907	850.81
505.123	850.81
505.34	806.81
505.557	823.81
505.773	853.81
505.99	834.81
506.207	804.81
506.423	830.81
506.64	839.81
506.856	823.81
507.073	849.81
507.289	823.81
507.506	830.81
507.722	835.81
507.939	831.81
508.155	854.81
508.372	822.81
508.588	790.81
508.805	796.81
509.021	803.81
509.238	796.81
509.454	837.81
509.67	804.81
509.887	790.81
510.103	797.81
510.319	838.81
510.536	925.81
510.752	1603.81
510.968	1283.81
511.184	851.81
511.401	812.81
511.617	791.81
511.833	779.81
512.049	790.81
512.265	732.81
512.481	755.81
512.698	765.81
512.914	748.81
513.13	780.81
513.346	723.81
513.562	765.81
513.778	759.81
513.994	773.81
514.21	798.81
514.426	821.81
514.642	885.81
514.858	940.81
515.074	981.81
515.29	1200.81
515.506	1822.81
515.721	1438.81
515.937	957.81
516.153	865.81
516.369	838.81
516.585	805.81
516.801	793.81
517.016	770.81
517.232	738.81
517.448	754.81
517.664	759.81
517.879	744.81
518.095	779.81
518.311	747.81
518.527	749.81
518.742	747.81
518.958	772.81
519.173	756.81
519.389	763.81
519.605	769.81
519.82	769.81
520.036	786.81
520.251	814.81
520.467	858.81
520.682	829.81
520.898	844.81
521.113	887.81
521.329	951.81
521.544	1124.81
521.76	1406.81
521.975	2378.81
522.19	2297.81
522.406	1235.81
522.621	930.81
522.836	831.81
523.052	801.81
523.267	767.81
523.482	722.81
523.698	695.81
523.913	700.81
524.128	704.81
524.343	716.81
524.559	670.81
524.774	667.81
524.989	648.81
525.204	694.81
525.419	683.81
525.634	669.81
525.849	621.81
526.064	639.81
526.28	628.81
526.495	597.81
526.71	613.81
526.925	621.81
527.14	616.81
527.355	601.81
527.57	602.81
527.785	577.81
527.999	598.81
528.214	596.81
528.429	602.81
528.644	612.81
528.859	620.81
529.074	639.81
529.289	660.81
529.503	747.81
529.718	749.81
529.933	667.81
530.148	637.81
530.363	614.81
530.577	614.81
530.792	603.81
531.007	597.81
531.221	583.81
531.436	587.81
531.651	583.81
531.865	573.81
532.08	567.81
532.295	579.81
532.509	567.81
532.724	558.81
532.938	582.81
533.153	568.81
533.367	586.81
533.582	566.81
533.796	569.81
534.011	588.81
534.225	549.81
534.44	549.81
534.654	560.81
534.868	561.81
535.083	571.81
535.297	585.81
535.511	563.81
535.726	615.81
535.94	572.81
536.154	567.81
536.369	550.81
536.583	565.81
536.797	561.81
537.011	557.81
537.225	525.81
537.44	567.81
537.654	543.81
537.868	560.81
538.082	549.81
538.296	535.81
538.51	542.81
538.724	543.81
538.938	563.81
539.153	554.81
539.367	581.81
539.581	551.81
539.795	552.81
540.009	534.81
540.222	548.81
540.436	549.81
540.65	590.81
540.864	540.81
541.078	550.81
541.292	562.81
541.506	540.81
541.72	547.81
541.934	526.81
542.147	565.81
542.361	547.81
542.575	535.81
542.789	547.81
543.002	539.81
543.216	568.81
543.43	551.81
543.644	582.81
543.857	552.81
544.071	552.81
544.285	557.81
544.498	539.81
544.712	558.81
544.925	549.81
545.139	507.81
545.352	519.81
545.566	526.81
545.779	539.81
545.993	531.81
546.206	518.81
546.42	535.81
546.633	519.81
546.847	518.81
547.06	516.81
547.274	511.81
547.487	521.81
547.7	501.81
547.914	509.81
548.127	523.81
548.34	517.81
548.554	517.81
548.767	505.81
548.98	529.81
549.193	514.81
549.407	489.81
549.62	521.81
549.833	508.81
550.046	505.81
550.259	503.81
550.473	520.81
550.686	496.81
550.899	515.81
551.112	505.81
551.325	463.81
551.538	498.81
551.751	478.81
551.964	478.81
552.177	511.81
552.39	482.81
552.603	511.81
552.816	517.81
553.029	510.81
553.242	494.81
553.455	521.81
553.667	515.81
553.88	531.81
554.093	524.81
554.306	521.81
554.519	514.81
554.732	511.81
554.944	468.81
555.157	479.81
555.37	447.81
555.583	488.81
555.795	489.81
556.008	464.81
556.221	475.81
556.433	467.81
556.646	469.81
556.859	468.81
557.071	467.81
557.284	486.81
557.496	461.81
557.709	482.81
557.921	476.81
558.134	457.81
558.346	465.81
558.559	435.81
558.771	453.81
558.984	458.81
559.196	451.81
559.409	439.81
559.621	455.81
559.833	457.81
560.046	460.81
560.258	454.81
560.47	479.81
560.683	465.81
560.895	451.81
561.107	450.81
561.32	446.81
561.532	443.81
561.744	474.81
561.956	460.81
562.168	451.81
562.381	465.81
562.593	441.81
562.805	434.81
563.017	445.81
563.229	467.81
563.441	455.81
563.653	443.81
563.865	446.81
564.077	460.81
564.289	449.81
564.501	457.81
564.713	453.81
564.925	465.81
565.137	481.81
565.349	469.81
565.561	468.81
565.773	487.81
565.985	498.81
566.197	492.81
566.408	489.81
566.62	483.81
566.832	526.81
567.044	522.81
567.255	511.81
567.467	515.81
567.679	501.81
567.891	503.81
568.102	506.81
568.314	520.81
568.526	485.81
568.737	508.81
568.949	485.81
569.161	474.81
569.372	465.81
569.584	460.81
569.795	456.81
570.007	451.81
570.218	500.81
570.43	501.81
570.641	442.81
570.853	429.81
571.064	412.81
571.276	398.81
571.487	435.81
571.698	412.81
571.91	418.81
572.121	407.81
572.333	401.81
572.544	401.81
572.755	401.81
572.966	386.81
573.178	402.81
573.389	403.81
573.6	401.81
573.811	378.81
574.023	404.81
574.234	387.81
574.445	402.81
574.656	389.81
574.867	388.81
575.078	386.81
575.289	385.81
575.501	385.81
575.712	373.81
575.923	409.81
576.134	379.81
576.345	371.81
576.556	382.81
576.767	391.81
576.978	377.81
577.188	370.81
577.399	380.81
577.61	371.81
577.821	374.81
578.032	381.81
578.243	434.81
578.454	733.81
578.665	545.81
578.875	400.81
579.086	374.81
579.297	377.81
579.508	359.81
579.718	361.81
579.929	362.81
580.14	365.81
580.35	353.81
580.561	351.81
580.772	347.81
580.982	371.81
581.193	355.81
581.403	351.81
581.614	354.81
581.825	347.81
582.035	352.81
582.246	341.81
582.456	347.81
582.667	341.81
582.877	341.81
583.087	321.81
583.298	350.81
583.508	345.81
583.719	338.81
583.929	335.81
584.139	333.81
584.35	344.81
584.56	331.81
584.77	348.81
584.981	348.81
585.191	341.81
585.401	352.81
585.611	339.81
585.821	341.81
586.032	349.81
586.242	338.81
586.452	343.81
586.662	353.81
586.872	327.81
587.082	325.81
587.292	333.81
587.502	343.81
587.713	319.81
587.923	355.81
588.133	333.81
588.343	326.81
588.553	322.81
588.762	328.81
588.972	323.81
589.182	343.81
589.392	319.81
589.602	336.81
589.812	339.81
590.022	338.81
590.232	322.81
590.441	331.81
590.651	335.81
590.861	326.81
591.071	334.81
591.281	321.81
591.49	344.81
591.7	325.81
591.91	338.81
592.119	340.81
592.329	356.81
592.539	337.81
592.748	340.81
592.958	339.81
593.167	323.81
593.377	346.81
593.587	355.81
593.796	330.81
594.006	354.81
594.215	353.81
594.424	340.81
594.634	351.81
594.843	338.81
595.053	337.81
595.262	332.81
595.472	306.81
595.681	311.81
595.89	313.81
596.1	341.81
596.309	315.81
596.518	310.81
596.727	329.81
596.937	316.81
597.146	321.81
597.355	325.81
597.564	294.81
597.774	298.81
597.983	295.81
598.192	297.81
598.401	286.81
598.61	309.81
598.819	301.81
599.028	287.81
599.237	294.81
599.446	282.81
599.655	297.81
599.864	301.81
600.073	286.81
600.282	295.81
600.491	270.81
600.7	297.81
600.909	297.81
601.118	285.81
601.327	282.81
601.536	299.81
601.745	305.81
601.953	265.81
602.162	309.81
602.371	291.81
602.58	289.81
602.789	292.81
602.997	301.81
603.206	301.81
603.415	289.81
603.623	275.81
603.832	266.81
604.041	292.81
604.249	299.81
604.458	274.81
604.666	291.81
604.875	282.81
605.084	287.81
605.292	271.81
605.501	277.81
605.709	269.81
605.918	283.81
606.126	285.81
606.334	302.81
606.543	263.81
606.751	262.81
606.96	285.81
607.168	252.81
607.376	269.81
607.585	270.81
607.793	299.81
608.001	275.81
608.21	288.81
608.418	279.81
608.626	268.81
608.834	292.81
609.043	281.81
609.251	287.81
609.459	286.81
609.667	264.81
609.875	260.81
610.083	275.81
610.291	260.81
610.499	273.81
610.707	265.81
610.916	275.81
611.124	285.81
611.332	282.81
611.54	291.81
611.748	286.81
611.955	271.81
612.163	279.81
612.371	278.81
612.579	284.81
612.787	271.81
612.995	271.81
613.203	263.81
613.411	266.81
613.618	259.81
613.826	262.81
614.034	264.81
614.242	273.81
614.449	257.81
614.657	252.81
614.865	249.81
615.072	283.81
615.28	260.81
615.488	262.81
615.695	265.81
615.903	256.81
616.111	266.81
616.318	284.81
616.526	277.81
616.733	282.81
616.941	254.81
617.148	267.81
617.356	272.81
617.563	275.81
617.771	282.81
617.978	261.81
618.185	253.81
618.393	262.81
618.6	265.81
618.807	270.81
619.015	243.81
619.222	269.81
619.429	265.81
619.637	270.81
619.844	249.81
620.051	263.81
620.258	258.81
620.466	243.81
620.673	242.81
620.88	256.81
621.087	242.81
621.294	248.81
621.501	251.81
621.708	256.81
621.915	252.81
622.122	244.81
622.329	270.81
622.536	276.81
622.743	236.81
622.95	252.81
623.157	244.81
623.364	254.81
623.571	245.81
623.778	247.81
623.985	244.81
624.192	212.81
624.399	234.81
624.606	241.81
624.812	251.81
625.019	228.81
625.226	242.81
625.433	235.81
625.639	243.81
625.846	237.81
626.053	235.81
626.259	230.81
626.466	236.81
626.673	236.81
626.879	218.81
627.086	223.81
627.293	210.81
627.499	237.81
627.706	224.81
627.912	216.81
628.119	227.81
628.325	217.81
628.532	235.81
628.738	230.81
628.945	221.81
629.151	229.81
629.357	230.81
629.564	218.81
629.77	204.81
629.976	226.81
630.183	222.81
630.389	201.81
630.595	207.81
630.802	210.81
631.008	209.81
631.214	220.81
631.42	212.81
631.627	214.81
631.833	217.81
632.039	204.81
632.245	213.81
632.451	212.81
632.657	204.81
632.863	211.81
633.069	213.81
633.275	204.81
633.481	209.81
633.688	221.81
633.893	203.81
634.099	217.81
634.305	202.81
634.511	202.81
634.717	209.81
634.923	190.81
635.129	204.81
635.335	216.81
635.541	210.81
635.747	207.81
635.952	198.81
636.158	220.81
636.364	223.81
636.57	201.81
636.775	220.81
636.981	199.81
637.187	191.81
637.392	189.81
637.598	198.81
637.804	193.81
638.009	197.81
638.215	205.81
638.421	197.81
638.626	197.81
638.832	194.81
639.037	185.81
639.243	199.81
639.448	196.81
639.654	198.81
639.859	195.81
640.065	182.81
640.27	206.81
640.475	191.81
640.681	181.81
640.886	183.81
641.091	194.81
641.297	180.81
641.502	178.81
641.707	188.81
641.913	182.81
642.118	191.81
642.323	189.81
642.528	188.81
642.733	178.81
642.939	179.81
643.144	181.81
643.349	198.81
643.554	191.81
643.759	172.81
643.964	193.81
644.169	185.81
644.374	183.81
644.579	179.81
644.784	182.81
644.989	163.81
645.194	195.81
645.399	188.81
645.604	185.81
645.809	174.81
646.014	197.81
646.219	180.81
646.423	186.81
646.628	170.81
646.833	158.81
647.038	181.81
647.243	190.81
647.447	183.81
647.652	171.81
647.857	186.81
648.062	182.81
648.266	179.81
648.471	182.81
648.676	191.81
648.88	187.81
649.085	186.81
649.289	201.81
649.494	175.81
649.698	205.81
649.903	216.81
650.107	178.81
650.312	183.81
650.516	173.81
650.721	179.81
650.925	167.81
651.13	172.81
651.334	169.81
651.539	165.81
651.743	158.81
651.947	158.81
652.152	171.81
652.356	163.81
652.56	154.81
652.764	147.81
652.969	153.81
653.173	155.81
653.377	154.81
653.581	141.81
653.785	148.81
653.99	154.81
654.194	167.81
654.398	135.81
654.602	134.81
654.806	127.81
655.01	145.81
655.214	145.81
655.418	132.81
655.622	141.81
655.826	149.81
656.03	132.81
656.234	126.81
656.438	149.81
656.642	140.81
656.846	134.81
657.049	136.81
657.253	135.81
657.457	138.81
657.661	119.81
657.865	107.81
658.068	129.81
658.272	118.81
658.476	113.81
658.68	116.81
658.883	103.81
659.087	115.81
659.291	110.81
659.494	116.81
659.698	98.81
659.901	102.81
660.105	92.81
660.309	99.81
660.512	110.81
660.716	94.81
660.919	97.81
661.123	95.81
661.326	106.81
661.53	88.81
661.733	93.81
661.936	80.81
662.14	85.81
662.343	68.81
662.546	86.81
662.75	98.81
662.953	87.81
663.156	93.81
663.36	70.81
663.563	84.81
663.766	93.81
663.969	78.81
664.173	90.81
664.376	76.81
664.579	80.81
664.782	69.81
664.985	101.81
665.188	97.81
665.391	86.81
665.594	82.81
665.797	82.81
666	81.81
666.203	79.81
666.406	87.81
666.609	85.81
666.812	82.81
667.015	77.81
667.218	93.81
667.421	87.81
667.624	76.81
667.827	78.81
668.03	83.81
668.232	80.81
668.435	77.81
668.638	81.81
668.841	82.81
669.043	90.81
669.246	87.81
669.449	77.81
669.651	75.81
669.854	88.81
670.057	93.81
670.259	74.81
670.462	90.81
670.665	71.81
670.867	89.81
671.07	72.81
671.272	88.81
671.475	82.81
671.677	82.81
671.88	89.81
672.082	83.81
672.284	85.81
672.487	91.81
672.689	90.81
672.892	72.81
