Data from 1970.PennyLincolnUp.Lamp.En5.5.200Scan.071719.P1._HRD10591_15-13-39-843.txt Node
Date: Thu Jul 18 15:13:39 EDT 2019
User: cochatt
Spectrometer: HR+D1059
Trigger mode: 1
Integration Time (sec): 1.000000E-1
Scans to average: 1
Electric dark correction enabled: true
Nonlinearity correction enabled: false
Boxcar width: 0
XAxis mode: Wavelengths
Number of Pixels in Spectrum: 2048
>>>>>Begin Spectral Data<<<<<
223.165	-16.25
223.4	-16.25
223.635	-16.25
223.869	-23.25
224.104	-23.25
224.338	-25.25
224.573	-15.25
224.808	-10.25
225.042	3.75
225.277	-11.25
225.511	7.75
225.746	4.75
225.98	12.75
226.215	3.75
226.449	7.75
226.683	25.75
226.918	26.75
227.152	31.75
227.387	33.75
227.621	44.75
227.856	47.75
228.09	55.75
228.324	45.75
228.559	51.75
228.793	70.75
229.027	100.75
229.262	109.75
229.496	132.75
229.73	140.75
229.964	176.75
230.199	144.75
230.433	114.75
230.667	116.75
230.901	107.75
231.136	108.75
231.37	118.75
231.604	132.75
231.838	122.75
232.072	119.75
232.306	129.75
232.541	124.75
232.775	113.75
233.009	99.75
233.243	104.75
233.477	112.75
233.711	120.75
233.945	128.75
234.179	133.75
234.413	110.75
234.647	122.75
234.881	109.75
235.115	117.75
235.349	110.75
235.583	142.75
235.817	131.75
236.051	138.75
236.285	138.75
236.519	125.75
236.753	137.75
236.987	152.75
237.221	184.75
237.455	262.75
237.689	190.75
237.922	146.75
238.156	148.75
238.39	123.75
238.624	133.75
238.858	128.75
239.091	128.75
239.325	123.75
239.559	131.75
239.793	137.75
240.027	143.75
240.26	146.75
240.494	150.75
240.728	155.75
240.961	152.75
241.195	137.75
241.429	122.75
241.662	130.75
241.896	120.75
242.13	146.75
242.363	141.75
242.597	134.75
242.83	142.75
243.064	145.75
243.298	152.75
243.531	137.75
243.765	140.75
243.998	153.75
244.232	144.75
244.465	150.75
244.699	147.75
244.932	149.75
245.166	162.75
245.399	146.75
245.633	136.75
245.866	164.75
246.099	157.75
246.333	139.75
246.566	145.75
246.8	155.75
247.033	178.75
247.266	147.75
247.5	158.75
247.733	173.75
247.966	173.75
248.2	178.75
248.433	180.75
248.666	183.75
248.899	187.75
249.133	200.75
249.366	213.75
249.599	195.75
249.832	182.75
250.066	183.75
250.299	185.75
250.532	183.75
250.765	222.75
250.998	208.75
251.231	228.75
251.465	219.75
251.698	227.75
251.931	205.75
252.164	213.75
252.397	204.75
252.63	216.75
252.863	217.75
253.096	230.75
253.329	234.75
253.562	255.75
253.795	247.75
254.028	226.75
254.261	213.75
254.494	244.75
254.727	245.75
254.96	279.75
255.193	288.75
255.426	261.75
255.659	255.75
255.892	222.75
256.124	243.75
256.357	236.75
256.59	246.75
256.823	222.75
257.056	222.75
257.289	219.75
257.521	217.75
257.754	205.75
257.987	211.75
258.22	208.75
258.452	200.75
258.685	212.75
258.918	216.75
259.151	200.75
259.383	215.75
259.616	214.75
259.849	242.75
260.081	239.75
260.314	243.75
260.547	248.75
260.779	254.75
261.012	234.75
261.244	228.75
261.477	221.75
261.71	216.75
261.942	249.75
262.175	234.75
262.407	230.75
262.64	222.75
262.872	205.75
263.105	199.75
263.337	216.75
263.57	216.75
263.802	207.75
264.035	224.75
264.267	215.75
264.499	209.75
264.732	208.75
264.964	221.75
265.197	202.75
265.429	211.75
265.661	204.75
265.894	203.75
266.126	222.75
266.358	207.75
266.591	219.75
266.823	203.75
267.055	213.75
267.287	232.75
267.52	216.75
267.752	217.75
267.984	204.75
268.216	226.75
268.448	209.75
268.681	215.75
268.913	235.75
269.145	224.75
269.377	246.75
269.609	276.75
269.841	266.75
270.073	264.75
270.306	274.75
270.538	322.75
270.77	296.75
271.002	310.75
271.234	282.75
271.466	271.75
271.698	294.75
271.93	286.75
272.162	318.75
272.394	311.75
272.626	298.75
272.858	276.75
273.09	274.75
273.322	258.75
273.553	261.75
273.785	262.75
274.017	253.75
274.249	252.75
274.481	256.75
274.713	235.75
274.945	255.75
275.176	266.75
275.408	258.75
275.64	252.75
275.872	250.75
276.104	243.75
276.335	232.75
276.567	265.75
276.799	276.75
277.031	299.75
277.262	289.75
277.494	301.75
277.726	276.75
277.957	271.75
278.189	272.75
278.421	263.75
278.652	256.75
278.884	247.75
279.115	264.75
279.347	246.75
279.579	266.75
279.81	270.75
280.042	239.75
280.273	253.75
280.505	258.75
280.736	255.75
280.968	240.75
281.199	224.75
281.431	238.75
281.662	239.75
281.894	236.75
282.125	248.75
282.356	259.75
282.588	271.75
282.819	293.75
283.051	258.75
283.282	245.75
283.513	257.75
283.745	264.75
283.976	253.75
284.207	256.75
284.439	250.75
284.67	270.75
284.901	243.75
285.132	248.75
285.364	245.75
285.595	255.75
285.826	261.75
286.057	247.75
286.288	248.75
286.52	266.75
286.751	267.75
286.982	277.75
287.213	259.75
287.444	277.75
287.675	276.75
287.906	264.75
288.138	273.75
288.369	293.75
288.6	279.75
288.831	278.75
289.062	266.75
289.293	271.75
289.524	259.75
289.755	282.75
289.986	254.75
290.217	266.75
290.448	270.75
290.679	270.75
290.91	271.75
291.141	253.75
291.371	294.75
291.602	247.75
291.833	266.75
292.064	252.75
292.295	276.75
292.526	275.75
292.757	258.75
292.987	278.75
293.218	257.75
293.449	249.75
293.68	266.75
293.91	261.75
294.141	261.75
294.372	252.75
294.603	254.75
294.833	266.75
295.064	264.75
295.295	253.75
295.525	262.75
295.756	278.75
295.987	280.75
296.217	302.75
296.448	317.75
296.679	275.75
296.909	276.75
297.14	286.75
297.37	257.75
297.601	268.75
297.831	276.75
298.062	277.75
298.292	277.75
298.523	272.75
298.753	274.75
298.984	294.75
299.214	268.75
299.445	285.75
299.675	283.75
299.905	262.75
300.136	285.75
300.366	295.75
300.597	291.75
300.827	292.75
301.057	283.75
301.288	294.75
301.518	299.75
301.748	292.75
301.979	288.75
302.209	294.75
302.439	278.75
302.669	275.75
302.9	287.75
303.13	291.75
303.36	293.75
303.59	309.75
303.82	312.75
304.051	316.75
304.281	310.75
304.511	284.75
304.741	276.75
304.971	287.75
305.201	299.75
305.431	311.75
305.661	296.75
305.891	272.75
306.121	300.75
306.352	308.75
306.582	311.75
306.812	293.75
307.042	306.75
307.272	297.75
307.502	303.75
307.731	300.75
307.961	323.75
308.191	308.75
308.421	296.75
308.651	303.75
308.881	310.75
309.111	317.75
309.341	314.75
309.571	315.75
309.8	332.75
310.03	338.75
310.26	354.75
310.49	342.75
310.72	362.75
310.949	360.75
311.179	367.75
311.409	354.75
311.639	336.75
311.868	339.75
312.098	343.75
312.328	353.75
312.557	374.75
312.787	380.75
313.017	369.75
313.246	364.75
313.476	348.75
313.706	335.75
313.935	353.75
314.165	351.75
314.394	360.75
314.624	366.75
314.853	357.75
315.083	350.75
315.312	336.75
315.542	341.75
315.771	332.75
316.001	333.75
316.23	329.75
316.46	347.75
316.689	360.75
316.919	346.75
317.148	347.75
317.377	358.75
317.607	378.75
317.836	360.75
318.065	341.75
318.295	355.75
318.524	336.75
318.753	359.75
318.983	346.75
319.212	342.75
319.441	358.75
319.67	368.75
319.9	342.75
320.129	354.75
320.358	352.75
320.587	330.75
320.816	355.75
321.046	371.75
321.275	371.75
321.504	359.75
321.733	363.75
321.962	388.75
322.191	417.75
322.42	397.75
322.649	405.75
322.878	422.75
323.108	421.75
323.337	465.75
323.566	468.75
323.795	518.75
324.024	573.75
324.253	659.75
324.482	923.75
324.71	1418.75
324.939	1990.75
325.168	1742.75
325.397	935.75
325.626	648.75
325.855	527.75
326.084	502.75
326.313	472.75
326.542	492.75
326.77	507.75
326.999	611.75
327.228	862.75
327.457	1232.75
327.686	1498.75
327.914	1035.75
328.143	694.75
328.372	614.75
328.6	584.75
328.829	529.75
329.058	538.75
329.287	580.75
329.515	533.75
329.744	515.75
329.972	475.75
330.201	496.75
330.43	525.75
330.658	567.75
330.887	598.75
331.115	582.75
331.344	482.75
331.572	448.75
331.801	473.75
332.03	462.75
332.258	423.75
332.486	430.75
332.715	395.75
332.943	426.75
333.172	409.75
333.4	416.75
333.629	414.75
333.857	450.75
334.085	461.75
334.314	462.75
334.542	480.75
334.771	490.75
334.999	466.75
335.227	452.75
335.455	419.75
335.684	414.75
335.912	413.75
336.14	404.75
336.369	408.75
336.597	407.75
336.825	415.75
337.053	416.75
337.281	401.75
337.51	406.75
337.738	411.75
337.966	412.75
338.194	399.75
338.422	405.75
338.65	415.75
338.878	390.75
339.106	386.75
339.334	399.75
339.562	387.75
339.79	410.75
340.018	378.75
340.246	382.75
340.474	396.75
340.702	414.75
340.93	396.75
341.158	386.75
341.386	388.75
341.614	390.75
341.842	380.75
342.07	382.75
342.298	382.75
342.526	393.75
342.754	387.75
342.981	398.75
343.209	374.75
343.437	388.75
343.665	378.75
343.893	396.75
344.12	403.75
344.348	404.75
344.576	412.75
344.804	426.75
345.031	429.75
345.259	431.75
345.487	423.75
345.714	417.75
345.942	391.75
346.17	404.75
346.397	387.75
346.625	425.75
346.853	380.75
347.08	378.75
347.308	379.75
347.535	392.75
347.763	415.75
347.99	418.75
348.218	415.75
348.445	426.75
348.673	422.75
348.9	379.75
349.128	404.75
349.355	389.75
349.583	365.75
349.81	379.75
350.037	365.75
350.265	372.75
350.492	394.75
350.72	388.75
350.947	375.75
351.174	398.75
351.402	421.75
351.629	402.75
351.856	398.75
352.083	402.75
352.311	424.75
352.538	398.75
352.765	402.75
352.992	392.75
353.22	386.75
353.447	396.75
353.674	380.75
353.901	384.75
354.128	381.75
354.355	372.75
354.583	354.75
354.81	384.75
355.037	380.75
355.264	350.75
355.491	376.75
355.718	370.75
355.945	372.75
356.172	366.75
356.399	362.75
356.626	363.75
356.853	370.75
357.08	371.75
357.307	375.75
357.534	360.75
357.761	384.75
357.988	364.75
358.215	381.75
358.441	364.75
358.668	378.75
358.895	363.75
359.122	374.75
359.349	392.75
359.576	397.75
359.802	423.75
360.029	440.75
360.256	446.75
360.483	438.75
360.709	428.75
360.936	408.75
361.163	414.75
361.39	419.75
361.616	383.75
361.843	380.75
362.07	396.75
362.296	403.75
362.523	410.75
362.749	404.75
362.976	394.75
363.203	376.75
363.429	383.75
363.656	386.75
363.882	400.75
364.109	359.75
364.335	379.75
364.562	384.75
364.788	401.75
365.015	390.75
365.241	370.75
365.468	395.75
365.694	397.75
365.92	393.75
366.147	379.75
366.373	390.75
366.599	403.75
366.826	397.75
367.052	402.75
367.278	388.75
367.505	403.75
367.731	394.75
367.957	408.75
368.184	388.75
368.41	395.75
368.636	399.75
368.862	415.75
369.089	395.75
369.315	388.75
369.541	381.75
369.767	394.75
369.993	379.75
370.219	394.75
370.445	384.75
370.672	392.75
370.898	387.75
371.124	386.75
371.35	375.75
371.576	388.75
371.802	382.75
372.028	391.75
372.254	372.75
372.48	372.75
372.706	386.75
372.932	398.75
373.158	382.75
373.384	404.75
373.61	386.75
373.835	379.75
374.061	388.75
374.287	387.75
374.513	387.75
374.739	404.75
374.965	391.75
375.191	396.75
375.416	409.75
375.642	378.75
375.868	381.75
376.094	419.75
376.319	392.75
376.545	400.75
376.771	378.75
376.997	395.75
377.222	412.75
377.448	395.75
377.674	382.75
377.899	391.75
378.125	380.75
378.35	387.75
378.576	402.75
378.802	374.75
379.027	388.75
379.253	399.75
379.478	393.75
379.704	395.75
379.929	390.75
380.155	407.75
380.38	389.75
380.606	413.75
380.831	383.75
381.057	387.75
381.282	398.75
381.507	400.75
381.733	375.75
381.958	396.75
382.184	398.75
382.409	406.75
382.634	414.75
382.86	405.75
383.085	394.75
383.31	406.75
383.535	407.75
383.761	378.75
383.986	397.75
384.211	405.75
384.436	399.75
384.662	408.75
384.887	413.75
385.112	415.75
385.337	390.75
385.562	418.75
385.787	438.75
386.013	452.75
386.238	431.75
386.463	443.75
386.688	419.75
386.913	426.75
387.138	411.75
387.363	431.75
387.588	422.75
387.813	421.75
388.038	415.75
388.263	413.75
388.488	438.75
388.713	421.75
388.938	418.75
389.163	408.75
389.387	428.75
389.612	414.75
389.837	415.75
390.062	399.75
390.287	413.75
390.512	423.75
390.736	404.75
390.961	436.75
391.186	421.75
391.411	413.75
391.636	413.75
391.86	427.75
392.085	429.75
392.31	426.75
392.534	424.75
392.759	421.75
392.984	432.75
393.208	412.75
393.433	450.75
393.658	450.75
393.882	440.75
394.107	429.75
394.331	431.75
394.556	427.75
394.78	424.75
395.005	430.75
395.229	423.75
395.454	427.75
395.678	426.75
395.903	455.75
396.127	464.75
396.352	472.75
396.576	442.75
396.801	432.75
397.025	453.75
397.249	456.75
397.474	444.75
397.698	446.75
397.922	453.75
398.147	472.75
398.371	459.75
398.595	460.75
398.82	478.75
399.044	454.75
399.268	460.75
399.492	532.75
399.717	532.75
399.941	556.75
400.165	595.75
400.389	585.75
400.613	538.75
400.837	521.75
401.062	497.75
401.286	480.75
401.51	470.75
401.734	486.75
401.958	468.75
402.182	484.75
402.406	509.75
402.63	497.75
402.854	479.75
403.078	514.75
403.302	493.75
403.526	490.75
403.75	502.75
403.974	500.75
404.198	490.75
404.422	517.75
404.645	496.75
404.869	491.75
405.093	519.75
405.317	555.75
405.541	582.75
405.765	562.75
405.988	554.75
406.212	553.75
406.436	572.75
406.66	597.75
406.883	560.75
407.107	570.75
407.331	619.75
407.555	651.75
407.778	675.75
408.002	618.75
408.226	579.75
408.449	576.75
408.673	559.75
408.896	576.75
409.12	647.75
409.344	607.75
409.567	540.75
409.791	518.75
410.014	527.75
410.238	511.75
410.461	521.75
410.685	492.75
410.908	514.75
411.132	552.75
411.355	602.75
411.578	574.75
411.802	517.75
412.025	506.75
412.249	516.75
412.472	531.75
412.695	567.75
412.919	559.75
413.142	522.75
413.365	512.75
413.589	532.75
413.812	494.75
414.035	470.75
414.258	500.75
414.482	453.75
414.705	474.75
414.928	467.75
415.151	477.75
415.374	478.75
415.597	473.75
415.821	456.75
416.044	484.75
416.267	488.75
416.49	485.75
416.713	482.75
416.936	486.75
417.159	481.75
417.382	478.75
417.605	504.75
417.828	514.75
418.051	520.75
418.274	485.75
418.497	502.75
418.72	487.75
418.943	484.75
419.166	478.75
419.389	527.75
419.611	518.75
419.834	534.75
420.057	544.75
420.28	550.75
420.503	485.75
420.726	503.75
420.948	514.75
421.171	584.75
421.394	588.75
421.617	549.75
421.839	538.75
422.062	520.75
422.285	517.75
422.507	590.75
422.73	665.75
422.953	638.75
423.175	571.75
423.398	553.75
423.621	546.75
423.843	558.75
424.066	571.75
424.288	580.75
424.511	588.75
424.733	610.75
424.956	696.75
425.178	689.75
425.401	648.75
425.623	687.75
425.846	615.75
426.068	583.75
426.291	559.75
426.513	571.75
426.735	574.75
426.958	591.75
427.18	683.75
427.402	791.75
427.625	872.75
427.847	792.75
428.069	676.75
428.292	652.75
428.514	575.75
428.736	536.75
428.958	549.75
429.181	543.75
429.403	535.75
429.625	523.75
429.847	559.75
430.069	622.75
430.292	627.75
430.514	548.75
430.736	533.75
430.958	522.75
431.18	494.75
431.402	499.75
431.624	499.75
431.846	480.75
432.068	491.75
432.29	492.75
432.512	489.75
432.734	510.75
432.956	498.75
433.178	520.75
433.4	522.75
433.622	511.75
433.844	508.75
434.066	493.75
434.287	490.75
434.509	478.75
434.731	500.75
434.953	504.75
435.175	518.75
435.397	529.75
435.618	555.75
435.84	597.75
436.062	687.75
436.284	745.75
436.505	655.75
436.727	600.75
436.949	537.75
437.17	528.75
437.392	510.75
437.614	552.75
437.835	582.75
438.057	663.75
438.278	760.75
438.5	768.75
438.721	823.75
438.943	782.75
439.165	642.75
439.386	572.75
439.608	567.75
439.829	588.75
440.05	588.75
440.272	636.75
440.493	625.75
440.715	546.75
440.936	520.75
441.158	500.75
441.379	526.75
441.6	565.75
441.822	563.75
442.043	598.75
442.264	683.75
442.486	723.75
442.707	627.75
442.928	604.75
443.149	578.75
443.371	645.75
443.592	662.75
443.813	719.75
444.034	791.75
444.255	644.75
444.476	598.75
444.698	566.75
444.919	566.75
445.14	683.75
445.361	633.75
445.582	619.75
445.803	678.75
446.024	778.75
446.245	779.75
446.466	697.75
446.687	591.75
446.908	590.75
447.129	540.75
447.35	535.75
447.571	542.75
447.792	518.75
448.013	532.75
448.234	559.75
448.455	632.75
448.675	703.75
448.896	800.75
449.117	709.75
449.338	676.75
449.559	759.75
449.779	815.75
450	689.75
450.221	596.75
450.442	542.75
450.662	537.75
450.883	518.75
451.104	536.75
451.324	527.75
451.545	524.75
451.766	479.75
451.986	490.75
452.207	475.75
452.428	471.75
452.648	465.75
452.869	488.75
453.089	492.75
453.31	509.75
453.53	479.75
453.751	471.75
453.971	470.75
454.192	479.75
454.412	479.75
454.633	492.75
454.853	474.75
455.073	459.75
455.294	492.75
455.514	548.75
455.734	540.75
455.955	483.75
456.175	460.75
456.395	452.75
456.616	455.75
456.836	426.75
457.056	424.75
457.276	421.75
457.497	419.75
457.717	444.75
457.937	457.75
458.157	466.75
458.377	454.75
458.598	491.75
458.818	541.75
459.038	634.75
459.258	616.75
459.478	543.75
459.698	485.75
459.918	486.75
460.138	470.75
460.358	494.75
460.578	477.75
460.798	491.75
461.018	496.75
461.238	488.75
461.458	482.75
461.678	489.75
461.898	472.75
462.118	475.75
462.338	500.75
462.558	484.75
462.777	483.75
462.997	501.75
463.217	504.75
463.437	532.75
463.657	527.75
463.876	521.75
464.096	526.75
464.316	518.75
464.536	511.75
464.755	529.75
464.975	536.75
465.195	575.75
465.414	668.75
465.634	604.75
465.854	537.75
466.073	515.75
466.293	505.75
466.512	505.75
466.732	469.75
466.951	474.75
467.171	475.75
467.391	474.75
467.61	495.75
467.829	495.75
468.049	484.75
468.268	495.75
468.488	480.75
468.707	493.75
468.927	457.75
469.146	445.75
469.365	470.75
469.585	473.75
469.804	489.75
470.023	493.75
470.243	478.75
470.462	511.75
470.681	510.75
470.901	516.75
471.12	504.75
471.339	494.75
471.558	485.75
471.777	474.75
471.997	479.75
472.216	492.75
472.435	542.75
472.654	533.75
472.873	524.75
473.092	495.75
473.311	504.75
473.53	491.75
473.749	503.75
473.968	547.75
474.187	645.75
474.406	655.75
474.625	568.75
474.844	527.75
475.063	504.75
475.282	500.75
475.501	480.75
475.72	511.75
475.939	505.75
476.158	499.75
476.377	491.75
476.596	499.75
476.814	530.75
477.033	512.75
477.252	552.75
477.471	520.75
477.69	516.75
477.908	526.75
478.127	527.75
478.346	538.75
478.564	532.75
478.783	564.75
479.002	564.75
479.22	572.75
479.439	595.75
479.658	614.75
479.876	613.75
480.095	617.75
480.313	656.75
480.532	612.75
480.751	626.75
480.969	600.75
481.188	648.75
481.406	726.75
481.624	648.75
481.843	595.75
482.061	591.75
482.28	586.75
482.498	600.75
482.717	593.75
482.935	584.75
483.153	583.75
483.372	587.75
483.59	556.75
483.808	599.75
484.027	576.75
484.245	556.75
484.463	586.75
484.681	583.75
484.9	609.75
485.118	587.75
485.336	608.75
485.554	586.75
485.772	616.75
485.99	599.75
486.209	613.75
486.427	603.75
486.645	654.75
486.863	650.75
487.081	619.75
487.299	634.75
487.517	639.75
487.735	651.75
487.953	619.75
488.171	652.75
488.389	643.75
488.607	650.75
488.825	626.75
489.043	638.75
489.261	644.75
489.479	664.75
489.696	638.75
489.914	646.75
490.132	670.75
490.35	658.75
490.568	682.75
490.786	694.75
491.003	694.75
491.221	724.75
491.439	710.75
491.657	707.75
491.874	754.75
492.092	739.75
492.31	755.75
492.527	720.75
492.745	734.75
492.963	735.75
493.18	772.75
493.398	757.75
493.615	775.75
493.833	790.75
494.05	784.75
494.268	776.75
494.485	755.75
494.703	771.75
494.92	773.75
495.138	782.75
495.355	762.75
495.573	757.75
495.79	770.75
496.008	774.75
496.225	771.75
496.442	764.75
496.66	768.75
496.877	763.75
497.094	763.75
497.312	793.75
497.529	755.75
497.746	805.75
497.963	791.75
498.181	825.75
498.398	820.75
498.615	842.75
498.832	855.75
499.049	848.75
499.267	847.75
499.484	852.75
499.701	898.75
499.918	907.75
500.135	930.75
500.352	951.75
500.569	975.75
500.786	967.75
501.003	977.75
501.22	943.75
501.437	955.75
501.654	918.75
501.871	923.75
502.088	912.75
502.305	880.75
502.522	852.75
502.739	835.75
502.956	812.75
503.172	802.75
503.389	801.75
503.606	788.75
503.823	796.75
504.04	802.75
504.256	772.75
504.473	767.75
504.69	768.75
504.907	765.75
505.123	726.75
505.34	727.75
505.557	762.75
505.773	744.75
505.99	747.75
506.207	733.75
506.423	746.75
506.64	723.75
506.856	715.75
507.073	735.75
507.289	733.75
507.506	721.75
507.722	747.75
507.939	733.75
508.155	736.75
508.372	724.75
508.588	711.75
508.805	677.75
509.021	718.75
509.238	704.75
509.454	729.75
509.67	688.75
509.887	686.75
510.103	714.75
510.319	730.75
510.536	824.75
510.752	1350.75
510.968	1118.75
511.184	756.75
511.401	696.75
511.617	686.75
511.833	671.75
512.049	669.75
512.265	672.75
512.481	688.75
512.698	674.75
512.914	653.75
513.13	662.75
513.346	668.75
513.562	678.75
513.778	659.75
513.994	687.75
514.21	675.75
514.426	703.75
514.642	724.75
514.858	798.75
515.074	821.75
515.29	989.75
515.506	1442.75
515.721	1199.75
515.937	812.75
516.153	735.75
516.369	728.75
516.585	690.75
516.801	687.75
517.016	677.75
517.232	676.75
517.448	675.75
517.664	685.75
517.879	676.75
518.095	672.75
518.311	659.75
518.527	658.75
518.742	680.75
518.958	675.75
519.173	651.75
519.389	678.75
519.605	675.75
519.82	661.75
520.036	673.75
520.251	694.75
520.467	747.75
520.682	731.75
520.898	736.75
521.113	774.75
521.329	804.75
521.544	890.75
521.76	1165.75
521.975	1860.75
522.19	1900.75
522.406	1046.75
522.621	790.75
522.836	692.75
523.052	658.75
523.267	664.75
523.482	639.75
523.698	609.75
523.913	618.75
524.128	618.75
524.343	627.75
524.559	593.75
524.774	599.75
524.989	587.75
525.204	591.75
525.419	582.75
525.634	583.75
525.849	566.75
526.064	567.75
526.28	559.75
526.495	548.75
526.71	557.75
526.925	547.75
527.14	560.75
527.355	534.75
527.57	536.75
527.785	546.75
527.999	564.75
528.214	539.75
528.429	560.75
528.644	564.75
528.859	556.75
529.074	550.75
529.289	584.75
529.503	681.75
529.718	637.75
529.933	586.75
530.148	584.75
530.363	580.75
530.577	542.75
530.792	528.75
531.007	535.75
531.221	546.75
531.436	520.75
531.651	558.75
531.865	507.75
532.08	514.75
532.295	521.75
532.509	517.75
532.724	506.75
532.938	510.75
533.153	493.75
533.367	526.75
533.582	522.75
533.796	515.75
534.011	505.75
534.225	516.75
534.44	519.75
534.654	523.75
534.868	514.75
535.083	516.75
535.297	504.75
535.511	522.75
535.726	512.75
535.94	509.75
536.154	502.75
536.369	496.75
536.583	477.75
536.797	494.75
537.011	468.75
537.225	479.75
537.44	495.75
537.654	526.75
537.868	500.75
538.082	489.75
538.296	500.75
538.51	502.75
538.724	496.75
538.938	525.75
539.153	504.75
539.367	533.75
539.581	525.75
539.795	482.75
540.009	478.75
540.222	487.75
540.436	488.75
540.65	494.75
540.864	491.75
541.078	517.75
541.292	506.75
541.506	514.75
541.72	496.75
541.934	500.75
542.147	496.75
542.361	496.75
542.575	493.75
542.789	481.75
543.002	499.75
543.216	487.75
543.43	498.75
543.644	510.75
543.857	483.75
544.071	495.75
544.285	483.75
544.498	493.75
544.712	496.75
544.925	491.75
545.139	464.75
545.352	478.75
545.566	479.75
545.779	469.75
545.993	441.75
546.206	491.75
546.42	482.75
546.633	469.75
546.847	469.75
547.06	477.75
547.274	479.75
547.487	480.75
547.7	475.75
547.914	467.75
548.127	459.75
548.34	464.75
548.554	485.75
548.767	460.75
548.98	456.75
549.193	462.75
549.407	478.75
549.62	447.75
549.833	445.75
550.046	447.75
550.259	475.75
550.473	471.75
550.686	476.75
550.899	444.75
551.112	461.75
551.325	432.75
551.538	453.75
551.751	450.75
551.964	436.75
552.177	442.75
552.39	471.75
552.603	431.75
552.816	472.75
553.029	472.75
553.242	468.75
553.455	470.75
553.667	473.75
553.88	485.75
554.093	460.75
554.306	473.75
554.519	464.75
554.732	454.75
554.944	454.75
555.157	450.75
555.37	447.75
555.583	458.75
555.795	461.75
556.008	448.75
556.221	439.75
556.433	420.75
556.646	414.75
556.859	421.75
557.071	429.75
557.284	423.75
557.496	427.75
557.709	431.75
557.921	418.75
558.134	413.75
558.346	423.75
558.559	418.75
558.771	419.75
558.984	423.75
559.196	415.75
559.409	423.75
559.621	443.75
559.833	414.75
560.046	433.75
560.258	406.75
560.47	416.75
560.683	419.75
560.895	404.75
561.107	415.75
561.32	407.75
561.532	416.75
561.744	415.75
561.956	407.75
562.168	424.75
562.381	422.75
562.593	399.75
562.805	418.75
563.017	407.75
563.229	410.75
563.441	427.75
563.653	406.75
563.865	418.75
564.077	414.75
564.289	438.75
564.501	421.75
564.713	395.75
564.925	421.75
565.137	425.75
565.349	407.75
565.561	419.75
565.773	454.75
565.985	447.75
566.197	442.75
566.408	444.75
566.62	460.75
566.832	457.75
567.044	472.75
567.255	466.75
567.467	471.75
567.679	499.75
567.891	469.75
568.102	477.75
568.314	475.75
568.526	464.75
568.737	442.75
568.949	423.75
569.161	427.75
569.372	421.75
569.584	406.75
569.795	425.75
570.007	413.75
570.218	459.75
570.43	461.75
570.641	407.75
570.853	396.75
571.064	393.75
571.276	390.75
571.487	374.75
571.698	378.75
571.91	371.75
572.121	384.75
572.333	387.75
572.544	377.75
572.755	378.75
572.966	366.75
573.178	379.75
573.389	372.75
573.6	351.75
573.811	380.75
574.023	361.75
574.234	342.75
574.445	365.75
574.656	359.75
574.867	358.75
575.078	356.75
575.289	351.75
575.501	345.75
575.712	336.75
575.923	336.75
576.134	365.75
576.345	349.75
576.556	348.75
576.767	341.75
576.978	331.75
577.188	326.75
577.399	335.75
577.61	337.75
577.821	338.75
578.032	358.75
578.243	373.75
578.454	642.75
578.665	465.75
578.875	354.75
579.086	344.75
579.297	328.75
579.508	331.75
579.718	332.75
579.929	331.75
580.14	320.75
580.35	319.75
580.561	328.75
580.772	326.75
580.982	317.75
581.193	308.75
581.403	314.75
581.614	299.75
581.825	324.75
582.035	323.75
582.246	327.75
582.456	323.75
582.667	322.75
582.877	320.75
583.087	313.75
583.298	310.75
583.508	310.75
583.719	322.75
583.929	292.75
584.139	317.75
584.35	317.75
584.56	303.75
584.77	324.75
584.981	319.75
585.191	321.75
585.401	318.75
585.611	290.75
585.821	322.75
586.032	314.75
586.242	304.75
586.452	320.75
586.662	298.75
586.872	299.75
587.082	308.75
587.292	339.75
587.502	320.75
587.713	306.75
587.923	296.75
588.133	294.75
588.343	306.75
588.553	312.75
588.762	304.75
588.972	321.75
589.182	313.75
589.392	326.75
589.602	329.75
589.812	312.75
590.022	318.75
590.232	304.75
590.441	305.75
590.651	291.75
590.861	301.75
591.071	307.75
591.281	314.75
591.49	310.75
591.7	309.75
591.91	310.75
592.119	295.75
592.329	319.75
592.539	317.75
592.748	307.75
592.958	303.75
593.167	319.75
593.377	334.75
593.587	306.75
593.796	333.75
594.006	325.75
594.215	294.75
594.424	315.75
594.634	295.75
594.843	303.75
595.053	295.75
595.262	303.75
595.472	308.75
595.681	285.75
595.89	290.75
596.1	302.75
596.309	277.75
596.518	290.75
596.727	296.75
596.937	284.75
597.146	273.75
597.355	297.75
597.564	273.75
597.774	299.75
597.983	291.75
598.192	274.75
598.401	258.75
598.61	279.75
598.819	258.75
599.028	255.75
599.237	290.75
599.446	278.75
599.655	294.75
599.864	277.75
600.073	275.75
600.282	276.75
600.491	272.75
600.7	263.75
600.909	264.75
601.118	272.75
601.327	267.75
601.536	278.75
601.745	259.75
601.953	271.75
602.162	266.75
602.371	272.75
602.58	257.75
602.789	271.75
602.997	286.75
603.206	272.75
603.415	269.75
603.623	270.75
603.832	262.75
604.041	247.75
604.249	273.75
604.458	268.75
604.666	255.75
604.875	262.75
605.084	270.75
605.292	244.75
605.501	285.75
605.709	266.75
605.918	263.75
606.126	267.75
606.334	253.75
606.543	277.75
606.751	235.75
606.96	242.75
607.168	262.75
607.376	259.75
607.585	263.75
607.793	257.75
608.001	261.75
608.21	259.75
608.418	254.75
608.626	257.75
608.834	269.75
609.043	269.75
609.251	261.75
609.459	254.75
609.667	256.75
609.875	243.75
610.083	278.75
610.291	254.75
610.499	255.75
610.707	252.75
610.916	261.75
611.124	265.75
611.332	260.75
611.54	242.75
611.748	268.75
611.955	243.75
612.163	249.75
612.371	253.75
612.579	261.75
612.787	256.75
612.995	250.75
613.203	264.75
613.411	259.75
613.618	258.75
613.826	243.75
614.034	241.75
614.242	236.75
614.449	260.75
614.657	253.75
614.865	257.75
615.072	243.75
615.28	247.75
615.488	259.75
615.695	234.75
615.903	239.75
616.111	264.75
616.318	254.75
616.526	260.75
616.733	250.75
616.941	246.75
617.148	253.75
617.356	242.75
617.563	246.75
617.771	250.75
617.978	243.75
618.185	236.75
618.393	258.75
618.6	247.75
618.807	229.75
619.015	256.75
619.222	244.75
619.429	236.75
619.637	245.75
619.844	239.75
620.051	230.75
620.258	232.75
620.466	224.75
620.673	222.75
620.88	229.75
621.087	207.75
621.294	248.75
621.501	222.75
621.708	219.75
621.915	235.75
622.122	224.75
622.329	220.75
622.536	239.75
622.743	227.75
622.95	227.75
623.157	248.75
623.364	228.75
623.571	224.75
623.778	229.75
623.985	220.75
624.192	223.75
624.399	233.75
624.606	230.75
624.812	227.75
625.019	216.75
625.226	218.75
625.433	222.75
625.639	227.75
625.846	223.75
626.053	209.75
626.259	232.75
626.466	226.75
626.673	233.75
626.879	223.75
627.086	204.75
627.293	216.75
627.499	203.75
627.706	217.75
627.912	222.75
628.119	191.75
628.325	222.75
628.532	211.75
628.738	195.75
628.945	213.75
629.151	213.75
629.357	193.75
629.564	204.75
629.77	204.75
629.976	214.75
630.183	194.75
630.389	199.75
630.595	196.75
630.802	197.75
631.008	214.75
631.214	203.75
631.42	205.75
631.627	196.75
631.833	207.75
632.039	186.75
632.245	203.75
632.451	197.75
632.657	199.75
632.863	216.75
633.069	197.75
633.275	208.75
633.481	203.75
633.688	204.75
633.893	205.75
634.099	197.75
634.305	196.75
634.511	200.75
634.717	191.75
634.923	191.75
635.129	188.75
635.335	191.75
635.541	190.75
635.747	185.75
635.952	194.75
636.158	195.75
636.364	200.75
636.57	198.75
636.775	189.75
636.981	194.75
637.187	196.75
637.392	192.75
637.598	184.75
637.804	183.75
638.009	196.75
638.215	172.75
638.421	184.75
638.626	182.75
638.832	189.75
639.037	181.75
639.243	187.75
639.448	191.75
639.654	165.75
639.859	183.75
640.065	186.75
640.27	182.75
640.475	163.75
640.681	184.75
640.886	190.75
641.091	182.75
641.297	183.75
641.502	176.75
641.707	172.75
641.913	175.75
642.118	193.75
642.323	183.75
642.528	183.75
642.733	179.75
642.939	167.75
643.144	175.75
643.349	183.75
643.554	182.75
643.759	170.75
643.964	160.75
644.169	175.75
644.374	171.75
644.579	180.75
644.784	164.75
644.989	179.75
645.194	164.75
645.399	168.75
645.604	181.75
645.809	175.75
646.014	168.75
646.219	171.75
646.423	160.75
646.628	159.75
646.833	180.75
647.038	162.75
647.243	170.75
647.447	163.75
647.652	173.75
647.857	181.75
648.062	177.75
648.266	178.75
648.471	162.75
648.676	175.75
648.88	173.75
649.085	188.75
649.289	186.75
649.494	157.75
649.698	185.75
649.903	180.75
650.107	178.75
650.312	158.75
650.516	155.75
650.721	160.75
650.925	159.75
651.13	152.75
651.334	159.75
651.539	176.75
651.743	152.75
651.947	151.75
652.152	149.75
652.356	140.75
652.56	162.75
652.764	148.75
652.969	149.75
653.173	144.75
653.377	137.75
653.581	145.75
653.785	140.75
653.99	142.75
654.194	127.75
654.398	138.75
654.602	150.75
654.806	150.75
655.01	138.75
655.214	138.75
655.418	132.75
655.622	117.75
655.826	135.75
656.03	129.75
656.234	142.75
656.438	142.75
656.642	123.75
656.846	138.75
657.049	143.75
657.253	120.75
657.457	116.75
657.661	106.75
657.865	111.75
658.068	120.75
658.272	105.75
658.476	108.75
658.68	107.75
658.883	107.75
659.087	100.75
659.291	95.75
659.494	89.75
659.698	92.75
659.901	77.75
660.105	96.75
660.309	100.75
660.512	88.75
660.716	93.75
660.919	97.75
661.123	97.75
661.326	102.75
661.53	89.75
661.733	88.75
661.936	86.75
662.14	91.75
662.343	90.75
662.546	89.75
662.75	85.75
662.953	87.75
663.156	94.75
663.36	92.75
663.563	79.75
663.766	88.75
663.969	84.75
664.173	92.75
664.376	82.75
664.579	86.75
664.782	82.75
664.985	87.75
665.188	79.75
665.391	73.75
665.594	92.75
665.797	86.75
666	81.75
666.203	87.75
666.406	80.75
666.609	90.75
666.812	83.75
667.015	73.75
667.218	79.75
667.421	78.75
667.624	91.75
667.827	77.75
668.03	83.75
668.232	81.75
668.435	87.75
668.638	88.75
668.841	83.75
669.043	90.75
669.246	72.75
669.449	91.75
669.651	91.75
669.854	83.75
670.057	85.75
670.259	84.75
670.462	96.75
670.665	76.75
670.867	71.75
671.07	87.75
671.272	75.75
671.475	76.75
671.677	90.75
671.88	89.75
672.082	68.75
672.284	80.75
672.487	88.75
672.689	89.75
672.892	78.75
