Data from 1970.PennyLincolnUp.Lamp.En5.5.200Scan.071719.P1._HRD10591_15-13-01-844.txt Node
Date: Thu Jul 18 15:13:01 EDT 2019
User: cochatt
Spectrometer: HR+D1059
Trigger mode: 1
Integration Time (sec): 1.000000E-1
Scans to average: 1
Electric dark correction enabled: true
Nonlinearity correction enabled: false
Boxcar width: 0
XAxis mode: Wavelengths
Number of Pixels in Spectrum: 2048
>>>>>Begin Spectral Data<<<<<
223.165	-24.19
223.4	-24.19
223.635	-24.19
223.869	-9.19
224.104	-5.19
224.338	-19.19
224.573	-26.19
224.808	-4.19
225.042	-9.19
225.277	-2.19
225.511	-8.19
225.746	8.81
225.98	-0.19
226.215	2.81
226.449	13.81
226.683	19.81
226.918	39.81
227.152	22.81
227.387	26.81
227.621	35.81
227.856	40.81
228.09	48.81
228.324	67.81
228.559	57.81
228.793	57.81
229.027	94.81
229.262	110.81
229.496	107.81
229.73	136.81
229.964	158.81
230.199	150.81
230.433	130.81
230.667	121.81
230.901	115.81
231.136	103.81
231.37	105.81
231.604	112.81
231.838	118.81
232.072	119.81
232.306	113.81
232.541	103.81
232.775	113.81
233.009	116.81
233.243	120.81
233.477	126.81
233.711	117.81
233.945	94.81
234.179	108.81
234.413	119.81
234.647	128.81
234.881	112.81
235.115	118.81
235.349	122.81
235.583	117.81
235.817	129.81
236.051	129.81
236.285	122.81
236.519	122.81
236.753	142.81
236.987	159.81
237.221	181.81
237.455	256.81
237.689	192.81
237.922	140.81
238.156	154.81
238.39	133.81
238.624	124.81
238.858	126.81
239.091	129.81
239.325	136.81
239.559	135.81
239.793	122.81
240.027	144.81
240.26	146.81
240.494	155.81
240.728	166.81
240.961	170.81
241.195	153.81
241.429	140.81
241.662	154.81
241.896	121.81
242.13	142.81
242.363	138.81
242.597	135.81
242.83	130.81
243.064	150.81
243.298	158.81
243.531	150.81
243.765	151.81
243.998	143.81
244.232	132.81
244.465	160.81
244.699	150.81
244.932	146.81
245.166	145.81
245.399	158.81
245.633	148.81
245.866	163.81
246.099	163.81
246.333	162.81
246.566	152.81
246.8	164.81
247.033	166.81
247.266	145.81
247.5	160.81
247.733	173.81
247.966	170.81
248.2	187.81
248.433	186.81
248.666	176.81
248.899	190.81
249.133	195.81
249.366	240.81
249.599	212.81
249.832	197.81
250.066	188.81
250.299	173.81
250.532	185.81
250.765	215.81
250.998	231.81
251.231	236.81
251.465	219.81
251.698	228.81
251.931	228.81
252.164	235.81
252.397	216.81
252.63	207.81
252.863	217.81
253.096	218.81
253.329	245.81
253.562	260.81
253.795	233.81
254.028	218.81
254.261	215.81
254.494	234.81
254.727	273.81
254.96	293.81
255.193	273.81
255.426	244.81
255.659	236.81
255.892	227.81
256.124	244.81
256.357	224.81
256.59	219.81
256.823	203.81
257.056	210.81
257.289	220.81
257.521	218.81
257.754	226.81
257.987	227.81
258.22	211.81
258.452	202.81
258.685	212.81
258.918	204.81
259.151	205.81
259.383	211.81
259.616	226.81
259.849	235.81
260.081	258.81
260.314	276.81
260.547	259.81
260.779	236.81
261.012	244.81
261.244	238.81
261.477	248.81
261.71	232.81
261.942	229.81
262.175	248.81
262.407	248.81
262.64	218.81
262.872	224.81
263.105	220.81
263.337	211.81
263.57	220.81
263.802	201.81
264.035	202.81
264.267	219.81
264.499	207.81
264.732	212.81
264.964	209.81
265.197	215.81
265.429	213.81
265.661	215.81
265.894	210.81
266.126	204.81
266.358	217.81
266.591	198.81
266.823	224.81
267.055	217.81
267.287	217.81
267.52	201.81
267.752	216.81
267.984	229.81
268.216	213.81
268.448	223.81
268.681	242.81
268.913	235.81
269.145	252.81
269.377	267.81
269.609	256.81
269.841	280.81
270.073	269.81
270.306	294.81
270.538	308.81
270.77	310.81
271.002	299.81
271.234	288.81
271.466	302.81
271.698	324.81
271.93	288.81
272.162	323.81
272.394	311.81
272.626	290.81
272.858	284.81
273.09	273.81
273.322	271.81
273.553	245.81
273.785	273.81
274.017	276.81
274.249	267.81
274.481	260.81
274.713	275.81
274.945	278.81
275.176	278.81
275.408	259.81
275.64	245.81
275.872	238.81
276.104	252.81
276.335	260.81
276.567	280.81
276.799	277.81
277.031	299.81
277.262	310.81
277.494	316.81
277.726	298.81
277.957	306.81
278.189	284.81
278.421	276.81
278.652	281.81
278.884	264.81
279.115	277.81
279.347	279.81
279.579	346.81
279.81	400.81
280.042	368.81
280.273	329.81
280.505	338.81
280.736	298.81
280.968	293.81
281.199	258.81
281.431	261.81
281.662	248.81
281.894	261.81
282.125	264.81
282.356	282.81
282.588	312.81
282.819	300.81
283.051	274.81
283.282	262.81
283.513	261.81
283.745	280.81
283.976	263.81
284.207	276.81
284.439	290.81
284.67	283.81
284.901	275.81
285.132	277.81
285.364	283.81
285.595	288.81
285.826	247.81
286.057	264.81
286.288	269.81
286.52	259.81
286.751	258.81
286.982	273.81
287.213	261.81
287.444	265.81
287.675	266.81
287.906	283.81
288.138	290.81
288.369	296.81
288.6	308.81
288.831	291.81
289.062	271.81
289.293	271.81
289.524	267.81
289.755	274.81
289.986	262.81
290.217	269.81
290.448	261.81
290.679	277.81
290.91	262.81
291.141	262.81
291.371	284.81
291.602	284.81
291.833	268.81
292.064	281.81
292.295	273.81
292.526	273.81
292.757	273.81
292.987	289.81
293.218	270.81
293.449	292.81
293.68	259.81
293.91	275.81
294.141	273.81
294.372	271.81
294.603	275.81
294.833	284.81
295.064	271.81
295.295	286.81
295.525	262.81
295.756	266.81
295.987	287.81
296.217	322.81
296.448	326.81
296.679	265.81
296.909	288.81
297.14	269.81
297.37	292.81
297.601	260.81
297.831	292.81
298.062	280.81
298.292	277.81
298.523	288.81
298.753	280.81
298.984	284.81
299.214	298.81
299.445	297.81
299.675	308.81
299.905	308.81
300.136	310.81
300.366	288.81
300.597	313.81
300.827	314.81
301.057	320.81
301.288	299.81
301.518	309.81
301.748	299.81
301.979	317.81
302.209	301.81
302.439	321.81
302.669	312.81
302.9	309.81
303.13	308.81
303.36	332.81
303.59	322.81
303.82	316.81
304.051	318.81
304.281	314.81
304.511	301.81
304.741	298.81
304.971	301.81
305.201	297.81
305.431	292.81
305.661	301.81
305.891	315.81
306.121	321.81
306.352	326.81
306.582	319.81
306.812	286.81
307.042	331.81
307.272	316.81
307.502	309.81
307.731	312.81
307.961	330.81
308.191	305.81
308.421	328.81
308.651	315.81
308.881	329.81
309.111	346.81
309.341	338.81
309.571	357.81
309.8	341.81
310.03	353.81
310.26	359.81
310.49	368.81
310.72	374.81
310.949	405.81
311.179	389.81
311.409	378.81
311.639	369.81
311.868	381.81
312.098	368.81
312.328	384.81
312.557	394.81
312.787	406.81
313.017	422.81
313.246	385.81
313.476	380.81
313.706	351.81
313.935	380.81
314.165	378.81
314.394	419.81
314.624	390.81
314.853	404.81
315.083	369.81
315.312	375.81
315.542	360.81
315.771	364.81
316.001	369.81
316.23	386.81
316.46	375.81
316.689	392.81
316.919	384.81
317.148	372.81
317.377	397.81
317.607	386.81
317.836	390.81
318.065	422.81
318.295	431.81
318.524	384.81
318.753	372.81
318.983	390.81
319.212	383.81
319.441	378.81
319.67	391.81
319.9	377.81
320.129	401.81
320.358	378.81
320.587	373.81
320.816	394.81
321.046	390.81
321.275	403.81
321.504	387.81
321.733	402.81
321.962	421.81
322.191	410.81
322.42	431.81
322.649	456.81
322.878	472.81
323.108	507.81
323.337	514.81
323.566	556.81
323.795	599.81
324.024	657.81
324.253	838.81
324.482	1267.81
324.71	1944.81
324.939	2817.81
325.168	2424.81
325.397	1217.81
325.626	741.81
325.855	589.81
326.084	543.81
326.313	544.81
326.542	536.81
326.77	620.81
326.999	734.81
327.228	1061.81
327.457	1736.81
327.686	2052.81
327.914	1351.81
328.143	890.81
328.372	736.81
328.6	651.81
328.829	627.81
329.058	627.81
329.287	626.81
329.515	596.81
329.744	525.81
329.972	536.81
330.201	539.81
330.43	595.81
330.658	636.81
330.887	665.81
331.115	642.81
331.344	548.81
331.572	506.81
331.801	504.81
332.03	514.81
332.258	460.81
332.486	472.81
332.715	451.81
332.943	465.81
333.172	442.81
333.4	458.81
333.629	429.81
333.857	448.81
334.085	469.81
334.314	482.81
334.542	507.81
334.771	544.81
334.999	496.81
335.227	458.81
335.455	440.81
335.684	464.81
335.912	436.81
336.14	446.81
336.369	418.81
336.597	453.81
336.825	434.81
337.053	439.81
337.281	446.81
337.51	433.81
337.738	424.81
337.966	438.81
338.194	448.81
338.422	465.81
338.65	438.81
338.878	421.81
339.106	404.81
339.334	411.81
339.562	417.81
339.79	424.81
340.018	421.81
340.246	415.81
340.474	432.81
340.702	413.81
340.93	419.81
341.158	414.81
341.386	411.81
341.614	431.81
341.842	430.81
342.07	400.81
342.298	404.81
342.526	410.81
342.754	409.81
342.981	418.81
343.209	397.81
343.437	399.81
343.665	416.81
343.893	392.81
344.12	419.81
344.348	403.81
344.576	428.81
344.804	455.81
345.031	444.81
345.259	453.81
345.487	425.81
345.714	420.81
345.942	423.81
346.17	434.81
346.397	437.81
346.625	431.81
346.853	398.81
347.08	410.81
347.308	427.81
347.535	414.81
347.763	449.81
347.99	427.81
348.218	440.81
348.445	447.81
348.673	454.81
348.9	425.81
349.128	412.81
349.355	389.81
349.583	405.81
349.81	412.81
350.037	391.81
350.265	404.81
350.492	408.81
350.72	415.81
350.947	409.81
351.174	413.81
351.402	449.81
351.629	422.81
351.856	415.81
352.083	444.81
352.311	459.81
352.538	469.81
352.765	470.81
352.992	442.81
353.22	418.81
353.447	415.81
353.674	402.81
353.901	410.81
354.128	412.81
354.355	368.81
354.583	385.81
354.81	370.81
355.037	402.81
355.264	388.81
355.491	374.81
355.718	384.81
355.945	371.81
356.172	384.81
356.399	377.81
356.626	388.81
356.853	404.81
357.08	378.81
357.307	378.81
357.534	399.81
357.761	402.81
357.988	374.81
358.215	390.81
358.441	410.81
358.668	418.81
358.895	410.81
359.122	411.81
359.349	414.81
359.576	428.81
359.802	470.81
360.029	503.81
360.256	508.81
360.483	482.81
360.709	452.81
360.936	429.81
361.163	418.81
361.39	450.81
361.616	436.81
361.843	440.81
362.07	426.81
362.296	424.81
362.523	452.81
362.749	411.81
362.976	408.81
363.203	429.81
363.429	416.81
363.656	414.81
363.882	424.81
364.109	413.81
364.335	400.81
364.562	405.81
364.788	414.81
365.015	405.81
365.241	418.81
365.468	409.81
365.694	397.81
365.92	404.81
366.147	407.81
366.373	394.81
366.599	401.81
366.826	390.81
367.052	400.81
367.278	403.81
367.505	404.81
367.731	399.81
367.957	395.81
368.184	410.81
368.41	424.81
368.636	447.81
368.862	420.81
369.089	418.81
369.315	430.81
369.541	404.81
369.767	411.81
369.993	414.81
370.219	415.81
370.445	393.81
370.672	412.81
370.898	408.81
371.124	417.81
371.35	400.81
371.576	392.81
371.802	396.81
372.028	414.81
372.254	405.81
372.48	406.81
372.706	394.81
372.932	410.81
373.158	403.81
373.384	394.81
373.61	416.81
373.835	404.81
374.061	438.81
374.287	426.81
374.513	416.81
374.739	414.81
374.965	425.81
375.191	396.81
375.416	404.81
375.642	423.81
375.868	412.81
376.094	449.81
376.319	404.81
376.545	407.81
376.771	409.81
376.997	425.81
377.222	399.81
377.448	404.81
377.674	402.81
377.899	391.81
378.125	390.81
378.35	396.81
378.576	388.81
378.802	401.81
379.027	420.81
379.253	399.81
379.478	392.81
379.704	389.81
379.929	425.81
380.155	426.81
380.38	434.81
380.606	420.81
380.831	422.81
381.057	430.81
381.282	426.81
381.507	418.81
381.733	417.81
381.958	415.81
382.184	395.81
382.409	425.81
382.634	430.81
382.86	439.81
383.085	438.81
383.31	423.81
383.535	434.81
383.761	434.81
383.986	435.81
384.211	430.81
384.436	436.81
384.662	433.81
384.887	455.81
385.112	468.81
385.337	436.81
385.562	441.81
385.787	465.81
386.013	456.81
386.238	468.81
386.463	477.81
386.688	477.81
386.913	469.81
387.138	456.81
387.363	455.81
387.588	445.81
387.813	445.81
388.038	435.81
388.263	450.81
388.488	470.81
388.713	443.81
388.938	428.81
389.163	421.81
389.387	432.81
389.612	430.81
389.837	435.81
390.062	434.81
390.287	443.81
390.512	430.81
390.736	444.81
390.961	441.81
391.186	422.81
391.411	438.81
391.636	440.81
391.86	453.81
392.085	473.81
392.31	469.81
392.534	485.81
392.759	515.81
392.984	588.81
393.208	730.81
393.433	1084.81
393.658	1164.81
393.882	681.81
394.107	524.81
394.331	477.81
394.556	478.81
394.78	477.81
395.005	477.81
395.229	460.81
395.454	492.81
395.678	468.81
395.903	470.81
396.127	524.81
396.352	602.81
396.576	592.81
396.801	704.81
397.025	911.81
397.249	736.81
397.474	536.81
397.698	499.81
397.922	511.81
398.147	513.81
398.371	520.81
398.595	506.81
398.82	504.81
399.044	500.81
399.268	502.81
399.492	533.81
399.717	549.81
399.941	571.81
400.165	608.81
400.389	610.81
400.613	555.81
400.837	534.81
401.062	503.81
401.286	540.81
401.51	523.81
401.734	500.81
401.958	521.81
402.182	537.81
402.406	506.81
402.63	507.81
402.854	516.81
403.078	503.81
403.302	521.81
403.526	537.81
403.75	501.81
403.974	515.81
404.198	508.81
404.422	529.81
404.645	530.81
404.869	532.81
405.093	562.81
405.317	603.81
405.541	609.81
405.765	587.81
405.988	567.81
406.212	570.81
406.436	586.81
406.66	608.81
406.883	580.81
407.107	606.81
407.331	653.81
407.555	710.81
407.778	698.81
408.002	644.81
408.226	593.81
408.449	580.81
408.673	595.81
408.896	621.81
409.12	658.81
409.344	614.81
409.567	568.81
409.791	546.81
410.014	537.81
410.238	528.81
410.461	546.81
410.685	544.81
410.908	555.81
411.132	600.81
411.355	622.81
411.578	604.81
411.802	561.81
412.025	548.81
412.249	550.81
412.472	546.81
412.695	574.81
412.919	567.81
413.142	538.81
413.365	526.81
413.589	518.81
413.812	492.81
414.035	508.81
414.258	500.81
414.482	505.81
414.705	497.81
414.928	481.81
415.151	496.81
415.374	501.81
415.597	500.81
415.821	484.81
416.044	500.81
416.267	483.81
416.49	485.81
416.713	521.81
416.936	507.81
417.159	499.81
417.382	503.81
417.605	500.81
417.828	516.81
418.051	531.81
418.274	522.81
418.497	498.81
418.72	504.81
418.943	504.81
419.166	513.81
419.389	539.81
419.611	540.81
419.834	529.81
420.057	539.81
420.28	539.81
420.503	532.81
420.726	544.81
420.948	541.81
421.171	609.81
421.394	614.81
421.617	572.81
421.839	550.81
422.062	548.81
422.285	562.81
422.507	630.81
422.73	756.81
422.953	774.81
423.175	638.81
423.398	570.81
423.621	556.81
423.843	583.81
424.066	557.81
424.288	572.81
424.511	593.81
424.733	661.81
424.956	747.81
425.178	713.81
425.401	714.81
425.623	737.81
425.846	655.81
426.068	632.81
426.291	591.81
426.513	596.81
426.735	625.81
426.958	637.81
427.18	740.81
427.402	875.81
427.625	963.81
427.847	887.81
428.069	747.81
428.292	669.81
428.514	580.81
428.736	594.81
428.958	570.81
429.181	559.81
429.403	578.81
429.625	552.81
429.847	595.81
430.069	676.81
430.292	664.81
430.514	594.81
430.736	559.81
430.958	547.81
431.18	534.81
431.402	510.81
431.624	517.81
431.846	504.81
432.068	490.81
432.29	508.81
432.512	498.81
432.734	508.81
432.956	494.81
433.178	523.81
433.4	535.81
433.622	529.81
433.844	526.81
434.066	508.81
434.287	508.81
434.509	525.81
434.731	500.81
434.953	541.81
435.175	549.81
435.397	573.81
435.618	598.81
435.84	628.81
436.062	737.81
436.284	794.81
436.505	706.81
436.727	610.81
436.949	568.81
437.17	561.81
437.392	575.81
437.614	586.81
437.835	612.81
438.057	729.81
438.278	828.81
438.5	842.81
438.721	869.81
438.943	829.81
439.165	677.81
439.386	626.81
439.608	622.81
439.829	622.81
440.05	634.81
440.272	691.81
440.493	651.81
440.715	597.81
440.936	595.81
441.158	572.81
441.379	578.81
441.6	568.81
441.822	596.81
442.043	653.81
442.264	717.81
442.486	798.81
442.707	679.81
442.928	628.81
443.149	642.81
443.371	662.81
443.592	703.81
443.813	799.81
444.034	854.81
444.255	692.81
444.476	646.81
444.698	601.81
444.919	583.81
445.14	724.81
445.361	665.81
445.582	651.81
445.803	749.81
446.024	816.81
446.245	835.81
446.466	778.81
446.687	676.81
446.908	593.81
447.129	594.81
447.35	555.81
447.571	591.81
447.792	547.81
448.013	567.81
448.234	606.81
448.455	638.81
448.675	746.81
448.896	859.81
449.117	735.81
449.338	698.81
449.559	795.81
449.779	916.81
450	719.81
450.221	632.81
450.442	576.81
450.662	562.81
450.883	567.81
451.104	588.81
451.324	580.81
451.545	550.81
451.766	523.81
451.986	493.81
452.207	512.81
452.428	505.81
452.648	505.81
452.869	496.81
453.089	526.81
453.31	536.81
453.53	515.81
453.751	490.81
453.971	514.81
454.192	539.81
454.412	535.81
454.633	502.81
454.853	511.81
455.073	522.81
455.294	549.81
455.514	620.81
455.734	596.81
455.955	508.81
456.175	474.81
456.395	451.81
456.616	447.81
456.836	448.81
457.056	451.81
457.276	415.81
457.497	465.81
457.717	461.81
457.937	477.81
458.157	480.81
458.377	485.81
458.598	513.81
458.818	596.81
459.038	709.81
459.258	692.81
459.478	589.81
459.698	545.81
459.918	532.81
460.138	506.81
460.358	518.81
460.578	503.81
460.798	502.81
461.018	537.81
461.238	503.81
461.458	529.81
461.678	517.81
461.898	536.81
462.118	518.81
462.338	511.81
462.558	537.81
462.777	552.81
462.997	538.81
463.217	547.81
463.437	560.81
463.657	548.81
463.876	524.81
464.096	536.81
464.316	554.81
464.536	561.81
464.755	552.81
464.975	586.81
465.195	647.81
465.414	772.81
465.634	637.81
465.854	577.81
466.073	554.81
466.293	520.81
466.512	513.81
466.732	493.81
466.951	489.81
467.171	492.81
467.391	532.81
467.61	506.81
467.829	544.81
468.049	521.81
468.268	514.81
468.488	496.81
468.707	513.81
468.927	496.81
469.146	492.81
469.365	521.81
469.585	471.81
469.804	499.81
470.023	519.81
470.243	510.81
470.462	496.81
470.681	544.81
470.901	569.81
471.12	524.81
471.339	529.81
471.558	517.81
471.777	493.81
471.997	496.81
472.216	499.81
472.435	556.81
472.654	537.81
472.873	519.81
473.092	508.81
473.311	519.81
473.53	488.81
473.749	510.81
473.968	576.81
474.187	684.81
474.406	678.81
474.625	568.81
474.844	524.81
475.063	556.81
475.282	526.81
475.501	518.81
475.72	527.81
475.939	531.81
476.158	537.81
476.377	559.81
476.596	544.81
476.814	539.81
477.033	550.81
477.252	557.81
477.471	558.81
477.69	563.81
477.908	556.81
478.127	581.81
478.346	583.81
478.564	552.81
478.783	588.81
479.002	589.81
479.22	598.81
479.439	599.81
479.658	648.81
479.876	631.81
480.095	653.81
480.313	678.81
480.532	629.81
480.751	625.81
480.969	627.81
481.188	685.81
481.406	747.81
481.624	655.81
481.843	640.81
482.061	625.81
482.28	630.81
482.498	611.81
482.717	609.81
482.935	606.81
483.153	614.81
483.372	610.81
483.59	603.81
483.808	633.81
484.027	634.81
484.245	618.81
484.463	599.81
484.681	628.81
484.9	633.81
485.118	618.81
485.336	643.81
485.554	636.81
485.772	643.81
485.99	617.81
486.209	636.81
486.427	652.81
486.645	669.81
486.863	680.81
487.081	696.81
487.299	701.81
487.517	680.81
487.735	691.81
487.953	666.81
488.171	670.81
488.389	693.81
488.607	665.81
488.825	678.81
489.043	675.81
489.261	678.81
489.479	679.81
489.696	696.81
489.914	682.81
490.132	695.81
490.35	686.81
490.568	729.81
490.786	721.81
491.003	727.81
491.221	730.81
491.439	764.81
491.657	747.81
491.874	780.81
492.092	781.81
492.31	759.81
492.527	763.81
492.745	786.81
492.963	776.81
493.18	791.81
493.398	778.81
493.615	802.81
493.833	833.81
494.05	792.81
494.268	806.81
494.485	798.81
494.703	771.81
494.92	781.81
495.138	779.81
495.355	819.81
495.573	802.81
495.79	788.81
496.008	822.81
496.225	813.81
496.442	794.81
496.66	805.81
496.877	777.81
497.094	816.81
497.312	849.81
497.529	829.81
497.746	813.81
497.963	810.81
498.181	829.81
498.398	834.81
498.615	846.81
498.832	896.81
499.049	890.81
499.267	878.81
499.484	924.81
499.701	922.81
499.918	956.81
500.135	992.81
500.352	1019.81
500.569	1015.81
500.786	1038.81
501.003	1028.81
501.22	984.81
501.437	1004.81
501.654	977.81
501.871	972.81
502.088	953.81
502.305	919.81
502.522	902.81
502.739	873.81
502.956	840.81
503.172	833.81
503.389	814.81
503.606	835.81
503.823	847.81
504.04	833.81
504.256	813.81
504.473	790.81
504.69	798.81
504.907	804.81
505.123	792.81
505.34	771.81
505.557	795.81
505.773	792.81
505.99	764.81
506.207	774.81
506.423	791.81
506.64	774.81
506.856	759.81
507.073	748.81
507.289	762.81
507.506	752.81
507.722	769.81
507.939	820.81
508.155	779.81
508.372	741.81
508.588	749.81
508.805	748.81
509.021	732.81
509.238	752.81
509.454	765.81
509.67	742.81
509.887	763.81
510.103	757.81
510.319	760.81
510.536	886.81
510.752	1669.81
510.968	1300.81
511.184	819.81
511.401	772.81
511.617	745.81
511.833	721.81
512.049	687.81
512.265	713.81
512.481	710.81
512.698	706.81
512.914	713.81
513.13	719.81
513.346	717.81
513.562	701.81
513.778	725.81
513.994	762.81
514.21	776.81
514.426	780.81
514.642	858.81
514.858	904.81
515.074	953.81
515.29	1204.81
515.506	1840.81
515.721	1492.81
515.937	951.81
516.153	869.81
516.369	812.81
516.585	778.81
516.801	758.81
517.016	741.81
517.232	725.81
517.448	738.81
517.664	734.81
517.879	730.81
518.095	717.81
518.311	710.81
518.527	716.81
518.742	737.81
518.958	737.81
519.173	725.81
519.389	717.81
519.605	714.81
519.82	742.81
520.036	761.81
520.251	802.81
520.467	845.81
520.682	834.81
520.898	862.81
521.113	922.81
521.329	958.81
521.544	1112.81
521.76	1472.81
521.975	2496.81
522.19	2429.81
522.406	1258.81
522.621	932.81
522.836	810.81
523.052	738.81
523.267	705.81
523.482	697.81
523.698	663.81
523.913	689.81
524.128	689.81
524.343	640.81
524.559	631.81
524.774	649.81
524.989	608.81
525.204	636.81
525.419	636.81
525.634	625.81
525.849	614.81
526.064	610.81
526.28	603.81
526.495	591.81
526.71	603.81
526.925	600.81
527.14	582.81
527.355	609.81
527.57	565.81
527.785	584.81
527.999	571.81
528.214	577.81
528.429	558.81
528.644	571.81
528.859	580.81
529.074	598.81
529.289	607.81
529.503	780.81
529.718	701.81
529.933	629.81
530.148	609.81
530.363	604.81
530.577	592.81
530.792	571.81
531.007	548.81
531.221	565.81
531.436	554.81
531.651	550.81
531.865	564.81
532.08	544.81
532.295	550.81
532.509	555.81
532.724	556.81
532.938	561.81
533.153	546.81
533.367	540.81
533.582	530.81
533.796	537.81
534.011	527.81
534.225	523.81
534.44	535.81
534.654	522.81
534.868	525.81
535.083	521.81
535.297	544.81
535.511	542.81
535.726	552.81
535.94	562.81
536.154	554.81
536.369	523.81
536.583	528.81
536.797	534.81
537.011	523.81
537.225	488.81
537.44	518.81
537.654	498.81
537.868	517.81
538.082	506.81
538.296	514.81
538.51	522.81
538.724	516.81
538.938	515.81
539.153	507.81
539.367	547.81
539.581	539.81
539.795	509.81
540.009	528.81
540.222	530.81
540.436	504.81
540.65	518.81
540.864	509.81
541.078	544.81
541.292	541.81
541.506	534.81
541.72	525.81
541.934	518.81
542.147	528.81
542.361	525.81
542.575	524.81
542.789	504.81
543.002	506.81
543.216	494.81
543.43	525.81
543.644	512.81
543.857	535.81
544.071	522.81
544.285	524.81
544.498	515.81
544.712	494.81
544.925	521.81
545.139	498.81
545.352	490.81
545.566	511.81
545.779	513.81
545.993	515.81
546.206	501.81
546.42	505.81
546.633	496.81
546.847	507.81
547.06	473.81
547.274	489.81
547.487	494.81
547.7	498.81
547.914	497.81
548.127	497.81
548.34	484.81
548.554	487.81
548.767	513.81
548.98	498.81
549.193	467.81
549.407	484.81
549.62	480.81
549.833	500.81
550.046	471.81
550.259	486.81
550.473	485.81
550.686	481.81
550.899	461.81
551.112	493.81
551.325	473.81
551.538	472.81
551.751	466.81
551.964	486.81
552.177	469.81
552.39	477.81
552.603	506.81
552.816	471.81
553.029	478.81
553.242	481.81
553.455	497.81
553.667	513.81
553.88	514.81
554.093	515.81
554.306	508.81
554.519	478.81
554.732	475.81
554.944	481.81
555.157	478.81
555.37	458.81
555.583	468.81
555.795	484.81
556.008	466.81
556.221	464.81
556.433	435.81
556.646	435.81
556.859	452.81
557.071	449.81
557.284	462.81
557.496	441.81
557.709	434.81
557.921	421.81
558.134	458.81
558.346	427.81
558.559	434.81
558.771	438.81
558.984	448.81
559.196	477.81
559.409	463.81
559.621	462.81
559.833	456.81
560.046	435.81
560.258	419.81
560.47	445.81
560.683	452.81
560.895	449.81
561.107	433.81
561.32	454.81
561.532	439.81
561.744	435.81
561.956	455.81
562.168	430.81
562.381	425.81
562.593	437.81
562.805	449.81
563.017	441.81
563.229	445.81
563.441	453.81
563.653	442.81
563.865	434.81
564.077	456.81
564.289	440.81
564.501	447.81
564.713	429.81
564.925	452.81
565.137	448.81
565.349	474.81
565.561	464.81
565.773	454.81
565.985	475.81
566.197	453.81
566.408	474.81
566.62	489.81
566.832	489.81
567.044	525.81
567.255	481.81
567.467	496.81
567.679	496.81
567.891	502.81
568.102	506.81
568.314	497.81
568.526	481.81
568.737	482.81
568.949	481.81
569.161	473.81
569.372	443.81
569.584	444.81
569.795	433.81
570.007	449.81
570.218	520.81
570.43	473.81
570.641	433.81
570.853	432.81
571.064	450.81
571.276	406.81
571.487	417.81
571.698	413.81
571.91	409.81
572.121	398.81
572.333	392.81
572.544	380.81
572.755	374.81
572.966	389.81
573.178	390.81
573.389	383.81
573.6	380.81
573.811	371.81
574.023	378.81
574.234	378.81
574.445	363.81
574.656	347.81
574.867	375.81
575.078	382.81
575.289	378.81
575.501	371.81
575.712	365.81
575.923	372.81
576.134	382.81
576.345	363.81
576.556	356.81
576.767	368.81
576.978	365.81
577.188	366.81
577.399	370.81
577.61	359.81
577.821	349.81
578.032	363.81
578.243	440.81
578.454	781.81
578.665	560.81
578.875	395.81
579.086	361.81
579.297	366.81
579.508	333.81
579.718	342.81
579.929	334.81
580.14	330.81
580.35	363.81
580.561	337.81
580.772	325.81
580.982	362.81
581.193	346.81
581.403	336.81
581.614	331.81
581.825	350.81
582.035	355.81
582.246	327.81
582.456	356.81
582.667	329.81
582.877	334.81
583.087	348.81
583.298	342.81
583.508	352.81
583.719	348.81
583.929	344.81
584.139	337.81
584.35	323.81
584.56	351.81
584.77	327.81
584.981	321.81
585.191	340.81
585.401	344.81
585.611	330.81
585.821	352.81
586.032	355.81
586.242	331.81
586.452	329.81
586.662	337.81
586.872	338.81
587.082	321.81
587.292	339.81
587.502	322.81
587.713	344.81
587.923	316.81
588.133	325.81
588.343	336.81
588.553	336.81
588.762	347.81
588.972	351.81
589.182	482.81
589.392	485.81
589.602	372.81
589.812	490.81
590.022	426.81
590.232	358.81
590.441	332.81
590.651	316.81
590.861	333.81
591.071	314.81
591.281	317.81
591.49	328.81
591.7	326.81
591.91	331.81
592.119	325.81
592.329	357.81
592.539	346.81
592.748	332.81
592.958	345.81
593.167	339.81
593.377	318.81
593.587	349.81
593.796	333.81
594.006	328.81
594.215	350.81
594.424	332.81
594.634	331.81
594.843	313.81
595.053	321.81
595.262	321.81
595.472	303.81
595.681	329.81
595.89	328.81
596.1	322.81
596.309	311.81
596.518	321.81
596.727	312.81
596.937	311.81
597.146	321.81
597.355	313.81
597.564	304.81
597.774	299.81
597.983	300.81
598.192	294.81
598.401	284.81
598.61	301.81
598.819	305.81
599.028	293.81
599.237	291.81
599.446	277.81
599.655	290.81
599.864	320.81
600.073	298.81
600.282	281.81
600.491	288.81
600.7	285.81
600.909	284.81
601.118	291.81
601.327	279.81
601.536	297.81
601.745	285.81
601.953	297.81
602.162	294.81
602.371	285.81
602.58	297.81
602.789	323.81
602.997	280.81
603.206	282.81
603.415	256.81
603.623	283.81
603.832	284.81
604.041	284.81
604.249	250.81
604.458	284.81
604.666	267.81
604.875	284.81
605.084	279.81
605.292	277.81
605.501	284.81
605.709	287.81
605.918	287.81
606.126	282.81
606.334	278.81
606.543	277.81
606.751	281.81
606.96	271.81
607.168	274.81
607.376	278.81
607.585	276.81
607.793	279.81
608.001	279.81
608.21	275.81
608.418	292.81
608.626	281.81
608.834	300.81
609.043	264.81
609.251	268.81
609.459	272.81
609.667	272.81
609.875	286.81
610.083	288.81
610.291	262.81
610.499	253.81
610.707	266.81
610.916	294.81
611.124	295.81
611.332	301.81
611.54	282.81
611.748	275.81
611.955	261.81
612.163	279.81
612.371	274.81
612.579	277.81
612.787	274.81
612.995	262.81
613.203	281.81
613.411	261.81
613.618	265.81
613.826	277.81
614.034	272.81
614.242	264.81
614.449	269.81
614.657	254.81
614.865	268.81
615.072	284.81
615.28	272.81
615.488	267.81
615.695	251.81
615.903	256.81
616.111	267.81
616.318	270.81
616.526	294.81
616.733	273.81
616.941	266.81
617.148	265.81
617.356	260.81
617.563	262.81
617.771	256.81
617.978	255.81
618.185	252.81
618.393	269.81
618.6	251.81
618.807	249.81
619.015	249.81
619.222	254.81
619.429	242.81
619.637	244.81
619.844	273.81
620.051	246.81
620.258	229.81
620.466	237.81
620.673	244.81
620.88	253.81
621.087	247.81
621.294	251.81
621.501	253.81
621.708	262.81
621.915	245.81
622.122	248.81
622.329	246.81
622.536	252.81
622.743	261.81
622.95	226.81
623.157	247.81
623.364	241.81
623.571	239.81
623.778	257.81
623.985	250.81
624.192	236.81
624.399	243.81
624.606	252.81
624.812	237.81
625.019	249.81
625.226	232.81
625.433	237.81
625.639	223.81
625.846	244.81
626.053	219.81
626.259	213.81
626.466	233.81
626.673	215.81
626.879	220.81
627.086	225.81
627.293	220.81
627.499	217.81
627.706	258.81
627.912	219.81
628.119	229.81
628.325	225.81
628.532	193.81
628.738	210.81
628.945	219.81
629.151	225.81
629.357	219.81
629.564	229.81
629.77	208.81
629.976	224.81
630.183	196.81
630.389	208.81
630.595	202.81
630.802	218.81
631.008	213.81
631.214	226.81
631.42	210.81
631.627	235.81
631.833	221.81
632.039	209.81
632.245	214.81
632.451	213.81
632.657	201.81
632.863	205.81
633.069	226.81
633.275	232.81
633.481	207.81
633.688	207.81
633.893	213.81
634.099	218.81
634.305	199.81
634.511	208.81
634.717	201.81
634.923	198.81
635.129	208.81
635.335	193.81
635.541	205.81
635.747	180.81
635.952	188.81
636.158	211.81
636.364	209.81
636.57	209.81
636.775	210.81
636.981	213.81
637.187	200.81
637.392	219.81
637.598	211.81
637.804	205.81
638.009	199.81
638.215	197.81
638.421	209.81
638.626	205.81
638.832	198.81
639.037	217.81
639.243	188.81
639.448	206.81
639.654	195.81
639.859	199.81
640.065	197.81
640.27	196.81
640.475	189.81
640.681	187.81
640.886	180.81
641.091	185.81
641.297	203.81
641.502	184.81
641.707	201.81
641.913	176.81
642.118	182.81
642.323	181.81
642.528	172.81
642.733	179.81
642.939	188.81
643.144	186.81
643.349	185.81
643.554	202.81
643.759	184.81
643.964	187.81
644.169	192.81
644.374	199.81
644.579	196.81
644.784	182.81
644.989	184.81
645.194	172.81
645.399	184.81
645.604	179.81
645.809	192.81
646.014	196.81
646.219	181.81
646.423	210.81
646.628	192.81
646.833	186.81
647.038	204.81
647.243	197.81
647.447	193.81
647.652	195.81
647.857	192.81
648.062	178.81
648.266	197.81
648.471	180.81
648.676	191.81
648.88	190.81
649.085	194.81
649.289	195.81
649.494	201.81
649.698	208.81
649.903	217.81
650.107	191.81
650.312	176.81
650.516	173.81
650.721	182.81
650.925	177.81
651.13	170.81
651.334	176.81
651.539	162.81
651.743	159.81
651.947	170.81
652.152	162.81
652.356	164.81
652.56	163.81
652.764	176.81
652.969	161.81
653.173	177.81
653.377	156.81
653.581	172.81
653.785	162.81
653.99	165.81
654.194	154.81
654.398	143.81
654.602	168.81
654.806	150.81
655.01	155.81
655.214	165.81
655.418	148.81
655.622	165.81
655.826	136.81
656.03	158.81
656.234	143.81
656.438	164.81
656.642	174.81
656.846	147.81
657.049	152.81
657.253	146.81
657.457	135.81
657.661	144.81
657.865	128.81
658.068	131.81
658.272	122.81
658.476	123.81
658.68	123.81
658.883	108.81
659.087	112.81
659.291	101.81
659.494	102.81
659.698	96.81
659.901	108.81
660.105	101.81
660.309	106.81
660.512	93.81
660.716	105.81
660.919	97.81
661.123	106.81
661.326	88.81
661.53	83.81
661.733	91.81
661.936	80.81
662.14	100.81
662.343	89.81
662.546	100.81
662.75	86.81
662.953	79.81
663.156	83.81
663.36	78.81
663.563	82.81
663.766	83.81
663.969	76.81
664.173	86.81
664.376	81.81
664.579	93.81
664.782	91.81
664.985	75.81
665.188	88.81
665.391	99.81
665.594	77.81
665.797	79.81
666	99.81
666.203	71.81
666.406	74.81
666.609	81.81
666.812	88.81
667.015	81.81
667.218	76.81
667.421	77.81
667.624	77.81
667.827	69.81
668.03	83.81
668.232	85.81
668.435	83.81
668.638	88.81
668.841	81.81
669.043	80.81
669.246	86.81
669.449	83.81
669.651	68.81
669.854	91.81
670.057	77.81
670.259	90.81
670.462	100.81
670.665	82.81
670.867	80.81
671.07	78.81
671.272	70.81
671.475	82.81
671.677	75.81
671.88	68.81
672.082	84.81
672.284	98.81
672.487	71.81
672.689	83.81
672.892	84.81
