Data from 1970.PennyLincolnUp.Lamp.En5.5.200Scan.071719.P1._HRD10591_15-15-17-841.txt Node
Date: Thu Jul 18 15:15:17 EDT 2019
User: cochatt
Spectrometer: HR+D1059
Trigger mode: 1
Integration Time (sec): 1.000000E-1
Scans to average: 1
Electric dark correction enabled: true
Nonlinearity correction enabled: false
Boxcar width: 0
XAxis mode: Wavelengths
Number of Pixels in Spectrum: 2048
>>>>>Begin Spectral Data<<<<<
223.165	-4.44
223.4	-4.44
223.635	-4.44
223.869	-16.44
224.104	-18.44
224.338	-16.44
224.573	0.56
224.808	-12.44
225.042	-16.44
225.277	-19.44
225.511	-0.44
225.746	-2.44
225.98	18.56
226.215	5.56
226.449	12.56
226.683	19.56
226.918	21.56
227.152	28.56
227.387	42.56
227.621	26.56
227.856	41.56
228.09	42.56
228.324	54.56
228.559	66.56
228.793	70.56
229.027	121.56
229.262	130.56
229.496	130.56
229.73	162.56
229.964	186.56
230.199	143.56
230.433	112.56
230.667	122.56
230.901	112.56
231.136	126.56
231.37	130.56
231.604	133.56
231.838	132.56
232.072	123.56
232.306	119.56
232.541	121.56
232.775	120.56
233.009	123.56
233.243	120.56
233.477	130.56
233.711	114.56
233.945	119.56
234.179	120.56
234.413	131.56
234.647	118.56
234.881	133.56
235.115	124.56
235.349	125.56
235.583	122.56
235.817	125.56
236.051	138.56
236.285	143.56
236.519	148.56
236.753	157.56
236.987	170.56
237.221	219.56
237.455	259.56
237.689	229.56
237.922	155.56
238.156	144.56
238.39	151.56
238.624	134.56
238.858	138.56
239.091	124.56
239.325	130.56
239.559	136.56
239.793	151.56
240.027	142.56
240.26	146.56
240.494	166.56
240.728	169.56
240.961	173.56
241.195	169.56
241.429	166.56
241.662	147.56
241.896	137.56
242.13	156.56
242.363	143.56
242.597	163.56
242.83	148.56
243.064	169.56
243.298	142.56
243.531	142.56
243.765	140.56
243.998	141.56
244.232	162.56
244.465	154.56
244.699	163.56
244.932	163.56
245.166	166.56
245.399	167.56
245.633	141.56
245.866	151.56
246.099	153.56
246.333	161.56
246.566	159.56
246.8	165.56
247.033	154.56
247.266	171.56
247.5	183.56
247.733	180.56
247.966	201.56
248.2	200.56
248.433	190.56
248.666	192.56
248.899	222.56
249.133	232.56
249.366	228.56
249.599	234.56
249.832	208.56
250.066	191.56
250.299	207.56
250.532	228.56
250.765	237.56
250.998	252.56
251.231	248.56
251.465	244.56
251.698	245.56
251.931	234.56
252.164	215.56
252.397	221.56
252.63	205.56
252.863	242.56
253.096	246.56
253.329	260.56
253.562	263.56
253.795	271.56
254.028	239.56
254.261	235.56
254.494	272.56
254.727	291.56
254.96	331.56
255.193	306.56
255.426	294.56
255.659	271.56
255.892	276.56
256.124	262.56
256.357	264.56
256.59	263.56
256.823	255.56
257.056	249.56
257.289	235.56
257.521	223.56
257.754	236.56
257.987	243.56
258.22	214.56
258.452	243.56
258.685	226.56
258.918	220.56
259.151	234.56
259.383	246.56
259.616	227.56
259.849	237.56
260.081	252.56
260.314	291.56
260.547	286.56
260.779	274.56
261.012	280.56
261.244	256.56
261.477	252.56
261.71	232.56
261.942	240.56
262.175	259.56
262.407	270.56
262.64	248.56
262.872	233.56
263.105	219.56
263.337	229.56
263.57	238.56
263.802	249.56
264.035	222.56
264.267	222.56
264.499	228.56
264.732	241.56
264.964	230.56
265.197	221.56
265.429	232.56
265.661	247.56
265.894	226.56
266.126	230.56
266.358	226.56
266.591	230.56
266.823	239.56
267.055	232.56
267.287	251.56
267.52	228.56
267.752	249.56
267.984	235.56
268.216	248.56
268.448	248.56
268.681	246.56
268.913	268.56
269.145	284.56
269.377	307.56
269.609	292.56
269.841	293.56
270.073	307.56
270.306	333.56
270.538	347.56
270.77	350.56
271.002	311.56
271.234	320.56
271.466	339.56
271.698	352.56
271.93	342.56
272.162	342.56
272.394	339.56
272.626	322.56
272.858	320.56
273.09	301.56
273.322	310.56
273.553	299.56
273.785	280.56
274.017	271.56
274.249	271.56
274.481	281.56
274.713	287.56
274.945	284.56
275.176	272.56
275.408	277.56
275.64	276.56
275.872	281.56
276.104	280.56
276.335	292.56
276.567	311.56
276.799	318.56
277.031	332.56
277.262	348.56
277.494	354.56
277.726	313.56
277.957	310.56
278.189	314.56
278.421	302.56
278.652	276.56
278.884	288.56
279.115	291.56
279.347	297.56
279.579	289.56
279.81	285.56
280.042	285.56
280.273	271.56
280.505	270.56
280.736	267.56
280.968	280.56
281.199	280.56
281.431	290.56
281.662	295.56
281.894	278.56
282.125	283.56
282.356	299.56
282.588	318.56
282.819	329.56
283.051	291.56
283.282	271.56
283.513	307.56
283.745	276.56
283.976	276.56
284.207	278.56
284.439	284.56
284.67	284.56
284.901	287.56
285.132	288.56
285.364	293.56
285.595	282.56
285.826	275.56
286.057	284.56
286.288	295.56
286.52	288.56
286.751	276.56
286.982	279.56
287.213	299.56
287.444	296.56
287.675	299.56
287.906	310.56
288.138	316.56
288.369	313.56
288.6	307.56
288.831	310.56
289.062	298.56
289.293	312.56
289.524	279.56
289.755	294.56
289.986	297.56
290.217	282.56
290.448	275.56
290.679	288.56
290.91	292.56
291.141	303.56
291.371	295.56
291.602	304.56
291.833	313.56
292.064	296.56
292.295	285.56
292.526	290.56
292.757	303.56
292.987	280.56
293.218	302.56
293.449	321.56
293.68	288.56
293.91	297.56
294.141	298.56
294.372	301.56
294.603	294.56
294.833	310.56
295.064	285.56
295.295	298.56
295.525	292.56
295.756	307.56
295.987	323.56
296.217	322.56
296.448	347.56
296.679	321.56
296.909	292.56
297.14	312.56
297.37	292.56
297.601	310.56
297.831	282.56
298.062	307.56
298.292	314.56
298.523	319.56
298.753	326.56
298.984	301.56
299.214	307.56
299.445	311.56
299.675	315.56
299.905	335.56
300.136	329.56
300.366	324.56
300.597	333.56
300.827	321.56
301.057	323.56
301.288	326.56
301.518	336.56
301.748	323.56
301.979	344.56
302.209	351.56
302.439	328.56
302.669	321.56
302.9	320.56
303.13	335.56
303.36	330.56
303.59	352.56
303.82	368.56
304.051	346.56
304.281	338.56
304.511	331.56
304.741	329.56
304.971	326.56
305.201	334.56
305.431	343.56
305.661	324.56
305.891	325.56
306.121	335.56
306.352	344.56
306.582	352.56
306.812	334.56
307.042	327.56
307.272	335.56
307.502	343.56
307.731	345.56
307.961	337.56
308.191	346.56
308.421	359.56
308.651	355.56
308.881	362.56
309.111	358.56
309.341	344.56
309.571	380.56
309.8	380.56
310.03	392.56
310.26	407.56
310.49	381.56
310.72	410.56
310.949	448.56
311.179	439.56
311.409	408.56
311.639	379.56
311.868	406.56
312.098	400.56
312.328	407.56
312.557	428.56
312.787	415.56
313.017	427.56
313.246	402.56
313.476	397.56
313.706	392.56
313.935	422.56
314.165	419.56
314.394	427.56
314.624	446.56
314.853	390.56
315.083	409.56
315.312	402.56
315.542	382.56
315.771	379.56
316.001	358.56
316.23	372.56
316.46	388.56
316.689	415.56
316.919	422.56
317.148	392.56
317.377	405.56
317.607	397.56
317.836	422.56
318.065	396.56
318.295	400.56
318.524	388.56
318.753	385.56
318.983	398.56
319.212	397.56
319.441	415.56
319.67	426.56
319.9	404.56
320.129	411.56
320.358	397.56
320.587	430.56
320.816	436.56
321.046	424.56
321.275	411.56
321.504	427.56
321.733	444.56
321.962	442.56
322.191	456.56
322.42	498.56
322.649	493.56
322.878	501.56
323.108	514.56
323.337	546.56
323.566	571.56
323.795	622.56
324.024	663.56
324.253	818.56
324.482	1134.56
324.71	1806.56
324.939	2546.56
325.168	2206.56
325.397	1194.56
325.626	822.56
325.855	633.56
326.084	598.56
326.313	582.56
326.542	579.56
326.77	634.56
326.999	739.56
327.228	1024.56
327.457	1558.56
327.686	1894.56
327.914	1318.56
328.143	871.56
328.372	756.56
328.6	686.56
328.829	682.56
329.058	702.56
329.287	669.56
329.515	637.56
329.744	586.56
329.972	585.56
330.201	596.56
330.43	656.56
330.658	677.56
330.887	719.56
331.115	700.56
331.344	581.56
331.572	536.56
331.801	553.56
332.03	550.56
332.258	537.56
332.486	497.56
332.715	486.56
332.943	484.56
333.172	486.56
333.4	473.56
333.629	504.56
333.857	509.56
334.085	533.56
334.314	518.56
334.542	594.56
334.771	611.56
334.999	564.56
335.227	509.56
335.455	490.56
335.684	484.56
335.912	492.56
336.14	476.56
336.369	466.56
336.597	483.56
336.825	483.56
337.053	464.56
337.281	460.56
337.51	458.56
337.738	456.56
337.966	457.56
338.194	498.56
338.422	482.56
338.65	462.56
338.878	452.56
339.106	459.56
339.334	459.56
339.562	443.56
339.79	438.56
340.018	430.56
340.246	460.56
340.474	470.56
340.702	467.56
340.93	464.56
341.158	454.56
341.386	479.56
341.614	472.56
341.842	456.56
342.07	438.56
342.298	440.56
342.526	437.56
342.754	434.56
342.981	432.56
343.209	438.56
343.437	437.56
343.665	453.56
343.893	436.56
344.12	475.56
344.348	461.56
344.576	463.56
344.804	477.56
345.031	472.56
345.259	488.56
345.487	476.56
345.714	477.56
345.942	444.56
346.17	441.56
346.397	435.56
346.625	444.56
346.853	450.56
347.08	443.56
347.308	464.56
347.535	464.56
347.763	453.56
347.99	471.56
348.218	465.56
348.445	492.56
348.673	462.56
348.9	450.56
349.128	463.56
349.355	438.56
349.583	432.56
349.81	432.56
350.037	448.56
350.265	440.56
350.492	428.56
350.72	454.56
350.947	444.56
351.174	439.56
351.402	438.56
351.629	473.56
351.856	499.56
352.083	470.56
352.311	472.56
352.538	495.56
352.765	472.56
352.992	461.56
353.22	453.56
353.447	463.56
353.674	443.56
353.901	443.56
354.128	432.56
354.355	434.56
354.583	438.56
354.81	421.56
355.037	420.56
355.264	410.56
355.491	396.56
355.718	414.56
355.945	402.56
356.172	439.56
356.399	408.56
356.626	407.56
356.853	430.56
357.08	431.56
357.307	419.56
357.534	391.56
357.761	423.56
357.988	422.56
358.215	411.56
358.441	426.56
358.668	414.56
358.895	423.56
359.122	443.56
359.349	444.56
359.576	450.56
359.802	487.56
360.029	504.56
360.256	544.56
360.483	514.56
360.709	503.56
360.936	456.56
361.163	437.56
361.39	452.56
361.616	464.56
361.843	436.56
362.07	466.56
362.296	455.56
362.523	465.56
362.749	442.56
362.976	445.56
363.203	444.56
363.429	448.56
363.656	439.56
363.882	450.56
364.109	436.56
364.335	439.56
364.562	438.56
364.788	437.56
365.015	467.56
365.241	435.56
365.468	430.56
365.694	444.56
365.92	455.56
366.147	461.56
366.373	434.56
366.599	437.56
366.826	452.56
367.052	445.56
367.278	434.56
367.505	414.56
367.731	452.56
367.957	452.56
368.184	428.56
368.41	446.56
368.636	464.56
368.862	453.56
369.089	448.56
369.315	444.56
369.541	441.56
369.767	445.56
369.993	425.56
370.219	431.56
370.445	428.56
370.672	438.56
370.898	434.56
371.124	414.56
371.35	444.56
371.576	415.56
371.802	421.56
372.028	436.56
372.254	418.56
372.48	432.56
372.706	422.56
372.932	439.56
373.158	428.56
373.384	444.56
373.61	434.56
373.835	455.56
374.061	418.56
374.287	441.56
374.513	444.56
374.739	452.56
374.965	431.56
375.191	448.56
375.416	446.56
375.642	446.56
375.868	455.56
376.094	445.56
376.319	457.56
376.545	430.56
376.771	423.56
376.997	447.56
377.222	420.56
377.448	424.56
377.674	425.56
377.899	436.56
378.125	438.56
378.35	444.56
378.576	429.56
378.802	423.56
379.027	421.56
379.253	444.56
379.478	441.56
379.704	420.56
379.929	430.56
380.155	442.56
380.38	426.56
380.606	426.56
380.831	428.56
381.057	451.56
381.282	441.56
381.507	406.56
381.733	438.56
381.958	436.56
382.184	444.56
382.409	431.56
382.634	436.56
382.86	451.56
383.085	447.56
383.31	444.56
383.535	455.56
383.761	440.56
383.986	455.56
384.211	450.56
384.436	460.56
384.662	445.56
384.887	473.56
385.112	461.56
385.337	437.56
385.562	455.56
385.787	473.56
386.013	467.56
386.238	478.56
386.463	462.56
386.688	488.56
386.913	462.56
387.138	465.56
387.363	484.56
387.588	482.56
387.813	453.56
388.038	470.56
388.263	445.56
388.488	474.56
388.713	471.56
388.938	487.56
389.163	484.56
389.387	464.56
389.612	463.56
389.837	467.56
390.062	483.56
390.287	476.56
390.512	464.56
390.736	470.56
390.961	466.56
391.186	473.56
391.411	469.56
391.636	486.56
391.86	484.56
392.085	483.56
392.31	492.56
392.534	484.56
392.759	468.56
392.984	473.56
393.208	486.56
393.433	476.56
393.658	491.56
393.882	473.56
394.107	485.56
394.331	465.56
394.556	458.56
394.78	458.56
395.005	483.56
395.229	484.56
395.454	490.56
395.678	488.56
395.903	508.56
396.127	535.56
396.352	534.56
396.576	494.56
396.801	484.56
397.025	502.56
397.249	494.56
397.474	533.56
397.698	480.56
397.922	531.56
398.147	554.56
398.371	550.56
398.595	513.56
398.82	566.56
399.044	536.56
399.268	542.56
399.492	558.56
399.717	573.56
399.941	620.56
400.165	635.56
400.389	661.56
400.613	642.56
400.837	575.56
401.062	553.56
401.286	553.56
401.51	537.56
401.734	544.56
401.958	546.56
402.182	552.56
402.406	565.56
402.63	566.56
402.854	547.56
403.078	564.56
403.302	567.56
403.526	565.56
403.75	558.56
403.974	558.56
404.198	550.56
404.422	557.56
404.645	550.56
404.869	591.56
405.093	599.56
405.317	664.56
405.541	690.56
405.765	650.56
405.988	617.56
406.212	600.56
406.436	628.56
406.66	667.56
406.883	630.56
407.107	634.56
407.331	697.56
407.555	739.56
407.778	771.56
408.002	690.56
408.226	663.56
408.449	616.56
408.673	635.56
408.896	660.56
409.12	712.56
409.344	680.56
409.567	614.56
409.791	585.56
410.014	578.56
410.238	582.56
410.461	566.56
410.685	587.56
410.908	596.56
411.132	644.56
411.355	684.56
411.578	644.56
411.802	583.56
412.025	566.56
412.249	576.56
412.472	602.56
412.695	645.56
412.919	656.56
413.142	585.56
413.365	576.56
413.589	590.56
413.812	547.56
414.035	560.56
414.258	540.56
414.482	530.56
414.705	554.56
414.928	548.56
415.151	541.56
415.374	534.56
415.597	535.56
415.821	544.56
416.044	560.56
416.267	565.56
416.49	552.56
416.713	550.56
416.936	530.56
417.159	531.56
417.382	554.56
417.605	556.56
417.828	562.56
418.051	564.56
418.274	586.56
418.497	549.56
418.72	548.56
418.943	546.56
419.166	571.56
419.389	589.56
419.611	587.56
419.834	575.56
420.057	580.56
420.28	587.56
420.503	582.56
420.726	617.56
420.948	580.56
421.171	660.56
421.394	688.56
421.617	620.56
421.839	558.56
422.062	596.56
422.285	595.56
422.507	621.56
422.73	740.56
422.953	718.56
423.175	660.56
423.398	620.56
423.621	605.56
423.843	628.56
424.066	640.56
424.288	624.56
424.511	683.56
424.733	736.56
424.956	800.56
425.178	769.56
425.401	777.56
425.623	779.56
425.846	677.56
426.068	639.56
426.291	668.56
426.513	670.56
426.735	658.56
426.958	714.56
427.18	794.56
427.402	925.56
427.625	1000.56
427.847	923.56
428.069	820.56
428.292	719.56
428.514	662.56
428.736	630.56
428.958	599.56
429.181	604.56
429.403	598.56
429.625	586.56
429.847	661.56
430.069	736.56
430.292	702.56
430.514	636.56
430.736	588.56
430.958	577.56
431.18	596.56
431.402	569.56
431.624	549.56
431.846	562.56
432.068	553.56
432.29	544.56
432.512	551.56
432.734	563.56
432.956	550.56
433.178	557.56
433.4	586.56
433.622	576.56
433.844	577.56
434.066	566.56
434.287	534.56
434.509	577.56
434.731	574.56
434.953	559.56
435.175	593.56
435.397	618.56
435.618	649.56
435.84	692.56
436.062	787.56
436.284	838.56
436.505	727.56
436.727	676.56
436.949	616.56
437.17	592.56
437.392	599.56
437.614	618.56
437.835	664.56
438.057	763.56
438.278	871.56
438.5	898.56
438.721	943.56
438.943	916.56
439.165	735.56
439.386	692.56
439.608	663.56
439.829	662.56
440.05	671.56
440.272	735.56
440.493	702.56
440.715	652.56
440.936	621.56
441.158	621.56
441.379	595.56
441.6	611.56
441.822	629.56
442.043	701.56
442.264	795.56
442.486	835.56
442.707	706.56
442.928	661.56
443.149	685.56
443.371	707.56
443.592	747.56
443.813	843.56
444.034	879.56
444.255	725.56
444.476	668.56
444.698	643.56
444.919	637.56
445.14	747.56
445.361	716.56
445.582	692.56
445.803	763.56
446.024	891.56
446.245	902.56
446.466	806.56
446.687	697.56
446.908	648.56
447.129	618.56
447.35	608.56
447.571	584.56
447.792	599.56
448.013	595.56
448.234	639.56
448.455	687.56
448.675	806.56
448.896	922.56
449.117	808.56
449.338	746.56
449.559	874.56
449.779	926.56
450	802.56
450.221	682.56
450.442	626.56
450.662	607.56
450.883	616.56
451.104	642.56
451.324	598.56
451.545	584.56
451.766	577.56
451.986	551.56
452.207	531.56
452.428	523.56
452.648	553.56
452.869	554.56
453.089	516.56
453.31	553.56
453.53	566.56
453.751	540.56
453.971	538.56
454.192	566.56
454.412	563.56
454.633	551.56
454.853	551.56
455.073	525.56
455.294	587.56
455.514	650.56
455.734	637.56
455.955	552.56
456.175	510.56
456.395	504.56
456.616	485.56
456.836	482.56
457.056	515.56
457.276	485.56
457.497	488.56
457.717	485.56
457.937	526.56
458.157	515.56
458.377	539.56
458.598	543.56
458.818	635.56
459.038	729.56
459.258	733.56
459.478	632.56
459.698	570.56
459.918	542.56
460.138	524.56
460.358	562.56
460.578	539.56
460.798	546.56
461.018	556.56
461.238	564.56
461.458	555.56
461.678	535.56
461.898	551.56
462.118	546.56
462.338	542.56
462.558	560.56
462.777	565.56
462.997	558.56
463.217	576.56
463.437	592.56
463.657	572.56
463.876	570.56
464.096	562.56
464.316	569.56
464.536	595.56
464.755	586.56
464.975	614.56
465.195	652.56
465.414	748.56
465.634	657.56
465.854	606.56
466.073	584.56
466.293	564.56
466.512	552.56
466.732	538.56
466.951	552.56
467.171	538.56
467.391	550.56
467.61	557.56
467.829	579.56
468.049	576.56
468.268	554.56
468.488	555.56
468.707	565.56
468.927	548.56
469.146	554.56
469.365	534.56
469.585	520.56
469.804	534.56
470.023	547.56
470.243	538.56
470.462	548.56
470.681	596.56
470.901	586.56
471.12	568.56
471.339	556.56
471.558	541.56
471.777	554.56
471.997	558.56
472.216	574.56
472.435	604.56
472.654	598.56
472.873	572.56
473.092	549.56
473.311	560.56
473.53	554.56
473.749	544.56
473.968	616.56
474.187	750.56
474.406	740.56
474.625	619.56
474.844	601.56
475.063	556.56
475.282	542.56
475.501	576.56
475.72	589.56
475.939	583.56
476.158	589.56
476.377	584.56
476.596	554.56
476.814	574.56
477.033	595.56
477.252	583.56
477.471	580.56
477.69	606.56
477.908	589.56
478.127	589.56
478.346	614.56
478.564	615.56
478.783	592.56
479.002	626.56
479.22	649.56
479.439	635.56
479.658	677.56
479.876	661.56
480.095	695.56
480.313	723.56
480.532	683.56
480.751	668.56
480.969	689.56
481.188	748.56
481.406	834.56
481.624	746.56
481.843	692.56
482.061	685.56
482.28	680.56
482.498	656.56
482.717	646.56
482.935	671.56
483.153	665.56
483.372	678.56
483.59	667.56
483.808	632.56
484.027	651.56
484.245	664.56
484.463	674.56
484.681	683.56
484.9	682.56
485.118	708.56
485.336	654.56
485.554	697.56
485.772	684.56
485.99	687.56
486.209	691.56
486.427	674.56
486.645	719.56
486.863	719.56
487.081	747.56
487.299	719.56
487.517	721.56
487.735	706.56
487.953	722.56
488.171	722.56
488.389	712.56
488.607	728.56
488.825	720.56
489.043	755.56
489.261	711.56
489.479	737.56
489.696	733.56
489.914	716.56
490.132	739.56
490.35	754.56
490.568	761.56
490.786	797.56
491.003	798.56
491.221	785.56
491.439	833.56
491.657	809.56
491.874	831.56
492.092	847.56
492.31	814.56
492.527	867.56
492.745	836.56
492.963	861.56
493.18	883.56
493.398	860.56
493.615	883.56
493.833	850.56
494.05	893.56
494.268	893.56
494.485	851.56
494.703	860.56
494.92	878.56
495.138	867.56
495.355	875.56
495.573	861.56
495.79	893.56
496.008	875.56
496.225	856.56
496.442	875.56
496.66	903.56
496.877	856.56
497.094	857.56
497.312	864.56
497.529	879.56
497.746	880.56
497.963	903.56
498.181	916.56
498.398	930.56
498.615	924.56
498.832	946.56
499.049	963.56
499.267	985.56
499.484	947.56
499.701	984.56
499.918	995.56
500.135	1031.56
500.352	1059.56
500.569	1092.56
500.786	1094.56
501.003	1119.56
501.22	1088.56
501.437	1070.56
501.654	1064.56
501.871	1052.56
502.088	993.56
502.305	995.56
502.522	969.56
502.739	927.56
502.956	912.56
503.172	915.56
503.389	884.56
503.606	872.56
503.823	882.56
504.04	885.56
504.256	880.56
504.473	866.56
504.69	863.56
504.907	854.56
505.123	846.56
505.34	847.56
505.557	844.56
505.773	859.56
505.99	837.56
506.207	845.56
506.423	871.56
506.64	840.56
506.856	830.56
507.073	821.56
507.289	807.56
507.506	834.56
507.722	844.56
507.939	876.56
508.155	816.56
508.372	820.56
508.588	810.56
508.805	800.56
509.021	808.56
509.238	818.56
509.454	830.56
509.67	818.56
509.887	810.56
510.103	787.56
510.319	837.56
510.536	925.56
510.752	1572.56
510.968	1278.56
511.184	849.56
511.401	798.56
511.617	781.56
511.833	776.56
512.049	798.56
512.265	751.56
512.481	764.56
512.698	761.56
512.914	742.56
513.13	766.56
513.346	733.56
513.562	756.56
513.778	749.56
513.994	804.56
514.21	775.56
514.426	829.56
514.642	874.56
514.858	911.56
515.074	959.56
515.29	1178.56
515.506	1732.56
515.721	1406.56
515.937	943.56
516.153	840.56
516.369	826.56
516.585	782.56
516.801	775.56
517.016	744.56
517.232	761.56
517.448	776.56
517.664	740.56
517.879	763.56
518.095	744.56
518.311	754.56
518.527	738.56
518.742	767.56
518.958	751.56
519.173	774.56
519.389	759.56
519.605	764.56
519.82	784.56
520.036	799.56
520.251	820.56
520.467	881.56
520.682	850.56
520.898	874.56
521.113	886.56
521.329	940.56
521.544	1052.56
521.76	1378.56
521.975	2248.56
522.19	2222.56
522.406	1204.56
522.621	898.56
522.836	816.56
523.052	787.56
523.267	734.56
523.482	736.56
523.698	702.56
523.913	683.56
524.128	702.56
524.343	670.56
524.559	673.56
524.774	664.56
524.989	655.56
525.204	667.56
525.419	640.56
525.634	665.56
525.849	636.56
526.064	624.56
526.28	601.56
526.495	632.56
526.71	620.56
526.925	610.56
527.14	638.56
527.355	627.56
527.57	630.56
527.785	621.56
527.999	592.56
528.214	614.56
528.429	582.56
528.644	613.56
528.859	604.56
529.074	631.56
529.289	649.56
529.503	742.56
529.718	735.56
529.933	661.56
530.148	646.56
530.363	627.56
530.577	613.56
530.792	612.56
531.007	564.56
531.221	569.56
531.436	587.56
531.651	596.56
531.865	596.56
532.08	587.56
532.295	565.56
532.509	573.56
532.724	571.56
532.938	578.56
533.153	574.56
533.367	572.56
533.582	572.56
533.796	589.56
534.011	560.56
534.225	549.56
534.44	544.56
534.654	562.56
534.868	550.56
535.083	578.56
535.297	584.56
535.511	571.56
535.726	589.56
535.94	595.56
536.154	583.56
536.369	576.56
536.583	573.56
536.797	549.56
537.011	533.56
537.225	555.56
537.44	570.56
537.654	555.56
537.868	554.56
538.082	558.56
538.296	548.56
538.51	532.56
538.724	548.56
538.938	534.56
539.153	551.56
539.367	589.56
539.581	573.56
539.795	566.56
540.009	554.56
540.222	542.56
540.436	537.56
540.65	563.56
540.864	547.56
541.078	560.56
541.292	560.56
541.506	559.56
541.72	537.56
541.934	533.56
542.147	567.56
542.361	555.56
542.575	541.56
542.789	528.56
543.002	525.56
543.216	531.56
543.43	564.56
543.644	565.56
543.857	561.56
544.071	557.56
544.285	544.56
544.498	539.56
544.712	540.56
544.925	557.56
545.139	516.56
545.352	543.56
545.566	533.56
545.779	542.56
545.993	547.56
546.206	543.56
546.42	528.56
546.633	550.56
546.847	530.56
547.06	519.56
547.274	526.56
547.487	522.56
547.7	493.56
547.914	532.56
548.127	517.56
548.34	496.56
548.554	506.56
548.767	518.56
548.98	536.56
549.193	516.56
549.407	507.56
549.62	510.56
549.833	514.56
550.046	528.56
550.259	510.56
550.473	506.56
550.686	505.56
550.899	517.56
551.112	507.56
551.325	483.56
551.538	503.56
551.751	494.56
551.964	474.56
552.177	492.56
552.39	491.56
552.603	495.56
552.816	510.56
553.029	500.56
553.242	505.56
553.455	514.56
553.667	523.56
553.88	540.56
554.093	514.56
554.306	519.56
554.519	525.56
554.732	504.56
554.944	492.56
555.157	472.56
555.37	480.56
555.583	495.56
555.795	503.56
556.008	473.56
556.221	469.56
556.433	474.56
556.646	478.56
556.859	457.56
557.071	468.56
557.284	491.56
557.496	478.56
557.709	475.56
557.921	474.56
558.134	475.56
558.346	463.56
558.559	445.56
558.771	449.56
558.984	474.56
559.196	460.56
559.409	471.56
559.621	465.56
559.833	452.56
560.046	455.56
560.258	456.56
560.47	444.56
560.683	440.56
560.895	446.56
561.107	470.56
561.32	463.56
561.532	465.56
561.744	455.56
561.956	460.56
562.168	461.56
562.381	456.56
562.593	435.56
562.805	467.56
563.017	458.56
563.229	442.56
563.441	461.56
563.653	471.56
563.865	463.56
564.077	459.56
564.289	452.56
564.501	465.56
564.713	470.56
564.925	456.56
565.137	494.56
565.349	467.56
565.561	485.56
565.773	478.56
565.985	486.56
566.197	490.56
566.408	512.56
566.62	504.56
566.832	512.56
567.044	524.56
567.255	542.56
567.467	500.56
567.679	504.56
567.891	535.56
568.102	517.56
568.314	538.56
568.526	512.56
568.737	512.56
568.949	470.56
569.161	457.56
569.372	463.56
569.584	477.56
569.795	451.56
570.007	458.56
570.218	512.56
570.43	484.56
570.641	431.56
570.853	448.56
571.064	434.56
571.276	412.56
571.487	424.56
571.698	405.56
571.91	397.56
572.121	420.56
572.333	415.56
572.544	397.56
572.755	398.56
572.966	419.56
573.178	395.56
573.389	384.56
573.6	413.56
573.811	399.56
574.023	387.56
574.234	381.56
574.445	385.56
574.656	402.56
574.867	392.56
575.078	379.56
575.289	408.56
575.501	385.56
575.712	389.56
575.923	372.56
576.134	383.56
576.345	395.56
576.556	364.56
576.767	379.56
576.978	380.56
577.188	372.56
577.399	378.56
577.61	363.56
577.821	383.56
578.032	398.56
578.243	418.56
578.454	736.56
578.665	537.56
578.875	391.56
579.086	362.56
579.297	354.56
579.508	361.56
579.718	374.56
579.929	348.56
580.14	351.56
580.35	364.56
580.561	338.56
580.772	379.56
580.982	342.56
581.193	333.56
581.403	352.56
581.614	348.56
581.825	344.56
582.035	360.56
582.246	360.56
582.456	367.56
582.667	346.56
582.877	345.56
583.087	334.56
583.298	347.56
583.508	346.56
583.719	341.56
583.929	352.56
584.139	345.56
584.35	353.56
584.56	346.56
584.77	354.56
584.981	346.56
585.191	352.56
585.401	335.56
585.611	357.56
585.821	360.56
586.032	351.56
586.242	331.56
586.452	336.56
586.662	354.56
586.872	350.56
587.082	345.56
587.292	334.56
587.502	339.56
587.713	330.56
587.923	341.56
588.133	326.56
588.343	329.56
588.553	331.56
588.762	331.56
588.972	333.56
589.182	326.56
589.392	335.56
589.602	322.56
589.812	338.56
590.022	342.56
590.232	327.56
590.441	340.56
590.651	343.56
590.861	343.56
591.071	336.56
591.281	336.56
591.49	327.56
591.7	347.56
591.91	342.56
592.119	338.56
592.329	329.56
592.539	357.56
592.748	320.56
592.958	330.56
593.167	344.56
593.377	337.56
593.587	346.56
593.796	350.56
594.006	341.56
594.215	330.56
594.424	347.56
594.634	344.56
594.843	347.56
595.053	332.56
595.262	330.56
595.472	327.56
595.681	331.56
595.89	322.56
596.1	327.56
596.309	325.56
596.518	333.56
596.727	315.56
596.937	310.56
597.146	321.56
597.355	304.56
597.564	300.56
597.774	312.56
597.983	307.56
598.192	308.56
598.401	313.56
598.61	310.56
598.819	311.56
599.028	296.56
599.237	291.56
599.446	308.56
599.655	302.56
599.864	297.56
600.073	283.56
600.282	289.56
600.491	296.56
600.7	305.56
600.909	289.56
601.118	289.56
601.327	288.56
601.536	280.56
601.745	300.56
601.953	290.56
602.162	283.56
602.371	294.56
602.58	294.56
602.789	296.56
602.997	307.56
603.206	278.56
603.415	270.56
603.623	283.56
603.832	278.56
604.041	295.56
604.249	283.56
604.458	300.56
604.666	267.56
604.875	283.56
605.084	270.56
605.292	287.56
605.501	279.56
605.709	296.56
605.918	277.56
606.126	276.56
606.334	272.56
606.543	276.56
606.751	303.56
606.96	278.56
607.168	298.56
607.376	276.56
607.585	278.56
607.793	285.56
608.001	278.56
608.21	279.56
608.418	276.56
608.626	271.56
608.834	285.56
609.043	277.56
609.251	293.56
609.459	281.56
609.667	271.56
609.875	285.56
610.083	282.56
610.291	277.56
610.499	287.56
610.707	294.56
610.916	291.56
611.124	265.56
611.332	278.56
611.54	268.56
611.748	264.56
611.955	265.56
612.163	266.56
612.371	270.56
612.579	271.56
612.787	277.56
612.995	271.56
613.203	289.56
613.411	266.56
613.618	265.56
613.826	280.56
614.034	263.56
614.242	279.56
614.449	250.56
614.657	263.56
614.865	260.56
615.072	278.56
615.28	265.56
615.488	281.56
615.695	260.56
615.903	271.56
616.111	262.56
616.318	283.56
616.526	266.56
616.733	291.56
616.941	256.56
617.148	262.56
617.356	268.56
617.563	263.56
617.771	274.56
617.978	269.56
618.185	262.56
618.393	278.56
618.6	260.56
618.807	270.56
619.015	258.56
619.222	271.56
619.429	251.56
619.637	263.56
619.844	255.56
620.051	246.56
620.258	284.56
620.466	261.56
620.673	263.56
620.88	261.56
621.087	255.56
621.294	251.56
621.501	247.56
621.708	270.56
621.915	252.56
622.122	258.56
622.329	244.56
622.536	235.56
622.743	277.56
622.95	245.56
623.157	246.56
623.364	249.56
623.571	238.56
623.778	247.56
623.985	259.56
624.192	240.56
624.399	254.56
624.606	250.56
624.812	246.56
625.019	237.56
625.226	234.56
625.433	240.56
625.639	242.56
625.846	230.56
626.053	237.56
626.259	225.56
626.466	240.56
626.673	247.56
626.879	234.56
627.086	239.56
627.293	236.56
627.499	226.56
627.706	219.56
627.912	217.56
628.119	225.56
628.325	236.56
628.532	226.56
628.738	232.56
628.945	230.56
629.151	229.56
629.357	224.56
629.564	215.56
629.77	223.56
629.976	234.56
630.183	208.56
630.389	226.56
630.595	214.56
630.802	214.56
631.008	219.56
631.214	225.56
631.42	217.56
631.627	216.56
631.833	223.56
632.039	214.56
632.245	217.56
632.451	209.56
632.657	193.56
632.863	231.56
633.069	203.56
633.275	211.56
633.481	200.56
633.688	189.56
633.893	208.56
634.099	208.56
634.305	210.56
634.511	198.56
634.717	210.56
634.923	201.56
635.129	197.56
635.335	220.56
635.541	208.56
635.747	191.56
635.952	205.56
636.158	200.56
636.364	219.56
636.57	212.56
636.775	205.56
636.981	213.56
637.187	211.56
637.392	218.56
637.598	209.56
637.804	211.56
638.009	207.56
638.215	202.56
638.421	195.56
638.626	201.56
638.832	208.56
639.037	202.56
639.243	185.56
639.448	180.56
639.654	184.56
639.859	177.56
640.065	198.56
640.27	196.56
640.475	189.56
640.681	199.56
640.886	204.56
641.091	198.56
641.297	194.56
641.502	188.56
641.707	187.56
641.913	180.56
642.118	183.56
642.323	199.56
642.528	172.56
642.733	171.56
642.939	187.56
643.144	191.56
643.349	181.56
643.554	191.56
643.759	186.56
643.964	186.56
644.169	182.56
644.374	199.56
644.579	188.56
644.784	191.56
644.989	166.56
645.194	180.56
645.399	202.56
645.604	184.56
645.809	208.56
646.014	172.56
646.219	186.56
646.423	180.56
646.628	175.56
646.833	178.56
647.038	170.56
647.243	191.56
647.447	168.56
647.652	187.56
647.857	192.56
648.062	187.56
648.266	168.56
648.471	170.56
648.676	178.56
648.88	187.56
649.085	183.56
649.289	191.56
649.494	186.56
649.698	207.56
649.903	203.56
650.107	188.56
650.312	171.56
650.516	179.56
650.721	168.56
650.925	173.56
651.13	157.56
651.334	173.56
651.539	170.56
651.743	158.56
651.947	156.56
652.152	160.56
652.356	163.56
652.56	150.56
652.764	156.56
652.969	168.56
653.173	145.56
653.377	159.56
653.581	136.56
653.785	154.56
653.99	147.56
654.194	164.56
654.398	137.56
654.602	142.56
654.806	125.56
655.01	147.56
655.214	160.56
655.418	154.56
655.622	134.56
655.826	136.56
656.03	143.56
656.234	139.56
656.438	144.56
656.642	121.56
656.846	123.56
657.049	127.56
657.253	137.56
657.457	131.56
657.661	132.56
657.865	119.56
658.068	119.56
658.272	117.56
658.476	122.56
658.68	126.56
658.883	119.56
659.087	103.56
659.291	109.56
659.494	110.56
659.698	104.56
659.901	114.56
660.105	107.56
660.309	111.56
660.512	97.56
660.716	94.56
660.919	94.56
661.123	100.56
661.326	88.56
661.53	101.56
661.733	97.56
661.936	100.56
662.14	87.56
662.343	108.56
662.546	83.56
662.75	90.56
662.953	91.56
663.156	100.56
663.36	81.56
663.563	94.56
663.766	79.56
663.969	86.56
664.173	82.56
664.376	74.56
664.579	74.56
664.782	93.56
664.985	79.56
665.188	83.56
665.391	94.56
665.594	87.56
665.797	72.56
666	90.56
666.203	85.56
666.406	71.56
666.609	93.56
666.812	99.56
667.015	93.56
667.218	66.56
667.421	70.56
667.624	79.56
667.827	76.56
668.03	87.56
668.232	82.56
668.435	97.56
668.638	99.56
668.841	76.56
669.043	90.56
669.246	89.56
669.449	98.56
669.651	83.56
669.854	85.56
670.057	92.56
670.259	81.56
670.462	80.56
670.665	83.56
670.867	91.56
671.07	90.56
671.272	87.56
671.475	83.56
671.677	82.56
671.88	82.56
672.082	86.56
672.284	101.56
672.487	85.56
672.689	78.56
672.892	81.56
