Data from 1970.PennyLincolnUp.Lamp.En5.5.200Scan.071719.P1._HRD10591_15-13-43-843.txt Node
Date: Thu Jul 18 15:13:43 EDT 2019
User: cochatt
Spectrometer: HR+D1059
Trigger mode: 1
Integration Time (sec): 1.000000E-1
Scans to average: 1
Electric dark correction enabled: true
Nonlinearity correction enabled: false
Boxcar width: 0
XAxis mode: Wavelengths
Number of Pixels in Spectrum: 2048
>>>>>Begin Spectral Data<<<<<
223.165	-26.25
223.4	-26.25
223.635	-26.25
223.869	-12.25
224.104	-4.25
224.338	-23.25
224.573	-11.25
224.808	-28.25
225.042	1.75
225.277	-9.25
225.511	-22.25
225.746	10.75
225.98	2.75
226.215	16.75
226.449	12.75
226.683	24.75
226.918	32.75
227.152	34.75
227.387	24.75
227.621	23.75
227.856	31.75
228.09	30.75
228.324	52.75
228.559	52.75
228.793	71.75
229.027	103.75
229.262	114.75
229.496	128.75
229.73	130.75
229.964	175.75
230.199	136.75
230.433	113.75
230.667	101.75
230.901	110.75
231.136	119.75
231.37	118.75
231.604	113.75
231.838	113.75
232.072	107.75
232.306	107.75
232.541	109.75
232.775	119.75
233.009	109.75
233.243	131.75
233.477	112.75
233.711	127.75
233.945	123.75
234.179	106.75
234.413	129.75
234.647	121.75
234.881	120.75
235.115	107.75
235.349	109.75
235.583	111.75
235.817	127.75
236.051	138.75
236.285	131.75
236.519	111.75
236.753	133.75
236.987	131.75
237.221	185.75
237.455	253.75
237.689	205.75
237.922	151.75
238.156	130.75
238.39	115.75
238.624	131.75
238.858	138.75
239.091	115.75
239.325	130.75
239.559	139.75
239.793	128.75
240.027	132.75
240.26	137.75
240.494	160.75
240.728	156.75
240.961	155.75
241.195	152.75
241.429	158.75
241.662	146.75
241.896	146.75
242.13	156.75
242.363	128.75
242.597	133.75
242.83	171.75
243.064	146.75
243.298	141.75
243.531	147.75
243.765	137.75
243.998	137.75
244.232	135.75
244.465	148.75
244.699	145.75
244.932	145.75
245.166	140.75
245.399	143.75
245.633	146.75
245.866	152.75
246.099	153.75
246.333	157.75
246.566	153.75
246.8	143.75
247.033	148.75
247.266	157.75
247.5	194.75
247.733	173.75
247.966	183.75
248.2	181.75
248.433	194.75
248.666	171.75
248.899	194.75
249.133	216.75
249.366	208.75
249.599	204.75
249.832	181.75
250.066	192.75
250.299	197.75
250.532	202.75
250.765	216.75
250.998	238.75
251.231	234.75
251.465	243.75
251.698	220.75
251.931	216.75
252.164	224.75
252.397	213.75
252.63	214.75
252.863	234.75
253.096	241.75
253.329	224.75
253.562	228.75
253.795	243.75
254.028	228.75
254.261	224.75
254.494	228.75
254.727	257.75
254.96	290.75
255.193	290.75
255.426	281.75
255.659	235.75
255.892	255.75
256.124	224.75
256.357	244.75
256.59	230.75
256.823	221.75
257.056	209.75
257.289	202.75
257.521	209.75
257.754	230.75
257.987	213.75
258.22	219.75
258.452	231.75
258.685	214.75
258.918	223.75
259.151	203.75
259.383	222.75
259.616	236.75
259.849	232.75
260.081	242.75
260.314	263.75
260.547	254.75
260.779	240.75
261.012	231.75
261.244	225.75
261.477	247.75
261.71	227.75
261.942	226.75
262.175	236.75
262.407	227.75
262.64	204.75
262.872	218.75
263.105	209.75
263.337	217.75
263.57	223.75
263.802	203.75
264.035	204.75
264.267	212.75
264.499	204.75
264.732	218.75
264.964	202.75
265.197	217.75
265.429	205.75
265.661	225.75
265.894	224.75
266.126	213.75
266.358	215.75
266.591	217.75
266.823	238.75
267.055	212.75
267.287	225.75
267.52	216.75
267.752	220.75
267.984	225.75
268.216	226.75
268.448	228.75
268.681	228.75
268.913	241.75
269.145	273.75
269.377	270.75
269.609	277.75
269.841	268.75
270.073	259.75
270.306	296.75
270.538	322.75
270.77	314.75
271.002	299.75
271.234	284.75
271.466	291.75
271.698	317.75
271.93	312.75
272.162	310.75
272.394	324.75
272.626	310.75
272.858	265.75
273.09	263.75
273.322	262.75
273.553	269.75
273.785	268.75
274.017	258.75
274.249	248.75
274.481	281.75
274.713	254.75
274.945	274.75
275.176	274.75
275.408	268.75
275.64	263.75
275.872	257.75
276.104	268.75
276.335	269.75
276.567	277.75
276.799	271.75
277.031	295.75
277.262	303.75
277.494	303.75
277.726	291.75
277.957	292.75
278.189	273.75
278.421	270.75
278.652	264.75
278.884	256.75
279.115	259.75
279.347	248.75
279.579	255.75
279.81	262.75
280.042	243.75
280.273	262.75
280.505	253.75
280.736	255.75
280.968	249.75
281.199	253.75
281.431	240.75
281.662	274.75
281.894	249.75
282.125	253.75
282.356	265.75
282.588	295.75
282.819	297.75
283.051	273.75
283.282	260.75
283.513	276.75
283.745	255.75
283.976	261.75
284.207	277.75
284.439	284.75
284.67	255.75
284.901	263.75
285.132	278.75
285.364	268.75
285.595	262.75
285.826	262.75
286.057	258.75
286.288	269.75
286.52	263.75
286.751	270.75
286.982	263.75
287.213	276.75
287.444	261.75
287.675	256.75
287.906	277.75
288.138	256.75
288.369	287.75
288.6	283.75
288.831	278.75
289.062	281.75
289.293	250.75
289.524	269.75
289.755	281.75
289.986	280.75
290.217	263.75
290.448	257.75
290.679	251.75
290.91	259.75
291.141	268.75
291.371	272.75
291.602	271.75
291.833	256.75
292.064	274.75
292.295	268.75
292.526	265.75
292.757	277.75
292.987	268.75
293.218	277.75
293.449	273.75
293.68	242.75
293.91	284.75
294.141	267.75
294.372	261.75
294.603	280.75
294.833	259.75
295.064	277.75
295.295	261.75
295.525	273.75
295.756	292.75
295.987	283.75
296.217	303.75
296.448	313.75
296.679	290.75
296.909	267.75
297.14	280.75
297.37	267.75
297.601	279.75
297.831	287.75
298.062	290.75
298.292	273.75
298.523	288.75
298.753	286.75
298.984	288.75
299.214	304.75
299.445	292.75
299.675	281.75
299.905	265.75
300.136	309.75
300.366	296.75
300.597	277.75
300.827	303.75
301.057	300.75
301.288	311.75
301.518	293.75
301.748	296.75
301.979	312.75
302.209	295.75
302.439	297.75
302.669	300.75
302.9	312.75
303.13	281.75
303.36	304.75
303.59	300.75
303.82	298.75
304.051	319.75
304.281	325.75
304.511	300.75
304.741	292.75
304.971	276.75
305.201	292.75
305.431	310.75
305.661	300.75
305.891	290.75
306.121	297.75
306.352	304.75
306.582	332.75
306.812	319.75
307.042	312.75
307.272	314.75
307.502	312.75
307.731	302.75
307.961	322.75
308.191	332.75
308.421	325.75
308.651	317.75
308.881	315.75
309.111	328.75
309.341	319.75
309.571	323.75
309.8	354.75
310.03	363.75
310.26	343.75
310.49	353.75
310.72	357.75
310.949	361.75
311.179	364.75
311.409	370.75
311.639	347.75
311.868	358.75
312.098	362.75
312.328	348.75
312.557	391.75
312.787	385.75
313.017	380.75
313.246	374.75
313.476	356.75
313.706	337.75
313.935	374.75
314.165	372.75
314.394	361.75
314.624	397.75
314.853	363.75
315.083	352.75
315.312	352.75
315.542	353.75
315.771	366.75
316.001	355.75
316.23	339.75
316.46	357.75
316.689	349.75
316.919	354.75
317.148	372.75
317.377	360.75
317.607	377.75
317.836	368.75
318.065	370.75
318.295	372.75
318.524	354.75
318.753	354.75
318.983	337.75
319.212	362.75
319.441	379.75
319.67	371.75
319.9	387.75
320.129	368.75
320.358	388.75
320.587	367.75
320.816	367.75
321.046	382.75
321.275	376.75
321.504	374.75
321.733	400.75
321.962	394.75
322.191	386.75
322.42	437.75
322.649	443.75
322.878	442.75
323.108	444.75
323.337	464.75
323.566	489.75
323.795	520.75
324.024	574.75
324.253	681.75
324.482	972.75
324.71	1519.75
324.939	2114.75
325.168	1857.75
325.397	1011.75
325.626	663.75
325.855	554.75
326.084	517.75
326.313	482.75
326.542	499.75
326.77	548.75
326.999	637.75
327.228	903.75
327.457	1335.75
327.686	1602.75
327.914	1095.75
328.143	742.75
328.372	619.75
328.6	600.75
328.829	539.75
329.058	581.75
329.287	611.75
329.515	559.75
329.744	510.75
329.972	478.75
330.201	507.75
330.43	551.75
330.658	582.75
330.887	619.75
331.115	597.75
331.344	515.75
331.572	497.75
331.801	492.75
332.03	472.75
332.258	452.75
332.486	436.75
332.715	420.75
332.943	442.75
333.172	444.75
333.4	444.75
333.629	441.75
333.857	453.75
334.085	478.75
334.314	472.75
334.542	489.75
334.771	513.75
334.999	480.75
335.227	450.75
335.455	439.75
335.684	423.75
335.912	432.75
336.14	415.75
336.369	409.75
336.597	432.75
336.825	428.75
337.053	402.75
337.281	406.75
337.51	401.75
337.738	418.75
337.966	416.75
338.194	410.75
338.422	411.75
338.65	415.75
338.878	427.75
339.106	412.75
339.334	402.75
339.562	403.75
339.79	403.75
340.018	402.75
340.246	406.75
340.474	406.75
340.702	396.75
340.93	421.75
341.158	381.75
341.386	397.75
341.614	404.75
341.842	393.75
342.07	399.75
342.298	396.75
342.526	399.75
342.754	393.75
342.981	406.75
343.209	399.75
343.437	398.75
343.665	379.75
343.893	405.75
344.12	416.75
344.348	401.75
344.576	392.75
344.804	414.75
345.031	421.75
345.259	441.75
345.487	417.75
345.714	402.75
345.942	421.75
346.17	393.75
346.397	393.75
346.625	395.75
346.853	403.75
347.08	404.75
347.308	410.75
347.535	413.75
347.763	407.75
347.99	423.75
348.218	413.75
348.445	427.75
348.673	434.75
348.9	413.75
349.128	411.75
349.355	409.75
349.583	384.75
349.81	395.75
350.037	398.75
350.265	399.75
350.492	392.75
350.72	383.75
350.947	396.75
351.174	417.75
351.402	421.75
351.629	435.75
351.856	414.75
352.083	418.75
352.311	430.75
352.538	429.75
352.765	428.75
352.992	411.75
353.22	407.75
353.447	415.75
353.674	397.75
353.901	390.75
354.128	380.75
354.355	383.75
354.583	398.75
354.81	401.75
355.037	404.75
355.264	385.75
355.491	371.75
355.718	370.75
355.945	359.75
356.172	381.75
356.399	373.75
356.626	375.75
356.853	365.75
357.08	391.75
357.307	387.75
357.534	368.75
357.761	395.75
357.988	388.75
358.215	389.75
358.441	384.75
358.668	383.75
358.895	386.75
359.122	400.75
359.349	401.75
359.576	410.75
359.802	436.75
360.029	462.75
360.256	461.75
360.483	460.75
360.709	433.75
360.936	418.75
361.163	417.75
361.39	413.75
361.616	421.75
361.843	429.75
362.07	404.75
362.296	403.75
362.523	423.75
362.749	424.75
362.976	413.75
363.203	387.75
363.429	401.75
363.656	410.75
363.882	389.75
364.109	375.75
364.335	410.75
364.562	382.75
364.788	411.75
365.015	397.75
365.241	384.75
365.468	423.75
365.694	420.75
365.92	421.75
366.147	398.75
366.373	391.75
366.599	399.75
366.826	386.75
367.052	368.75
367.278	379.75
367.505	405.75
367.731	409.75
367.957	386.75
368.184	417.75
368.41	423.75
368.636	399.75
368.862	419.75
369.089	432.75
369.315	428.75
369.541	393.75
369.767	414.75
369.993	401.75
370.219	387.75
370.445	404.75
370.672	378.75
370.898	415.75
371.124	400.75
371.35	388.75
371.576	390.75
371.802	401.75
372.028	396.75
372.254	389.75
372.48	385.75
372.706	401.75
372.932	404.75
373.158	395.75
373.384	394.75
373.61	414.75
373.835	392.75
374.061	413.75
374.287	408.75
374.513	397.75
374.739	408.75
374.965	399.75
375.191	408.75
375.416	404.75
375.642	406.75
375.868	415.75
376.094	401.75
376.319	375.75
376.545	401.75
376.771	416.75
376.997	396.75
377.222	388.75
377.448	396.75
377.674	382.75
377.899	389.75
378.125	408.75
378.35	403.75
378.576	397.75
378.802	398.75
379.027	370.75
379.253	398.75
379.478	382.75
379.704	404.75
379.929	414.75
380.155	399.75
380.38	398.75
380.606	411.75
380.831	393.75
381.057	403.75
381.282	413.75
381.507	392.75
381.733	423.75
381.958	402.75
382.184	414.75
382.409	426.75
382.634	423.75
382.86	404.75
383.085	406.75
383.31	407.75
383.535	417.75
383.761	399.75
383.986	432.75
384.211	402.75
384.436	420.75
384.662	434.75
384.887	447.75
385.112	420.75
385.337	435.75
385.562	426.75
385.787	445.75
386.013	419.75
386.238	439.75
386.463	447.75
386.688	423.75
386.913	426.75
387.138	420.75
387.363	432.75
387.588	437.75
387.813	449.75
388.038	421.75
388.263	459.75
388.488	438.75
388.713	449.75
388.938	435.75
389.163	431.75
389.387	441.75
389.612	435.75
389.837	427.75
390.062	429.75
390.287	449.75
390.512	437.75
390.736	426.75
390.961	409.75
391.186	422.75
391.411	440.75
391.636	446.75
391.86	466.75
392.085	453.75
392.31	438.75
392.534	426.75
392.759	439.75
392.984	432.75
393.208	432.75
393.433	461.75
393.658	440.75
393.882	431.75
394.107	455.75
394.331	452.75
394.556	428.75
394.78	455.75
395.005	456.75
395.229	427.75
395.454	444.75
395.678	473.75
395.903	456.75
396.127	487.75
396.352	474.75
396.576	476.75
396.801	482.75
397.025	460.75
397.249	470.75
397.474	456.75
397.698	453.75
397.922	490.75
398.147	483.75
398.371	490.75
398.595	473.75
398.82	482.75
399.044	482.75
399.268	510.75
399.492	513.75
399.717	544.75
399.941	576.75
400.165	611.75
400.389	607.75
400.613	572.75
400.837	499.75
401.062	528.75
401.286	514.75
401.51	512.75
401.734	519.75
401.958	488.75
402.182	480.75
402.406	506.75
402.63	512.75
402.854	533.75
403.078	513.75
403.302	525.75
403.526	528.75
403.75	520.75
403.974	516.75
404.198	519.75
404.422	506.75
404.645	520.75
404.869	514.75
405.093	562.75
405.317	580.75
405.541	631.75
405.765	567.75
405.988	545.75
406.212	580.75
406.436	580.75
406.66	581.75
406.883	548.75
407.107	603.75
407.331	605.75
407.555	676.75
407.778	689.75
408.002	641.75
408.226	589.75
408.449	571.75
408.673	582.75
408.896	589.75
409.12	622.75
409.344	623.75
409.567	576.75
409.791	535.75
410.014	516.75
410.238	520.75
410.461	526.75
410.685	511.75
410.908	553.75
411.132	552.75
411.355	629.75
411.578	593.75
411.802	549.75
412.025	525.75
412.249	534.75
412.472	555.75
412.695	607.75
412.919	596.75
413.142	528.75
413.365	530.75
413.589	521.75
413.812	513.75
414.035	507.75
414.258	484.75
414.482	499.75
414.705	499.75
414.928	484.75
415.151	500.75
415.374	486.75
415.597	481.75
415.821	485.75
416.044	482.75
416.267	488.75
416.49	498.75
416.713	499.75
416.936	492.75
417.159	481.75
417.382	512.75
417.605	500.75
417.828	507.75
418.051	519.75
418.274	526.75
418.497	501.75
418.72	507.75
418.943	474.75
419.166	521.75
419.389	523.75
419.611	538.75
419.834	533.75
420.057	531.75
420.28	525.75
420.503	537.75
420.726	527.75
420.948	560.75
421.171	579.75
421.394	610.75
421.617	572.75
421.839	538.75
422.062	537.75
422.285	556.75
422.507	609.75
422.73	666.75
422.953	663.75
423.175	609.75
423.398	560.75
423.621	524.75
423.843	572.75
424.066	569.75
424.288	572.75
424.511	595.75
424.733	649.75
424.956	733.75
425.178	702.75
425.401	714.75
425.623	712.75
425.846	648.75
426.068	577.75
426.291	601.75
426.513	566.75
426.735	600.75
426.958	631.75
427.18	695.75
427.402	843.75
427.625	905.75
427.847	835.75
428.069	727.75
428.292	613.75
428.514	565.75
428.736	557.75
428.958	581.75
429.181	549.75
429.403	549.75
429.625	543.75
429.847	589.75
430.069	635.75
430.292	650.75
430.514	564.75
430.736	534.75
430.958	530.75
431.18	525.75
431.402	522.75
431.624	486.75
431.846	524.75
432.068	521.75
432.29	511.75
432.512	485.75
432.734	530.75
432.956	482.75
433.178	509.75
433.4	531.75
433.622	529.75
433.844	499.75
434.066	487.75
434.287	503.75
434.509	496.75
434.731	504.75
434.953	517.75
435.175	535.75
435.397	559.75
435.618	598.75
435.84	635.75
436.062	731.75
436.284	792.75
436.505	677.75
436.727	594.75
436.949	571.75
437.17	538.75
437.392	540.75
437.614	575.75
437.835	605.75
438.057	674.75
438.278	802.75
438.5	801.75
438.721	850.75
438.943	828.75
439.165	677.75
439.386	615.75
439.608	626.75
439.829	604.75
440.05	635.75
440.272	653.75
440.493	637.75
440.715	592.75
440.936	582.75
441.158	555.75
441.379	561.75
441.6	543.75
441.822	599.75
442.043	626.75
442.264	717.75
442.486	745.75
442.707	647.75
442.928	612.75
443.149	603.75
443.371	623.75
443.592	665.75
443.813	740.75
444.034	796.75
444.255	677.75
444.476	640.75
444.698	592.75
444.919	579.75
445.14	693.75
445.361	636.75
445.582	605.75
445.803	703.75
446.024	779.75
446.245	799.75
446.466	721.75
446.687	605.75
446.908	601.75
447.129	578.75
447.35	543.75
447.571	543.75
447.792	531.75
448.013	538.75
448.234	587.75
448.455	624.75
448.675	737.75
448.896	834.75
449.117	726.75
449.338	679.75
449.559	797.75
449.779	870.75
450	713.75
450.221	634.75
450.442	567.75
450.662	545.75
450.883	552.75
451.104	581.75
451.324	553.75
451.545	543.75
451.766	507.75
451.986	503.75
452.207	477.75
452.428	482.75
452.648	478.75
452.869	489.75
453.089	499.75
453.31	505.75
453.53	513.75
453.751	483.75
453.971	491.75
454.192	522.75
454.412	508.75
454.633	456.75
454.853	470.75
455.073	490.75
455.294	540.75
455.514	575.75
455.734	575.75
455.955	495.75
456.175	474.75
456.395	477.75
456.616	462.75
456.836	452.75
457.056	457.75
457.276	436.75
457.497	465.75
457.717	456.75
457.937	441.75
458.157	477.75
458.377	454.75
458.598	486.75
458.818	553.75
459.038	654.75
459.258	673.75
459.478	565.75
459.698	526.75
459.918	497.75
460.138	510.75
460.358	495.75
460.578	526.75
460.798	501.75
461.018	521.75
461.238	483.75
461.458	500.75
461.678	515.75
461.898	506.75
462.118	492.75
462.338	514.75
462.558	519.75
462.777	532.75
462.997	513.75
463.217	523.75
463.437	522.75
463.657	553.75
463.876	548.75
464.096	541.75
464.316	532.75
464.536	537.75
464.755	570.75
464.975	559.75
465.195	592.75
465.414	689.75
465.634	621.75
465.854	546.75
466.073	517.75
466.293	504.75
466.512	514.75
466.732	496.75
466.951	482.75
467.171	484.75
467.391	515.75
467.61	510.75
467.829	500.75
468.049	517.75
468.268	491.75
468.488	480.75
468.707	483.75
468.927	495.75
469.146	483.75
469.365	475.75
469.585	485.75
469.804	481.75
470.023	489.75
470.243	491.75
470.462	519.75
470.681	524.75
470.901	505.75
471.12	514.75
471.339	503.75
471.558	512.75
471.777	527.75
471.997	521.75
472.216	512.75
472.435	526.75
472.654	529.75
472.873	510.75
473.092	513.75
473.311	520.75
473.53	505.75
473.749	537.75
473.968	542.75
474.187	647.75
474.406	667.75
474.625	572.75
474.844	522.75
475.063	517.75
475.282	514.75
475.501	512.75
475.72	525.75
475.939	519.75
476.158	532.75
476.377	534.75
476.596	526.75
476.814	522.75
477.033	551.75
477.252	557.75
477.471	558.75
477.69	552.75
477.908	551.75
478.127	551.75
478.346	546.75
478.564	578.75
478.783	557.75
479.002	565.75
479.22	568.75
479.439	600.75
479.658	606.75
479.876	611.75
480.095	623.75
480.313	647.75
480.532	617.75
480.751	601.75
480.969	607.75
481.188	693.75
481.406	734.75
481.624	661.75
481.843	627.75
482.061	624.75
482.28	629.75
482.498	614.75
482.717	576.75
482.935	618.75
483.153	596.75
483.372	605.75
483.59	612.75
483.808	613.75
484.027	623.75
484.245	601.75
484.463	618.75
484.681	619.75
484.9	637.75
485.118	620.75
485.336	609.75
485.554	606.75
485.772	603.75
485.99	615.75
486.209	645.75
486.427	634.75
486.645	653.75
486.863	665.75
487.081	663.75
487.299	678.75
487.517	667.75
487.735	643.75
487.953	671.75
488.171	653.75
488.389	648.75
488.607	659.75
488.825	671.75
489.043	674.75
489.261	656.75
489.479	693.75
489.696	660.75
489.914	664.75
490.132	692.75
490.35	682.75
490.568	705.75
490.786	742.75
491.003	714.75
491.221	729.75
491.439	735.75
491.657	748.75
491.874	781.75
492.092	764.75
492.31	760.75
492.527	769.75
492.745	771.75
492.963	781.75
493.18	777.75
493.398	775.75
493.615	773.75
493.833	789.75
494.05	785.75
494.268	792.75
494.485	801.75
494.703	805.75
494.92	797.75
495.138	791.75
495.355	807.75
495.573	812.75
495.79	818.75
496.008	783.75
496.225	811.75
496.442	784.75
496.66	835.75
496.877	788.75
497.094	794.75
497.312	816.75
497.529	821.75
497.746	838.75
497.963	824.75
498.181	861.75
498.398	855.75
498.615	836.75
498.832	864.75
499.049	871.75
499.267	852.75
499.484	901.75
499.701	936.75
499.918	936.75
500.135	951.75
500.352	992.75
500.569	1021.75
500.786	1001.75
501.003	1007.75
501.22	976.75
501.437	956.75
501.654	979.75
501.871	958.75
502.088	918.75
502.305	905.75
502.522	858.75
502.739	871.75
502.956	850.75
503.172	795.75
503.389	843.75
503.606	832.75
503.823	803.75
504.04	808.75
504.256	796.75
504.473	791.75
504.69	755.75
504.907	784.75
505.123	788.75
505.34	772.75
505.557	792.75
505.773	780.75
505.99	771.75
506.207	788.75
506.423	771.75
506.64	773.75
506.856	727.75
507.073	746.75
507.289	736.75
507.506	739.75
507.722	764.75
507.939	791.75
508.155	738.75
508.372	748.75
508.588	705.75
508.805	740.75
509.021	735.75
509.238	728.75
509.454	743.75
509.67	736.75
509.887	697.75
510.103	731.75
510.319	735.75
510.536	864.75
510.752	1402.75
510.968	1144.75
511.184	751.75
511.401	710.75
511.617	716.75
511.833	703.75
512.049	689.75
512.265	699.75
512.481	689.75
512.698	691.75
512.914	682.75
513.13	676.75
513.346	688.75
513.562	675.75
513.778	711.75
513.994	694.75
514.21	706.75
514.426	727.75
514.642	795.75
514.858	810.75
515.074	868.75
515.29	996.75
515.506	1526.75
515.721	1225.75
515.937	844.75
516.153	782.75
516.369	724.75
516.585	730.75
516.801	709.75
517.016	703.75
517.232	676.75
517.448	694.75
517.664	696.75
517.879	709.75
518.095	681.75
518.311	685.75
518.527	704.75
518.742	691.75
518.958	685.75
519.173	688.75
519.389	678.75
519.605	707.75
519.82	692.75
520.036	717.75
520.251	727.75
520.467	747.75
520.682	725.75
520.898	763.75
521.113	789.75
521.329	836.75
521.544	943.75
521.76	1175.75
521.975	1915.75
522.19	1939.75
522.406	1024.75
522.621	818.75
522.836	746.75
523.052	705.75
523.267	644.75
523.482	637.75
523.698	662.75
523.913	643.75
524.128	638.75
524.343	634.75
524.559	589.75
524.774	608.75
524.989	593.75
525.204	613.75
525.419	604.75
525.634	576.75
525.849	564.75
526.064	579.75
526.28	596.75
526.495	556.75
526.71	589.75
526.925	565.75
527.14	567.75
527.355	566.75
527.57	557.75
527.785	565.75
527.999	563.75
528.214	559.75
528.429	538.75
528.644	545.75
528.859	554.75
529.074	553.75
529.289	584.75
529.503	664.75
529.718	682.75
529.933	597.75
530.148	584.75
530.363	573.75
530.577	553.75
530.792	547.75
531.007	544.75
531.221	556.75
531.436	513.75
531.651	535.75
531.865	539.75
532.08	522.75
532.295	520.75
532.509	528.75
532.724	532.75
532.938	545.75
533.153	532.75
533.367	523.75
533.582	531.75
533.796	512.75
534.011	519.75
534.225	496.75
534.44	520.75
534.654	534.75
534.868	510.75
535.083	522.75
535.297	518.75
535.511	520.75
535.726	556.75
535.94	515.75
536.154	518.75
536.369	523.75
536.583	524.75
536.797	499.75
537.011	521.75
537.225	507.75
537.44	509.75
537.654	526.75
537.868	513.75
538.082	493.75
538.296	525.75
538.51	499.75
538.724	488.75
538.938	519.75
539.153	513.75
539.367	539.75
539.581	523.75
539.795	530.75
540.009	512.75
540.222	508.75
540.436	499.75
540.65	518.75
540.864	490.75
541.078	521.75
541.292	552.75
541.506	499.75
541.72	515.75
541.934	503.75
542.147	505.75
542.361	508.75
542.575	489.75
542.789	523.75
543.002	468.75
543.216	495.75
543.43	516.75
543.644	503.75
543.857	494.75
544.071	518.75
544.285	519.75
544.498	522.75
544.712	490.75
544.925	487.75
545.139	481.75
545.352	491.75
545.566	479.75
545.779	493.75
545.993	491.75
546.206	474.75
546.42	512.75
546.633	476.75
546.847	509.75
547.06	492.75
547.274	497.75
547.487	487.75
547.7	472.75
547.914	470.75
548.127	516.75
548.34	461.75
548.554	478.75
548.767	490.75
548.98	477.75
549.193	480.75
549.407	473.75
549.62	477.75
549.833	466.75
550.046	476.75
550.259	471.75
550.473	463.75
550.686	465.75
550.899	462.75
551.112	485.75
551.325	461.75
551.538	463.75
551.751	468.75
551.964	481.75
552.177	460.75
552.39	464.75
552.603	462.75
552.816	448.75
553.029	456.75
553.242	480.75
553.455	480.75
553.667	485.75
553.88	499.75
554.093	503.75
554.306	467.75
554.519	485.75
554.732	464.75
554.944	465.75
555.157	461.75
555.37	472.75
555.583	439.75
555.795	451.75
556.008	466.75
556.221	462.75
556.433	447.75
556.646	455.75
556.859	450.75
557.071	445.75
557.284	449.75
557.496	439.75
557.709	421.75
557.921	427.75
558.134	424.75
558.346	416.75
558.559	431.75
558.771	439.75
558.984	429.75
559.196	425.75
559.409	449.75
559.621	439.75
559.833	419.75
560.046	399.75
560.258	401.75
560.47	436.75
560.683	415.75
560.895	420.75
561.107	421.75
561.32	412.75
561.532	416.75
561.744	410.75
561.956	428.75
562.168	428.75
562.381	425.75
562.593	406.75
562.805	424.75
563.017	424.75
563.229	421.75
563.441	433.75
563.653	431.75
563.865	439.75
564.077	429.75
564.289	403.75
564.501	427.75
564.713	445.75
564.925	479.75
565.137	464.75
565.349	457.75
565.561	472.75
565.773	443.75
565.985	458.75
566.197	459.75
566.408	473.75
566.62	455.75
566.832	490.75
567.044	480.75
567.255	480.75
567.467	475.75
567.679	479.75
567.891	489.75
568.102	476.75
568.314	499.75
568.526	460.75
568.737	467.75
568.949	461.75
569.161	436.75
569.372	420.75
569.584	417.75
569.795	413.75
570.007	418.75
570.218	474.75
570.43	476.75
570.641	433.75
570.853	409.75
571.064	417.75
571.276	400.75
571.487	394.75
571.698	385.75
571.91	380.75
572.121	410.75
572.333	378.75
572.544	395.75
572.755	376.75
572.966	378.75
573.178	382.75
573.389	380.75
573.6	376.75
573.811	364.75
574.023	338.75
574.234	361.75
574.445	359.75
574.656	345.75
574.867	347.75
575.078	362.75
575.289	374.75
575.501	369.75
575.712	351.75
575.923	359.75
576.134	339.75
576.345	371.75
576.556	345.75
576.767	352.75
576.978	349.75
577.188	360.75
577.399	349.75
577.61	348.75
577.821	343.75
578.032	343.75
578.243	390.75
578.454	637.75
578.665	475.75
578.875	353.75
579.086	340.75
579.297	355.75
579.508	344.75
579.718	362.75
579.929	341.75
580.14	335.75
580.35	353.75
580.561	331.75
580.772	341.75
580.982	332.75
581.193	325.75
581.403	341.75
581.614	352.75
581.825	325.75
582.035	320.75
582.246	333.75
582.456	320.75
582.667	329.75
582.877	325.75
583.087	312.75
583.298	326.75
583.508	348.75
583.719	348.75
583.929	325.75
584.139	327.75
584.35	315.75
584.56	347.75
584.77	306.75
584.981	311.75
585.191	322.75
585.401	332.75
585.611	312.75
585.821	317.75
586.032	331.75
586.242	317.75
586.452	309.75
586.662	336.75
586.872	300.75
587.082	331.75
587.292	289.75
587.502	327.75
587.713	309.75
587.923	319.75
588.133	305.75
588.343	322.75
588.553	301.75
588.762	305.75
588.972	294.75
589.182	296.75
589.392	328.75
589.602	335.75
589.812	319.75
590.022	329.75
590.232	336.75
590.441	293.75
590.651	309.75
590.861	317.75
591.071	286.75
591.281	310.75
591.49	306.75
591.7	316.75
591.91	316.75
592.119	324.75
592.329	321.75
592.539	321.75
592.748	312.75
592.958	321.75
593.167	310.75
593.377	317.75
593.587	330.75
593.796	312.75
594.006	330.75
594.215	311.75
594.424	305.75
594.634	307.75
594.843	307.75
595.053	329.75
595.262	307.75
595.472	313.75
595.681	310.75
595.89	317.75
596.1	290.75
596.309	292.75
596.518	291.75
596.727	299.75
596.937	286.75
597.146	292.75
597.355	285.75
597.564	292.75
597.774	281.75
597.983	305.75
598.192	287.75
598.401	290.75
598.61	294.75
598.819	291.75
599.028	280.75
599.237	282.75
599.446	282.75
599.655	282.75
599.864	264.75
600.073	294.75
600.282	270.75
600.491	271.75
600.7	289.75
600.909	274.75
601.118	273.75
601.327	258.75
601.536	279.75
601.745	291.75
601.953	265.75
602.162	292.75
602.371	273.75
602.58	289.75
602.789	294.75
602.997	287.75
603.206	269.75
603.415	287.75
603.623	264.75
603.832	257.75
604.041	262.75
604.249	246.75
604.458	276.75
604.666	268.75
604.875	242.75
605.084	260.75
605.292	274.75
605.501	276.75
605.709	279.75
605.918	269.75
606.126	264.75
606.334	263.75
606.543	268.75
606.751	272.75
606.96	264.75
607.168	269.75
607.376	264.75
607.585	251.75
607.793	252.75
608.001	279.75
608.21	274.75
608.418	265.75
608.626	260.75
608.834	245.75
609.043	258.75
609.251	269.75
609.459	247.75
609.667	263.75
609.875	255.75
610.083	276.75
610.291	258.75
610.499	273.75
610.707	259.75
610.916	246.75
611.124	265.75
611.332	265.75
611.54	258.75
611.748	273.75
611.955	280.75
612.163	276.75
612.371	273.75
612.579	255.75
612.787	268.75
612.995	249.75
613.203	239.75
613.411	256.75
613.618	255.75
613.826	249.75
614.034	269.75
614.242	272.75
614.449	249.75
614.657	260.75
614.865	276.75
615.072	260.75
615.28	237.75
615.488	259.75
615.695	240.75
615.903	249.75
616.111	237.75
616.318	233.75
616.526	262.75
616.733	250.75
616.941	255.75
617.148	265.75
617.356	265.75
617.563	255.75
617.771	241.75
617.978	237.75
618.185	260.75
618.393	249.75
618.6	261.75
618.807	257.75
619.015	243.75
619.222	227.75
619.429	273.75
619.637	247.75
619.844	239.75
620.051	233.75
620.258	223.75
620.466	228.75
620.673	239.75
620.88	236.75
621.087	227.75
621.294	232.75
621.501	252.75
621.708	218.75
621.915	248.75
622.122	231.75
622.329	228.75
622.536	246.75
622.743	232.75
622.95	241.75
623.157	229.75
623.364	234.75
623.571	229.75
623.778	250.75
623.985	220.75
624.192	228.75
624.399	227.75
624.606	222.75
624.812	218.75
625.019	216.75
625.226	231.75
625.433	214.75
625.639	221.75
625.846	221.75
626.053	205.75
626.259	227.75
626.466	220.75
626.673	218.75
626.879	221.75
627.086	223.75
627.293	218.75
627.499	231.75
627.706	216.75
627.912	223.75
628.119	207.75
628.325	216.75
628.532	202.75
628.738	222.75
628.945	209.75
629.151	232.75
629.357	220.75
629.564	184.75
629.77	208.75
629.976	205.75
630.183	196.75
630.389	201.75
630.595	203.75
630.802	195.75
631.008	205.75
631.214	213.75
631.42	207.75
631.627	211.75
631.833	185.75
632.039	215.75
632.245	194.75
632.451	197.75
632.657	209.75
632.863	199.75
633.069	201.75
633.275	188.75
633.481	181.75
633.688	196.75
633.893	198.75
634.099	213.75
634.305	189.75
634.511	181.75
634.717	191.75
634.923	201.75
635.129	198.75
635.335	192.75
635.541	186.75
635.747	181.75
635.952	185.75
636.158	209.75
636.364	212.75
636.57	209.75
636.775	201.75
636.981	195.75
637.187	192.75
637.392	194.75
637.598	199.75
637.804	188.75
638.009	197.75
638.215	178.75
638.421	181.75
638.626	192.75
638.832	201.75
639.037	187.75
639.243	174.75
639.448	191.75
639.654	181.75
639.859	175.75
640.065	177.75
640.27	193.75
640.475	168.75
640.681	194.75
640.886	184.75
641.091	185.75
641.297	191.75
641.502	202.75
641.707	181.75
641.913	185.75
642.118	180.75
642.323	171.75
642.528	175.75
642.733	167.75
642.939	175.75
643.144	165.75
643.349	179.75
643.554	181.75
643.759	173.75
643.964	187.75
644.169	193.75
644.374	177.75
644.579	169.75
644.784	175.75
644.989	188.75
645.194	179.75
645.399	183.75
645.604	173.75
645.809	175.75
646.014	187.75
646.219	185.75
646.423	166.75
646.628	171.75
646.833	168.75
647.038	167.75
647.243	156.75
647.447	157.75
647.652	174.75
647.857	178.75
648.062	188.75
648.266	183.75
648.471	180.75
648.676	171.75
648.88	165.75
649.085	163.75
649.289	178.75
649.494	175.75
649.698	190.75
649.903	197.75
650.107	169.75
650.312	161.75
650.516	177.75
650.721	147.75
650.925	153.75
651.13	162.75
651.334	162.75
651.539	148.75
651.743	154.75
651.947	168.75
652.152	141.75
652.356	142.75
652.56	147.75
652.764	138.75
652.969	148.75
653.173	150.75
653.377	142.75
653.581	139.75
653.785	137.75
653.99	144.75
654.194	147.75
654.398	137.75
654.602	112.75
654.806	133.75
655.01	143.75
655.214	147.75
655.418	135.75
655.622	141.75
655.826	131.75
656.03	121.75
656.234	129.75
656.438	136.75
656.642	132.75
656.846	123.75
657.049	140.75
657.253	129.75
657.457	123.75
657.661	121.75
657.865	123.75
658.068	107.75
658.272	111.75
658.476	103.75
658.68	118.75
658.883	101.75
659.087	98.75
659.291	92.75
659.494	103.75
659.698	109.75
659.901	102.75
660.105	98.75
660.309	85.75
660.512	90.75
660.716	98.75
660.919	98.75
661.123	101.75
661.326	95.75
661.53	93.75
661.733	91.75
661.936	89.75
662.14	79.75
662.343	101.75
662.546	92.75
662.75	74.75
662.953	87.75
663.156	84.75
663.36	87.75
663.563	99.75
663.766	78.75
663.969	76.75
664.173	93.75
664.376	67.75
664.579	75.75
664.782	95.75
664.985	79.75
665.188	61.75
665.391	85.75
665.594	74.75
665.797	79.75
666	90.75
666.203	74.75
666.406	75.75
666.609	76.75
666.812	67.75
667.015	82.75
667.218	86.75
667.421	84.75
667.624	80.75
667.827	87.75
668.03	99.75
668.232	81.75
668.435	70.75
668.638	75.75
668.841	86.75
669.043	80.75
669.246	79.75
669.449	65.75
669.651	88.75
669.854	85.75
670.057	90.75
670.259	87.75
670.462	83.75
670.665	79.75
670.867	87.75
671.07	92.75
671.272	90.75
671.475	79.75
671.677	77.75
671.88	76.75
672.082	77.75
672.284	84.75
672.487	81.75
672.689	74.75
672.892	95.75
