Data from 1970.PennyLincolnUp.Lamp.En5.5.200Scan.071719.P1._HRD10591_15-13-04-843.txt Node
Date: Thu Jul 18 15:13:04 EDT 2019
User: cochatt
Spectrometer: HR+D1059
Trigger mode: 1
Integration Time (sec): 1.000000E-1
Scans to average: 1
Electric dark correction enabled: true
Nonlinearity correction enabled: false
Boxcar width: 0
XAxis mode: Wavelengths
Number of Pixels in Spectrum: 2048
>>>>>Begin Spectral Data<<<<<
223.165	-9.31
223.4	-9.31
223.635	-9.31
223.869	-22.31
224.104	-10.31
224.338	-13.31
224.573	-14.31
224.808	-21.31
225.042	-17.31
225.277	-8.31
225.511	0.69
225.746	7.69
225.98	10.69
226.215	23.69
226.449	6.69
226.683	13.69
226.918	33.69
227.152	19.69
227.387	31.69
227.621	43.69
227.856	57.69
228.09	38.69
228.324	48.69
228.559	63.69
228.793	69.69
229.027	92.69
229.262	108.69
229.496	98.69
229.73	125.69
229.964	128.69
230.199	111.69
230.433	107.69
230.667	105.69
230.901	114.69
231.136	116.69
231.37	107.69
231.604	93.69
231.838	96.69
232.072	111.69
232.306	101.69
232.541	101.69
232.775	113.69
233.009	112.69
233.243	117.69
233.477	111.69
233.711	121.69
233.945	102.69
234.179	113.69
234.413	96.69
234.647	125.69
234.881	108.69
235.115	107.69
235.349	117.69
235.583	122.69
235.817	106.69
236.051	118.69
236.285	133.69
236.519	104.69
236.753	129.69
236.987	130.69
237.221	157.69
237.455	208.69
237.689	161.69
237.922	138.69
238.156	132.69
238.39	107.69
238.624	129.69
238.858	123.69
239.091	115.69
239.325	115.69
239.559	120.69
239.793	121.69
240.027	121.69
240.26	129.69
240.494	124.69
240.728	119.69
240.961	147.69
241.195	125.69
241.429	127.69
241.662	112.69
241.896	129.69
242.13	119.69
242.363	115.69
242.597	131.69
242.83	129.69
243.064	141.69
243.298	129.69
243.531	125.69
243.765	149.69
243.998	128.69
244.232	114.69
244.465	129.69
244.699	146.69
244.932	135.69
245.166	137.69
245.399	130.69
245.633	130.69
245.866	136.69
246.099	137.69
246.333	138.69
246.566	146.69
246.8	155.69
247.033	135.69
247.266	139.69
247.5	157.69
247.733	159.69
247.966	169.69
248.2	176.69
248.433	154.69
248.666	169.69
248.899	158.69
249.133	185.69
249.366	191.69
249.599	187.69
249.832	181.69
250.066	189.69
250.299	174.69
250.532	176.69
250.765	184.69
250.998	193.69
251.231	187.69
251.465	191.69
251.698	182.69
251.931	204.69
252.164	185.69
252.397	170.69
252.63	170.69
252.863	204.69
253.096	189.69
253.329	189.69
253.562	204.69
253.795	198.69
254.028	185.69
254.261	195.69
254.494	188.69
254.727	225.69
254.96	228.69
255.193	234.69
255.426	220.69
255.659	217.69
255.892	211.69
256.124	194.69
256.357	198.69
256.59	173.69
256.823	187.69
257.056	182.69
257.289	182.69
257.521	194.69
257.754	172.69
257.987	195.69
258.22	199.69
258.452	197.69
258.685	193.69
258.918	168.69
259.151	174.69
259.383	200.69
259.616	189.69
259.849	202.69
260.081	207.69
260.314	234.69
260.547	229.69
260.779	220.69
261.012	203.69
261.244	198.69
261.477	219.69
261.71	201.69
261.942	190.69
262.175	201.69
262.407	195.69
262.64	187.69
262.872	201.69
263.105	196.69
263.337	196.69
263.57	168.69
263.802	172.69
264.035	168.69
264.267	177.69
264.499	171.69
264.732	177.69
264.964	182.69
265.197	169.69
265.429	184.69
265.661	179.69
265.894	180.69
266.126	185.69
266.358	188.69
266.591	192.69
266.823	203.69
267.055	185.69
267.287	186.69
267.52	213.69
267.752	185.69
267.984	183.69
268.216	195.69
268.448	193.69
268.681	199.69
268.913	208.69
269.145	214.69
269.377	226.69
269.609	216.69
269.841	229.69
270.073	229.69
270.306	229.69
270.538	246.69
270.77	254.69
271.002	245.69
271.234	220.69
271.466	238.69
271.698	248.69
271.93	253.69
272.162	257.69
272.394	233.69
272.626	240.69
272.858	232.69
273.09	222.69
273.322	218.69
273.553	215.69
273.785	221.69
274.017	228.69
274.249	209.69
274.481	218.69
274.713	228.69
274.945	222.69
275.176	209.69
275.408	232.69
275.64	198.69
275.872	222.69
276.104	222.69
276.335	199.69
276.567	201.69
276.799	224.69
277.031	244.69
277.262	243.69
277.494	246.69
277.726	236.69
277.957	214.69
278.189	227.69
278.421	235.69
278.652	217.69
278.884	230.69
279.115	218.69
279.347	218.69
279.579	197.69
279.81	213.69
280.042	235.69
280.273	220.69
280.505	233.69
280.736	215.69
280.968	221.69
281.199	204.69
281.431	213.69
281.662	210.69
281.894	203.69
282.125	211.69
282.356	223.69
282.588	230.69
282.819	245.69
283.051	221.69
283.282	203.69
283.513	203.69
283.745	212.69
283.976	218.69
284.207	210.69
284.439	209.69
284.67	223.69
284.901	226.69
285.132	217.69
285.364	207.69
285.595	220.69
285.826	221.69
286.057	230.69
286.288	232.69
286.52	214.69
286.751	208.69
286.982	230.69
287.213	221.69
287.444	251.69
287.675	231.69
287.906	235.69
288.138	217.69
288.369	222.69
288.6	240.69
288.831	226.69
289.062	238.69
289.293	223.69
289.524	221.69
289.755	235.69
289.986	215.69
290.217	219.69
290.448	230.69
290.679	231.69
290.91	224.69
291.141	209.69
291.371	212.69
291.602	221.69
291.833	226.69
292.064	225.69
292.295	225.69
292.526	238.69
292.757	225.69
292.987	231.69
293.218	215.69
293.449	239.69
293.68	229.69
293.91	231.69
294.141	231.69
294.372	223.69
294.603	211.69
294.833	237.69
295.064	234.69
295.295	225.69
295.525	223.69
295.756	235.69
295.987	230.69
296.217	234.69
296.448	242.69
296.679	234.69
296.909	232.69
297.14	231.69
297.37	240.69
297.601	240.69
297.831	247.69
298.062	218.69
298.292	250.69
298.523	226.69
298.753	239.69
298.984	225.69
299.214	234.69
299.445	248.69
299.675	243.69
299.905	246.69
300.136	229.69
300.366	236.69
300.597	230.69
300.827	239.69
301.057	234.69
301.288	254.69
301.518	234.69
301.748	235.69
301.979	227.69
302.209	251.69
302.439	269.69
302.669	237.69
302.9	235.69
303.13	233.69
303.36	235.69
303.59	229.69
303.82	271.69
304.051	265.69
304.281	243.69
304.511	237.69
304.741	253.69
304.971	242.69
305.201	229.69
305.431	254.69
305.661	260.69
305.891	237.69
306.121	257.69
306.352	225.69
306.582	264.69
306.812	248.69
307.042	251.69
307.272	241.69
307.502	250.69
307.731	245.69
307.961	233.69
308.191	237.69
308.421	249.69
308.651	247.69
308.881	270.69
309.111	264.69
309.341	258.69
309.571	255.69
309.8	257.69
310.03	273.69
310.26	268.69
310.49	278.69
310.72	295.69
310.949	321.69
311.179	316.69
311.409	275.69
311.639	293.69
311.868	275.69
312.098	289.69
312.328	299.69
312.557	315.69
312.787	301.69
313.017	297.69
313.246	288.69
313.476	287.69
313.706	277.69
313.935	286.69
314.165	301.69
314.394	296.69
314.624	295.69
314.853	282.69
315.083	278.69
315.312	279.69
315.542	285.69
315.771	281.69
316.001	285.69
316.23	280.69
316.46	274.69
316.689	276.69
316.919	286.69
317.148	297.69
317.377	295.69
317.607	279.69
317.836	297.69
318.065	283.69
318.295	279.69
318.524	282.69
318.753	294.69
318.983	283.69
319.212	289.69
319.441	291.69
319.67	314.69
319.9	280.69
320.129	269.69
320.358	282.69
320.587	279.69
320.816	295.69
321.046	315.69
321.275	320.69
321.504	298.69
321.733	296.69
321.962	305.69
322.191	305.69
322.42	322.69
322.649	336.69
322.878	325.69
323.108	340.69
323.337	339.69
323.566	368.69
323.795	386.69
324.024	410.69
324.253	465.69
324.482	638.69
324.71	965.69
324.939	1435.69
325.168	1235.69
325.397	643.69
325.626	453.69
325.855	377.69
326.084	362.69
326.313	352.69
326.542	376.69
326.77	387.69
326.999	431.69
327.228	604.69
327.457	890.69
327.686	1070.69
327.914	712.69
328.143	503.69
328.372	429.69
328.6	406.69
328.829	401.69
329.058	424.69
329.287	389.69
329.515	382.69
329.744	387.69
329.972	351.69
330.201	380.69
330.43	375.69
330.658	412.69
330.887	423.69
331.115	423.69
331.344	380.69
331.572	353.69
331.801	350.69
332.03	347.69
332.258	341.69
332.486	339.69
332.715	347.69
332.943	348.69
333.172	337.69
333.4	342.69
333.629	334.69
333.857	362.69
334.085	357.69
334.314	362.69
334.542	367.69
334.771	378.69
334.999	364.69
335.227	351.69
335.455	354.69
335.684	340.69
335.912	353.69
336.14	323.69
336.369	341.69
336.597	336.69
336.825	339.69
337.053	342.69
337.281	347.69
337.51	325.69
337.738	322.69
337.966	328.69
338.194	361.69
338.422	317.69
338.65	323.69
338.878	336.69
339.106	329.69
339.334	324.69
339.562	333.69
339.79	315.69
340.018	320.69
340.246	338.69
340.474	327.69
340.702	329.69
340.93	339.69
341.158	303.69
341.386	330.69
341.614	331.69
341.842	344.69
342.07	329.69
342.298	334.69
342.526	320.69
342.754	325.69
342.981	318.69
343.209	322.69
343.437	332.69
343.665	315.69
343.893	347.69
344.12	313.69
344.348	318.69
344.576	325.69
344.804	333.69
345.031	339.69
345.259	362.69
345.487	349.69
345.714	321.69
345.942	342.69
346.17	347.69
346.397	346.69
346.625	327.69
346.853	315.69
347.08	320.69
347.308	328.69
347.535	328.69
347.763	326.69
347.99	333.69
348.218	311.69
348.445	321.69
348.673	328.69
348.9	332.69
349.128	336.69
349.355	310.69
349.583	319.69
349.81	310.69
350.037	304.69
350.265	306.69
350.492	316.69
350.72	321.69
350.947	320.69
351.174	331.69
351.402	338.69
351.629	329.69
351.856	346.69
352.083	339.69
352.311	348.69
352.538	329.69
352.765	333.69
352.992	328.69
353.22	322.69
353.447	312.69
353.674	316.69
353.901	321.69
354.128	307.69
354.355	304.69
354.583	305.69
354.81	307.69
355.037	305.69
355.264	305.69
355.491	317.69
355.718	302.69
355.945	300.69
356.172	315.69
356.399	304.69
356.626	317.69
356.853	320.69
357.08	309.69
357.307	321.69
357.534	323.69
357.761	316.69
357.988	325.69
358.215	302.69
358.441	310.69
358.668	329.69
358.895	331.69
359.122	348.69
359.349	323.69
359.576	333.69
359.802	337.69
360.029	351.69
360.256	379.69
360.483	359.69
360.709	328.69
360.936	338.69
361.163	330.69
361.39	333.69
361.616	333.69
361.843	344.69
362.07	342.69
362.296	336.69
362.523	337.69
362.749	332.69
362.976	343.69
363.203	333.69
363.429	330.69
363.656	329.69
363.882	326.69
364.109	326.69
364.335	326.69
364.562	328.69
364.788	341.69
365.015	347.69
365.241	324.69
365.468	338.69
365.694	326.69
365.92	318.69
366.147	331.69
366.373	314.69
366.599	335.69
366.826	351.69
367.052	319.69
367.278	317.69
367.505	326.69
367.731	338.69
367.957	345.69
368.184	334.69
368.41	333.69
368.636	322.69
368.862	345.69
369.089	331.69
369.315	345.69
369.541	332.69
369.767	325.69
369.993	309.69
370.219	340.69
370.445	345.69
370.672	328.69
370.898	342.69
371.124	339.69
371.35	336.69
371.576	344.69
371.802	341.69
372.028	328.69
372.254	323.69
372.48	324.69
372.706	331.69
372.932	327.69
373.158	344.69
373.384	330.69
373.61	337.69
373.835	347.69
374.061	337.69
374.287	333.69
374.513	351.69
374.739	344.69
374.965	344.69
375.191	338.69
375.416	353.69
375.642	332.69
375.868	360.69
376.094	341.69
376.319	339.69
376.545	344.69
376.771	334.69
376.997	348.69
377.222	339.69
377.448	342.69
377.674	343.69
377.899	325.69
378.125	336.69
378.35	338.69
378.576	330.69
378.802	317.69
379.027	353.69
379.253	341.69
379.478	335.69
379.704	345.69
379.929	339.69
380.155	334.69
380.38	318.69
380.606	337.69
380.831	353.69
381.057	356.69
381.282	353.69
381.507	340.69
381.733	345.69
381.958	344.69
382.184	364.69
382.409	340.69
382.634	356.69
382.86	346.69
383.085	369.69
383.31	351.69
383.535	344.69
383.761	337.69
383.986	359.69
384.211	336.69
384.436	356.69
384.662	364.69
384.887	364.69
385.112	362.69
385.337	359.69
385.562	366.69
385.787	357.69
386.013	379.69
386.238	370.69
386.463	366.69
386.688	366.69
386.913	386.69
387.138	374.69
387.363	370.69
387.588	374.69
387.813	377.69
388.038	343.69
388.263	368.69
388.488	365.69
388.713	382.69
388.938	365.69
389.163	366.69
389.387	379.69
389.612	354.69
389.837	397.69
390.062	367.69
390.287	370.69
390.512	368.69
390.736	376.69
390.961	364.69
391.186	378.69
391.411	379.69
391.636	364.69
391.86	371.69
392.085	379.69
392.31	370.69
392.534	383.69
392.759	404.69
392.984	384.69
393.208	409.69
393.433	465.69
393.658	487.69
393.882	413.69
394.107	372.69
394.331	366.69
394.556	365.69
394.78	363.69
395.005	378.69
395.229	370.69
395.454	401.69
395.678	395.69
395.903	417.69
396.127	415.69
396.352	415.69
396.576	396.69
396.801	439.69
397.025	449.69
397.249	434.69
397.474	404.69
397.698	405.69
397.922	406.69
398.147	407.69
398.371	408.69
398.595	445.69
398.82	411.69
399.044	415.69
399.268	427.69
399.492	434.69
399.717	464.69
399.941	481.69
400.165	523.69
400.389	509.69
400.613	479.69
400.837	434.69
401.062	448.69
401.286	435.69
401.51	432.69
401.734	407.69
401.958	426.69
402.182	419.69
402.406	413.69
402.63	410.69
402.854	435.69
403.078	404.69
403.302	397.69
403.526	434.69
403.75	432.69
403.974	437.69
404.198	418.69
404.422	431.69
404.645	442.69
404.869	448.69
405.093	467.69
405.317	495.69
405.541	502.69
405.765	476.69
405.988	465.69
406.212	459.69
406.436	462.69
406.66	480.69
406.883	459.69
407.107	486.69
407.331	517.69
407.555	587.69
407.778	565.69
408.002	506.69
408.226	497.69
408.449	471.69
408.673	475.69
408.896	507.69
409.12	561.69
409.344	512.69
409.567	475.69
409.791	474.69
410.014	419.69
410.238	447.69
410.461	447.69
410.685	442.69
410.908	425.69
411.132	464.69
411.355	498.69
411.578	475.69
411.802	443.69
412.025	445.69
412.249	456.69
412.472	457.69
412.695	488.69
412.919	477.69
413.142	459.69
413.365	431.69
413.589	453.69
413.812	442.69
414.035	428.69
414.258	426.69
414.482	413.69
414.705	422.69
414.928	391.69
415.151	433.69
415.374	431.69
415.597	430.69
415.821	425.69
416.044	413.69
416.267	417.69
416.49	412.69
416.713	434.69
416.936	418.69
417.159	423.69
417.382	438.69
417.605	422.69
417.828	446.69
418.051	442.69
418.274	435.69
418.497	425.69
418.72	417.69
418.943	426.69
419.166	450.69
419.389	456.69
419.611	455.69
419.834	424.69
420.057	427.69
420.28	437.69
420.503	447.69
420.726	434.69
420.948	449.69
421.171	481.69
421.394	507.69
421.617	438.69
421.839	448.69
422.062	450.69
422.285	466.69
422.507	518.69
422.73	586.69
422.953	561.69
423.175	501.69
423.398	456.69
423.621	469.69
423.843	445.69
424.066	465.69
424.288	461.69
424.511	503.69
424.733	544.69
424.956	583.69
425.178	573.69
425.401	575.69
425.623	586.69
425.846	510.69
426.068	464.69
426.291	512.69
426.513	483.69
426.735	488.69
426.958	537.69
427.18	590.69
427.402	690.69
427.625	718.69
427.847	649.69
428.069	571.69
428.292	505.69
428.514	478.69
428.736	453.69
428.958	453.69
429.181	455.69
429.403	462.69
429.625	477.69
429.847	470.69
430.069	540.69
430.292	529.69
430.514	451.69
430.736	433.69
430.958	441.69
431.18	421.69
431.402	431.69
431.624	409.69
431.846	411.69
432.068	413.69
432.29	413.69
432.512	429.69
432.734	426.69
432.956	432.69
433.178	441.69
433.4	435.69
433.622	414.69
433.844	449.69
434.066	428.69
434.287	420.69
434.509	431.69
434.731	423.69
434.953	437.69
435.175	438.69
435.397	479.69
435.618	487.69
435.84	524.69
436.062	589.69
436.284	616.69
436.505	542.69
436.727	491.69
436.949	465.69
437.17	445.69
437.392	458.69
437.614	464.69
437.835	481.69
438.057	548.69
438.278	647.69
438.5	655.69
438.721	679.69
438.943	669.69
439.165	548.69
439.386	498.69
439.608	478.69
439.829	486.69
440.05	513.69
440.272	547.69
440.493	515.69
440.715	471.69
440.936	457.69
441.158	453.69
441.379	468.69
441.6	454.69
441.822	457.69
442.043	489.69
442.264	573.69
442.486	611.69
442.707	529.69
442.928	496.69
443.149	516.69
443.371	509.69
443.592	561.69
443.813	621.69
444.034	642.69
444.255	569.69
444.476	493.69
444.698	489.69
444.919	460.69
445.14	579.69
445.361	517.69
445.582	501.69
445.803	547.69
446.024	639.69
446.245	645.69
446.466	618.69
446.687	511.69
446.908	486.69
447.129	466.69
447.35	457.69
447.571	443.69
447.792	439.69
448.013	457.69
448.234	462.69
448.455	519.69
448.675	591.69
448.896	681.69
449.117	605.69
449.338	540.69
449.559	615.69
449.779	730.69
450	605.69
450.221	479.69
450.442	450.69
450.662	432.69
450.883	431.69
451.104	447.69
451.324	448.69
451.545	425.69
451.766	409.69
451.986	414.69
452.207	394.69
452.428	395.69
452.648	394.69
452.869	389.69
453.089	402.69
453.31	434.69
453.53	394.69
453.751	410.69
453.971	406.69
454.192	428.69
454.412	393.69
454.633	425.69
454.853	398.69
455.073	406.69
455.294	410.69
455.514	475.69
455.734	477.69
455.955	416.69
456.175	387.69
456.395	377.69
456.616	397.69
456.836	385.69
457.056	369.69
457.276	343.69
457.497	409.69
457.717	395.69
457.937	382.69
458.157	389.69
458.377	404.69
458.598	415.69
458.818	434.69
459.038	505.69
459.258	527.69
459.478	449.69
459.698	415.69
459.918	413.69
460.138	427.69
460.358	417.69
460.578	426.69
460.798	443.69
461.018	433.69
461.238	421.69
461.458	418.69
461.678	402.69
461.898	423.69
462.118	433.69
462.338	446.69
462.558	457.69
462.777	440.69
462.997	466.69
463.217	441.69
463.437	458.69
463.657	434.69
463.876	454.69
464.096	454.69
464.316	457.69
464.536	458.69
464.755	455.69
464.975	460.69
465.195	471.69
465.414	530.69
465.634	493.69
465.854	455.69
466.073	431.69
466.293	415.69
466.512	407.69
466.732	430.69
466.951	410.69
467.171	435.69
467.391	414.69
467.61	425.69
467.829	437.69
468.049	413.69
468.268	421.69
468.488	410.69
468.707	400.69
468.927	408.69
469.146	389.69
469.365	392.69
469.585	410.69
469.804	379.69
470.023	410.69
470.243	430.69
470.462	432.69
470.681	425.69
470.901	429.69
471.12	435.69
471.339	439.69
471.558	427.69
471.777	417.69
471.997	406.69
472.216	426.69
472.435	447.69
472.654	432.69
472.873	413.69
473.092	421.69
473.311	420.69
473.53	426.69
473.749	441.69
473.968	436.69
474.187	504.69
474.406	551.69
474.625	461.69
474.844	441.69
475.063	408.69
475.282	424.69
475.501	446.69
475.72	435.69
475.939	456.69
476.158	439.69
476.377	454.69
476.596	424.69
476.814	444.69
477.033	441.69
477.252	443.69
477.471	450.69
477.69	458.69
477.908	463.69
478.127	465.69
478.346	454.69
478.564	441.69
478.783	465.69
479.002	478.69
479.22	476.69
479.439	497.69
479.658	496.69
479.876	501.69
480.095	513.69
480.313	548.69
480.532	519.69
480.751	484.69
480.969	502.69
481.188	532.69
481.406	546.69
481.624	521.69
481.843	508.69
482.061	513.69
482.28	530.69
482.498	485.69
482.717	496.69
482.935	483.69
483.153	490.69
483.372	483.69
483.59	488.69
483.808	507.69
484.027	513.69
484.245	497.69
484.463	508.69
484.681	523.69
484.9	487.69
485.118	518.69
485.336	542.69
485.554	517.69
485.772	509.69
485.99	494.69
486.209	508.69
486.427	521.69
486.645	538.69
486.863	538.69
487.081	566.69
487.299	555.69
487.517	527.69
487.735	542.69
487.953	543.69
488.171	549.69
488.389	547.69
488.607	559.69
488.825	554.69
489.043	537.69
489.261	532.69
489.479	562.69
489.696	535.69
489.914	554.69
490.132	553.69
490.35	573.69
490.568	577.69
490.786	564.69
491.003	581.69
491.221	620.69
491.439	611.69
491.657	612.69
491.874	624.69
492.092	663.69
492.31	641.69
492.527	646.69
492.745	656.69
492.963	621.69
493.18	649.69
493.398	624.69
493.615	659.69
493.833	628.69
494.05	630.69
494.268	627.69
494.485	647.69
494.703	636.69
494.92	637.69
495.138	635.69
495.355	655.69
495.573	656.69
495.79	624.69
496.008	663.69
496.225	661.69
496.442	625.69
496.66	657.69
496.877	636.69
497.094	683.69
497.312	648.69
497.529	650.69
497.746	663.69
497.963	682.69
498.181	691.69
498.398	678.69
498.615	709.69
498.832	678.69
499.049	759.69
499.267	719.69
499.484	770.69
499.701	783.69
499.918	805.69
500.135	831.69
500.352	837.69
500.569	840.69
500.786	846.69
501.003	832.69
501.22	827.69
501.437	808.69
501.654	771.69
501.871	793.69
502.088	764.69
502.305	735.69
502.522	719.69
502.739	705.69
502.956	679.69
503.172	685.69
503.389	657.69
503.606	675.69
503.823	684.69
504.04	674.69
504.256	668.69
504.473	643.69
504.69	655.69
504.907	631.69
505.123	639.69
505.34	621.69
505.557	603.69
505.773	606.69
505.99	632.69
506.207	624.69
506.423	635.69
506.64	608.69
506.856	618.69
507.073	610.69
507.289	625.69
507.506	617.69
507.722	606.69
507.939	654.69
508.155	588.69
508.372	598.69
508.588	569.69
508.805	584.69
509.021	580.69
509.238	603.69
509.454	586.69
509.67	580.69
509.887	595.69
510.103	575.69
510.319	613.69
510.536	642.69
510.752	954.69
510.968	807.69
511.184	594.69
511.401	561.69
511.617	560.69
511.833	575.69
512.049	562.69
512.265	543.69
512.481	561.69
512.698	552.69
512.914	544.69
513.13	536.69
513.346	533.69
513.562	541.69
513.778	551.69
513.994	547.69
514.21	571.69
514.426	575.69
514.642	605.69
514.858	608.69
515.074	645.69
515.29	733.69
515.506	974.69
515.721	835.69
515.937	631.69
516.153	605.69
516.369	585.69
516.585	559.69
516.801	560.69
517.016	552.69
517.232	569.69
517.448	565.69
517.664	568.69
517.879	551.69
518.095	562.69
518.311	554.69
518.527	577.69
518.742	554.69
518.958	551.69
519.173	541.69
519.389	544.69
519.605	555.69
519.82	569.69
520.036	570.69
520.251	589.69
520.467	568.69
520.682	593.69
520.898	597.69
521.113	614.69
521.329	623.69
521.544	667.69
521.76	788.69
521.975	1174.69
522.19	1181.69
522.406	743.69
522.621	605.69
522.836	569.69
523.052	546.69
523.267	535.69
523.482	517.69
523.698	496.69
523.913	483.69
524.128	501.69
524.343	490.69
524.559	481.69
524.774	476.69
524.989	483.69
525.204	477.69
525.419	482.69
525.634	495.69
525.849	475.69
526.064	470.69
526.28	472.69
526.495	468.69
526.71	465.69
526.925	481.69
527.14	450.69
527.355	456.69
527.57	463.69
527.785	475.69
527.999	455.69
528.214	457.69
528.429	463.69
528.644	490.69
528.859	478.69
529.074	470.69
529.289	491.69
529.503	524.69
529.718	524.69
529.933	485.69
530.148	464.69
530.363	465.69
530.577	447.69
530.792	455.69
531.007	443.69
531.221	448.69
531.436	445.69
531.651	451.69
531.865	446.69
532.08	454.69
532.295	448.69
532.509	454.69
532.724	439.69
532.938	425.69
533.153	429.69
533.367	430.69
533.582	440.69
533.796	442.69
534.011	423.69
534.225	432.69
534.44	450.69
534.654	433.69
534.868	428.69
535.083	423.69
535.297	439.69
535.511	453.69
535.726	450.69
535.94	446.69
536.154	443.69
536.369	417.69
536.583	408.69
536.797	422.69
537.011	429.69
537.225	422.69
537.44	413.69
537.654	414.69
537.868	422.69
538.082	424.69
538.296	428.69
538.51	432.69
538.724	425.69
538.938	416.69
539.153	403.69
539.367	429.69
539.581	441.69
539.795	421.69
540.009	429.69
540.222	425.69
540.436	427.69
540.65	425.69
540.864	399.69
541.078	438.69
541.292	449.69
541.506	425.69
541.72	448.69
541.934	440.69
542.147	430.69
542.361	448.69
542.575	425.69
542.789	414.69
543.002	419.69
543.216	433.69
543.43	426.69
543.644	434.69
543.857	424.69
544.071	429.69
544.285	441.69
544.498	418.69
544.712	429.69
544.925	447.69
545.139	423.69
545.352	430.69
545.566	451.69
545.779	415.69
545.993	418.69
546.206	427.69
546.42	443.69
546.633	416.69
546.847	414.69
547.06	413.69
547.274	417.69
547.487	415.69
547.7	434.69
547.914	414.69
548.127	427.69
548.34	409.69
548.554	406.69
548.767	410.69
548.98	406.69
549.193	425.69
549.407	413.69
549.62	423.69
549.833	418.69
550.046	397.69
550.259	402.69
550.473	413.69
550.686	420.69
550.899	414.69
551.112	381.69
551.325	397.69
551.538	414.69
551.751	422.69
551.964	420.69
552.177	416.69
552.39	399.69
552.603	404.69
552.816	398.69
553.029	399.69
553.242	410.69
553.455	406.69
553.667	416.69
553.88	429.69
554.093	414.69
554.306	414.69
554.519	419.69
554.732	426.69
554.944	400.69
555.157	409.69
555.37	389.69
555.583	388.69
555.795	390.69
556.008	378.69
556.221	381.69
556.433	379.69
556.646	379.69
556.859	385.69
557.071	383.69
557.284	375.69
557.496	370.69
557.709	361.69
557.921	378.69
558.134	370.69
558.346	370.69
558.559	371.69
558.771	383.69
558.984	389.69
559.196	358.69
559.409	378.69
559.621	373.69
559.833	348.69
560.046	361.69
560.258	367.69
560.47	365.69
560.683	362.69
560.895	382.69
561.107	349.69
561.32	365.69
561.532	381.69
561.744	370.69
561.956	362.69
562.168	354.69
562.381	349.69
562.593	374.69
562.805	359.69
563.017	374.69
563.229	387.69
563.441	364.69
563.653	376.69
563.865	351.69
564.077	378.69
564.289	362.69
564.501	364.69
564.713	384.69
564.925	381.69
565.137	399.69
565.349	376.69
565.561	382.69
565.773	381.69
565.985	398.69
566.197	421.69
566.408	410.69
566.62	420.69
566.832	419.69
567.044	419.69
567.255	443.69
567.467	451.69
567.679	438.69
567.891	446.69
568.102	425.69
568.314	429.69
568.526	426.69
568.737	392.69
568.949	386.69
569.161	381.69
569.372	373.69
569.584	382.69
569.795	385.69
570.007	377.69
570.218	391.69
570.43	361.69
570.641	371.69
570.853	379.69
571.064	343.69
571.276	361.69
571.487	346.69
571.698	349.69
571.91	341.69
572.121	341.69
572.333	336.69
572.544	329.69
572.755	333.69
572.966	337.69
573.178	312.69
573.389	339.69
573.6	330.69
573.811	320.69
574.023	314.69
574.234	333.69
574.445	325.69
574.656	321.69
574.867	313.69
575.078	321.69
575.289	318.69
575.501	297.69
575.712	319.69
575.923	315.69
576.134	325.69
576.345	309.69
576.556	318.69
576.767	284.69
576.978	309.69
577.188	317.69
577.399	311.69
577.61	312.69
577.821	313.69
578.032	316.69
578.243	342.69
578.454	469.69
578.665	381.69
578.875	300.69
579.086	301.69
579.297	310.69
579.508	285.69
579.718	310.69
579.929	290.69
580.14	301.69
580.35	291.69
580.561	301.69
580.772	289.69
580.982	296.69
581.193	295.69
581.403	286.69
581.614	309.69
581.825	286.69
582.035	292.69
582.246	300.69
582.456	299.69
582.667	314.69
582.877	274.69
583.087	274.69
583.298	275.69
583.508	283.69
583.719	273.69
583.929	291.69
584.139	293.69
584.35	302.69
584.56	267.69
584.77	277.69
584.981	290.69
585.191	290.69
585.401	287.69
585.611	278.69
585.821	278.69
586.032	285.69
586.242	274.69
586.452	305.69
586.662	286.69
586.872	280.69
587.082	286.69
587.292	270.69
587.502	278.69
587.713	281.69
587.923	267.69
588.133	293.69
588.343	290.69
588.553	279.69
588.762	291.69
588.972	270.69
589.182	295.69
589.392	295.69
589.602	284.69
589.812	294.69
590.022	294.69
590.232	296.69
590.441	277.69
590.651	267.69
590.861	271.69
591.071	297.69
591.281	275.69
591.49	290.69
591.7	278.69
591.91	294.69
592.119	272.69
592.329	263.69
592.539	290.69
592.748	285.69
592.958	301.69
593.167	287.69
593.377	293.69
593.587	294.69
593.796	292.69
594.006	287.69
594.215	293.69
594.424	282.69
594.634	291.69
594.843	275.69
595.053	268.69
595.262	254.69
595.472	271.69
595.681	283.69
595.89	274.69
596.1	266.69
596.309	283.69
596.518	265.69
596.727	269.69
596.937	270.69
597.146	276.69
597.355	261.69
597.564	255.69
597.774	261.69
597.983	249.69
598.192	269.69
598.401	254.69
598.61	249.69
598.819	259.69
599.028	241.69
599.237	245.69
599.446	255.69
599.655	247.69
599.864	254.69
600.073	254.69
600.282	244.69
600.491	250.69
600.7	245.69
600.909	248.69
601.118	244.69
601.327	260.69
601.536	252.69
601.745	264.69
601.953	240.69
602.162	271.69
602.371	263.69
602.58	224.69
602.789	267.69
602.997	253.69
603.206	248.69
603.415	256.69
603.623	243.69
603.832	253.69
604.041	247.69
604.249	229.69
604.458	249.69
604.666	240.69
604.875	234.69
605.084	246.69
605.292	226.69
605.501	220.69
605.709	234.69
605.918	232.69
606.126	236.69
606.334	236.69
606.543	241.69
606.751	239.69
606.96	239.69
607.168	250.69
607.376	206.69
607.585	245.69
607.793	241.69
608.001	227.69
608.21	245.69
608.418	243.69
608.626	234.69
608.834	227.69
609.043	248.69
609.251	240.69
609.459	240.69
609.667	252.69
609.875	228.69
610.083	253.69
610.291	238.69
610.499	235.69
610.707	237.69
610.916	224.69
611.124	242.69
611.332	234.69
611.54	244.69
611.748	249.69
611.955	251.69
612.163	235.69
612.371	248.69
612.579	227.69
612.787	249.69
612.995	251.69
613.203	249.69
613.411	238.69
613.618	217.69
613.826	226.69
614.034	230.69
614.242	248.69
614.449	239.69
614.657	239.69
614.865	215.69
615.072	231.69
615.28	235.69
615.488	242.69
615.695	242.69
615.903	221.69
616.111	240.69
616.318	233.69
616.526	224.69
616.733	227.69
616.941	230.69
617.148	215.69
617.356	233.69
617.563	224.69
617.771	233.69
617.978	218.69
618.185	219.69
618.393	239.69
618.6	232.69
618.807	225.69
619.015	230.69
619.222	232.69
619.429	212.69
619.637	228.69
619.844	221.69
620.051	201.69
620.258	219.69
620.466	232.69
620.673	221.69
620.88	205.69
621.087	220.69
621.294	199.69
621.501	220.69
621.708	217.69
621.915	227.69
622.122	211.69
622.329	215.69
622.536	229.69
622.743	219.69
622.95	189.69
623.157	207.69
623.364	215.69
623.571	208.69
623.778	213.69
623.985	211.69
624.192	211.69
624.399	214.69
624.606	210.69
624.812	201.69
625.019	208.69
625.226	207.69
625.433	212.69
625.639	197.69
625.846	199.69
626.053	183.69
626.259	184.69
626.466	202.69
626.673	202.69
626.879	213.69
627.086	199.69
627.293	197.69
627.499	187.69
627.706	209.69
627.912	215.69
628.119	196.69
628.325	207.69
628.532	197.69
628.738	199.69
628.945	190.69
629.151	184.69
629.357	202.69
629.564	185.69
629.77	198.69
629.976	211.69
630.183	194.69
630.389	205.69
630.595	184.69
630.802	195.69
631.008	197.69
631.214	185.69
631.42	207.69
631.627	191.69
631.833	201.69
632.039	194.69
632.245	182.69
632.451	208.69
632.657	200.69
632.863	198.69
633.069	172.69
633.275	200.69
633.481	175.69
633.688	182.69
633.893	186.69
634.099	184.69
634.305	177.69
634.511	181.69
634.717	175.69
634.923	184.69
635.129	193.69
635.335	183.69
635.541	173.69
635.747	197.69
635.952	171.69
636.158	169.69
636.364	181.69
636.57	169.69
636.775	184.69
636.981	169.69
637.187	189.69
637.392	179.69
637.598	178.69
637.804	178.69
638.009	153.69
638.215	176.69
638.421	166.69
638.626	173.69
638.832	173.69
639.037	184.69
639.243	179.69
639.448	188.69
639.654	169.69
639.859	173.69
640.065	160.69
640.27	168.69
640.475	165.69
640.681	177.69
640.886	169.69
641.091	157.69
641.297	171.69
641.502	181.69
641.707	172.69
641.913	164.69
642.118	174.69
642.323	155.69
642.528	162.69
642.733	171.69
642.939	162.69
643.144	161.69
643.349	160.69
643.554	161.69
643.759	163.69
643.964	160.69
644.169	161.69
644.374	156.69
644.579	157.69
644.784	167.69
644.989	156.69
645.194	178.69
645.399	189.69
645.604	143.69
645.809	183.69
646.014	179.69
646.219	171.69
646.423	158.69
646.628	161.69
646.833	161.69
647.038	179.69
647.243	168.69
647.447	162.69
647.652	156.69
647.857	167.69
648.062	168.69
648.266	160.69
648.471	178.69
648.676	160.69
648.88	166.69
649.085	163.69
649.289	161.69
649.494	168.69
649.698	187.69
649.903	174.69
650.107	171.69
650.312	160.69
650.516	166.69
650.721	157.69
650.925	157.69
651.13	153.69
651.334	156.69
651.539	161.69
651.743	162.69
651.947	142.69
652.152	160.69
652.356	141.69
652.56	139.69
652.764	132.69
652.969	146.69
653.173	141.69
653.377	139.69
653.581	139.69
653.785	147.69
653.99	144.69
654.194	150.69
654.398	141.69
654.602	137.69
654.806	130.69
655.01	127.69
655.214	149.69
655.418	143.69
655.622	143.69
655.826	134.69
656.03	151.69
656.234	134.69
656.438	137.69
656.642	128.69
656.846	133.69
657.049	123.69
657.253	118.69
657.457	124.69
657.661	133.69
657.865	119.69
658.068	122.69
658.272	119.69
658.476	112.69
658.68	103.69
658.883	83.69
659.087	105.69
659.291	109.69
659.494	100.69
659.698	97.69
659.901	110.69
660.105	97.69
660.309	90.69
660.512	91.69
660.716	89.69
660.919	93.69
661.123	112.69
661.326	92.69
661.53	96.69
661.733	104.69
661.936	85.69
662.14	85.69
662.343	77.69
662.546	92.69
662.75	92.69
662.953	86.69
663.156	92.69
663.36	86.69
663.563	81.69
663.766	82.69
663.969	89.69
664.173	88.69
664.376	89.69
664.579	88.69
664.782	78.69
664.985	77.69
665.188	74.69
665.391	90.69
665.594	95.69
665.797	97.69
666	80.69
666.203	73.69
666.406	89.69
666.609	72.69
666.812	68.69
667.015	67.69
667.218	87.69
667.421	89.69
667.624	76.69
667.827	91.69
668.03	84.69
668.232	91.69
668.435	88.69
668.638	76.69
668.841	87.69
669.043	83.69
669.246	91.69
669.449	101.69
669.651	83.69
669.854	91.69
670.057	98.69
670.259	98.69
670.462	96.69
670.665	87.69
670.867	80.69
671.07	82.69
671.272	83.69
671.475	91.69
671.677	93.69
671.88	83.69
672.082	82.69
672.284	81.69
672.487	94.69
672.689	87.69
672.892	71.69
