Data from 1970.PennyLincolnUp.Lamp.En5.5.200Scan.071719.P1._HRD10591_15-14-29-841.txt Node
Date: Thu Jul 18 15:14:29 EDT 2019
User: cochatt
Spectrometer: HR+D1059
Trigger mode: 1
Integration Time (sec): 1.000000E-1
Scans to average: 1
Electric dark correction enabled: true
Nonlinearity correction enabled: false
Boxcar width: 0
XAxis mode: Wavelengths
Number of Pixels in Spectrum: 2048
>>>>>Begin Spectral Data<<<<<
223.165	-24.31
223.4	-24.31
223.635	-24.31
223.869	-13.31
224.104	-18.31
224.338	-19.31
224.573	-5.31
224.808	-11.31
225.042	-4.31
225.277	-3.31
225.511	-1.31
225.746	-7.31
225.98	7.69
226.215	16.69
226.449	15.69
226.683	20.69
226.918	25.69
227.152	21.69
227.387	23.69
227.621	46.69
227.856	50.69
228.09	47.69
228.324	50.69
228.559	55.69
228.793	52.69
229.027	108.69
229.262	122.69
229.496	132.69
229.73	142.69
229.964	172.69
230.199	133.69
230.433	128.69
230.667	136.69
230.901	117.69
231.136	104.69
231.37	116.69
231.604	118.69
231.838	121.69
232.072	108.69
232.306	116.69
232.541	110.69
232.775	116.69
233.009	120.69
233.243	109.69
233.477	112.69
233.711	130.69
233.945	124.69
234.179	124.69
234.413	127.69
234.647	126.69
234.881	121.69
235.115	133.69
235.349	120.69
235.583	110.69
235.817	130.69
236.051	115.69
236.285	119.69
236.519	137.69
236.753	138.69
236.987	154.69
237.221	199.69
237.455	249.69
237.689	196.69
237.922	155.69
238.156	152.69
238.39	154.69
238.624	134.69
238.858	128.69
239.091	127.69
239.325	134.69
239.559	137.69
239.793	132.69
240.027	139.69
240.26	151.69
240.494	164.69
240.728	160.69
240.961	173.69
241.195	152.69
241.429	148.69
241.662	153.69
241.896	134.69
242.13	136.69
242.363	134.69
242.597	136.69
242.83	147.69
243.064	150.69
243.298	164.69
243.531	156.69
243.765	144.69
243.998	152.69
244.232	147.69
244.465	152.69
244.699	157.69
244.932	152.69
245.166	136.69
245.399	154.69
245.633	146.69
245.866	146.69
246.099	143.69
246.333	143.69
246.566	173.69
246.8	146.69
247.033	154.69
247.266	174.69
247.5	181.69
247.733	176.69
247.966	185.69
248.2	184.69
248.433	184.69
248.666	210.69
248.899	198.69
249.133	208.69
249.366	222.69
249.599	220.69
249.832	200.69
250.066	209.69
250.299	207.69
250.532	217.69
250.765	202.69
250.998	258.69
251.231	249.69
251.465	249.69
251.698	239.69
251.931	216.69
252.164	213.69
252.397	216.69
252.63	214.69
252.863	219.69
253.096	231.69
253.329	226.69
253.562	239.69
253.795	245.69
254.028	234.69
254.261	244.69
254.494	253.69
254.727	274.69
254.96	307.69
255.193	319.69
255.426	267.69
255.659	269.69
255.892	271.69
256.124	238.69
256.357	255.69
256.59	232.69
256.823	222.69
257.056	234.69
257.289	235.69
257.521	211.69
257.754	218.69
257.987	217.69
258.22	247.69
258.452	219.69
258.685	216.69
258.918	219.69
259.151	226.69
259.383	232.69
259.616	227.69
259.849	252.69
260.081	237.69
260.314	254.69
260.547	297.69
260.779	273.69
261.012	264.69
261.244	244.69
261.477	228.69
261.71	228.69
261.942	231.69
262.175	258.69
262.407	215.69
262.64	217.69
262.872	209.69
263.105	233.69
263.337	226.69
263.57	219.69
263.802	215.69
264.035	224.69
264.267	244.69
264.499	220.69
264.732	205.69
264.964	222.69
265.197	206.69
265.429	208.69
265.661	222.69
265.894	226.69
266.126	223.69
266.358	218.69
266.591	235.69
266.823	221.69
267.055	223.69
267.287	226.69
267.52	234.69
267.752	219.69
267.984	236.69
268.216	223.69
268.448	236.69
268.681	260.69
268.913	267.69
269.145	269.69
269.377	294.69
269.609	280.69
269.841	276.69
270.073	262.69
270.306	288.69
270.538	318.69
270.77	335.69
271.002	313.69
271.234	313.69
271.466	314.69
271.698	303.69
271.93	334.69
272.162	357.69
272.394	340.69
272.626	298.69
272.858	318.69
273.09	283.69
273.322	280.69
273.553	251.69
273.785	251.69
274.017	262.69
274.249	282.69
274.481	266.69
274.713	264.69
274.945	279.69
275.176	267.69
275.408	268.69
275.64	260.69
275.872	239.69
276.104	266.69
276.335	272.69
276.567	267.69
276.799	301.69
277.031	312.69
277.262	330.69
277.494	302.69
277.726	296.69
277.957	274.69
278.189	299.69
278.421	276.69
278.652	271.69
278.884	264.69
279.115	278.69
279.347	254.69
279.579	259.69
279.81	256.69
280.042	257.69
280.273	263.69
280.505	252.69
280.736	254.69
280.968	253.69
281.199	240.69
281.431	261.69
281.662	262.69
281.894	267.69
282.125	265.69
282.356	280.69
282.588	313.69
282.819	310.69
283.051	263.69
283.282	246.69
283.513	264.69
283.745	272.69
283.976	273.69
284.207	283.69
284.439	276.69
284.67	286.69
284.901	280.69
285.132	273.69
285.364	275.69
285.595	287.69
285.826	265.69
286.057	281.69
286.288	275.69
286.52	276.69
286.751	276.69
286.982	278.69
287.213	279.69
287.444	271.69
287.675	272.69
287.906	270.69
288.138	276.69
288.369	310.69
288.6	288.69
288.831	300.69
289.062	291.69
289.293	280.69
289.524	269.69
289.755	267.69
289.986	285.69
290.217	266.69
290.448	295.69
290.679	282.69
290.91	293.69
291.141	276.69
291.371	285.69
291.602	276.69
291.833	286.69
292.064	258.69
292.295	278.69
292.526	267.69
292.757	287.69
292.987	263.69
293.218	276.69
293.449	267.69
293.68	284.69
293.91	284.69
294.141	280.69
294.372	286.69
294.603	284.69
294.833	279.69
295.064	294.69
295.295	287.69
295.525	276.69
295.756	303.69
295.987	285.69
296.217	308.69
296.448	344.69
296.679	306.69
296.909	289.69
297.14	274.69
297.37	267.69
297.601	281.69
297.831	274.69
298.062	300.69
298.292	285.69
298.523	292.69
298.753	286.69
298.984	290.69
299.214	295.69
299.445	300.69
299.675	288.69
299.905	300.69
300.136	307.69
300.366	318.69
300.597	306.69
300.827	322.69
301.057	283.69
301.288	292.69
301.518	308.69
301.748	324.69
301.979	306.69
302.209	306.69
302.439	318.69
302.669	321.69
302.9	318.69
303.13	320.69
303.36	314.69
303.59	320.69
303.82	312.69
304.051	311.69
304.281	315.69
304.511	318.69
304.741	306.69
304.971	334.69
305.201	322.69
305.431	324.69
305.661	307.69
305.891	312.69
306.121	306.69
306.352	327.69
306.582	353.69
306.812	313.69
307.042	318.69
307.272	319.69
307.502	302.69
307.731	321.69
307.961	326.69
308.191	319.69
308.421	317.69
308.651	323.69
308.881	329.69
309.111	323.69
309.341	345.69
309.571	360.69
309.8	348.69
310.03	375.69
310.26	386.69
310.49	366.69
310.72	370.69
310.949	410.69
311.179	387.69
311.409	379.69
311.639	366.69
311.868	374.69
312.098	398.69
312.328	379.69
312.557	382.69
312.787	422.69
313.017	415.69
313.246	386.69
313.476	382.69
313.706	363.69
313.935	386.69
314.165	388.69
314.394	408.69
314.624	407.69
314.853	384.69
315.083	378.69
315.312	358.69
315.542	358.69
315.771	346.69
316.001	335.69
316.23	354.69
316.46	378.69
316.689	345.69
316.919	372.69
317.148	396.69
317.377	395.69
317.607	380.69
317.836	376.69
318.065	371.69
318.295	354.69
318.524	368.69
318.753	362.69
318.983	380.69
319.212	372.69
319.441	385.69
319.67	368.69
319.9	348.69
320.129	379.69
320.358	396.69
320.587	382.69
320.816	393.69
321.046	408.69
321.275	423.69
321.504	399.69
321.733	419.69
321.962	429.69
322.191	421.69
322.42	432.69
322.649	458.69
322.878	454.69
323.108	475.69
323.337	516.69
323.566	528.69
323.795	562.69
324.024	594.69
324.253	728.69
324.482	1063.69
324.71	1633.69
324.939	2342.69
325.168	2042.69
325.397	1099.69
325.626	713.69
325.855	599.69
326.084	558.69
326.313	551.69
326.542	550.69
326.77	595.69
326.999	712.69
327.228	965.69
327.457	1439.69
327.686	1746.69
327.914	1194.69
328.143	799.69
328.372	700.69
328.6	659.69
328.829	605.69
329.058	603.69
329.287	636.69
329.515	600.69
329.744	561.69
329.972	525.69
330.201	572.69
330.43	615.69
330.658	628.69
330.887	668.69
331.115	637.69
331.344	550.69
331.572	516.69
331.801	494.69
332.03	512.69
332.258	482.69
332.486	456.69
332.715	445.69
332.943	446.69
333.172	454.69
333.4	452.69
333.629	477.69
333.857	486.69
334.085	512.69
334.314	504.69
334.542	547.69
334.771	597.69
334.999	516.69
335.227	466.69
335.455	473.69
335.684	450.69
335.912	448.69
336.14	443.69
336.369	440.69
336.597	437.69
336.825	460.69
337.053	442.69
337.281	411.69
337.51	444.69
337.738	455.69
337.966	429.69
338.194	429.69
338.422	449.69
338.65	427.69
338.878	428.69
339.106	420.69
339.334	415.69
339.562	420.69
339.79	401.69
340.018	430.69
340.246	419.69
340.474	427.69
340.702	438.69
340.93	428.69
341.158	418.69
341.386	420.69
341.614	442.69
341.842	421.69
342.07	428.69
342.298	407.69
342.526	405.69
342.754	421.69
342.981	412.69
343.209	391.69
343.437	394.69
343.665	405.69
343.893	426.69
344.12	418.69
344.348	431.69
344.576	428.69
344.804	434.69
345.031	447.69
345.259	436.69
345.487	450.69
345.714	432.69
345.942	415.69
346.17	407.69
346.397	406.69
346.625	416.69
346.853	401.69
347.08	399.69
347.308	426.69
347.535	427.69
347.763	413.69
347.99	422.69
348.218	432.69
348.445	456.69
348.673	434.69
348.9	430.69
349.128	434.69
349.355	401.69
349.583	414.69
349.81	395.69
350.037	408.69
350.265	406.69
350.492	412.69
350.72	409.69
350.947	419.69
351.174	427.69
351.402	438.69
351.629	420.69
351.856	418.69
352.083	447.69
352.311	456.69
352.538	430.69
352.765	455.69
352.992	436.69
353.22	411.69
353.447	432.69
353.674	424.69
353.901	413.69
354.128	400.69
354.355	386.69
354.583	400.69
354.81	398.69
355.037	391.69
355.264	409.69
355.491	394.69
355.718	388.69
355.945	380.69
356.172	391.69
356.399	395.69
356.626	383.69
356.853	388.69
357.08	392.69
357.307	395.69
357.534	380.69
357.761	376.69
357.988	400.69
358.215	392.69
358.441	395.69
358.668	378.69
358.895	402.69
359.122	388.69
359.349	425.69
359.576	442.69
359.802	447.69
360.029	476.69
360.256	521.69
360.483	471.69
360.709	443.69
360.936	421.69
361.163	423.69
361.39	449.69
361.616	428.69
361.843	417.69
362.07	430.69
362.296	418.69
362.523	439.69
362.749	420.69
362.976	411.69
363.203	406.69
363.429	409.69
363.656	412.69
363.882	412.69
364.109	425.69
364.335	404.69
364.562	409.69
364.788	406.69
365.015	406.69
365.241	413.69
365.468	390.69
365.694	427.69
365.92	426.69
366.147	406.69
366.373	409.69
366.599	407.69
366.826	392.69
367.052	382.69
367.278	415.69
367.505	421.69
367.731	422.69
367.957	439.69
368.184	405.69
368.41	413.69
368.636	430.69
368.862	430.69
369.089	435.69
369.315	400.69
369.541	402.69
369.767	401.69
369.993	388.69
370.219	417.69
370.445	397.69
370.672	406.69
370.898	399.69
371.124	406.69
371.35	388.69
371.576	422.69
371.802	415.69
372.028	406.69
372.254	386.69
372.48	419.69
372.706	399.69
372.932	422.69
373.158	404.69
373.384	412.69
373.61	405.69
373.835	419.69
374.061	408.69
374.287	415.69
374.513	429.69
374.739	420.69
374.965	412.69
375.191	414.69
375.416	398.69
375.642	420.69
375.868	417.69
376.094	426.69
376.319	416.69
376.545	391.69
376.771	398.69
376.997	406.69
377.222	409.69
377.448	408.69
377.674	397.69
377.899	400.69
378.125	390.69
378.35	407.69
378.576	374.69
378.802	403.69
379.027	398.69
379.253	412.69
379.478	415.69
379.704	417.69
379.929	398.69
380.155	421.69
380.38	417.69
380.606	421.69
380.831	392.69
381.057	392.69
381.282	411.69
381.507	412.69
381.733	411.69
381.958	404.69
382.184	408.69
382.409	406.69
382.634	425.69
382.86	398.69
383.085	416.69
383.31	420.69
383.535	423.69
383.761	421.69
383.986	429.69
384.211	421.69
384.436	412.69
384.662	414.69
384.887	424.69
385.112	430.69
385.337	420.69
385.562	423.69
385.787	431.69
386.013	459.69
386.238	471.69
386.463	452.69
386.688	443.69
386.913	433.69
387.138	446.69
387.363	444.69
387.588	434.69
387.813	436.69
388.038	429.69
388.263	437.69
388.488	422.69
388.713	456.69
388.938	429.69
389.163	450.69
389.387	452.69
389.612	431.69
389.837	428.69
390.062	423.69
390.287	432.69
390.512	434.69
390.736	430.69
390.961	448.69
391.186	424.69
391.411	424.69
391.636	431.69
391.86	438.69
392.085	440.69
392.31	461.69
392.534	418.69
392.759	442.69
392.984	439.69
393.208	461.69
393.433	476.69
393.658	448.69
393.882	438.69
394.107	444.69
394.331	432.69
394.556	438.69
394.78	434.69
395.005	452.69
395.229	453.69
395.454	456.69
395.678	458.69
395.903	484.69
396.127	486.69
396.352	492.69
396.576	474.69
396.801	462.69
397.025	445.69
397.249	459.69
397.474	474.69
397.698	474.69
397.922	490.69
398.147	496.69
398.371	524.69
398.595	507.69
398.82	489.69
399.044	498.69
399.268	498.69
399.492	531.69
399.717	534.69
399.941	583.69
400.165	604.69
400.389	592.69
400.613	583.69
400.837	522.69
401.062	539.69
401.286	516.69
401.51	522.69
401.734	503.69
401.958	520.69
402.182	524.69
402.406	518.69
402.63	538.69
402.854	516.69
403.078	507.69
403.302	531.69
403.526	519.69
403.75	545.69
403.974	504.69
404.198	510.69
404.422	538.69
404.645	535.69
404.869	552.69
405.093	589.69
405.317	634.69
405.541	651.69
405.765	588.69
405.988	559.69
406.212	552.69
406.436	592.69
406.66	614.69
406.883	586.69
407.107	574.69
407.331	626.69
407.555	693.69
407.778	688.69
408.002	628.69
408.226	614.69
408.449	617.69
408.673	599.69
408.896	621.69
409.12	672.69
409.344	622.69
409.567	557.69
409.791	580.69
410.014	543.69
410.238	518.69
410.461	533.69
410.685	532.69
410.908	560.69
411.132	587.69
411.355	637.69
411.578	600.69
411.802	550.69
412.025	553.69
412.249	537.69
412.472	559.69
412.695	630.69
412.919	598.69
413.142	560.69
413.365	543.69
413.589	513.69
413.812	526.69
414.035	510.69
414.258	527.69
414.482	483.69
414.705	482.69
414.928	506.69
415.151	526.69
415.374	510.69
415.597	493.69
415.821	480.69
416.044	502.69
416.267	507.69
416.49	496.69
416.713	491.69
416.936	502.69
417.159	516.69
417.382	512.69
417.605	501.69
417.828	514.69
418.051	545.69
418.274	517.69
418.497	503.69
418.72	487.69
418.943	502.69
419.166	527.69
419.389	559.69
419.611	556.69
419.834	520.69
420.057	529.69
420.28	548.69
420.503	543.69
420.726	536.69
420.948	554.69
421.171	607.69
421.394	611.69
421.617	563.69
421.839	558.69
422.062	534.69
422.285	548.69
422.507	612.69
422.73	688.69
422.953	658.69
423.175	601.69
423.398	560.69
423.621	564.69
423.843	582.69
424.066	599.69
424.288	575.69
424.511	614.69
424.733	636.69
424.956	743.69
425.178	719.69
425.401	710.69
425.623	732.69
425.846	652.69
426.068	594.69
426.291	614.69
426.513	603.69
426.735	614.69
426.958	651.69
427.18	731.69
427.402	839.69
427.625	968.69
427.847	883.69
428.069	768.69
428.292	683.69
428.514	596.69
428.736	588.69
428.958	568.69
429.181	563.69
429.403	563.69
429.625	572.69
429.847	623.69
430.069	692.69
430.292	655.69
430.514	589.69
430.736	549.69
430.958	527.69
431.18	522.69
431.402	536.69
431.624	518.69
431.846	502.69
432.068	493.69
432.29	511.69
432.512	515.69
432.734	553.69
432.956	519.69
433.178	550.69
433.4	532.69
433.622	515.69
433.844	529.69
434.066	525.69
434.287	513.69
434.509	519.69
434.731	528.69
434.953	542.69
435.175	545.69
435.397	582.69
435.618	592.69
435.84	638.69
436.062	725.69
436.284	782.69
436.505	714.69
436.727	619.69
436.949	594.69
437.17	568.69
437.392	544.69
437.614	579.69
437.835	622.69
438.057	686.69
438.278	824.69
438.5	816.69
438.721	892.69
438.943	855.69
439.165	708.69
439.386	664.69
439.608	621.69
439.829	636.69
440.05	660.69
440.272	699.69
440.493	647.69
440.715	579.69
440.936	594.69
441.158	566.69
441.379	547.69
441.6	562.69
441.822	576.69
442.043	635.69
442.264	735.69
442.486	743.69
442.707	670.69
442.928	621.69
443.149	621.69
443.371	636.69
443.592	683.69
443.813	771.69
444.034	841.69
444.255	688.69
444.476	628.69
444.698	600.69
444.919	605.69
445.14	701.69
445.361	656.69
445.582	624.69
445.803	739.69
446.024	808.69
446.245	823.69
446.466	757.69
446.687	656.69
446.908	626.69
447.129	582.69
447.35	556.69
447.571	576.69
447.792	551.69
448.013	578.69
448.234	584.69
448.455	652.69
448.675	780.69
448.896	853.69
449.117	745.69
449.338	684.69
449.559	809.69
449.779	914.69
450	727.69
450.221	622.69
450.442	582.69
450.662	574.69
450.883	576.69
451.104	587.69
451.324	572.69
451.545	530.69
451.766	528.69
451.986	511.69
452.207	493.69
452.428	500.69
452.648	479.69
452.869	493.69
453.089	495.69
453.31	530.69
453.53	512.69
453.751	521.69
453.971	518.69
454.192	532.69
454.412	522.69
454.633	523.69
454.853	486.69
455.073	508.69
455.294	532.69
455.514	597.69
455.734	571.69
455.955	519.69
456.175	476.69
456.395	478.69
456.616	473.69
456.836	464.69
457.056	470.69
457.276	458.69
457.497	464.69
457.717	477.69
457.937	448.69
458.157	486.69
458.377	473.69
458.598	514.69
458.818	591.69
459.038	664.69
459.258	687.69
459.478	581.69
459.698	540.69
459.918	528.69
460.138	512.69
460.358	502.69
460.578	507.69
460.798	525.69
461.018	522.69
461.238	520.69
461.458	528.69
461.678	505.69
461.898	491.69
462.118	498.69
462.338	506.69
462.558	522.69
462.777	518.69
462.997	540.69
463.217	540.69
463.437	557.69
463.657	532.69
463.876	554.69
464.096	547.69
464.316	551.69
464.536	550.69
464.755	547.69
464.975	568.69
465.195	602.69
465.414	720.69
465.634	638.69
465.854	584.69
466.073	550.69
466.293	516.69
466.512	519.69
466.732	516.69
466.951	515.69
467.171	502.69
467.391	494.69
467.61	545.69
467.829	527.69
468.049	528.69
468.268	521.69
468.488	526.69
468.707	485.69
468.927	505.69
469.146	486.69
469.365	520.69
469.585	482.69
469.804	504.69
470.023	538.69
470.243	522.69
470.462	526.69
470.681	579.69
470.901	542.69
471.12	527.69
471.339	535.69
471.558	523.69
471.777	522.69
471.997	515.69
472.216	534.69
472.435	574.69
472.654	557.69
472.873	515.69
473.092	527.69
473.311	529.69
473.53	501.69
473.749	516.69
473.968	584.69
474.187	711.69
474.406	706.69
474.625	575.69
474.844	542.69
475.063	526.69
475.282	524.69
475.501	519.69
475.72	524.69
475.939	535.69
476.158	501.69
476.377	519.69
476.596	539.69
476.814	535.69
477.033	550.69
477.252	559.69
477.471	539.69
477.69	538.69
477.908	558.69
478.127	535.69
478.346	578.69
478.564	587.69
478.783	589.69
479.002	574.69
479.22	579.69
479.439	582.69
479.658	618.69
479.876	604.69
480.095	638.69
480.313	648.69
480.532	636.69
480.751	635.69
480.969	668.69
481.188	728.69
481.406	791.69
481.624	698.69
481.843	647.69
482.061	623.69
482.28	618.69
482.498	635.69
482.717	608.69
482.935	615.69
483.153	636.69
483.372	616.69
483.59	621.69
483.808	612.69
484.027	644.69
484.245	627.69
484.463	629.69
484.681	654.69
484.9	640.69
485.118	636.69
485.336	624.69
485.554	640.69
485.772	646.69
485.99	640.69
486.209	647.69
486.427	652.69
486.645	661.69
486.863	678.69
487.081	662.69
487.299	671.69
487.517	683.69
487.735	636.69
487.953	652.69
488.171	675.69
488.389	678.69
488.607	687.69
488.825	701.69
489.043	688.69
489.261	674.69
489.479	672.69
489.696	707.69
489.914	692.69
490.132	673.69
490.35	706.69
490.568	729.69
490.786	724.69
491.003	744.69
491.221	752.69
491.439	757.69
491.657	784.69
491.874	795.69
492.092	794.69
492.31	835.69
492.527	802.69
492.745	775.69
492.963	805.69
493.18	804.69
493.398	813.69
493.615	817.69
493.833	851.69
494.05	809.69
494.268	826.69
494.485	832.69
494.703	821.69
494.92	798.69
495.138	804.69
495.355	836.69
495.573	826.69
495.79	804.69
496.008	833.69
496.225	847.69
496.442	806.69
496.66	799.69
496.877	799.69
497.094	818.69
497.312	828.69
497.529	836.69
497.746	836.69
497.963	835.69
498.181	885.69
498.398	872.69
498.615	869.69
498.832	895.69
499.049	874.69
499.267	877.69
499.484	900.69
499.701	938.69
499.918	953.69
500.135	970.69
500.352	989.69
500.569	979.69
500.786	992.69
501.003	1028.69
501.22	982.69
501.437	981.69
501.654	952.69
501.871	986.69
502.088	926.69
502.305	887.69
502.522	872.69
502.739	864.69
502.956	848.69
503.172	846.69
503.389	824.69
503.606	828.69
503.823	852.69
504.04	835.69
504.256	802.69
504.473	809.69
504.69	822.69
504.907	822.69
505.123	778.69
505.34	780.69
505.557	775.69
505.773	792.69
505.99	786.69
506.207	780.69
506.423	797.69
506.64	786.69
506.856	758.69
507.073	776.69
507.289	759.69
507.506	760.69
507.722	803.69
507.939	823.69
508.155	779.69
508.372	765.69
508.588	751.69
508.805	759.69
509.021	730.69
509.238	762.69
509.454	755.69
509.67	784.69
509.887	743.69
510.103	758.69
510.319	762.69
510.536	859.69
510.752	1446.69
510.968	1159.69
511.184	770.69
511.401	748.69
511.617	731.69
511.833	725.69
512.049	711.69
512.265	734.69
512.481	703.69
512.698	703.69
512.914	695.69
513.13	719.69
513.346	703.69
513.562	716.69
513.778	719.69
513.994	733.69
514.21	720.69
514.426	748.69
514.642	844.69
514.858	863.69
515.074	877.69
515.29	1092.69
515.506	1598.69
515.721	1288.69
515.937	910.69
516.153	799.69
516.369	775.69
516.585	744.69
516.801	734.69
517.016	734.69
517.232	717.69
517.448	719.69
517.664	693.69
517.879	712.69
518.095	741.69
518.311	728.69
518.527	707.69
518.742	719.69
518.958	712.69
519.173	717.69
519.389	704.69
519.605	712.69
519.82	704.69
520.036	740.69
520.251	746.69
520.467	789.69
520.682	774.69
520.898	806.69
521.113	847.69
521.329	901.69
521.544	1014.69
521.76	1276.69
521.975	2093.69
522.19	2096.69
522.406	1142.69
522.621	844.69
522.836	764.69
523.052	708.69
523.267	682.69
523.482	670.69
523.698	676.69
523.913	652.69
524.128	666.69
524.343	654.69
524.559	613.69
524.774	622.69
524.989	622.69
525.204	614.69
525.419	607.69
525.634	638.69
525.849	594.69
526.064	606.69
526.28	594.69
526.495	590.69
526.71	622.69
526.925	567.69
527.14	588.69
527.355	566.69
527.57	583.69
527.785	560.69
527.999	574.69
528.214	572.69
528.429	558.69
528.644	586.69
528.859	567.69
529.074	570.69
529.289	605.69
529.503	723.69
529.718	719.69
529.933	615.69
530.148	611.69
530.363	586.69
530.577	577.69
530.792	601.69
531.007	564.69
531.221	567.69
531.436	542.69
531.651	525.69
531.865	570.69
532.08	549.69
532.295	557.69
532.509	541.69
532.724	536.69
532.938	529.69
533.153	538.69
533.367	516.69
533.582	542.69
533.796	523.69
534.011	546.69
534.225	515.69
534.44	536.69
534.654	525.69
534.868	540.69
535.083	520.69
535.297	534.69
535.511	549.69
535.726	547.69
535.94	542.69
536.154	548.69
536.369	538.69
536.583	528.69
536.797	528.69
537.011	486.69
537.225	512.69
537.44	534.69
537.654	496.69
537.868	511.69
538.082	533.69
538.296	540.69
538.51	517.69
538.724	506.69
538.938	522.69
539.153	537.69
539.367	544.69
539.581	547.69
539.795	520.69
540.009	512.69
540.222	524.69
540.436	519.69
540.65	486.69
540.864	534.69
541.078	542.69
541.292	530.69
541.506	509.69
541.72	534.69
541.934	520.69
542.147	537.69
542.361	512.69
542.575	550.69
542.789	516.69
543.002	526.69
543.216	520.69
543.43	533.69
543.644	496.69
543.857	538.69
544.071	508.69
544.285	533.69
544.498	514.69
544.712	500.69
544.925	505.69
545.139	493.69
545.352	508.69
545.566	498.69
545.779	506.69
545.993	489.69
546.206	494.69
546.42	494.69
546.633	491.69
546.847	486.69
547.06	516.69
547.274	493.69
547.487	500.69
547.7	490.69
547.914	478.69
548.127	486.69
548.34	495.69
548.554	506.69
548.767	467.69
548.98	490.69
549.193	496.69
549.407	483.69
549.62	459.69
549.833	470.69
550.046	470.69
550.259	471.69
550.473	488.69
550.686	461.69
550.899	481.69
551.112	458.69
551.325	480.69
551.538	480.69
551.751	453.69
551.964	460.69
552.177	452.69
552.39	489.69
552.603	490.69
552.816	469.69
553.029	492.69
553.242	482.69
553.455	509.69
553.667	483.69
553.88	514.69
554.093	504.69
554.306	492.69
554.519	476.69
554.732	482.69
554.944	491.69
555.157	460.69
555.37	455.69
555.583	471.69
555.795	450.69
556.008	440.69
556.221	447.69
556.433	459.69
556.646	455.69
556.859	431.69
557.071	472.69
557.284	436.69
557.496	463.69
557.709	435.69
557.921	440.69
558.134	434.69
558.346	439.69
558.559	426.69
558.771	442.69
558.984	426.69
559.196	430.69
559.409	432.69
559.621	438.69
559.833	414.69
560.046	416.69
560.258	439.69
560.47	453.69
560.683	414.69
560.895	431.69
561.107	438.69
561.32	434.69
561.532	439.69
561.744	428.69
561.956	421.69
562.168	434.69
562.381	429.69
562.593	434.69
562.805	433.69
563.017	442.69
563.229	436.69
563.441	416.69
563.653	446.69
563.865	408.69
564.077	435.69
564.289	437.69
564.501	426.69
564.713	444.69
564.925	426.69
565.137	444.69
565.349	445.69
565.561	451.69
565.773	462.69
565.985	467.69
566.197	453.69
566.408	474.69
566.62	482.69
566.832	488.69
567.044	490.69
567.255	476.69
567.467	470.69
567.679	472.69
567.891	499.69
568.102	496.69
568.314	484.69
568.526	465.69
568.737	447.69
568.949	460.69
569.161	459.69
569.372	439.69
569.584	427.69
569.795	429.69
570.007	440.69
570.218	500.69
570.43	461.69
570.641	422.69
570.853	410.69
571.064	429.69
571.276	401.69
571.487	408.69
571.698	404.69
571.91	384.69
572.121	404.69
572.333	407.69
572.544	395.69
572.755	373.69
572.966	376.69
573.178	380.69
573.389	387.69
573.6	375.69
573.811	369.69
574.023	373.69
574.234	358.69
574.445	390.69
574.656	373.69
574.867	382.69
575.078	368.69
575.289	368.69
575.501	374.69
575.712	348.69
575.923	343.69
576.134	354.69
576.345	359.69
576.556	362.69
576.767	356.69
576.978	343.69
577.188	360.69
577.399	345.69
577.61	356.69
577.821	348.69
578.032	363.69
578.243	394.69
578.454	678.69
578.665	519.69
578.875	378.69
579.086	348.69
579.297	336.69
579.508	343.69
579.718	367.69
579.929	345.69
580.14	314.69
580.35	336.69
580.561	350.69
580.772	347.69
580.982	354.69
581.193	331.69
581.403	346.69
581.614	322.69
581.825	350.69
582.035	341.69
582.246	320.69
582.456	321.69
582.667	322.69
582.877	335.69
583.087	364.69
583.298	350.69
583.508	343.69
583.719	324.69
583.929	336.69
584.139	330.69
584.35	331.69
584.56	332.69
584.77	327.69
584.981	299.69
585.191	318.69
585.401	315.69
585.611	327.69
585.821	315.69
586.032	315.69
586.242	330.69
586.452	319.69
586.662	327.69
586.872	303.69
587.082	302.69
587.292	325.69
587.502	303.69
587.713	321.69
587.923	341.69
588.133	332.69
588.343	312.69
588.553	303.69
588.762	316.69
588.972	309.69
589.182	318.69
589.392	308.69
589.602	341.69
589.812	334.69
590.022	296.69
590.232	314.69
590.441	300.69
590.651	317.69
590.861	316.69
591.071	315.69
591.281	299.69
591.49	333.69
591.7	326.69
591.91	314.69
592.119	310.69
592.329	298.69
592.539	322.69
592.748	336.69
592.958	333.69
593.167	320.69
593.377	317.69
593.587	320.69
593.796	342.69
594.006	323.69
594.215	326.69
594.424	311.69
594.634	314.69
594.843	306.69
595.053	312.69
595.262	302.69
595.472	294.69
595.681	310.69
595.89	298.69
596.1	326.69
596.309	302.69
596.518	301.69
596.727	306.69
596.937	290.69
597.146	308.69
597.355	314.69
597.564	302.69
597.774	299.69
597.983	296.69
598.192	291.69
598.401	280.69
598.61	302.69
598.819	297.69
599.028	285.69
599.237	283.69
599.446	286.69
599.655	304.69
599.864	303.69
600.073	284.69
600.282	293.69
600.491	283.69
600.7	301.69
600.909	281.69
601.118	274.69
601.327	281.69
601.536	295.69
601.745	268.69
601.953	276.69
602.162	270.69
602.371	278.69
602.58	282.69
602.789	279.69
602.997	279.69
603.206	278.69
603.415	279.69
603.623	269.69
603.832	266.69
604.041	286.69
604.249	258.69
604.458	247.69
604.666	269.69
604.875	256.69
605.084	275.69
605.292	267.69
605.501	276.69
605.709	270.69
605.918	258.69
606.126	273.69
606.334	266.69
606.543	258.69
606.751	288.69
606.96	262.69
607.168	260.69
607.376	270.69
607.585	264.69
607.793	271.69
608.001	265.69
608.21	280.69
608.418	262.69
608.626	244.69
608.834	270.69
609.043	260.69
609.251	263.69
609.459	263.69
609.667	267.69
609.875	262.69
610.083	258.69
610.291	259.69
610.499	266.69
610.707	268.69
610.916	275.69
611.124	254.69
611.332	278.69
611.54	280.69
611.748	268.69
611.955	270.69
612.163	265.69
612.371	243.69
612.579	259.69
612.787	266.69
612.995	254.69
613.203	270.69
613.411	251.69
613.618	282.69
613.826	271.69
614.034	262.69
614.242	254.69
614.449	251.69
614.657	235.69
614.865	252.69
615.072	246.69
615.28	234.69
615.488	262.69
615.695	255.69
615.903	236.69
616.111	268.69
616.318	269.69
616.526	243.69
616.733	254.69
616.941	250.69
617.148	283.69
617.356	262.69
617.563	258.69
617.771	251.69
617.978	259.69
618.185	263.69
618.393	263.69
618.6	240.69
618.807	255.69
619.015	265.69
619.222	254.69
619.429	258.69
619.637	253.69
619.844	245.69
620.051	221.69
620.258	240.69
620.466	247.69
620.673	239.69
620.88	231.69
621.087	237.69
621.294	242.69
621.501	250.69
621.708	246.69
621.915	236.69
622.122	250.69
622.329	222.69
622.536	255.69
622.743	245.69
622.95	257.69
623.157	231.69
623.364	243.69
623.571	231.69
623.778	246.69
623.985	252.69
624.192	227.69
624.399	236.69
624.606	244.69
624.812	237.69
625.019	232.69
625.226	236.69
625.433	231.69
625.639	227.69
625.846	227.69
626.053	234.69
626.259	234.69
626.466	236.69
626.673	206.69
626.879	229.69
627.086	211.69
627.293	215.69
627.499	213.69
627.706	215.69
627.912	239.69
628.119	233.69
628.325	227.69
628.532	201.69
628.738	205.69
628.945	231.69
629.151	204.69
629.357	214.69
629.564	232.69
629.77	203.69
629.976	196.69
630.183	214.69
630.389	215.69
630.595	202.69
630.802	211.69
631.008	211.69
631.214	199.69
631.42	198.69
631.627	200.69
631.833	207.69
632.039	206.69
632.245	192.69
632.451	199.69
632.657	216.69
632.863	195.69
633.069	203.69
633.275	192.69
633.481	191.69
633.688	187.69
633.893	200.69
634.099	206.69
634.305	205.69
634.511	200.69
634.717	202.69
634.923	182.69
635.129	199.69
635.335	190.69
635.541	201.69
635.747	188.69
635.952	198.69
636.158	191.69
636.364	180.69
636.57	205.69
636.775	207.69
636.981	196.69
637.187	179.69
637.392	194.69
637.598	194.69
637.804	182.69
638.009	194.69
638.215	212.69
638.421	198.69
638.626	194.69
638.832	192.69
639.037	180.69
639.243	180.69
639.448	195.69
639.654	195.69
639.859	181.69
640.065	182.69
640.27	191.69
640.475	182.69
640.681	174.69
640.886	212.69
641.091	194.69
641.297	191.69
641.502	172.69
641.707	190.69
641.913	200.69
642.118	200.69
642.323	164.69
642.528	186.69
642.733	176.69
642.939	184.69
643.144	184.69
643.349	187.69
643.554	184.69
643.759	191.69
643.964	174.69
644.169	183.69
644.374	181.69
644.579	171.69
644.784	186.69
644.989	198.69
645.194	176.69
645.399	175.69
645.604	171.69
645.809	174.69
646.014	171.69
646.219	171.69
646.423	169.69
646.628	164.69
646.833	186.69
647.038	194.69
647.243	181.69
647.447	197.69
647.652	178.69
647.857	181.69
648.062	170.69
648.266	169.69
648.471	166.69
648.676	181.69
648.88	178.69
649.085	173.69
649.289	168.69
649.494	186.69
649.698	196.69
649.903	188.69
650.107	195.69
650.312	175.69
650.516	175.69
650.721	165.69
650.925	156.69
651.13	153.69
651.334	169.69
651.539	154.69
651.743	147.69
651.947	143.69
652.152	145.69
652.356	154.69
652.56	164.69
652.764	134.69
652.969	158.69
653.173	149.69
653.377	159.69
653.581	144.69
653.785	141.69
653.99	156.69
654.194	146.69
654.398	131.69
654.602	139.69
654.806	152.69
655.01	152.69
655.214	131.69
655.418	130.69
655.622	130.69
655.826	143.69
656.03	129.69
656.234	118.69
656.438	125.69
656.642	144.69
656.846	135.69
657.049	125.69
657.253	144.69
657.457	123.69
657.661	117.69
657.865	114.69
658.068	124.69
658.272	106.69
658.476	98.69
658.68	107.69
658.883	98.69
659.087	114.69
659.291	104.69
659.494	92.69
659.698	120.69
659.901	102.69
660.105	99.69
660.309	100.69
660.512	100.69
660.716	89.69
660.919	89.69
661.123	103.69
661.326	85.69
661.53	86.69
661.733	86.69
661.936	98.69
662.14	104.69
662.343	96.69
662.546	84.69
662.75	96.69
662.953	105.69
663.156	94.69
663.36	93.69
663.563	73.69
663.766	76.69
663.969	83.69
664.173	80.69
664.376	92.69
664.579	88.69
664.782	76.69
664.985	83.69
665.188	82.69
665.391	70.69
665.594	73.69
665.797	78.69
666	86.69
666.203	94.69
666.406	76.69
666.609	77.69
666.812	81.69
667.015	86.69
667.218	75.69
667.421	77.69
667.624	87.69
667.827	90.69
668.03	85.69
668.232	92.69
668.435	92.69
668.638	75.69
668.841	87.69
669.043	79.69
669.246	83.69
669.449	80.69
669.651	86.69
669.854	76.69
670.057	86.69
670.259	81.69
670.462	82.69
670.665	81.69
670.867	78.69
671.07	82.69
671.272	85.69
671.475	101.69
671.677	85.69
671.88	73.69
672.082	87.69
672.284	74.69
672.487	63.69
672.689	98.69
672.892	95.69
