Data from 1970.PennyLincolnUp.Lamp.En5.5.200Scan.071719.P1._HRD10591_15-15-31-842.txt Node
Date: Thu Jul 18 15:15:31 EDT 2019
User: cochatt
Spectrometer: HR+D1059
Trigger mode: 1
Integration Time (sec): 1.000000E-1
Scans to average: 1
Electric dark correction enabled: true
Nonlinearity correction enabled: false
Boxcar width: 0
XAxis mode: Wavelengths
Number of Pixels in Spectrum: 2048
>>>>>Begin Spectral Data<<<<<
223.165	-17.12
223.4	-17.12
223.635	-17.12
223.869	-19.12
224.104	-24.12
224.338	-10.12
224.573	3.88
224.808	-13.12
225.042	-14.12
225.277	-13.12
225.511	6.88
225.746	7.88
225.98	-1.12
226.215	7.88
226.449	20.88
226.683	10.88
226.918	21.88
227.152	31.88
227.387	31.88
227.621	34.88
227.856	40.88
228.09	55.88
228.324	55.88
228.559	48.88
228.793	59.88
229.027	109.88
229.262	98.88
229.496	134.88
229.73	145.88
229.964	170.88
230.199	151.88
230.433	113.88
230.667	116.88
230.901	120.88
231.136	117.88
231.37	114.88
231.604	113.88
231.838	108.88
232.072	126.88
232.306	132.88
232.541	123.88
232.775	118.88
233.009	119.88
233.243	127.88
233.477	111.88
233.711	124.88
233.945	119.88
234.179	124.88
234.413	113.88
234.647	123.88
234.881	114.88
235.115	132.88
235.349	126.88
235.583	130.88
235.817	119.88
236.051	132.88
236.285	138.88
236.519	125.88
236.753	141.88
236.987	159.88
237.221	203.88
237.455	274.88
237.689	216.88
237.922	148.88
238.156	144.88
238.39	147.88
238.624	141.88
238.858	137.88
239.091	138.88
239.325	131.88
239.559	121.88
239.793	137.88
240.027	151.88
240.26	155.88
240.494	187.88
240.728	181.88
240.961	168.88
241.195	147.88
241.429	165.88
241.662	157.88
241.896	147.88
242.13	151.88
242.363	140.88
242.597	133.88
242.83	139.88
243.064	138.88
243.298	154.88
243.531	158.88
243.765	141.88
243.998	153.88
244.232	171.88
244.465	174.88
244.699	174.88
244.932	163.88
245.166	157.88
245.399	158.88
245.633	149.88
245.866	150.88
246.099	154.88
246.333	169.88
246.566	164.88
246.8	172.88
247.033	166.88
247.266	169.88
247.5	181.88
247.733	191.88
247.966	184.88
248.2	181.88
248.433	183.88
248.666	204.88
248.899	209.88
249.133	209.88
249.366	257.88
249.599	231.88
249.832	195.88
250.066	206.88
250.299	194.88
250.532	204.88
250.765	213.88
250.998	238.88
251.231	261.88
251.465	242.88
251.698	243.88
251.931	230.88
252.164	211.88
252.397	241.88
252.63	221.88
252.863	235.88
253.096	221.88
253.329	249.88
253.562	249.88
253.795	247.88
254.028	237.88
254.261	249.88
254.494	246.88
254.727	287.88
254.96	325.88
255.193	322.88
255.426	279.88
255.659	265.88
255.892	258.88
256.124	277.88
256.357	262.88
256.59	253.88
256.823	238.88
257.056	243.88
257.289	228.88
257.521	222.88
257.754	236.88
257.987	219.88
258.22	218.88
258.452	221.88
258.685	234.88
258.918	230.88
259.151	237.88
259.383	234.88
259.616	236.88
259.849	245.88
260.081	250.88
260.314	285.88
260.547	277.88
260.779	270.88
261.012	257.88
261.244	239.88
261.477	252.88
261.71	244.88
261.942	262.88
262.175	270.88
262.407	265.88
262.64	243.88
262.872	208.88
263.105	228.88
263.337	230.88
263.57	226.88
263.802	217.88
264.035	220.88
264.267	216.88
264.499	239.88
264.732	225.88
264.964	227.88
265.197	211.88
265.429	218.88
265.661	213.88
265.894	220.88
266.126	231.88
266.358	223.88
266.591	232.88
266.823	233.88
267.055	231.88
267.287	229.88
267.52	228.88
267.752	239.88
267.984	226.88
268.216	235.88
268.448	228.88
268.681	250.88
268.913	264.88
269.145	293.88
269.377	318.88
269.609	280.88
269.841	294.88
270.073	306.88
270.306	317.88
270.538	335.88
270.77	343.88
271.002	326.88
271.234	307.88
271.466	326.88
271.698	351.88
271.93	336.88
272.162	340.88
272.394	330.88
272.626	339.88
272.858	292.88
273.09	305.88
273.322	279.88
273.553	279.88
273.785	286.88
274.017	273.88
274.249	290.88
274.481	283.88
274.713	283.88
274.945	278.88
275.176	294.88
275.408	265.88
275.64	272.88
275.872	274.88
276.104	265.88
276.335	283.88
276.567	278.88
276.799	294.88
277.031	319.88
277.262	338.88
277.494	355.88
277.726	326.88
277.957	315.88
278.189	302.88
278.421	269.88
278.652	282.88
278.884	277.88
279.115	297.88
279.347	277.88
279.579	269.88
279.81	269.88
280.042	277.88
280.273	264.88
280.505	280.88
280.736	258.88
280.968	245.88
281.199	279.88
281.431	265.88
281.662	259.88
281.894	263.88
282.125	265.88
282.356	290.88
282.588	315.88
282.819	322.88
283.051	286.88
283.282	274.88
283.513	273.88
283.745	279.88
283.976	275.88
284.207	280.88
284.439	283.88
284.67	280.88
284.901	274.88
285.132	281.88
285.364	282.88
285.595	262.88
285.826	267.88
286.057	258.88
286.288	268.88
286.52	261.88
286.751	283.88
286.982	284.88
287.213	270.88
287.444	279.88
287.675	291.88
287.906	299.88
288.138	306.88
288.369	316.88
288.6	296.88
288.831	297.88
289.062	299.88
289.293	311.88
289.524	287.88
289.755	282.88
289.986	291.88
290.217	283.88
290.448	287.88
290.679	295.88
290.91	306.88
291.141	270.88
291.371	295.88
291.602	289.88
291.833	284.88
292.064	269.88
292.295	275.88
292.526	271.88
292.757	283.88
292.987	299.88
293.218	280.88
293.449	282.88
293.68	290.88
293.91	281.88
294.141	277.88
294.372	290.88
294.603	302.88
294.833	297.88
295.064	299.88
295.295	288.88
295.525	294.88
295.756	304.88
295.987	306.88
296.217	316.88
296.448	346.88
296.679	311.88
296.909	288.88
297.14	294.88
297.37	277.88
297.601	301.88
297.831	295.88
298.062	294.88
298.292	305.88
298.523	311.88
298.753	277.88
298.984	281.88
299.214	316.88
299.445	300.88
299.675	301.88
299.905	298.88
300.136	296.88
300.366	298.88
300.597	305.88
300.827	321.88
301.057	321.88
301.288	323.88
301.518	318.88
301.748	301.88
301.979	316.88
302.209	326.88
302.439	322.88
302.669	334.88
302.9	313.88
303.13	318.88
303.36	318.88
303.59	317.88
303.82	312.88
304.051	317.88
304.281	335.88
304.511	314.88
304.741	319.88
304.971	325.88
305.201	321.88
305.431	317.88
305.661	325.88
305.891	330.88
306.121	317.88
306.352	329.88
306.582	365.88
306.812	309.88
307.042	326.88
307.272	339.88
307.502	335.88
307.731	339.88
307.961	325.88
308.191	328.88
308.421	322.88
308.651	348.88
308.881	338.88
309.111	323.88
309.341	355.88
309.571	369.88
309.8	377.88
310.03	349.88
310.26	385.88
310.49	387.88
310.72	391.88
310.949	407.88
311.179	394.88
311.409	404.88
311.639	390.88
311.868	394.88
312.098	390.88
312.328	386.88
312.557	410.88
312.787	423.88
313.017	446.88
313.246	418.88
313.476	380.88
313.706	389.88
313.935	379.88
314.165	388.88
314.394	407.88
314.624	415.88
314.853	382.88
315.083	396.88
315.312	373.88
315.542	366.88
315.771	387.88
316.001	381.88
316.23	356.88
316.46	356.88
316.689	384.88
316.919	388.88
317.148	420.88
317.377	390.88
317.607	390.88
317.836	380.88
318.065	379.88
318.295	415.88
318.524	375.88
318.753	359.88
318.983	385.88
319.212	384.88
319.441	407.88
319.67	393.88
319.9	385.88
320.129	387.88
320.358	395.88
320.587	397.88
320.816	401.88
321.046	421.88
321.275	427.88
321.504	413.88
321.733	411.88
321.962	427.88
322.191	439.88
322.42	451.88
322.649	483.88
322.878	492.88
323.108	513.88
323.337	521.88
323.566	543.88
323.795	584.88
324.024	645.88
324.253	797.88
324.482	1130.88
324.71	1756.88
324.939	2505.88
325.168	2177.88
325.397	1172.88
325.626	763.88
325.855	605.88
326.084	553.88
326.313	547.88
326.542	554.88
326.77	619.88
326.999	732.88
327.228	1015.88
327.457	1587.88
327.686	1918.88
327.914	1292.88
328.143	847.88
328.372	728.88
328.6	699.88
328.829	650.88
329.058	672.88
329.287	680.88
329.515	616.88
329.744	569.88
329.972	572.88
330.201	592.88
330.43	651.88
330.658	689.88
330.887	702.88
331.115	661.88
331.344	589.88
331.572	548.88
331.801	541.88
332.03	536.88
332.258	503.88
332.486	462.88
332.715	489.88
332.943	489.88
333.172	467.88
333.4	474.88
333.629	481.88
333.857	489.88
334.085	518.88
334.314	513.88
334.542	587.88
334.771	606.88
334.999	537.88
335.227	489.88
335.455	477.88
335.684	475.88
335.912	456.88
336.14	469.88
336.369	447.88
336.597	465.88
336.825	469.88
337.053	462.88
337.281	445.88
337.51	446.88
337.738	451.88
337.966	449.88
338.194	429.88
338.422	439.88
338.65	454.88
338.878	443.88
339.106	425.88
339.334	439.88
339.562	429.88
339.79	428.88
340.018	453.88
340.246	445.88
340.474	459.88
340.702	443.88
340.93	435.88
341.158	452.88
341.386	452.88
341.614	461.88
341.842	452.88
342.07	412.88
342.298	434.88
342.526	437.88
342.754	420.88
342.981	430.88
343.209	417.88
343.437	430.88
343.665	431.88
343.893	418.88
344.12	437.88
344.348	438.88
344.576	434.88
344.804	445.88
345.031	453.88
345.259	460.88
345.487	465.88
345.714	449.88
345.942	427.88
346.17	439.88
346.397	427.88
346.625	431.88
346.853	442.88
347.08	417.88
347.308	426.88
347.535	444.88
347.763	457.88
347.99	464.88
348.218	449.88
348.445	469.88
348.673	451.88
348.9	429.88
349.128	454.88
349.355	403.88
349.583	403.88
349.81	431.88
350.037	424.88
350.265	397.88
350.492	429.88
350.72	415.88
350.947	417.88
351.174	470.88
351.402	450.88
351.629	456.88
351.856	419.88
352.083	461.88
352.311	463.88
352.538	477.88
352.765	463.88
352.992	447.88
353.22	444.88
353.447	441.88
353.674	426.88
353.901	435.88
354.128	420.88
354.355	379.88
354.583	397.88
354.81	389.88
355.037	397.88
355.264	402.88
355.491	403.88
355.718	417.88
355.945	403.88
356.172	382.88
356.399	405.88
356.626	407.88
356.853	397.88
357.08	400.88
357.307	417.88
357.534	393.88
357.761	413.88
357.988	413.88
358.215	411.88
358.441	429.88
358.668	398.88
358.895	403.88
359.122	426.88
359.349	435.88
359.576	437.88
359.802	482.88
360.029	526.88
360.256	529.88
360.483	518.88
360.709	467.88
360.936	439.88
361.163	436.88
361.39	455.88
361.616	440.88
361.843	435.88
362.07	426.88
362.296	436.88
362.523	447.88
362.749	459.88
362.976	434.88
363.203	437.88
363.429	433.88
363.656	401.88
363.882	413.88
364.109	434.88
364.335	393.88
364.562	411.88
364.788	411.88
365.015	425.88
365.241	420.88
365.468	428.88
365.694	443.88
365.92	446.88
366.147	428.88
366.373	421.88
366.599	428.88
366.826	426.88
367.052	414.88
367.278	407.88
367.505	413.88
367.731	422.88
367.957	410.88
368.184	426.88
368.41	416.88
368.636	430.88
368.862	435.88
369.089	421.88
369.315	418.88
369.541	428.88
369.767	415.88
369.993	424.88
370.219	418.88
370.445	409.88
370.672	410.88
370.898	403.88
371.124	392.88
371.35	427.88
371.576	440.88
371.802	407.88
372.028	410.88
372.254	411.88
372.48	407.88
372.706	411.88
372.932	412.88
373.158	407.88
373.384	418.88
373.61	426.88
373.835	406.88
374.061	399.88
374.287	419.88
374.513	431.88
374.739	411.88
374.965	440.88
375.191	427.88
375.416	407.88
375.642	426.88
375.868	430.88
376.094	424.88
376.319	419.88
376.545	426.88
376.771	417.88
376.997	417.88
377.222	414.88
377.448	433.88
377.674	406.88
377.899	393.88
378.125	407.88
378.35	431.88
378.576	420.88
378.802	413.88
379.027	418.88
379.253	397.88
379.478	409.88
379.704	425.88
379.929	424.88
380.155	424.88
380.38	408.88
380.606	397.88
380.831	423.88
381.057	411.88
381.282	402.88
381.507	415.88
381.733	409.88
381.958	392.88
382.184	424.88
382.409	431.88
382.634	441.88
382.86	437.88
383.085	440.88
383.31	434.88
383.535	457.88
383.761	437.88
383.986	446.88
384.211	449.88
384.436	415.88
384.662	414.88
384.887	443.88
385.112	437.88
385.337	441.88
385.562	421.88
385.787	458.88
386.013	469.88
386.238	466.88
386.463	454.88
386.688	465.88
386.913	446.88
387.138	454.88
387.363	429.88
387.588	463.88
387.813	445.88
388.038	422.88
388.263	458.88
388.488	441.88
388.713	437.88
388.938	453.88
389.163	461.88
389.387	472.88
389.612	433.88
389.837	431.88
390.062	442.88
390.287	457.88
390.512	440.88
390.736	442.88
390.961	431.88
391.186	432.88
391.411	459.88
391.636	452.88
391.86	439.88
392.085	459.88
392.31	456.88
392.534	469.88
392.759	447.88
392.984	452.88
393.208	439.88
393.433	445.88
393.658	475.88
393.882	433.88
394.107	451.88
394.331	463.88
394.556	459.88
394.78	460.88
395.005	468.88
395.229	475.88
395.454	458.88
395.678	486.88
395.903	491.88
396.127	502.88
396.352	523.88
396.576	467.88
396.801	463.88
397.025	478.88
397.249	461.88
397.474	489.88
397.698	484.88
397.922	490.88
398.147	507.88
398.371	517.88
398.595	502.88
398.82	512.88
399.044	517.88
399.268	511.88
399.492	557.88
399.717	554.88
399.941	585.88
400.165	634.88
400.389	633.88
400.613	583.88
400.837	540.88
401.062	523.88
401.286	505.88
401.51	517.88
401.734	541.88
401.958	517.88
402.182	525.88
402.406	538.88
402.63	527.88
402.854	539.88
403.078	510.88
403.302	535.88
403.526	551.88
403.75	549.88
403.974	544.88
404.198	526.88
404.422	562.88
404.645	531.88
404.869	568.88
405.093	603.88
405.317	636.88
405.541	647.88
405.765	584.88
405.988	593.88
406.212	561.88
406.436	604.88
406.66	628.88
406.883	612.88
407.107	634.88
407.331	665.88
407.555	709.88
407.778	727.88
408.002	649.88
408.226	614.88
408.449	591.88
408.673	619.88
408.896	645.88
409.12	655.88
409.344	639.88
409.567	579.88
409.791	554.88
410.014	561.88
410.238	545.88
410.461	549.88
410.685	552.88
410.908	545.88
411.132	587.88
411.355	647.88
411.578	619.88
411.802	557.88
412.025	555.88
412.249	556.88
412.472	590.88
412.695	641.88
412.919	620.88
413.142	545.88
413.365	531.88
413.589	525.88
413.812	521.88
414.035	506.88
414.258	523.88
414.482	513.88
414.705	510.88
414.928	534.88
415.151	511.88
415.374	500.88
415.597	523.88
415.821	525.88
416.044	521.88
416.267	534.88
416.49	505.88
416.713	507.88
416.936	540.88
417.159	489.88
417.382	535.88
417.605	526.88
417.828	537.88
418.051	550.88
418.274	540.88
418.497	543.88
418.72	527.88
418.943	522.88
419.166	516.88
419.389	564.88
419.611	556.88
419.834	558.88
420.057	558.88
420.28	572.88
420.503	550.88
420.726	564.88
420.948	564.88
421.171	605.88
421.394	643.88
421.617	587.88
421.839	537.88
422.062	562.88
422.285	597.88
422.507	642.88
422.73	701.88
422.953	701.88
423.175	620.88
423.398	591.88
423.621	585.88
423.843	586.88
424.066	597.88
424.288	614.88
424.511	612.88
424.733	685.88
424.956	765.88
425.178	751.88
425.401	724.88
425.623	764.88
425.846	656.88
426.068	622.88
426.291	600.88
426.513	607.88
426.735	639.88
426.958	663.88
427.18	749.88
427.402	894.88
427.625	989.88
427.847	918.88
428.069	792.88
428.292	671.88
428.514	627.88
428.736	603.88
428.958	589.88
429.181	584.88
429.403	566.88
429.625	572.88
429.847	614.88
430.069	683.88
430.292	681.88
430.514	595.88
430.736	561.88
430.958	578.88
431.18	534.88
431.402	534.88
431.624	532.88
431.846	508.88
432.068	508.88
432.29	526.88
432.512	524.88
432.734	553.88
432.956	528.88
433.178	570.88
433.4	569.88
433.622	570.88
433.844	537.88
434.066	518.88
434.287	508.88
434.509	514.88
434.731	532.88
434.953	558.88
435.175	571.88
435.397	579.88
435.618	605.88
435.84	673.88
436.062	787.88
436.284	817.88
436.505	695.88
436.727	650.88
436.949	589.88
437.17	580.88
437.392	573.88
437.614	595.88
437.835	631.88
438.057	750.88
438.278	840.88
438.5	877.88
438.721	907.88
438.943	883.88
439.165	708.88
439.386	664.88
439.608	602.88
439.829	634.88
440.05	682.88
440.272	726.88
440.493	681.88
440.715	621.88
440.936	603.88
441.158	582.88
441.379	569.88
441.6	597.88
441.822	625.88
442.043	672.88
442.264	754.88
442.486	769.88
442.707	670.88
442.928	627.88
443.149	643.88
443.371	655.88
443.592	694.88
443.813	787.88
444.034	843.88
444.255	728.88
444.476	641.88
444.698	625.88
444.919	614.88
445.14	751.88
445.361	678.88
445.582	661.88
445.803	749.88
446.024	867.88
446.245	862.88
446.466	762.88
446.687	678.88
446.908	629.88
447.129	598.88
447.35	574.88
447.571	584.88
447.792	574.88
448.013	577.88
448.234	641.88
448.455	662.88
448.675	789.88
448.896	917.88
449.117	762.88
449.338	734.88
449.559	833.88
449.779	926.88
450	747.88
450.221	627.88
450.442	601.88
450.662	604.88
450.883	603.88
451.104	613.88
451.324	584.88
451.545	566.88
451.766	529.88
451.986	555.88
452.207	516.88
452.428	510.88
452.648	502.88
452.869	512.88
453.089	528.88
453.31	548.88
453.53	540.88
453.751	510.88
453.971	534.88
454.192	545.88
454.412	550.88
454.633	523.88
454.853	518.88
455.073	488.88
455.294	550.88
455.514	647.88
455.734	637.88
455.955	516.88
456.175	508.88
456.395	485.88
456.616	482.88
456.836	474.88
457.056	478.88
457.276	459.88
457.497	485.88
457.717	487.88
457.937	483.88
458.157	491.88
458.377	497.88
458.598	525.88
458.818	598.88
459.038	693.88
459.258	724.88
459.478	598.88
459.698	553.88
459.918	537.88
460.138	509.88
460.358	516.88
460.578	502.88
460.798	531.88
461.018	510.88
461.238	522.88
461.458	529.88
461.678	519.88
461.898	509.88
462.118	549.88
462.338	545.88
462.558	524.88
462.777	535.88
462.997	550.88
463.217	526.88
463.437	558.88
463.657	534.88
463.876	558.88
464.096	568.88
464.316	543.88
464.536	552.88
464.755	538.88
464.975	549.88
465.195	647.88
465.414	745.88
465.634	632.88
465.854	593.88
466.073	565.88
466.293	554.88
466.512	506.88
466.732	507.88
466.951	527.88
467.171	513.88
467.391	510.88
467.61	535.88
467.829	547.88
468.049	555.88
468.268	536.88
468.488	544.88
468.707	530.88
468.927	526.88
469.146	499.88
469.365	498.88
469.585	503.88
469.804	503.88
470.023	524.88
470.243	553.88
470.462	541.88
470.681	563.88
470.901	551.88
471.12	532.88
471.339	534.88
471.558	521.88
471.777	549.88
471.997	518.88
472.216	539.88
472.435	611.88
472.654	571.88
472.873	540.88
473.092	528.88
473.311	545.88
473.53	539.88
473.749	545.88
473.968	599.88
474.187	687.88
474.406	705.88
474.625	614.88
474.844	572.88
475.063	538.88
475.282	526.88
475.501	537.88
475.72	568.88
475.939	553.88
476.158	578.88
476.377	561.88
476.596	549.88
476.814	551.88
477.033	569.88
477.252	588.88
477.471	582.88
477.69	570.88
477.908	546.88
478.127	579.88
478.346	555.88
478.564	586.88
478.783	570.88
479.002	586.88
479.22	614.88
479.439	637.88
479.658	629.88
479.876	655.88
480.095	661.88
480.313	679.88
480.532	677.88
480.751	641.88
480.969	648.88
481.188	723.88
481.406	799.88
481.624	705.88
481.843	676.88
482.061	653.88
482.28	638.88
482.498	627.88
482.717	627.88
482.935	653.88
483.153	634.88
483.372	645.88
483.59	651.88
483.808	627.88
484.027	643.88
484.245	631.88
484.463	645.88
484.681	642.88
484.9	627.88
485.118	646.88
485.336	650.88
485.554	653.88
485.772	643.88
485.99	625.88
486.209	664.88
486.427	666.88
486.645	666.88
486.863	713.88
487.081	695.88
487.299	671.88
487.517	700.88
487.735	678.88
487.953	705.88
488.171	711.88
488.389	717.88
488.607	693.88
488.825	694.88
489.043	719.88
489.261	695.88
489.479	722.88
489.696	716.88
489.914	703.88
490.132	750.88
490.35	753.88
490.568	739.88
490.786	750.88
491.003	783.88
491.221	772.88
491.439	801.88
491.657	814.88
491.874	811.88
492.092	839.88
492.31	821.88
492.527	793.88
492.745	828.88
492.963	800.88
493.18	826.88
493.398	840.88
493.615	828.88
493.833	840.88
494.05	857.88
494.268	859.88
494.485	836.88
494.703	815.88
494.92	854.88
495.138	851.88
495.355	840.88
495.573	846.88
495.79	857.88
496.008	814.88
496.225	850.88
496.442	830.88
496.66	837.88
496.877	841.88
497.094	858.88
497.312	865.88
497.529	857.88
497.746	885.88
497.963	894.88
498.181	907.88
498.398	849.88
498.615	869.88
498.832	888.88
499.049	891.88
499.267	912.88
499.484	917.88
499.701	957.88
499.918	986.88
500.135	983.88
500.352	1002.88
500.569	1020.88
500.786	1033.88
501.003	1005.88
501.22	992.88
501.437	994.88
501.654	992.88
501.871	1020.88
502.088	983.88
502.305	943.88
502.522	899.88
502.739	884.88
502.956	872.88
503.172	861.88
503.389	877.88
503.606	894.88
503.823	874.88
504.04	836.88
504.256	868.88
504.473	824.88
504.69	820.88
504.907	808.88
505.123	802.88
505.34	827.88
505.557	802.88
505.773	808.88
505.99	808.88
506.207	819.88
506.423	805.88
506.64	807.88
506.856	800.88
507.073	804.88
507.289	802.88
507.506	778.88
507.722	802.88
507.939	844.88
508.155	791.88
508.372	785.88
508.588	782.88
508.805	749.88
509.021	755.88
509.238	778.88
509.454	805.88
509.67	803.88
509.887	766.88
510.103	787.88
510.319	805.88
510.536	879.88
510.752	1503.88
510.968	1262.88
511.184	829.88
511.401	787.88
511.617	755.88
511.833	754.88
512.049	750.88
512.265	732.88
512.481	739.88
512.698	727.88
512.914	736.88
513.13	741.88
513.346	737.88
513.562	742.88
513.778	729.88
513.994	757.88
514.21	752.88
514.426	825.88
514.642	835.88
514.858	898.88
515.074	912.88
515.29	1149.88
515.506	1683.88
515.721	1375.88
515.937	903.88
516.153	847.88
516.369	790.88
516.585	762.88
516.801	756.88
517.016	762.88
517.232	743.88
517.448	773.88
517.664	758.88
517.879	738.88
518.095	742.88
518.311	712.88
518.527	726.88
518.742	737.88
518.958	716.88
519.173	709.88
519.389	723.88
519.605	725.88
519.82	729.88
520.036	735.88
520.251	756.88
520.467	821.88
520.682	820.88
520.898	828.88
521.113	814.88
521.329	934.88
521.544	1052.88
521.76	1358.88
521.975	2249.88
522.19	2233.88
522.406	1181.88
522.621	919.88
522.836	815.88
523.052	741.88
523.267	735.88
523.482	683.88
523.698	689.88
523.913	676.88
524.128	673.88
524.343	662.88
524.559	630.88
524.774	625.88
524.989	630.88
525.204	652.88
525.419	645.88
525.634	638.88
525.849	626.88
526.064	627.88
526.28	607.88
526.495	594.88
526.71	603.88
526.925	588.88
527.14	569.88
527.355	580.88
527.57	591.88
527.785	573.88
527.999	591.88
528.214	563.88
528.429	594.88
528.644	600.88
528.859	591.88
529.074	596.88
529.289	611.88
529.503	728.88
529.718	695.88
529.933	647.88
530.148	633.88
530.363	637.88
530.577	590.88
530.792	591.88
531.007	581.88
531.221	583.88
531.436	583.88
531.651	580.88
531.865	579.88
532.08	573.88
532.295	549.88
532.509	550.88
532.724	563.88
532.938	545.88
533.153	562.88
533.367	561.88
533.582	546.88
533.796	539.88
534.011	552.88
534.225	543.88
534.44	559.88
534.654	524.88
534.868	537.88
535.083	537.88
535.297	545.88
535.511	569.88
535.726	570.88
535.94	575.88
536.154	562.88
536.369	533.88
536.583	544.88
536.797	551.88
537.011	543.88
537.225	545.88
537.44	511.88
537.654	507.88
537.868	539.88
538.082	535.88
538.296	530.88
538.51	529.88
538.724	536.88
538.938	547.88
539.153	533.88
539.367	545.88
539.581	539.88
539.795	538.88
540.009	524.88
540.222	535.88
540.436	539.88
540.65	547.88
540.864	540.88
541.078	561.88
541.292	538.88
541.506	523.88
541.72	531.88
541.934	528.88
542.147	515.88
542.361	537.88
542.575	514.88
542.789	515.88
543.002	518.88
543.216	504.88
543.43	518.88
543.644	523.88
543.857	528.88
544.071	515.88
544.285	544.88
544.498	510.88
544.712	526.88
544.925	504.88
545.139	511.88
545.352	519.88
545.566	499.88
545.779	501.88
545.993	492.88
546.206	509.88
546.42	509.88
546.633	505.88
546.847	508.88
547.06	495.88
547.274	511.88
547.487	477.88
547.7	516.88
547.914	494.88
548.127	525.88
548.34	494.88
548.554	481.88
548.767	475.88
548.98	484.88
549.193	481.88
549.407	469.88
549.62	493.88
549.833	501.88
550.046	475.88
550.259	491.88
550.473	490.88
550.686	499.88
550.899	504.88
551.112	473.88
551.325	471.88
551.538	486.88
551.751	479.88
551.964	476.88
552.177	493.88
552.39	484.88
552.603	510.88
552.816	490.88
553.029	475.88
553.242	479.88
553.455	509.88
553.667	517.88
553.88	523.88
554.093	534.88
554.306	501.88
554.519	485.88
554.732	453.88
554.944	496.88
555.157	476.88
555.37	492.88
555.583	462.88
555.795	466.88
556.008	462.88
556.221	439.88
556.433	454.88
556.646	455.88
556.859	460.88
557.071	435.88
557.284	450.88
557.496	450.88
557.709	464.88
557.921	459.88
558.134	449.88
558.346	435.88
558.559	445.88
558.771	441.88
558.984	456.88
559.196	451.88
559.409	459.88
559.621	449.88
559.833	422.88
560.046	438.88
560.258	443.88
560.47	427.88
560.683	429.88
560.895	428.88
561.107	433.88
561.32	422.88
561.532	439.88
561.744	435.88
561.956	435.88
562.168	438.88
562.381	452.88
562.593	444.88
562.805	433.88
563.017	431.88
563.229	437.88
563.441	446.88
563.653	426.88
563.865	451.88
564.077	435.88
564.289	429.88
564.501	445.88
564.713	454.88
564.925	445.88
565.137	452.88
565.349	454.88
565.561	468.88
565.773	467.88
565.985	473.88
566.197	468.88
566.408	483.88
566.62	464.88
566.832	493.88
567.044	498.88
567.255	479.88
567.467	497.88
567.679	505.88
567.891	493.88
568.102	490.88
568.314	482.88
568.526	490.88
568.737	449.88
568.949	456.88
569.161	460.88
569.372	442.88
569.584	429.88
569.795	421.88
570.007	413.88
570.218	493.88
570.43	468.88
570.641	420.88
570.853	413.88
571.064	420.88
571.276	422.88
571.487	408.88
571.698	387.88
571.91	404.88
572.121	416.88
572.333	392.88
572.544	390.88
572.755	378.88
572.966	384.88
573.178	371.88
573.389	379.88
573.6	386.88
573.811	374.88
574.023	389.88
574.234	378.88
574.445	365.88
574.656	379.88
574.867	358.88
575.078	377.88
575.289	385.88
575.501	375.88
575.712	365.88
575.923	372.88
576.134	362.88
576.345	355.88
576.556	385.88
576.767	366.88
576.978	375.88
577.188	369.88
577.399	365.88
577.61	359.88
577.821	373.88
578.032	359.88
578.243	415.88
578.454	709.88
578.665	493.88
578.875	381.88
579.086	366.88
579.297	353.88
579.508	340.88
579.718	353.88
579.929	341.88
580.14	341.88
580.35	338.88
580.561	353.88
580.772	346.88
580.982	354.88
581.193	342.88
581.403	349.88
581.614	360.88
581.825	332.88
582.035	348.88
582.246	321.88
582.456	343.88
582.667	329.88
582.877	332.88
583.087	327.88
583.298	325.88
583.508	334.88
583.719	319.88
583.929	326.88
584.139	339.88
584.35	327.88
584.56	332.88
584.77	328.88
584.981	325.88
585.191	334.88
585.401	353.88
585.611	332.88
585.821	338.88
586.032	333.88
586.242	323.88
586.452	329.88
586.662	324.88
586.872	339.88
587.082	336.88
587.292	327.88
587.502	334.88
587.713	308.88
587.923	322.88
588.133	322.88
588.343	305.88
588.553	334.88
588.762	317.88
588.972	329.88
589.182	313.88
589.392	325.88
589.602	317.88
589.812	335.88
590.022	340.88
590.232	323.88
590.441	318.88
590.651	321.88
590.861	325.88
591.071	310.88
591.281	326.88
591.49	328.88
591.7	338.88
591.91	308.88
592.119	303.88
592.329	325.88
592.539	337.88
592.748	329.88
592.958	345.88
593.167	327.88
593.377	323.88
593.587	326.88
593.796	337.88
594.006	321.88
594.215	321.88
594.424	324.88
594.634	349.88
594.843	330.88
595.053	313.88
595.262	321.88
595.472	330.88
595.681	332.88
595.89	317.88
596.1	300.88
596.309	297.88
596.518	312.88
596.727	297.88
596.937	311.88
597.146	301.88
597.355	289.88
597.564	298.88
597.774	308.88
597.983	291.88
598.192	291.88
598.401	293.88
598.61	284.88
598.819	290.88
599.028	312.88
599.237	301.88
599.446	312.88
599.655	309.88
599.864	295.88
600.073	272.88
600.282	289.88
600.491	278.88
600.7	280.88
600.909	301.88
601.118	283.88
601.327	284.88
601.536	280.88
601.745	293.88
601.953	287.88
602.162	267.88
602.371	272.88
602.58	279.88
602.789	286.88
602.997	276.88
603.206	260.88
603.415	263.88
603.623	258.88
603.832	277.88
604.041	271.88
604.249	270.88
604.458	265.88
604.666	273.88
604.875	279.88
605.084	267.88
605.292	287.88
605.501	278.88
605.709	261.88
605.918	254.88
606.126	270.88
606.334	264.88
606.543	268.88
606.751	269.88
606.96	279.88
607.168	265.88
607.376	270.88
607.585	277.88
607.793	264.88
608.001	270.88
608.21	258.88
608.418	276.88
608.626	266.88
608.834	259.88
609.043	245.88
609.251	262.88
609.459	257.88
609.667	271.88
609.875	275.88
610.083	274.88
610.291	279.88
610.499	268.88
610.707	273.88
610.916	258.88
611.124	264.88
611.332	268.88
611.54	274.88
611.748	270.88
611.955	259.88
612.163	269.88
612.371	267.88
612.579	269.88
612.787	265.88
612.995	272.88
613.203	272.88
613.411	262.88
613.618	262.88
613.826	269.88
614.034	248.88
614.242	238.88
614.449	264.88
614.657	263.88
614.865	269.88
615.072	257.88
615.28	257.88
615.488	249.88
615.695	268.88
615.903	261.88
616.111	257.88
616.318	255.88
616.526	253.88
616.733	267.88
616.941	232.88
617.148	250.88
617.356	265.88
617.563	242.88
617.771	243.88
617.978	241.88
618.185	244.88
618.393	259.88
618.6	259.88
618.807	254.88
619.015	236.88
619.222	244.88
619.429	251.88
619.637	244.88
619.844	242.88
620.051	258.88
620.258	241.88
620.466	249.88
620.673	235.88
620.88	239.88
621.087	229.88
621.294	236.88
621.501	253.88
621.708	249.88
621.915	243.88
622.122	235.88
622.329	242.88
622.536	259.88
622.743	247.88
622.95	242.88
623.157	234.88
623.364	234.88
623.571	231.88
623.778	217.88
623.985	239.88
624.192	237.88
624.399	223.88
624.606	230.88
624.812	235.88
625.019	243.88
625.226	242.88
625.433	230.88
625.639	225.88
625.846	246.88
626.053	231.88
626.259	210.88
626.466	233.88
626.673	212.88
626.879	226.88
627.086	225.88
627.293	233.88
627.499	225.88
627.706	210.88
627.912	222.88
628.119	227.88
628.325	223.88
628.532	226.88
628.738	230.88
628.945	218.88
629.151	221.88
629.357	209.88
629.564	205.88
629.77	213.88
629.976	229.88
630.183	203.88
630.389	207.88
630.595	206.88
630.802	219.88
631.008	216.88
631.214	209.88
631.42	193.88
631.627	192.88
631.833	213.88
632.039	221.88
632.245	218.88
632.451	197.88
632.657	198.88
632.863	211.88
633.069	202.88
633.275	211.88
633.481	197.88
633.688	187.88
633.893	204.88
634.099	214.88
634.305	205.88
634.511	211.88
634.717	194.88
634.923	203.88
635.129	190.88
635.335	197.88
635.541	195.88
635.747	206.88
635.952	206.88
636.158	204.88
636.364	198.88
636.57	206.88
636.775	196.88
636.981	211.88
637.187	197.88
637.392	199.88
637.598	201.88
637.804	185.88
638.009	183.88
638.215	202.88
638.421	178.88
638.626	195.88
638.832	192.88
639.037	196.88
639.243	200.88
639.448	184.88
639.654	166.88
639.859	191.88
640.065	186.88
640.27	213.88
640.475	179.88
640.681	166.88
640.886	183.88
641.091	182.88
641.297	183.88
641.502	189.88
641.707	188.88
641.913	189.88
642.118	187.88
642.323	172.88
642.528	179.88
642.733	173.88
642.939	181.88
643.144	180.88
643.349	175.88
643.554	179.88
643.759	165.88
643.964	179.88
644.169	182.88
644.374	175.88
644.579	189.88
644.784	196.88
644.989	189.88
645.194	196.88
645.399	176.88
645.604	186.88
645.809	177.88
646.014	183.88
646.219	166.88
646.423	165.88
646.628	174.88
646.833	171.88
647.038	189.88
647.243	180.88
647.447	190.88
647.652	186.88
647.857	180.88
648.062	184.88
648.266	173.88
648.471	184.88
648.676	174.88
648.88	185.88
649.085	166.88
649.289	195.88
649.494	178.88
649.698	197.88
649.903	203.88
650.107	177.88
650.312	174.88
650.516	166.88
650.721	164.88
650.925	154.88
651.13	150.88
651.334	141.88
651.539	172.88
651.743	157.88
651.947	145.88
652.152	155.88
652.356	161.88
652.56	150.88
652.764	148.88
652.969	150.88
653.173	142.88
653.377	136.88
653.581	156.88
653.785	129.88
653.99	155.88
654.194	130.88
654.398	138.88
654.602	126.88
654.806	134.88
655.01	144.88
655.214	132.88
655.418	137.88
655.622	144.88
655.826	131.88
656.03	135.88
656.234	126.88
656.438	136.88
656.642	132.88
656.846	133.88
657.049	118.88
657.253	119.88
657.457	118.88
657.661	136.88
657.865	109.88
658.068	122.88
658.272	104.88
658.476	113.88
658.68	105.88
658.883	117.88
659.087	115.88
659.291	108.88
659.494	106.88
659.698	93.88
659.901	91.88
660.105	100.88
660.309	91.88
660.512	109.88
660.716	82.88
660.919	94.88
661.123	85.88
661.326	89.88
661.53	74.88
661.733	83.88
661.936	89.88
662.14	90.88
662.343	73.88
662.546	80.88
662.75	83.88
662.953	99.88
663.156	91.88
663.36	90.88
663.563	98.88
663.766	78.88
663.969	82.88
664.173	62.88
664.376	91.88
664.579	73.88
664.782	100.88
664.985	79.88
665.188	71.88
665.391	74.88
665.594	74.88
665.797	75.88
666	89.88
666.203	89.88
666.406	93.88
666.609	75.88
666.812	92.88
667.015	82.88
667.218	80.88
667.421	84.88
667.624	63.88
667.827	81.88
668.03	84.88
668.232	93.88
668.435	90.88
668.638	87.88
668.841	79.88
669.043	87.88
669.246	89.88
669.449	85.88
669.651	94.88
669.854	86.88
670.057	79.88
670.259	91.88
670.462	72.88
670.665	91.88
670.867	63.88
671.07	80.88
671.272	82.88
671.475	77.88
671.677	67.88
671.88	85.88
672.082	82.88
672.284	66.88
672.487	84.88
672.689	77.88
672.892	84.88
