Data from 1970.PennyLincolnUp.Lamp.En5.5.200Scan.071719.P1._HRD10591_15-14-04-842.txt Node
Date: Thu Jul 18 15:14:04 EDT 2019
User: cochatt
Spectrometer: HR+D1059
Trigger mode: 1
Integration Time (sec): 1.000000E-1
Scans to average: 1
Electric dark correction enabled: true
Nonlinearity correction enabled: false
Boxcar width: 0
XAxis mode: Wavelengths
Number of Pixels in Spectrum: 2048
>>>>>Begin Spectral Data<<<<<
223.165	-28.31
223.4	-28.31
223.635	-28.31
223.869	-23.31
224.104	-18.31
224.338	-11.31
224.573	-14.31
224.808	0.69
225.042	0.69
225.277	-8.31
225.511	2.69
225.746	4.69
225.98	9.69
226.215	21.69
226.449	-0.31
226.683	19.69
226.918	23.69
227.152	20.69
227.387	35.69
227.621	42.69
227.856	43.69
228.09	36.69
228.324	59.69
228.559	61.69
228.793	76.69
229.027	99.69
229.262	104.69
229.496	137.69
229.73	135.69
229.964	162.69
230.199	138.69
230.433	116.69
230.667	132.69
230.901	113.69
231.136	111.69
231.37	116.69
231.604	106.69
231.838	135.69
232.072	117.69
232.306	122.69
232.541	108.69
232.775	109.69
233.009	94.69
233.243	115.69
233.477	107.69
233.711	120.69
233.945	133.69
234.179	118.69
234.413	129.69
234.647	118.69
234.881	126.69
235.115	107.69
235.349	113.69
235.583	127.69
235.817	120.69
236.051	135.69
236.285	138.69
236.519	129.69
236.753	141.69
236.987	150.69
237.221	195.69
237.455	251.69
237.689	191.69
237.922	152.69
238.156	133.69
238.39	143.69
238.624	138.69
238.858	126.69
239.091	143.69
239.325	135.69
239.559	130.69
239.793	131.69
240.027	128.69
240.26	162.69
240.494	160.69
240.728	164.69
240.961	157.69
241.195	152.69
241.429	145.69
241.662	153.69
241.896	130.69
242.13	147.69
242.363	141.69
242.597	135.69
242.83	141.69
243.064	141.69
243.298	147.69
243.531	136.69
243.765	129.69
243.998	151.69
244.232	141.69
244.465	147.69
244.699	147.69
244.932	152.69
245.166	144.69
245.399	163.69
245.633	165.69
245.866	153.69
246.099	157.69
246.333	168.69
246.566	152.69
246.8	166.69
247.033	158.69
247.266	180.69
247.5	179.69
247.733	180.69
247.966	175.69
248.2	195.69
248.433	185.69
248.666	199.69
248.899	202.69
249.133	209.69
249.366	249.69
249.599	212.69
249.832	186.69
250.066	207.69
250.299	199.69
250.532	199.69
250.765	204.69
250.998	231.69
251.231	255.69
251.465	218.69
251.698	205.69
251.931	226.69
252.164	233.69
252.397	230.69
252.63	223.69
252.863	227.69
253.096	231.69
253.329	238.69
253.562	234.69
253.795	256.69
254.028	229.69
254.261	224.69
254.494	272.69
254.727	292.69
254.96	310.69
255.193	300.69
255.426	282.69
255.659	273.69
255.892	255.69
256.124	260.69
256.357	255.69
256.59	246.69
256.823	240.69
257.056	239.69
257.289	234.69
257.521	235.69
257.754	216.69
257.987	227.69
258.22	215.69
258.452	222.69
258.685	210.69
258.918	209.69
259.151	216.69
259.383	220.69
259.616	236.69
259.849	231.69
260.081	243.69
260.314	281.69
260.547	269.69
260.779	259.69
261.012	259.69
261.244	247.69
261.477	228.69
261.71	229.69
261.942	239.69
262.175	244.69
262.407	252.69
262.64	235.69
262.872	213.69
263.105	211.69
263.337	224.69
263.57	219.69
263.802	225.69
264.035	215.69
264.267	216.69
264.499	213.69
264.732	210.69
264.964	217.69
265.197	202.69
265.429	210.69
265.661	220.69
265.894	207.69
266.126	220.69
266.358	253.69
266.591	215.69
266.823	247.69
267.055	249.69
267.287	235.69
267.52	236.69
267.752	220.69
267.984	252.69
268.216	230.69
268.448	236.69
268.681	229.69
268.913	219.69
269.145	271.69
269.377	283.69
269.609	281.69
269.841	265.69
270.073	278.69
270.306	292.69
270.538	331.69
270.77	320.69
271.002	332.69
271.234	296.69
271.466	307.69
271.698	333.69
271.93	345.69
272.162	314.69
272.394	335.69
272.626	340.69
272.858	299.69
273.09	270.69
273.322	291.69
273.553	284.69
273.785	269.69
274.017	257.69
274.249	273.69
274.481	266.69
274.713	282.69
274.945	270.69
275.176	275.69
275.408	265.69
275.64	258.69
275.872	249.69
276.104	274.69
276.335	265.69
276.567	267.69
276.799	281.69
277.031	311.69
277.262	319.69
277.494	323.69
277.726	298.69
277.957	296.69
278.189	279.69
278.421	263.69
278.652	267.69
278.884	264.69
279.115	277.69
279.347	275.69
279.579	254.69
279.81	267.69
280.042	259.69
280.273	263.69
280.505	246.69
280.736	283.69
280.968	266.69
281.199	277.69
281.431	283.69
281.662	268.69
281.894	267.69
282.125	248.69
282.356	289.69
282.588	305.69
282.819	311.69
283.051	273.69
283.282	282.69
283.513	267.69
283.745	259.69
283.976	264.69
284.207	277.69
284.439	272.69
284.67	269.69
284.901	279.69
285.132	273.69
285.364	268.69
285.595	278.69
285.826	261.69
286.057	277.69
286.288	249.69
286.52	274.69
286.751	253.69
286.982	249.69
287.213	271.69
287.444	277.69
287.675	275.69
287.906	293.69
288.138	265.69
288.369	280.69
288.6	290.69
288.831	280.69
289.062	286.69
289.293	273.69
289.524	301.69
289.755	279.69
289.986	284.69
290.217	292.69
290.448	268.69
290.679	272.69
290.91	281.69
291.141	287.69
291.371	279.69
291.602	268.69
291.833	273.69
292.064	278.69
292.295	289.69
292.526	267.69
292.757	284.69
292.987	283.69
293.218	266.69
293.449	260.69
293.68	279.69
293.91	279.69
294.141	278.69
294.372	263.69
294.603	293.69
294.833	288.69
295.064	295.69
295.295	283.69
295.525	272.69
295.756	292.69
295.987	315.69
296.217	325.69
296.448	339.69
296.679	305.69
296.909	304.69
297.14	279.69
297.37	295.69
297.601	292.69
297.831	276.69
298.062	296.69
298.292	291.69
298.523	283.69
298.753	290.69
298.984	295.69
299.214	287.69
299.445	304.69
299.675	294.69
299.905	291.69
300.136	301.69
300.366	300.69
300.597	296.69
300.827	299.69
301.057	293.69
301.288	335.69
301.518	336.69
301.748	309.69
301.979	320.69
302.209	294.69
302.439	325.69
302.669	328.69
302.9	321.69
303.13	302.69
303.36	341.69
303.59	335.69
303.82	346.69
304.051	341.69
304.281	339.69
304.511	329.69
304.741	320.69
304.971	329.69
305.201	314.69
305.431	321.69
305.661	321.69
305.891	323.69
306.121	320.69
306.352	315.69
306.582	317.69
306.812	329.69
307.042	307.69
307.272	324.69
307.502	327.69
307.731	328.69
307.961	337.69
308.191	350.69
308.421	315.69
308.651	335.69
308.881	322.69
309.111	321.69
309.341	332.69
309.571	338.69
309.8	342.69
310.03	380.69
310.26	359.69
310.49	365.69
310.72	381.69
310.949	399.69
311.179	397.69
311.409	365.69
311.639	383.69
311.868	384.69
312.098	367.69
312.328	389.69
312.557	412.69
312.787	427.69
313.017	409.69
313.246	403.69
313.476	377.69
313.706	377.69
313.935	382.69
314.165	395.69
314.394	387.69
314.624	380.69
314.853	375.69
315.083	376.69
315.312	359.69
315.542	359.69
315.771	361.69
316.001	359.69
316.23	352.69
316.46	369.69
316.689	365.69
316.919	367.69
317.148	400.69
317.377	407.69
317.607	397.69
317.836	387.69
318.065	379.69
318.295	382.69
318.524	385.69
318.753	357.69
318.983	386.69
319.212	374.69
319.441	388.69
319.67	406.69
319.9	366.69
320.129	379.69
320.358	383.69
320.587	380.69
320.816	401.69
321.046	409.69
321.275	394.69
321.504	410.69
321.733	402.69
321.962	413.69
322.191	410.69
322.42	424.69
322.649	458.69
322.878	454.69
323.108	474.69
323.337	512.69
323.566	523.69
323.795	560.69
324.024	597.69
324.253	736.69
324.482	1055.69
324.71	1590.69
324.939	2287.69
325.168	1966.69
325.397	1050.69
325.626	727.69
325.855	569.69
326.084	552.69
326.313	539.69
326.542	536.69
326.77	583.69
326.999	715.69
327.228	954.69
327.457	1416.69
327.686	1715.69
327.914	1177.69
328.143	804.69
328.372	708.69
328.6	643.69
328.829	641.69
329.058	632.69
329.287	627.69
329.515	562.69
329.744	548.69
329.972	525.69
330.201	550.69
330.43	589.69
330.658	621.69
330.887	656.69
331.115	642.69
331.344	521.69
331.572	503.69
331.801	512.69
332.03	516.69
332.258	504.69
332.486	468.69
332.715	461.69
332.943	454.69
333.172	473.69
333.4	460.69
333.629	471.69
333.857	487.69
334.085	499.69
334.314	501.69
334.542	543.69
334.771	567.69
334.999	505.69
335.227	487.69
335.455	463.69
335.684	464.69
335.912	445.69
336.14	425.69
336.369	436.69
336.597	447.69
336.825	439.69
337.053	452.69
337.281	433.69
337.51	428.69
337.738	441.69
337.966	436.69
338.194	449.69
338.422	441.69
338.65	413.69
338.878	428.69
339.106	401.69
339.334	431.69
339.562	440.69
339.79	435.69
340.018	423.69
340.246	427.69
340.474	426.69
340.702	427.69
340.93	413.69
341.158	428.69
341.386	448.69
341.614	425.69
341.842	430.69
342.07	439.69
342.298	414.69
342.526	423.69
342.754	411.69
342.981	416.69
343.209	412.69
343.437	416.69
343.665	421.69
343.893	405.69
344.12	425.69
344.348	408.69
344.576	433.69
344.804	433.69
345.031	473.69
345.259	455.69
345.487	439.69
345.714	429.69
345.942	444.69
346.17	417.69
346.397	413.69
346.625	423.69
346.853	421.69
347.08	428.69
347.308	431.69
347.535	444.69
347.763	459.69
347.99	443.69
348.218	422.69
348.445	428.69
348.673	454.69
348.9	426.69
349.128	421.69
349.355	403.69
349.583	407.69
349.81	405.69
350.037	405.69
350.265	398.69
350.492	405.69
350.72	399.69
350.947	436.69
351.174	452.69
351.402	420.69
351.629	441.69
351.856	437.69
352.083	439.69
352.311	455.69
352.538	444.69
352.765	461.69
352.992	424.69
353.22	450.69
353.447	424.69
353.674	421.69
353.901	412.69
354.128	402.69
354.355	379.69
354.583	395.69
354.81	408.69
355.037	399.69
355.264	394.69
355.491	379.69
355.718	386.69
355.945	386.69
356.172	380.69
356.399	384.69
356.626	379.69
356.853	384.69
357.08	406.69
357.307	401.69
357.534	387.69
357.761	395.69
357.988	389.69
358.215	397.69
358.441	398.69
358.668	390.69
358.895	429.69
359.122	423.69
359.349	442.69
359.576	430.69
359.802	465.69
360.029	480.69
360.256	515.69
360.483	476.69
360.709	449.69
360.936	455.69
361.163	430.69
361.39	437.69
361.616	427.69
361.843	450.69
362.07	438.69
362.296	435.69
362.523	435.69
362.749	446.69
362.976	438.69
363.203	410.69
363.429	427.69
363.656	430.69
363.882	405.69
364.109	414.69
364.335	409.69
364.562	415.69
364.788	431.69
365.015	425.69
365.241	423.69
365.468	435.69
365.694	427.69
365.92	426.69
366.147	425.69
366.373	414.69
366.599	411.69
366.826	403.69
367.052	396.69
367.278	408.69
367.505	423.69
367.731	407.69
367.957	414.69
368.184	419.69
368.41	435.69
368.636	433.69
368.862	444.69
369.089	414.69
369.315	421.69
369.541	418.69
369.767	425.69
369.993	404.69
370.219	442.69
370.445	421.69
370.672	421.69
370.898	397.69
371.124	411.69
371.35	402.69
371.576	408.69
371.802	394.69
372.028	389.69
372.254	425.69
372.48	425.69
372.706	403.69
372.932	411.69
373.158	410.69
373.384	428.69
373.61	404.69
373.835	424.69
374.061	428.69
374.287	389.69
374.513	420.69
374.739	432.69
374.965	442.69
375.191	408.69
375.416	420.69
375.642	408.69
375.868	401.69
376.094	422.69
376.319	425.69
376.545	418.69
376.771	425.69
376.997	412.69
377.222	438.69
377.448	423.69
377.674	432.69
377.899	433.69
378.125	411.69
378.35	400.69
378.576	421.69
378.802	401.69
379.027	438.69
379.253	436.69
379.478	404.69
379.704	401.69
379.929	419.69
380.155	425.69
380.38	408.69
380.606	419.69
380.831	421.69
381.057	428.69
381.282	413.69
381.507	419.69
381.733	415.69
381.958	415.69
382.184	396.69
382.409	420.69
382.634	409.69
382.86	432.69
383.085	432.69
383.31	404.69
383.535	421.69
383.761	428.69
383.986	435.69
384.211	447.69
384.436	432.69
384.662	420.69
384.887	428.69
385.112	451.69
385.337	429.69
385.562	433.69
385.787	417.69
386.013	454.69
386.238	472.69
386.463	473.69
386.688	463.69
386.913	424.69
387.138	445.69
387.363	445.69
387.588	424.69
387.813	443.69
388.038	429.69
388.263	453.69
388.488	439.69
388.713	445.69
388.938	436.69
389.163	451.69
389.387	450.69
389.612	423.69
389.837	447.69
390.062	449.69
390.287	434.69
390.512	433.69
390.736	450.69
390.961	443.69
391.186	455.69
391.411	432.69
391.636	451.69
391.86	451.69
392.085	482.69
392.31	459.69
392.534	448.69
392.759	459.69
392.984	448.69
393.208	463.69
393.433	476.69
393.658	466.69
393.882	457.69
394.107	445.69
394.331	462.69
394.556	455.69
394.78	448.69
395.005	450.69
395.229	476.69
395.454	478.69
395.678	475.69
395.903	484.69
396.127	474.69
396.352	509.69
396.576	477.69
396.801	464.69
397.025	482.69
397.249	475.69
397.474	477.69
397.698	490.69
397.922	503.69
398.147	507.69
398.371	536.69
398.595	484.69
398.82	502.69
399.044	500.69
399.268	526.69
399.492	548.69
399.717	574.69
399.941	587.69
400.165	616.69
400.389	656.69
400.613	561.69
400.837	553.69
401.062	544.69
401.286	521.69
401.51	505.69
401.734	522.69
401.958	535.69
402.182	540.69
402.406	549.69
402.63	546.69
402.854	520.69
403.078	525.69
403.302	521.69
403.526	538.69
403.75	530.69
403.974	550.69
404.198	547.69
404.422	566.69
404.645	558.69
404.869	552.69
405.093	578.69
405.317	627.69
405.541	641.69
405.765	593.69
405.988	580.69
406.212	586.69
406.436	592.69
406.66	610.69
406.883	587.69
407.107	609.69
407.331	642.69
407.555	704.69
407.778	690.69
408.002	657.69
408.226	608.69
408.449	603.69
408.673	601.69
408.896	616.69
409.12	651.69
409.344	599.69
409.567	586.69
409.791	571.69
410.014	568.69
410.238	536.69
410.461	556.69
410.685	572.69
410.908	559.69
411.132	597.69
411.355	636.69
411.578	608.69
411.802	554.69
412.025	563.69
412.249	563.69
412.472	588.69
412.695	610.69
412.919	598.69
413.142	576.69
413.365	529.69
413.589	519.69
413.812	540.69
414.035	517.69
414.258	517.69
414.482	511.69
414.705	522.69
414.928	513.69
415.151	509.69
415.374	512.69
415.597	507.69
415.821	510.69
416.044	529.69
416.267	497.69
416.49	528.69
416.713	504.69
416.936	530.69
417.159	514.69
417.382	525.69
417.605	527.69
417.828	541.69
418.051	525.69
418.274	533.69
418.497	516.69
418.72	517.69
418.943	511.69
419.166	521.69
419.389	546.69
419.611	532.69
419.834	559.69
420.057	552.69
420.28	551.69
420.503	536.69
420.726	537.69
420.948	557.69
421.171	586.69
421.394	638.69
421.617	595.69
421.839	557.69
422.062	577.69
422.285	563.69
422.507	620.69
422.73	731.69
422.953	687.69
423.175	595.69
423.398	568.69
423.621	579.69
423.843	604.69
424.066	611.69
424.288	592.69
424.511	635.69
424.733	669.69
424.956	781.69
425.178	734.69
425.401	730.69
425.623	775.69
425.846	645.69
426.068	626.69
426.291	590.69
426.513	599.69
426.735	620.69
426.958	664.69
427.18	724.69
427.402	872.69
427.625	977.69
427.847	866.69
428.069	739.69
428.292	679.69
428.514	584.69
428.736	580.69
428.958	571.69
429.181	567.69
429.403	586.69
429.625	579.69
429.847	619.69
430.069	668.69
430.292	675.69
430.514	596.69
430.736	584.69
430.958	565.69
431.18	572.69
431.402	552.69
431.624	521.69
431.846	531.69
432.068	501.69
432.29	530.69
432.512	542.69
432.734	548.69
432.956	551.69
433.178	554.69
433.4	557.69
433.622	533.69
433.844	531.69
434.066	520.69
434.287	512.69
434.509	513.69
434.731	516.69
434.953	547.69
435.175	573.69
435.397	583.69
435.618	623.69
435.84	657.69
436.062	733.69
436.284	804.69
436.505	692.69
436.727	627.69
436.949	597.69
437.17	563.69
437.392	592.69
437.614	600.69
437.835	630.69
438.057	768.69
438.278	823.69
438.5	823.69
438.721	904.69
438.943	871.69
439.165	701.69
439.386	633.69
439.608	636.69
439.829	624.69
440.05	633.69
440.272	706.69
440.493	651.69
440.715	600.69
440.936	593.69
441.158	584.69
441.379	580.69
441.6	590.69
441.822	601.69
442.043	650.69
442.264	729.69
442.486	787.69
442.707	665.69
442.928	635.69
443.149	641.69
443.371	652.69
443.592	705.69
443.813	814.69
444.034	853.69
444.255	727.69
444.476	637.69
444.698	594.69
444.919	601.69
445.14	714.69
445.361	661.69
445.582	653.69
445.803	733.69
446.024	817.69
446.245	808.69
446.466	773.69
446.687	671.69
446.908	610.69
447.129	583.69
447.35	575.69
447.571	577.69
447.792	560.69
448.013	572.69
448.234	597.69
448.455	634.69
448.675	779.69
448.896	892.69
449.117	735.69
449.338	707.69
449.559	804.69
449.779	892.69
450	740.69
450.221	642.69
450.442	585.69
450.662	573.69
450.883	585.69
451.104	567.69
451.324	568.69
451.545	549.69
451.766	535.69
451.986	518.69
452.207	490.69
452.428	513.69
452.648	507.69
452.869	534.69
453.089	525.69
453.31	520.69
453.53	518.69
453.751	500.69
453.971	532.69
454.192	546.69
454.412	521.69
454.633	509.69
454.853	478.69
455.073	495.69
455.294	532.69
455.514	594.69
455.734	573.69
455.955	515.69
456.175	474.69
456.395	459.69
456.616	460.69
456.836	489.69
457.056	477.69
457.276	477.69
457.497	476.69
457.717	479.69
457.937	471.69
458.157	473.69
458.377	461.69
458.598	522.69
458.818	591.69
459.038	694.69
459.258	677.69
459.478	588.69
459.698	525.69
459.918	541.69
460.138	521.69
460.358	522.69
460.578	515.69
460.798	518.69
461.018	509.69
461.238	522.69
461.458	503.69
461.678	508.69
461.898	537.69
462.118	526.69
462.338	512.69
462.558	521.69
462.777	533.69
462.997	521.69
463.217	556.69
463.437	551.69
463.657	534.69
463.876	558.69
464.096	552.69
464.316	541.69
464.536	549.69
464.755	569.69
464.975	587.69
465.195	632.69
465.414	711.69
465.634	625.69
465.854	581.69
466.073	549.69
466.293	536.69
466.512	532.69
466.732	521.69
466.951	521.69
467.171	499.69
467.391	521.69
467.61	530.69
467.829	554.69
468.049	540.69
468.268	543.69
468.488	511.69
468.707	504.69
468.927	504.69
469.146	482.69
469.365	496.69
469.585	495.69
469.804	523.69
470.023	534.69
470.243	523.69
470.462	505.69
470.681	563.69
470.901	534.69
471.12	541.69
471.339	520.69
471.558	514.69
471.777	546.69
471.997	503.69
472.216	537.69
472.435	575.69
472.654	569.69
472.873	520.69
473.092	528.69
473.311	527.69
473.53	530.69
473.749	535.69
473.968	569.69
474.187	712.69
474.406	684.69
474.625	601.69
474.844	555.69
475.063	531.69
475.282	541.69
475.501	525.69
475.72	550.69
475.939	543.69
476.158	544.69
476.377	560.69
476.596	571.69
476.814	554.69
477.033	555.69
477.252	564.69
477.471	553.69
477.69	551.69
477.908	550.69
478.127	573.69
478.346	577.69
478.564	593.69
478.783	583.69
479.002	605.69
479.22	604.69
479.439	626.69
479.658	631.69
479.876	651.69
480.095	631.69
480.313	671.69
480.532	649.69
480.751	648.69
480.969	660.69
481.188	706.69
481.406	773.69
481.624	680.69
481.843	639.69
482.061	628.69
482.28	625.69
482.498	616.69
482.717	627.69
482.935	615.69
483.153	648.69
483.372	648.69
483.59	651.69
483.808	640.69
484.027	624.69
484.245	628.69
484.463	618.69
484.681	641.69
484.9	635.69
485.118	627.69
485.336	646.69
485.554	660.69
485.772	657.69
485.99	635.69
486.209	644.69
486.427	648.69
486.645	664.69
486.863	697.69
487.081	696.69
487.299	679.69
487.517	694.69
487.735	657.69
487.953	677.69
488.171	686.69
488.389	666.69
488.607	666.69
488.825	689.69
489.043	687.69
489.261	713.69
489.479	689.69
489.696	697.69
489.914	683.69
490.132	705.69
490.35	711.69
490.568	741.69
490.786	735.69
491.003	767.69
491.221	767.69
491.439	772.69
491.657	776.69
491.874	787.69
492.092	810.69
492.31	803.69
492.527	799.69
492.745	787.69
492.963	826.69
493.18	819.69
493.398	821.69
493.615	820.69
493.833	830.69
494.05	801.69
494.268	813.69
494.485	835.69
494.703	813.69
494.92	850.69
495.138	835.69
495.355	852.69
495.573	831.69
495.79	838.69
496.008	812.69
496.225	823.69
496.442	834.69
496.66	803.69
496.877	820.69
497.094	807.69
497.312	817.69
497.529	852.69
497.746	850.69
497.963	829.69
498.181	870.69
498.398	860.69
498.615	910.69
498.832	895.69
499.049	915.69
499.267	907.69
499.484	927.69
499.701	938.69
499.918	990.69
500.135	979.69
500.352	1015.69
500.569	1045.69
500.786	1037.69
501.003	1017.69
501.22	1002.69
501.437	981.69
501.654	1009.69
501.871	989.69
502.088	974.69
502.305	947.69
502.522	903.69
502.739	900.69
502.956	879.69
503.172	853.69
503.389	834.69
503.606	877.69
503.823	838.69
504.04	839.69
504.256	824.69
504.473	826.69
504.69	815.69
504.907	820.69
505.123	780.69
505.34	791.69
505.557	793.69
505.773	795.69
505.99	796.69
506.207	804.69
506.423	789.69
506.64	767.69
506.856	801.69
507.073	798.69
507.289	771.69
507.506	751.69
507.722	810.69
507.939	830.69
508.155	774.69
508.372	771.69
508.588	759.69
508.805	767.69
509.021	756.69
509.238	781.69
509.454	787.69
509.67	769.69
509.887	743.69
510.103	722.69
510.319	773.69
510.536	881.69
510.752	1472.69
510.968	1208.69
511.184	791.69
511.401	774.69
511.617	745.69
511.833	732.69
512.049	716.69
512.265	741.69
512.481	705.69
512.698	697.69
512.914	718.69
513.13	739.69
513.346	722.69
513.562	708.69
513.778	722.69
513.994	736.69
514.21	738.69
514.426	791.69
514.642	811.69
514.858	837.69
515.074	920.69
515.29	1086.69
515.506	1667.69
515.721	1329.69
515.937	870.69
516.153	804.69
516.369	767.69
516.585	743.69
516.801	726.69
517.016	740.69
517.232	712.69
517.448	727.69
517.664	732.69
517.879	711.69
518.095	726.69
518.311	711.69
518.527	742.69
518.742	719.69
518.958	714.69
519.173	684.69
519.389	699.69
519.605	714.69
519.82	731.69
520.036	733.69
520.251	781.69
520.467	799.69
520.682	791.69
520.898	792.69
521.113	848.69
521.329	892.69
521.544	1027.69
521.76	1287.69
521.975	2127.69
522.19	2079.69
522.406	1168.69
522.621	841.69
522.836	799.69
523.052	722.69
523.267	711.69
523.482	673.69
523.698	682.69
523.913	657.69
524.128	661.69
524.343	640.69
524.559	637.69
524.774	604.69
524.989	618.69
525.204	640.69
525.419	640.69
525.634	612.69
525.849	616.69
526.064	599.69
526.28	603.69
526.495	578.69
526.71	586.69
526.925	600.69
527.14	594.69
527.355	567.69
527.57	567.69
527.785	562.69
527.999	585.69
528.214	583.69
528.429	552.69
528.644	587.69
528.859	573.69
529.074	576.69
529.289	608.69
529.503	737.69
529.718	678.69
529.933	628.69
530.148	624.69
530.363	589.69
530.577	599.69
530.792	566.69
531.007	557.69
531.221	570.69
531.436	577.69
531.651	570.69
531.865	561.69
532.08	553.69
532.295	539.69
532.509	531.69
532.724	546.69
532.938	548.69
533.153	548.69
533.367	549.69
533.582	552.69
533.796	557.69
534.011	539.69
534.225	522.69
534.44	527.69
534.654	545.69
534.868	547.69
535.083	551.69
535.297	534.69
535.511	557.69
535.726	561.69
535.94	565.69
536.154	536.69
536.369	537.69
536.583	527.69
536.797	508.69
537.011	509.69
537.225	513.69
537.44	522.69
537.654	512.69
537.868	508.69
538.082	531.69
538.296	550.69
538.51	535.69
538.724	546.69
538.938	530.69
539.153	549.69
539.367	546.69
539.581	535.69
539.795	542.69
540.009	509.69
540.222	533.69
540.436	502.69
540.65	513.69
540.864	523.69
541.078	529.69
541.292	532.69
541.506	527.69
541.72	550.69
541.934	525.69
542.147	526.69
542.361	526.69
542.575	505.69
542.789	517.69
543.002	507.69
543.216	492.69
543.43	522.69
543.644	524.69
543.857	511.69
544.071	531.69
544.285	504.69
544.498	517.69
544.712	529.69
544.925	513.69
545.139	495.69
545.352	520.69
545.566	491.69
545.779	501.69
545.993	502.69
546.206	522.69
546.42	515.69
546.633	504.69
546.847	501.69
547.06	497.69
547.274	484.69
547.487	509.69
547.7	510.69
547.914	494.69
548.127	490.69
548.34	491.69
548.554	490.69
548.767	484.69
548.98	488.69
549.193	488.69
549.407	479.69
549.62	508.69
549.833	481.69
550.046	497.69
550.259	469.69
550.473	483.69
550.686	465.69
550.899	493.69
551.112	480.69
551.325	480.69
551.538	467.69
551.751	490.69
551.964	489.69
552.177	470.69
552.39	483.69
552.603	495.69
552.816	496.69
553.029	484.69
553.242	489.69
553.455	519.69
553.667	501.69
553.88	522.69
554.093	504.69
554.306	497.69
554.519	499.69
554.732	474.69
554.944	465.69
555.157	471.69
555.37	467.69
555.583	483.69
555.795	463.69
556.008	467.69
556.221	464.69
556.433	449.69
556.646	439.69
556.859	456.69
557.071	468.69
557.284	445.69
557.496	448.69
557.709	457.69
557.921	447.69
558.134	447.69
558.346	435.69
558.559	452.69
558.771	427.69
558.984	451.69
559.196	432.69
559.409	467.69
559.621	432.69
559.833	457.69
560.046	436.69
560.258	461.69
560.47	450.69
560.683	434.69
560.895	417.69
561.107	429.69
561.32	427.69
561.532	421.69
561.744	428.69
561.956	410.69
562.168	445.69
562.381	444.69
562.593	443.69
562.805	433.69
563.017	441.69
563.229	435.69
563.441	432.69
563.653	455.69
563.865	437.69
564.077	441.69
564.289	450.69
564.501	447.69
564.713	447.69
564.925	450.69
565.137	464.69
565.349	453.69
565.561	464.69
565.773	468.69
565.985	454.69
566.197	471.69
566.408	471.69
566.62	471.69
566.832	475.69
567.044	482.69
567.255	485.69
567.467	503.69
567.679	499.69
567.891	520.69
568.102	495.69
568.314	483.69
568.526	477.69
568.737	483.69
568.949	469.69
569.161	455.69
569.372	437.69
569.584	424.69
569.795	439.69
570.007	443.69
570.218	491.69
570.43	467.69
570.641	446.69
570.853	424.69
571.064	454.69
571.276	412.69
571.487	405.69
571.698	395.69
571.91	397.69
572.121	394.69
572.333	388.69
572.544	390.69
572.755	396.69
572.966	399.69
573.178	393.69
573.389	395.69
573.6	379.69
573.811	392.69
574.023	379.69
574.234	359.69
574.445	379.69
574.656	396.69
574.867	382.69
575.078	383.69
575.289	398.69
575.501	375.69
575.712	381.69
575.923	378.69
576.134	351.69
576.345	369.69
576.556	362.69
576.767	367.69
576.978	354.69
577.188	378.69
577.399	371.69
577.61	351.69
577.821	345.69
578.032	369.69
578.243	401.69
578.454	667.69
578.665	489.69
578.875	373.69
579.086	352.69
579.297	342.69
579.508	349.69
579.718	360.69
579.929	344.69
580.14	340.69
580.35	334.69
580.561	328.69
580.772	361.69
580.982	341.69
581.193	332.69
581.403	354.69
581.614	347.69
581.825	335.69
582.035	352.69
582.246	320.69
582.456	331.69
582.667	341.69
582.877	324.69
583.087	319.69
583.298	343.69
583.508	329.69
583.719	340.69
583.929	328.69
584.139	319.69
584.35	330.69
584.56	323.69
584.77	343.69
584.981	342.69
585.191	333.69
585.401	324.69
585.611	332.69
585.821	326.69
586.032	320.69
586.242	337.69
586.452	323.69
586.662	336.69
586.872	338.69
587.082	315.69
587.292	323.69
587.502	310.69
587.713	322.69
587.923	322.69
588.133	328.69
588.343	328.69
588.553	331.69
588.762	321.69
588.972	315.69
589.182	335.69
589.392	338.69
589.602	319.69
589.812	303.69
590.022	329.69
590.232	334.69
590.441	314.69
590.651	312.69
590.861	332.69
591.071	314.69
591.281	328.69
591.49	327.69
591.7	318.69
591.91	313.69
592.119	325.69
592.329	318.69
592.539	324.69
592.748	322.69
592.958	319.69
593.167	320.69
593.377	328.69
593.587	343.69
593.796	331.69
594.006	331.69
594.215	333.69
594.424	325.69
594.634	321.69
594.843	315.69
595.053	313.69
595.262	314.69
595.472	319.69
595.681	327.69
595.89	304.69
596.1	308.69
596.309	309.69
596.518	307.69
596.727	306.69
596.937	290.69
597.146	305.69
597.355	294.69
597.564	277.69
597.774	305.69
597.983	275.69
598.192	293.69
598.401	292.69
598.61	288.69
598.819	300.69
599.028	284.69
599.237	295.69
599.446	276.69
599.655	281.69
599.864	269.69
600.073	293.69
600.282	272.69
600.491	289.69
600.7	293.69
600.909	287.69
601.118	300.69
601.327	261.69
601.536	280.69
601.745	265.69
601.953	290.69
602.162	265.69
602.371	291.69
602.58	288.69
602.789	267.69
602.997	276.69
603.206	268.69
603.415	274.69
603.623	262.69
603.832	264.69
604.041	288.69
604.249	267.69
604.458	283.69
604.666	262.69
604.875	274.69
605.084	271.69
605.292	287.69
605.501	283.69
605.709	258.69
605.918	268.69
606.126	281.69
606.334	265.69
606.543	276.69
606.751	270.69
606.96	273.69
607.168	270.69
607.376	269.69
607.585	273.69
607.793	266.69
608.001	298.69
608.21	284.69
608.418	265.69
608.626	268.69
608.834	276.69
609.043	260.69
609.251	265.69
609.459	250.69
609.667	261.69
609.875	259.69
610.083	259.69
610.291	276.69
610.499	265.69
610.707	264.69
610.916	259.69
611.124	251.69
611.332	265.69
611.54	293.69
611.748	277.69
611.955	266.69
612.163	270.69
612.371	267.69
612.579	273.69
612.787	257.69
612.995	291.69
613.203	275.69
613.411	266.69
613.618	262.69
613.826	260.69
614.034	261.69
614.242	256.69
614.449	256.69
614.657	256.69
614.865	267.69
615.072	259.69
615.28	242.69
615.488	257.69
615.695	287.69
615.903	250.69
616.111	259.69
616.318	263.69
616.526	256.69
616.733	230.69
616.941	255.69
617.148	265.69
617.356	268.69
617.563	253.69
617.771	269.69
617.978	249.69
618.185	255.69
618.393	246.69
618.6	262.69
618.807	253.69
619.015	256.69
619.222	255.69
619.429	260.69
619.637	244.69
619.844	236.69
620.051	232.69
620.258	229.69
620.466	232.69
620.673	237.69
620.88	250.69
621.087	242.69
621.294	236.69
621.501	262.69
621.708	245.69
621.915	249.69
622.122	247.69
622.329	256.69
622.536	244.69
622.743	232.69
622.95	247.69
623.157	231.69
623.364	242.69
623.571	243.69
623.778	244.69
623.985	239.69
624.192	228.69
624.399	231.69
624.606	243.69
624.812	220.69
625.019	240.69
625.226	240.69
625.433	222.69
625.639	229.69
625.846	215.69
626.053	228.69
626.259	220.69
626.466	221.69
626.673	235.69
626.879	224.69
627.086	211.69
627.293	226.69
627.499	244.69
627.706	213.69
627.912	220.69
628.119	227.69
628.325	211.69
628.532	222.69
628.738	220.69
628.945	219.69
629.151	216.69
629.357	222.69
629.564	206.69
629.77	236.69
629.976	218.69
630.183	210.69
630.389	227.69
630.595	201.69
630.802	202.69
631.008	217.69
631.214	198.69
631.42	230.69
631.627	215.69
631.833	203.69
632.039	194.69
632.245	221.69
632.451	216.69
632.657	224.69
632.863	215.69
633.069	227.69
633.275	201.69
633.481	198.69
633.688	192.69
633.893	210.69
634.099	204.69
634.305	191.69
634.511	193.69
634.717	179.69
634.923	195.69
635.129	201.69
635.335	187.69
635.541	194.69
635.747	185.69
635.952	194.69
636.158	186.69
636.364	205.69
636.57	206.69
636.775	188.69
636.981	192.69
637.187	172.69
637.392	199.69
637.598	181.69
637.804	200.69
638.009	191.69
638.215	190.69
638.421	167.69
638.626	193.69
638.832	182.69
639.037	181.69
639.243	188.69
639.448	188.69
639.654	181.69
639.859	206.69
640.065	185.69
640.27	200.69
640.475	185.69
640.681	194.69
640.886	192.69
641.091	186.69
641.297	190.69
641.502	187.69
641.707	187.69
641.913	186.69
642.118	179.69
642.323	179.69
642.528	180.69
642.733	190.69
642.939	177.69
643.144	172.69
643.349	178.69
643.554	183.69
643.759	187.69
643.964	189.69
644.169	178.69
644.374	185.69
644.579	185.69
644.784	189.69
644.989	191.69
645.194	168.69
645.399	164.69
645.604	181.69
645.809	175.69
646.014	180.69
646.219	181.69
646.423	182.69
646.628	167.69
646.833	170.69
647.038	187.69
647.243	170.69
647.447	185.69
647.652	180.69
647.857	159.69
648.062	183.69
648.266	181.69
648.471	172.69
648.676	171.69
648.88	184.69
649.085	153.69
649.289	156.69
649.494	180.69
649.698	195.69
649.903	180.69
650.107	185.69
650.312	172.69
650.516	156.69
650.721	158.69
650.925	149.69
651.13	159.69
651.334	156.69
651.539	148.69
651.743	151.69
651.947	153.69
652.152	162.69
652.356	154.69
652.56	155.69
652.764	154.69
652.969	141.69
653.173	134.69
653.377	151.69
653.581	158.69
653.785	159.69
653.99	138.69
654.194	125.69
654.398	122.69
654.602	135.69
654.806	138.69
655.01	163.69
655.214	145.69
655.418	147.69
655.622	118.69
655.826	132.69
656.03	115.69
656.234	135.69
656.438	135.69
656.642	132.69
656.846	131.69
657.049	127.69
657.253	123.69
657.457	116.69
657.661	99.69
657.865	102.69
658.068	123.69
658.272	104.69
658.476	102.69
658.68	123.69
658.883	111.69
659.087	114.69
659.291	105.69
659.494	90.69
659.698	105.69
659.901	113.69
660.105	89.69
660.309	103.69
660.512	85.69
660.716	102.69
660.919	80.69
661.123	82.69
661.326	82.69
661.53	89.69
661.733	91.69
661.936	84.69
662.14	92.69
662.343	90.69
662.546	89.69
662.75	82.69
662.953	97.69
663.156	83.69
663.36	76.69
663.563	81.69
663.766	69.69
663.969	87.69
664.173	75.69
664.376	83.69
664.579	75.69
664.782	72.69
664.985	73.69
665.188	84.69
665.391	78.69
665.594	86.69
665.797	78.69
666	79.69
666.203	87.69
666.406	69.69
666.609	73.69
666.812	89.69
667.015	87.69
667.218	80.69
667.421	87.69
667.624	81.69
667.827	71.69
668.03	81.69
668.232	83.69
668.435	88.69
668.638	75.69
668.841	85.69
669.043	82.69
669.246	85.69
669.449	88.69
669.651	96.69
669.854	68.69
670.057	74.69
670.259	80.69
670.462	79.69
670.665	70.69
670.867	83.69
671.07	82.69
671.272	79.69
671.475	90.69
671.677	93.69
671.88	91.69
672.082	84.69
672.284	89.69
672.487	74.69
672.689	77.69
672.892	79.69
