Data from 1970.PennyLincolnUp.Lamp.En5.5.200Scan.071719.P1._HRD10591_15-14-00-843.txt Node
Date: Thu Jul 18 15:14:00 EDT 2019
User: cochatt
Spectrometer: HR+D1059
Trigger mode: 1
Integration Time (sec): 1.000000E-1
Scans to average: 1
Electric dark correction enabled: true
Nonlinearity correction enabled: false
Boxcar width: 0
XAxis mode: Wavelengths
Number of Pixels in Spectrum: 2048
>>>>>Begin Spectral Data<<<<<
223.165	-7.62
223.4	-7.62
223.635	-7.62
223.869	-14.62
224.104	-23.62
224.338	-9.62
224.573	-21.62
224.808	0.38
225.042	-9.62
225.277	-8.62
225.511	-11.62
225.746	2.38
225.98	12.38
226.215	4.38
226.449	11.38
226.683	25.38
226.918	28.38
227.152	22.38
227.387	32.38
227.621	33.38
227.856	44.38
228.09	58.38
228.324	54.38
228.559	41.38
228.793	74.38
229.027	104.38
229.262	113.38
229.496	132.38
229.73	141.38
229.964	156.38
230.199	126.38
230.433	124.38
230.667	122.38
230.901	122.38
231.136	116.38
231.37	111.38
231.604	118.38
231.838	107.38
232.072	115.38
232.306	121.38
232.541	115.38
232.775	100.38
233.009	112.38
233.243	117.38
233.477	119.38
233.711	125.38
233.945	125.38
234.179	120.38
234.413	122.38
234.647	128.38
234.881	119.38
235.115	124.38
235.349	105.38
235.583	118.38
235.817	112.38
236.051	138.38
236.285	136.38
236.519	125.38
236.753	132.38
236.987	164.38
237.221	192.38
237.455	243.38
237.689	204.38
237.922	140.38
238.156	132.38
238.39	125.38
238.624	124.38
238.858	128.38
239.091	130.38
239.325	123.38
239.559	127.38
239.793	123.38
240.027	138.38
240.26	157.38
240.494	166.38
240.728	154.38
240.961	156.38
241.195	160.38
241.429	149.38
241.662	154.38
241.896	137.38
242.13	120.38
242.363	153.38
242.597	128.38
242.83	148.38
243.064	144.38
243.298	143.38
243.531	140.38
243.765	149.38
243.998	144.38
244.232	124.38
244.465	160.38
244.699	153.38
244.932	163.38
245.166	148.38
245.399	142.38
245.633	144.38
245.866	148.38
246.099	139.38
246.333	166.38
246.566	144.38
246.8	166.38
247.033	169.38
247.266	161.38
247.5	165.38
247.733	173.38
247.966	165.38
248.2	168.38
248.433	182.38
248.666	192.38
248.899	192.38
249.133	197.38
249.366	212.38
249.599	222.38
249.832	190.38
250.066	194.38
250.299	191.38
250.532	205.38
250.765	206.38
250.998	225.38
251.231	212.38
251.465	211.38
251.698	219.38
251.931	185.38
252.164	207.38
252.397	208.38
252.63	201.38
252.863	232.38
253.096	225.38
253.329	244.38
253.562	228.38
253.795	250.38
254.028	229.38
254.261	243.38
254.494	232.38
254.727	256.38
254.96	294.38
255.193	282.38
255.426	264.38
255.659	251.38
255.892	221.38
256.124	240.38
256.357	244.38
256.59	248.38
256.823	227.38
257.056	210.38
257.289	221.38
257.521	233.38
257.754	217.38
257.987	231.38
258.22	210.38
258.452	218.38
258.685	204.38
258.918	219.38
259.151	209.38
259.383	222.38
259.616	231.38
259.849	230.38
260.081	243.38
260.314	255.38
260.547	277.38
260.779	234.38
261.012	232.38
261.244	237.38
261.477	231.38
261.71	227.38
261.942	259.38
262.175	245.38
262.407	244.38
262.64	203.38
262.872	220.38
263.105	221.38
263.337	217.38
263.57	212.38
263.802	201.38
264.035	214.38
264.267	210.38
264.499	210.38
264.732	205.38
264.964	194.38
265.197	199.38
265.429	206.38
265.661	203.38
265.894	211.38
266.126	206.38
266.358	216.38
266.591	211.38
266.823	213.38
267.055	221.38
267.287	231.38
267.52	212.38
267.752	217.38
267.984	213.38
268.216	226.38
268.448	227.38
268.681	228.38
268.913	236.38
269.145	258.38
269.377	267.38
269.609	274.38
269.841	280.38
270.073	262.38
270.306	292.38
270.538	317.38
270.77	314.38
271.002	316.38
271.234	308.38
271.466	317.38
271.698	309.38
271.93	312.38
272.162	310.38
272.394	307.38
272.626	308.38
272.858	298.38
273.09	290.38
273.322	274.38
273.553	274.38
273.785	254.38
274.017	255.38
274.249	289.38
274.481	266.38
274.713	259.38
274.945	261.38
275.176	276.38
275.408	265.38
275.64	249.38
275.872	277.38
276.104	270.38
276.335	265.38
276.567	259.38
276.799	285.38
277.031	314.38
277.262	307.38
277.494	313.38
277.726	285.38
277.957	281.38
278.189	281.38
278.421	253.38
278.652	267.38
278.884	278.38
279.115	252.38
279.347	250.38
279.579	256.38
279.81	257.38
280.042	237.38
280.273	254.38
280.505	254.38
280.736	275.38
280.968	240.38
281.199	247.38
281.431	241.38
281.662	258.38
281.894	252.38
282.125	257.38
282.356	268.38
282.588	288.38
282.819	291.38
283.051	279.38
283.282	256.38
283.513	250.38
283.745	260.38
283.976	276.38
284.207	254.38
284.439	264.38
284.67	269.38
284.901	258.38
285.132	249.38
285.364	258.38
285.595	280.38
285.826	260.38
286.057	263.38
286.288	272.38
286.52	276.38
286.751	258.38
286.982	264.38
287.213	246.38
287.444	268.38
287.675	254.38
287.906	275.38
288.138	276.38
288.369	278.38
288.6	288.38
288.831	289.38
289.062	265.38
289.293	280.38
289.524	267.38
289.755	308.38
289.986	268.38
290.217	272.38
290.448	284.38
290.679	280.38
290.91	286.38
291.141	281.38
291.371	269.38
291.602	271.38
291.833	274.38
292.064	262.38
292.295	264.38
292.526	277.38
292.757	263.38
292.987	267.38
293.218	268.38
293.449	280.38
293.68	263.38
293.91	274.38
294.141	256.38
294.372	245.38
294.603	263.38
294.833	245.38
295.064	275.38
295.295	257.38
295.525	271.38
295.756	276.38
295.987	273.38
296.217	302.38
296.448	334.38
296.679	288.38
296.909	278.38
297.14	291.38
297.37	282.38
297.601	287.38
297.831	276.38
298.062	285.38
298.292	288.38
298.523	307.38
298.753	284.38
298.984	289.38
299.214	285.38
299.445	280.38
299.675	284.38
299.905	288.38
300.136	299.38
300.366	304.38
300.597	288.38
300.827	294.38
301.057	293.38
301.288	317.38
301.518	312.38
301.748	297.38
301.979	298.38
302.209	301.38
302.439	297.38
302.669	291.38
302.9	300.38
303.13	296.38
303.36	302.38
303.59	308.38
303.82	316.38
304.051	325.38
304.281	294.38
304.511	300.38
304.741	311.38
304.971	299.38
305.201	317.38
305.431	297.38
305.661	297.38
305.891	301.38
306.121	303.38
306.352	300.38
306.582	317.38
306.812	298.38
307.042	313.38
307.272	296.38
307.502	299.38
307.731	330.38
307.961	309.38
308.191	302.38
308.421	318.38
308.651	316.38
308.881	322.38
309.111	329.38
309.341	355.38
309.571	337.38
309.8	341.38
310.03	334.38
310.26	362.38
310.49	371.38
310.72	352.38
310.949	390.38
311.179	390.38
311.409	359.38
311.639	342.38
311.868	356.38
312.098	375.38
312.328	370.38
312.557	372.38
312.787	397.38
313.017	409.38
313.246	377.38
313.476	341.38
313.706	349.38
313.935	362.38
314.165	373.38
314.394	404.38
314.624	369.38
314.853	351.38
315.083	358.38
315.312	362.38
315.542	349.38
315.771	338.38
316.001	349.38
316.23	354.38
316.46	364.38
316.689	348.38
316.919	360.38
317.148	373.38
317.377	388.38
317.607	360.38
317.836	368.38
318.065	357.38
318.295	343.38
318.524	365.38
318.753	371.38
318.983	362.38
319.212	363.38
319.441	373.38
319.67	373.38
319.9	369.38
320.129	369.38
320.358	354.38
320.587	355.38
320.816	365.38
321.046	380.38
321.275	416.38
321.504	384.38
321.733	395.38
321.962	381.38
322.191	404.38
322.42	401.38
322.649	442.38
322.878	461.38
323.108	450.38
323.337	484.38
323.566	491.38
323.795	535.38
324.024	581.38
324.253	704.38
324.482	997.38
324.71	1540.38
324.939	2166.38
325.168	1876.38
325.397	1017.38
325.626	680.38
325.855	552.38
326.084	534.38
326.313	496.38
326.542	525.38
326.77	556.38
326.999	679.38
327.228	907.38
327.457	1364.38
327.686	1632.38
327.914	1111.38
328.143	764.38
328.372	660.38
328.6	640.38
328.829	577.38
329.058	611.38
329.287	598.38
329.515	557.38
329.744	515.38
329.972	516.38
330.201	549.38
330.43	569.38
330.658	600.38
330.887	641.38
331.115	617.38
331.344	509.38
331.572	462.38
331.801	482.38
332.03	502.38
332.258	454.38
332.486	437.38
332.715	442.38
332.943	442.38
333.172	444.38
333.4	453.38
333.629	448.38
333.857	470.38
334.085	470.38
334.314	490.38
334.542	525.38
334.771	543.38
334.999	503.38
335.227	453.38
335.455	462.38
335.684	423.38
335.912	432.38
336.14	423.38
336.369	423.38
336.597	413.38
336.825	440.38
337.053	414.38
337.281	435.38
337.51	427.38
337.738	416.38
337.966	430.38
338.194	439.38
338.422	446.38
338.65	436.38
338.878	417.38
339.106	412.38
339.334	411.38
339.562	425.38
339.79	410.38
340.018	398.38
340.246	404.38
340.474	420.38
340.702	419.38
340.93	397.38
341.158	413.38
341.386	416.38
341.614	418.38
341.842	424.38
342.07	417.38
342.298	406.38
342.526	400.38
342.754	382.38
342.981	390.38
343.209	401.38
343.437	407.38
343.665	398.38
343.893	415.38
344.12	413.38
344.348	402.38
344.576	413.38
344.804	430.38
345.031	437.38
345.259	439.38
345.487	443.38
345.714	435.38
345.942	414.38
346.17	404.38
346.397	404.38
346.625	387.38
346.853	413.38
347.08	418.38
347.308	410.38
347.535	420.38
347.763	441.38
347.99	432.38
348.218	432.38
348.445	423.38
348.673	424.38
348.9	421.38
349.128	421.38
349.355	383.38
349.583	414.38
349.81	377.38
350.037	396.38
350.265	384.38
350.492	371.38
350.72	397.38
350.947	411.38
351.174	408.38
351.402	432.38
351.629	437.38
351.856	414.38
352.083	435.38
352.311	432.38
352.538	425.38
352.765	438.38
352.992	432.38
353.22	433.38
353.447	424.38
353.674	391.38
353.901	396.38
354.128	387.38
354.355	381.38
354.583	384.38
354.81	387.38
355.037	413.38
355.264	379.38
355.491	359.38
355.718	360.38
355.945	391.38
356.172	383.38
356.399	383.38
356.626	362.38
356.853	384.38
357.08	390.38
357.307	380.38
357.534	386.38
357.761	382.38
357.988	370.38
358.215	371.38
358.441	394.38
358.668	384.38
358.895	399.38
359.122	390.38
359.349	407.38
359.576	415.38
359.802	452.38
360.029	456.38
360.256	494.38
360.483	451.38
360.709	451.38
360.936	429.38
361.163	429.38
361.39	427.38
361.616	429.38
361.843	432.38
362.07	419.38
362.296	432.38
362.523	426.38
362.749	428.38
362.976	433.38
363.203	412.38
363.429	418.38
363.656	406.38
363.882	379.38
364.109	393.38
364.335	401.38
364.562	391.38
364.788	402.38
365.015	389.38
365.241	400.38
365.468	412.38
365.694	412.38
365.92	396.38
366.147	387.38
366.373	408.38
366.599	396.38
366.826	412.38
367.052	377.38
367.278	384.38
367.505	394.38
367.731	400.38
367.957	388.38
368.184	388.38
368.41	421.38
368.636	423.38
368.862	420.38
369.089	406.38
369.315	418.38
369.541	393.38
369.767	394.38
369.993	385.38
370.219	410.38
370.445	420.38
370.672	404.38
370.898	394.38
371.124	398.38
371.35	391.38
371.576	388.38
371.802	395.38
372.028	390.38
372.254	384.38
372.48	394.38
372.706	397.38
372.932	382.38
373.158	404.38
373.384	408.38
373.61	388.38
373.835	396.38
374.061	382.38
374.287	388.38
374.513	401.38
374.739	403.38
374.965	395.38
375.191	413.38
375.416	420.38
375.642	390.38
375.868	408.38
376.094	409.38
376.319	413.38
376.545	385.38
376.771	406.38
376.997	386.38
377.222	381.38
377.448	384.38
377.674	416.38
377.899	406.38
378.125	396.38
378.35	398.38
378.576	395.38
378.802	391.38
379.027	410.38
379.253	415.38
379.478	370.38
379.704	384.38
379.929	399.38
380.155	413.38
380.38	405.38
380.606	417.38
380.831	411.38
381.057	392.38
381.282	406.38
381.507	415.38
381.733	397.38
381.958	422.38
382.184	396.38
382.409	416.38
382.634	408.38
382.86	406.38
383.085	423.38
383.31	428.38
383.535	419.38
383.761	418.38
383.986	422.38
384.211	428.38
384.436	418.38
384.662	420.38
384.887	434.38
385.112	411.38
385.337	425.38
385.562	416.38
385.787	409.38
386.013	436.38
386.238	450.38
386.463	451.38
386.688	416.38
386.913	439.38
387.138	424.38
387.363	434.38
387.588	410.38
387.813	442.38
388.038	413.38
388.263	438.38
388.488	434.38
388.713	439.38
388.938	442.38
389.163	448.38
389.387	427.38
389.612	428.38
389.837	428.38
390.062	427.38
390.287	422.38
390.512	439.38
390.736	420.38
390.961	420.38
391.186	420.38
391.411	444.38
391.636	438.38
391.86	446.38
392.085	441.38
392.31	439.38
392.534	440.38
392.759	440.38
392.984	433.38
393.208	436.38
393.433	469.38
393.658	452.38
393.882	443.38
394.107	439.38
394.331	456.38
394.556	432.38
394.78	436.38
395.005	426.38
395.229	432.38
395.454	438.38
395.678	448.38
395.903	455.38
396.127	466.38
396.352	471.38
396.576	460.38
396.801	449.38
397.025	464.38
397.249	451.38
397.474	446.38
397.698	467.38
397.922	492.38
398.147	489.38
398.371	490.38
398.595	470.38
398.82	467.38
399.044	489.38
399.268	484.38
399.492	519.38
399.717	532.38
399.941	568.38
400.165	605.38
400.389	593.38
400.613	549.38
400.837	527.38
401.062	501.38
401.286	511.38
401.51	496.38
401.734	491.38
401.958	464.38
402.182	486.38
402.406	492.38
402.63	502.38
402.854	501.38
403.078	502.38
403.302	509.38
403.526	531.38
403.75	528.38
403.974	525.38
404.198	519.38
404.422	518.38
404.645	531.38
404.869	515.38
405.093	554.38
405.317	613.38
405.541	638.38
405.765	568.38
405.988	537.38
406.212	564.38
406.436	594.38
406.66	591.38
406.883	581.38
407.107	595.38
407.331	608.38
407.555	670.38
407.778	674.38
408.002	615.38
408.226	590.38
408.449	578.38
408.673	585.38
408.896	597.38
409.12	654.38
409.344	602.38
409.567	546.38
409.791	534.38
410.014	544.38
410.238	510.38
410.461	519.38
410.685	529.38
410.908	546.38
411.132	553.38
411.355	612.38
411.578	612.38
411.802	530.38
412.025	542.38
412.249	548.38
412.472	566.38
412.695	587.38
412.919	581.38
413.142	511.38
413.365	527.38
413.589	501.38
413.812	498.38
414.035	482.38
414.258	517.38
414.482	490.38
414.705	506.38
414.928	509.38
415.151	503.38
415.374	492.38
415.597	490.38
415.821	524.38
416.044	518.38
416.267	502.38
416.49	495.38
416.713	516.38
416.936	501.38
417.159	492.38
417.382	502.38
417.605	487.38
417.828	498.38
418.051	538.38
418.274	516.38
418.497	504.38
418.72	504.38
418.943	483.38
419.166	505.38
419.389	570.38
419.611	541.38
419.834	545.38
420.057	537.38
420.28	547.38
420.503	549.38
420.726	533.38
420.948	537.38
421.171	593.38
421.394	626.38
421.617	555.38
421.839	560.38
422.062	521.38
422.285	537.38
422.507	593.38
422.73	665.38
422.953	637.38
423.175	603.38
423.398	561.38
423.621	571.38
423.843	581.38
424.066	570.38
424.288	584.38
424.511	627.38
424.733	644.38
424.956	728.38
425.178	699.38
425.401	698.38
425.623	690.38
425.846	646.38
426.068	599.38
426.291	596.38
426.513	596.38
426.735	575.38
426.958	648.38
427.18	726.38
427.402	849.38
427.625	906.38
427.847	846.38
428.069	733.38
428.292	647.38
428.514	579.38
428.736	574.38
428.958	582.38
429.181	543.38
429.403	547.38
429.625	554.38
429.847	597.38
430.069	666.38
430.292	658.38
430.514	570.38
430.736	564.38
430.958	509.38
431.18	526.38
431.402	530.38
431.624	506.38
431.846	522.38
432.068	496.38
432.29	514.38
432.512	508.38
432.734	534.38
432.956	530.38
433.178	523.38
433.4	539.38
433.622	522.38
433.844	504.38
434.066	528.38
434.287	510.38
434.509	521.38
434.731	522.38
434.953	547.38
435.175	536.38
435.397	576.38
435.618	586.38
435.84	645.38
436.062	753.38
436.284	793.38
436.505	670.38
436.727	601.38
436.949	564.38
437.17	550.38
437.392	545.38
437.614	562.38
437.835	597.38
438.057	698.38
438.278	785.38
438.5	783.38
438.721	862.38
438.943	843.38
439.165	669.38
439.386	616.38
439.608	620.38
439.829	600.38
440.05	638.38
440.272	654.38
440.493	634.38
440.715	581.38
440.936	562.38
441.158	556.38
441.379	554.38
441.6	549.38
441.822	577.38
442.043	606.38
442.264	694.38
442.486	719.38
442.707	658.38
442.928	617.38
443.149	598.38
443.371	631.38
443.592	669.38
443.813	755.38
444.034	820.38
444.255	704.38
444.476	614.38
444.698	579.38
444.919	581.38
445.14	710.38
445.361	632.38
445.582	658.38
445.803	696.38
446.024	792.38
446.245	810.38
446.466	761.38
446.687	636.38
446.908	597.38
447.129	559.38
447.35	560.38
447.571	541.38
447.792	534.38
448.013	564.38
448.234	585.38
448.455	635.38
448.675	733.38
448.896	845.38
449.117	733.38
449.338	692.38
449.559	830.38
449.779	891.38
450	699.38
450.221	621.38
450.442	558.38
450.662	545.38
450.883	541.38
451.104	571.38
451.324	557.38
451.545	529.38
451.766	518.38
451.986	496.38
452.207	479.38
452.428	474.38
452.648	502.38
452.869	478.38
453.089	500.38
453.31	483.38
453.53	493.38
453.751	475.38
453.971	490.38
454.192	506.38
454.412	499.38
454.633	497.38
454.853	492.38
455.073	483.38
455.294	524.38
455.514	600.38
455.734	558.38
455.955	482.38
456.175	493.38
456.395	451.38
456.616	456.38
456.836	465.38
457.056	425.38
457.276	445.38
457.497	473.38
457.717	446.38
457.937	470.38
458.157	469.38
458.377	468.38
458.598	496.38
458.818	557.38
459.038	654.38
459.258	654.38
459.478	573.38
459.698	529.38
459.918	504.38
460.138	508.38
460.358	501.38
460.578	497.38
460.798	506.38
461.018	555.38
461.238	512.38
461.458	502.38
461.678	489.38
461.898	508.38
462.118	500.38
462.338	524.38
462.558	512.38
462.777	497.38
462.997	514.38
463.217	525.38
463.437	556.38
463.657	520.38
463.876	521.38
464.096	550.38
464.316	520.38
464.536	522.38
464.755	541.38
464.975	562.38
465.195	595.38
465.414	679.38
465.634	611.38
465.854	547.38
466.073	539.38
466.293	538.38
466.512	503.38
466.732	488.38
466.951	501.38
467.171	470.38
467.391	509.38
467.61	498.38
467.829	533.38
468.049	533.38
468.268	509.38
468.488	498.38
468.707	465.38
468.927	494.38
469.146	488.38
469.365	487.38
469.585	489.38
469.804	498.38
470.023	503.38
470.243	520.38
470.462	505.38
470.681	552.38
470.901	556.38
471.12	508.38
471.339	526.38
471.558	541.38
471.777	512.38
471.997	498.38
472.216	522.38
472.435	558.38
472.654	549.38
472.873	499.38
473.092	510.38
473.311	515.38
473.53	527.38
473.749	518.38
473.968	556.38
474.187	673.38
474.406	687.38
474.625	600.38
474.844	541.38
475.063	521.38
475.282	513.38
475.501	521.38
475.72	532.38
475.939	526.38
476.158	535.38
476.377	528.38
476.596	522.38
476.814	547.38
477.033	559.38
477.252	542.38
477.471	536.38
477.69	545.38
477.908	531.38
478.127	558.38
478.346	560.38
478.564	568.38
478.783	570.38
479.002	588.38
479.22	564.38
479.439	576.38
479.658	609.38
479.876	609.38
480.095	618.38
480.313	630.38
480.532	628.38
480.751	639.38
480.969	626.38
481.188	696.38
481.406	723.38
481.624	680.38
481.843	624.38
482.061	625.38
482.28	617.38
482.498	619.38
482.717	593.38
482.935	605.38
483.153	613.38
483.372	591.38
483.59	600.38
483.808	594.38
484.027	632.38
484.245	587.38
484.463	623.38
484.681	632.38
484.9	605.38
485.118	632.38
485.336	616.38
485.554	601.38
485.772	626.38
485.99	618.38
486.209	632.38
486.427	636.38
486.645	649.38
486.863	667.38
487.081	654.38
487.299	664.38
487.517	661.38
487.735	660.38
487.953	657.38
488.171	680.38
488.389	656.38
488.607	682.38
488.825	654.38
489.043	650.38
489.261	671.38
489.479	679.38
489.696	696.38
489.914	667.38
490.132	700.38
490.35	696.38
490.568	706.38
490.786	702.38
491.003	724.38
491.221	737.38
491.439	739.38
491.657	745.38
491.874	762.38
492.092	750.38
492.31	763.38
492.527	762.38
492.745	776.38
492.963	772.38
493.18	787.38
493.398	795.38
493.615	788.38
493.833	777.38
494.05	778.38
494.268	794.38
494.485	789.38
494.703	762.38
494.92	775.38
495.138	797.38
495.355	767.38
495.573	778.38
495.79	790.38
496.008	810.38
496.225	776.38
496.442	811.38
496.66	790.38
496.877	802.38
497.094	773.38
497.312	782.38
497.529	792.38
497.746	793.38
497.963	813.38
498.181	832.38
498.398	844.38
498.615	866.38
498.832	874.38
499.049	877.38
499.267	870.38
499.484	900.38
499.701	882.38
499.918	941.38
500.135	972.38
500.352	989.38
500.569	976.38
500.786	993.38
501.003	991.38
501.22	1013.38
501.437	960.38
501.654	927.38
501.871	933.38
502.088	927.38
502.305	876.38
502.522	854.38
502.739	843.38
502.956	874.38
503.172	813.38
503.389	840.38
503.606	819.38
503.823	838.38
504.04	802.38
504.256	839.38
504.473	794.38
504.69	774.38
504.907	781.38
505.123	759.38
505.34	782.38
505.557	772.38
505.773	773.38
505.99	769.38
506.207	754.38
506.423	749.38
506.64	761.38
506.856	764.38
507.073	769.38
507.289	714.38
507.506	743.38
507.722	781.38
507.939	775.38
508.155	740.38
508.372	735.38
508.588	743.38
508.805	754.38
509.021	736.38
509.238	750.38
509.454	749.38
509.67	731.38
509.887	740.38
510.103	711.38
510.319	733.38
510.536	884.38
510.752	1407.38
510.968	1152.38
511.184	797.38
511.401	738.38
511.617	708.38
511.833	707.38
512.049	698.38
512.265	664.38
512.481	696.38
512.698	696.38
512.914	698.38
513.13	688.38
513.346	677.38
513.562	707.38
513.778	701.38
513.994	717.38
514.21	724.38
514.426	744.38
514.642	784.38
514.858	809.38
515.074	892.38
515.29	1056.38
515.506	1547.38
515.721	1282.38
515.937	858.38
516.153	778.38
516.369	723.38
516.585	725.38
516.801	729.38
517.016	701.38
517.232	725.38
517.448	721.38
517.664	697.38
517.879	685.38
518.095	724.38
518.311	701.38
518.527	690.38
518.742	690.38
518.958	712.38
519.173	709.38
519.389	692.38
519.605	708.38
519.82	671.38
520.036	730.38
520.251	720.38
520.467	753.38
520.682	746.38
520.898	781.38
521.113	796.38
521.329	848.38
521.544	960.38
521.76	1194.38
521.975	2047.38
522.19	1988.38
522.406	1097.38
522.621	814.38
522.836	727.38
523.052	682.38
523.267	675.38
523.482	644.38
523.698	642.38
523.913	674.38
524.128	649.38
524.343	630.38
524.559	624.38
524.774	626.38
524.989	617.38
525.204	606.38
525.419	616.38
525.634	600.38
525.849	574.38
526.064	605.38
526.28	571.38
526.495	567.38
526.71	574.38
526.925	578.38
527.14	571.38
527.355	553.38
527.57	544.38
527.785	566.38
527.999	549.38
528.214	560.38
528.429	544.38
528.644	562.38
528.859	559.38
529.074	574.38
529.289	609.38
529.503	686.38
529.718	684.38
529.933	611.38
530.148	558.38
530.363	562.38
530.577	555.38
530.792	546.38
531.007	562.38
531.221	554.38
531.436	547.38
531.651	541.38
531.865	533.38
532.08	533.38
532.295	534.38
532.509	516.38
532.724	512.38
532.938	536.38
533.153	543.38
533.367	532.38
533.582	546.38
533.796	523.38
534.011	537.38
534.225	523.38
534.44	541.38
534.654	527.38
534.868	529.38
535.083	505.38
535.297	521.38
535.511	537.38
535.726	538.38
535.94	535.38
536.154	541.38
536.369	531.38
536.583	525.38
536.797	505.38
537.011	508.38
537.225	520.38
537.44	499.38
537.654	482.38
537.868	512.38
538.082	512.38
538.296	518.38
538.51	507.38
538.724	523.38
538.938	493.38
539.153	508.38
539.367	536.38
539.581	533.38
539.795	511.38
540.009	496.38
540.222	510.38
540.436	506.38
540.65	533.38
540.864	522.38
541.078	522.38
541.292	531.38
541.506	520.38
541.72	515.38
541.934	486.38
542.147	503.38
542.361	512.38
542.575	487.38
542.789	485.38
543.002	483.38
543.216	500.38
543.43	509.38
543.644	507.38
543.857	490.38
544.071	482.38
544.285	498.38
544.498	502.38
544.712	505.38
544.925	492.38
545.139	474.38
545.352	486.38
545.566	487.38
545.779	490.38
545.993	493.38
546.206	510.38
546.42	480.38
546.633	498.38
546.847	487.38
547.06	481.38
547.274	480.38
547.487	518.38
547.7	506.38
547.914	472.38
548.127	469.38
548.34	480.38
548.554	480.38
548.767	490.38
548.98	481.38
549.193	467.38
549.407	484.38
549.62	484.38
549.833	478.38
550.046	461.38
550.259	464.38
550.473	469.38
550.686	488.38
550.899	442.38
551.112	468.38
551.325	497.38
551.538	465.38
551.751	461.38
551.964	461.38
552.177	450.38
552.39	469.38
552.603	477.38
552.816	475.38
553.029	472.38
553.242	480.38
553.455	488.38
553.667	482.38
553.88	504.38
554.093	486.38
554.306	488.38
554.519	488.38
554.732	466.38
554.944	468.38
555.157	468.38
555.37	457.38
555.583	448.38
555.795	444.38
556.008	438.38
556.221	448.38
556.433	436.38
556.646	442.38
556.859	443.38
557.071	450.38
557.284	422.38
557.496	432.38
557.709	421.38
557.921	426.38
558.134	425.38
558.346	437.38
558.559	429.38
558.771	413.38
558.984	420.38
559.196	420.38
559.409	416.38
559.621	410.38
559.833	425.38
560.046	409.38
560.258	424.38
560.47	416.38
560.683	418.38
560.895	415.38
561.107	413.38
561.32	423.38
561.532	418.38
561.744	425.38
561.956	437.38
562.168	412.38
562.381	416.38
562.593	432.38
562.805	423.38
563.017	410.38
563.229	434.38
563.441	453.38
563.653	436.38
563.865	437.38
564.077	452.38
564.289	438.38
564.501	430.38
564.713	451.38
564.925	432.38
565.137	478.38
565.349	436.38
565.561	432.38
565.773	469.38
565.985	446.38
566.197	428.38
566.408	456.38
566.62	457.38
566.832	465.38
567.044	488.38
567.255	474.38
567.467	488.38
567.679	472.38
567.891	480.38
568.102	484.38
568.314	466.38
568.526	467.38
568.737	466.38
568.949	447.38
569.161	454.38
569.372	433.38
569.584	444.38
569.795	433.38
570.007	422.38
570.218	481.38
570.43	467.38
570.641	426.38
570.853	385.38
571.064	404.38
571.276	378.38
571.487	393.38
571.698	401.38
571.91	398.38
572.121	404.38
572.333	390.38
572.544	374.38
572.755	377.38
572.966	366.38
573.178	353.38
573.389	396.38
573.6	380.38
573.811	360.38
574.023	358.38
574.234	364.38
574.445	356.38
574.656	357.38
574.867	354.38
575.078	354.38
575.289	377.38
575.501	363.38
575.712	356.38
575.923	343.38
576.134	346.38
576.345	340.38
576.556	339.38
576.767	359.38
576.978	354.38
577.188	356.38
577.399	352.38
577.61	341.38
577.821	360.38
578.032	352.38
578.243	384.38
578.454	655.38
578.665	459.38
578.875	365.38
579.086	363.38
579.297	341.38
579.508	328.38
579.718	324.38
579.929	341.38
580.14	340.38
580.35	316.38
580.561	335.38
580.772	328.38
580.982	328.38
581.193	330.38
581.403	336.38
581.614	339.38
581.825	332.38
582.035	334.38
582.246	332.38
582.456	332.38
582.667	324.38
582.877	332.38
583.087	323.38
583.298	327.38
583.508	332.38
583.719	331.38
583.929	310.38
584.139	304.38
584.35	314.38
584.56	312.38
584.77	326.38
584.981	338.38
585.191	322.38
585.401	315.38
585.611	324.38
585.821	310.38
586.032	315.38
586.242	316.38
586.452	327.38
586.662	323.38
586.872	326.38
587.082	297.38
587.292	345.38
587.502	326.38
587.713	307.38
587.923	320.38
588.133	307.38
588.343	325.38
588.553	305.38
588.762	332.38
588.972	310.38
589.182	318.38
589.392	324.38
589.602	327.38
589.812	294.38
590.022	315.38
590.232	323.38
590.441	298.38
590.651	311.38
590.861	328.38
591.071	297.38
591.281	317.38
591.49	330.38
591.7	301.38
591.91	326.38
592.119	320.38
592.329	296.38
592.539	326.38
592.748	327.38
592.958	312.38
593.167	315.38
593.377	327.38
593.587	327.38
593.796	342.38
594.006	325.38
594.215	317.38
594.424	329.38
594.634	323.38
594.843	311.38
595.053	297.38
595.262	317.38
595.472	311.38
595.681	304.38
595.89	310.38
596.1	300.38
596.309	318.38
596.518	291.38
596.727	290.38
596.937	301.38
597.146	313.38
597.355	305.38
597.564	285.38
597.774	290.38
597.983	286.38
598.192	275.38
598.401	286.38
598.61	288.38
598.819	293.38
599.028	290.38
599.237	281.38
599.446	274.38
599.655	282.38
599.864	266.38
600.073	269.38
600.282	297.38
600.491	276.38
600.7	289.38
600.909	278.38
601.118	258.38
601.327	282.38
601.536	291.38
601.745	286.38
601.953	290.38
602.162	260.38
602.371	262.38
602.58	274.38
602.789	267.38
602.997	273.38
603.206	274.38
603.415	276.38
603.623	280.38
603.832	262.38
604.041	288.38
604.249	275.38
604.458	267.38
604.666	270.38
604.875	258.38
605.084	258.38
605.292	255.38
605.501	271.38
605.709	267.38
605.918	240.38
606.126	252.38
606.334	263.38
606.543	256.38
606.751	270.38
606.96	276.38
607.168	248.38
607.376	269.38
607.585	257.38
607.793	241.38
608.001	262.38
608.21	257.38
608.418	259.38
608.626	265.38
608.834	254.38
609.043	274.38
609.251	260.38
609.459	259.38
609.667	261.38
609.875	260.38
610.083	260.38
610.291	271.38
610.499	256.38
610.707	258.38
610.916	227.38
611.124	261.38
611.332	268.38
611.54	269.38
611.748	270.38
611.955	254.38
612.163	254.38
612.371	256.38
612.579	269.38
612.787	254.38
612.995	257.38
613.203	242.38
613.411	246.38
613.618	244.38
613.826	260.38
614.034	253.38
614.242	237.38
614.449	240.38
614.657	242.38
614.865	240.38
615.072	261.38
615.28	271.38
615.488	233.38
615.695	250.38
615.903	244.38
616.111	260.38
616.318	251.38
616.526	274.38
616.733	249.38
616.941	241.38
617.148	257.38
617.356	244.38
617.563	253.38
617.771	255.38
617.978	249.38
618.185	246.38
618.393	235.38
618.6	252.38
618.807	274.38
619.015	245.38
619.222	256.38
619.429	231.38
619.637	235.38
619.844	262.38
620.051	238.38
620.258	238.38
620.466	230.38
620.673	236.38
620.88	229.38
621.087	228.38
621.294	230.38
621.501	227.38
621.708	243.38
621.915	227.38
622.122	231.38
622.329	234.38
622.536	242.38
622.743	242.38
622.95	239.38
623.157	217.38
623.364	228.38
623.571	213.38
623.778	213.38
623.985	218.38
624.192	235.38
624.399	224.38
624.606	230.38
624.812	224.38
625.019	225.38
625.226	218.38
625.433	230.38
625.639	215.38
625.846	214.38
626.053	210.38
626.259	234.38
626.466	217.38
626.673	214.38
626.879	202.38
627.086	240.38
627.293	223.38
627.499	206.38
627.706	231.38
627.912	219.38
628.119	211.38
628.325	211.38
628.532	217.38
628.738	205.38
628.945	213.38
629.151	213.38
629.357	215.38
629.564	216.38
629.77	201.38
629.976	205.38
630.183	205.38
630.389	206.38
630.595	199.38
630.802	206.38
631.008	193.38
631.214	202.38
631.42	205.38
631.627	194.38
631.833	202.38
632.039	214.38
632.245	202.38
632.451	188.38
632.657	214.38
632.863	208.38
633.069	184.38
633.275	188.38
633.481	208.38
633.688	189.38
633.893	198.38
634.099	204.38
634.305	206.38
634.511	198.38
634.717	184.38
634.923	206.38
635.129	208.38
635.335	192.38
635.541	189.38
635.747	181.38
635.952	197.38
636.158	179.38
636.364	208.38
636.57	198.38
636.775	203.38
636.981	181.38
637.187	183.38
637.392	183.38
637.598	194.38
637.804	184.38
638.009	190.38
638.215	193.38
638.421	173.38
638.626	194.38
638.832	186.38
639.037	181.38
639.243	174.38
639.448	185.38
639.654	174.38
639.859	174.38
640.065	189.38
640.27	177.38
640.475	170.38
640.681	189.38
640.886	181.38
641.091	187.38
641.297	180.38
641.502	169.38
641.707	185.38
641.913	173.38
642.118	201.38
642.323	180.38
642.528	176.38
642.733	171.38
642.939	168.38
643.144	189.38
643.349	159.38
643.554	193.38
643.759	182.38
643.964	161.38
644.169	173.38
644.374	160.38
644.579	189.38
644.784	178.38
644.989	184.38
645.194	163.38
645.399	180.38
645.604	184.38
645.809	184.38
646.014	183.38
646.219	171.38
646.423	150.38
646.628	172.38
646.833	189.38
647.038	168.38
647.243	186.38
647.447	158.38
647.652	161.38
647.857	176.38
648.062	174.38
648.266	168.38
648.471	183.38
648.676	181.38
648.88	190.38
649.085	183.38
649.289	170.38
649.494	168.38
649.698	187.38
649.903	179.38
650.107	185.38
650.312	171.38
650.516	162.38
650.721	159.38
650.925	176.38
651.13	137.38
651.334	145.38
651.539	158.38
651.743	154.38
651.947	163.38
652.152	154.38
652.356	153.38
652.56	130.38
652.764	145.38
652.969	155.38
653.173	156.38
653.377	132.38
653.581	140.38
653.785	146.38
653.99	136.38
654.194	138.38
654.398	134.38
654.602	140.38
654.806	144.38
655.01	146.38
655.214	153.38
655.418	126.38
655.622	132.38
655.826	125.38
656.03	132.38
656.234	131.38
656.438	125.38
656.642	132.38
656.846	125.38
657.049	134.38
657.253	113.38
657.457	116.38
657.661	118.38
657.865	124.38
658.068	100.38
658.272	92.38
658.476	109.38
658.68	98.38
658.883	119.38
659.087	117.38
659.291	101.38
659.494	108.38
659.698	105.38
659.901	112.38
660.105	96.38
660.309	102.38
660.512	98.38
660.716	89.38
660.919	84.38
661.123	90.38
661.326	91.38
661.53	88.38
661.733	71.38
661.936	87.38
662.14	83.38
662.343	91.38
662.546	88.38
662.75	75.38
662.953	70.38
663.156	84.38
663.36	73.38
663.563	76.38
663.766	89.38
663.969	93.38
664.173	78.38
664.376	89.38
664.579	72.38
664.782	69.38
664.985	88.38
665.188	85.38
665.391	94.38
665.594	77.38
665.797	68.38
666	73.38
666.203	75.38
666.406	76.38
666.609	82.38
666.812	76.38
667.015	79.38
667.218	82.38
667.421	86.38
667.624	77.38
667.827	86.38
668.03	71.38
668.232	91.38
668.435	90.38
668.638	97.38
668.841	74.38
669.043	73.38
669.246	79.38
669.449	77.38
669.651	90.38
669.854	72.38
670.057	82.38
670.259	72.38
670.462	79.38
670.665	82.38
670.867	91.38
671.07	84.38
671.272	68.38
671.475	87.38
671.677	95.38
671.88	82.38
672.082	90.38
672.284	87.38
672.487	84.38
672.689	86.38
672.892	77.38
