Data from 1970.PennyLincolnUp.Lamp.En5.5.200Scan.071719.P1._HRD10591_15-16-14-841.txt Node
Date: Thu Jul 18 15:16:14 EDT 2019
User: cochatt
Spectrometer: HR+D1059
Trigger mode: 1
Integration Time (sec): 1.000000E-1
Scans to average: 1
Electric dark correction enabled: true
Nonlinearity correction enabled: false
Boxcar width: 0
XAxis mode: Wavelengths
Number of Pixels in Spectrum: 2048
>>>>>Begin Spectral Data<<<<<
223.165	-4.94
223.4	-4.94
223.635	-4.94
223.869	-30.94
224.104	-18.94
224.338	-7.94
224.573	-4.94
224.808	-12.94
225.042	-3.94
225.277	0.06
225.511	-1.94
225.746	2.06
225.98	4.06
226.215	13.06
226.449	9.06
226.683	23.06
226.918	21.06
227.152	14.06
227.387	34.06
227.621	40.06
227.856	33.06
228.09	41.06
228.324	42.06
228.559	51.06
228.793	62.06
229.027	116.06
229.262	124.06
229.496	130.06
229.73	145.06
229.964	179.06
230.199	127.06
230.433	114.06
230.667	124.06
230.901	105.06
231.136	116.06
231.37	122.06
231.604	118.06
231.838	117.06
232.072	115.06
232.306	135.06
232.541	128.06
232.775	113.06
233.009	131.06
233.243	118.06
233.477	129.06
233.711	105.06
233.945	119.06
234.179	111.06
234.413	131.06
234.647	124.06
234.881	123.06
235.115	108.06
235.349	122.06
235.583	121.06
235.817	133.06
236.051	128.06
236.285	130.06
236.519	136.06
236.753	125.06
236.987	150.06
237.221	195.06
237.455	263.06
237.689	221.06
237.922	156.06
238.156	145.06
238.39	137.06
238.624	128.06
238.858	124.06
239.091	139.06
239.325	139.06
239.559	145.06
239.793	121.06
240.027	133.06
240.26	154.06
240.494	170.06
240.728	170.06
240.961	161.06
241.195	149.06
241.429	146.06
241.662	147.06
241.896	132.06
242.13	132.06
242.363	141.06
242.597	145.06
242.83	144.06
243.064	148.06
243.298	141.06
243.531	154.06
243.765	149.06
243.998	153.06
244.232	163.06
244.465	142.06
244.699	158.06
244.932	161.06
245.166	160.06
245.399	156.06
245.633	167.06
245.866	152.06
246.099	167.06
246.333	160.06
246.566	170.06
246.8	162.06
247.033	180.06
247.266	166.06
247.5	188.06
247.733	178.06
247.966	188.06
248.2	197.06
248.433	206.06
248.666	189.06
248.899	206.06
249.133	212.06
249.366	237.06
249.599	229.06
249.832	213.06
250.066	202.06
250.299	206.06
250.532	211.06
250.765	235.06
250.998	248.06
251.231	249.06
251.465	240.06
251.698	241.06
251.931	219.06
252.164	220.06
252.397	225.06
252.63	219.06
252.863	228.06
253.096	245.06
253.329	266.06
253.562	249.06
253.795	264.06
254.028	240.06
254.261	253.06
254.494	260.06
254.727	273.06
254.96	307.06
255.193	324.06
255.426	288.06
255.659	264.06
255.892	263.06
256.124	260.06
256.357	253.06
256.59	244.06
256.823	229.06
257.056	231.06
257.289	242.06
257.521	229.06
257.754	232.06
257.987	237.06
258.22	231.06
258.452	228.06
258.685	230.06
258.918	236.06
259.151	234.06
259.383	234.06
259.616	246.06
259.849	232.06
260.081	266.06
260.314	288.06
260.547	282.06
260.779	264.06
261.012	264.06
261.244	244.06
261.477	244.06
261.71	258.06
261.942	248.06
262.175	236.06
262.407	268.06
262.64	239.06
262.872	220.06
263.105	235.06
263.337	230.06
263.57	212.06
263.802	224.06
264.035	212.06
264.267	209.06
264.499	225.06
264.732	229.06
264.964	222.06
265.197	221.06
265.429	222.06
265.661	232.06
265.894	208.06
266.126	213.06
266.358	231.06
266.591	241.06
266.823	232.06
267.055	247.06
267.287	233.06
267.52	222.06
267.752	238.06
267.984	236.06
268.216	222.06
268.448	235.06
268.681	240.06
268.913	253.06
269.145	270.06
269.377	288.06
269.609	313.06
269.841	280.06
270.073	301.06
270.306	310.06
270.538	338.06
270.77	333.06
271.002	322.06
271.234	320.06
271.466	323.06
271.698	330.06
271.93	347.06
272.162	345.06
272.394	344.06
272.626	326.06
272.858	339.06
273.09	309.06
273.322	283.06
273.553	280.06
273.785	276.06
274.017	279.06
274.249	283.06
274.481	272.06
274.713	278.06
274.945	259.06
275.176	276.06
275.408	284.06
275.64	267.06
275.872	281.06
276.104	263.06
276.335	288.06
276.567	289.06
276.799	302.06
277.031	335.06
277.262	336.06
277.494	327.06
277.726	320.06
277.957	300.06
278.189	290.06
278.421	281.06
278.652	274.06
278.884	283.06
279.115	276.06
279.347	263.06
279.579	253.06
279.81	265.06
280.042	273.06
280.273	261.06
280.505	257.06
280.736	267.06
280.968	262.06
281.199	275.06
281.431	263.06
281.662	269.06
281.894	261.06
282.125	265.06
282.356	281.06
282.588	307.06
282.819	308.06
283.051	274.06
283.282	280.06
283.513	273.06
283.745	281.06
283.976	266.06
284.207	290.06
284.439	284.06
284.67	261.06
284.901	286.06
285.132	291.06
285.364	276.06
285.595	280.06
285.826	266.06
286.057	273.06
286.288	276.06
286.52	287.06
286.751	276.06
286.982	287.06
287.213	276.06
287.444	282.06
287.675	283.06
287.906	292.06
288.138	296.06
288.369	310.06
288.6	307.06
288.831	300.06
289.062	283.06
289.293	280.06
289.524	291.06
289.755	299.06
289.986	274.06
290.217	291.06
290.448	294.06
290.679	295.06
290.91	276.06
291.141	285.06
291.371	278.06
291.602	273.06
291.833	297.06
292.064	277.06
292.295	285.06
292.526	275.06
292.757	295.06
292.987	280.06
293.218	285.06
293.449	294.06
293.68	300.06
293.91	276.06
294.141	293.06
294.372	288.06
294.603	287.06
294.833	306.06
295.064	279.06
295.295	307.06
295.525	301.06
295.756	295.06
295.987	306.06
296.217	334.06
296.448	347.06
296.679	308.06
296.909	284.06
297.14	293.06
297.37	299.06
297.601	294.06
297.831	289.06
298.062	294.06
298.292	297.06
298.523	307.06
298.753	317.06
298.984	299.06
299.214	297.06
299.445	301.06
299.675	314.06
299.905	315.06
300.136	311.06
300.366	312.06
300.597	330.06
300.827	316.06
301.057	322.06
301.288	331.06
301.518	325.06
301.748	312.06
301.979	312.06
302.209	317.06
302.439	319.06
302.669	338.06
302.9	322.06
303.13	335.06
303.36	326.06
303.59	328.06
303.82	338.06
304.051	338.06
304.281	312.06
304.511	314.06
304.741	304.06
304.971	308.06
305.201	316.06
305.431	311.06
305.661	323.06
305.891	313.06
306.121	351.06
306.352	340.06
306.582	361.06
306.812	348.06
307.042	297.06
307.272	332.06
307.502	320.06
307.731	340.06
307.961	331.06
308.191	327.06
308.421	317.06
308.651	310.06
308.881	329.06
309.111	361.06
309.341	343.06
309.571	375.06
309.8	362.06
310.03	390.06
310.26	404.06
310.49	389.06
310.72	398.06
310.949	393.06
311.179	397.06
311.409	393.06
311.639	390.06
311.868	391.06
312.098	384.06
312.328	395.06
312.557	422.06
312.787	415.06
313.017	421.06
313.246	407.06
313.476	384.06
313.706	402.06
313.935	400.06
314.165	403.06
314.394	421.06
314.624	417.06
314.853	401.06
315.083	392.06
315.312	394.06
315.542	376.06
315.771	378.06
316.001	376.06
316.23	360.06
316.46	386.06
316.689	378.06
316.919	399.06
317.148	402.06
317.377	402.06
317.607	413.06
317.836	399.06
318.065	396.06
318.295	386.06
318.524	394.06
318.753	383.06
318.983	394.06
319.212	404.06
319.441	408.06
319.67	390.06
319.9	397.06
320.129	399.06
320.358	388.06
320.587	394.06
320.816	398.06
321.046	420.06
321.275	412.06
321.504	422.06
321.733	420.06
321.962	439.06
322.191	428.06
322.42	453.06
322.649	478.06
322.878	481.06
323.108	496.06
323.337	510.06
323.566	540.06
323.795	578.06
324.024	639.06
324.253	801.06
324.482	1142.06
324.71	1758.06
324.939	2461.06
325.168	2129.06
325.397	1169.06
325.626	754.06
325.855	622.06
326.084	568.06
326.313	552.06
326.542	560.06
326.77	598.06
326.999	728.06
327.228	1030.06
327.457	1528.06
327.686	1881.06
327.914	1274.06
328.143	832.06
328.372	713.06
328.6	672.06
328.829	650.06
329.058	650.06
329.287	669.06
329.515	624.06
329.744	575.06
329.972	552.06
330.201	601.06
330.43	635.06
330.658	674.06
330.887	698.06
331.115	685.06
331.344	571.06
331.572	534.06
331.801	550.06
332.03	533.06
332.258	504.06
332.486	473.06
332.715	494.06
332.943	472.06
333.172	479.06
333.4	479.06
333.629	492.06
333.857	488.06
334.085	499.06
334.314	538.06
334.542	578.06
334.771	597.06
334.999	550.06
335.227	505.06
335.455	473.06
335.684	465.06
335.912	460.06
336.14	459.06
336.369	442.06
336.597	458.06
336.825	465.06
337.053	445.06
337.281	454.06
337.51	434.06
337.738	453.06
337.966	453.06
338.194	472.06
338.422	459.06
338.65	453.06
338.878	476.06
339.106	474.06
339.334	435.06
339.562	438.06
339.79	454.06
340.018	439.06
340.246	432.06
340.474	437.06
340.702	427.06
340.93	446.06
341.158	456.06
341.386	443.06
341.614	453.06
341.842	446.06
342.07	433.06
342.298	440.06
342.526	416.06
342.754	418.06
342.981	411.06
343.209	437.06
343.437	412.06
343.665	429.06
343.893	405.06
344.12	440.06
344.348	450.06
344.576	428.06
344.804	442.06
345.031	466.06
345.259	462.06
345.487	461.06
345.714	464.06
345.942	455.06
346.17	434.06
346.397	435.06
346.625	428.06
346.853	416.06
347.08	426.06
347.308	463.06
347.535	438.06
347.763	456.06
347.99	452.06
348.218	454.06
348.445	476.06
348.673	469.06
348.9	432.06
349.128	421.06
349.355	436.06
349.583	414.06
349.81	420.06
350.037	413.06
350.265	420.06
350.492	397.06
350.72	434.06
350.947	438.06
351.174	453.06
351.402	460.06
351.629	458.06
351.856	452.06
352.083	452.06
352.311	472.06
352.538	493.06
352.765	461.06
352.992	453.06
353.22	435.06
353.447	439.06
353.674	423.06
353.901	436.06
354.128	426.06
354.355	395.06
354.583	429.06
354.81	402.06
355.037	396.06
355.264	429.06
355.491	416.06
355.718	409.06
355.945	390.06
356.172	405.06
356.399	401.06
356.626	409.06
356.853	389.06
357.08	383.06
357.307	389.06
357.534	404.06
357.761	415.06
357.988	410.06
358.215	397.06
358.441	401.06
358.668	408.06
358.895	423.06
359.122	416.06
359.349	433.06
359.576	437.06
359.802	467.06
360.029	505.06
360.256	537.06
360.483	499.06
360.709	443.06
360.936	448.06
361.163	458.06
361.39	463.06
361.616	442.06
361.843	454.06
362.07	434.06
362.296	459.06
362.523	443.06
362.749	453.06
362.976	427.06
363.203	437.06
363.429	424.06
363.656	427.06
363.882	410.06
364.109	428.06
364.335	428.06
364.562	433.06
364.788	429.06
365.015	438.06
365.241	432.06
365.468	418.06
365.694	414.06
365.92	427.06
366.147	434.06
366.373	414.06
366.599	418.06
366.826	419.06
367.052	411.06
367.278	413.06
367.505	433.06
367.731	403.06
367.957	450.06
368.184	434.06
368.41	435.06
368.636	469.06
368.862	449.06
369.089	434.06
369.315	423.06
369.541	411.06
369.767	416.06
369.993	424.06
370.219	441.06
370.445	436.06
370.672	411.06
370.898	397.06
371.124	424.06
371.35	410.06
371.576	424.06
371.802	417.06
372.028	422.06
372.254	416.06
372.48	416.06
372.706	433.06
372.932	435.06
373.158	425.06
373.384	434.06
373.61	434.06
373.835	436.06
374.061	422.06
374.287	415.06
374.513	438.06
374.739	415.06
374.965	420.06
375.191	434.06
375.416	448.06
375.642	430.06
375.868	425.06
376.094	433.06
376.319	440.06
376.545	426.06
376.771	422.06
376.997	415.06
377.222	424.06
377.448	429.06
377.674	422.06
377.899	409.06
378.125	421.06
378.35	416.06
378.576	419.06
378.802	406.06
379.027	432.06
379.253	421.06
379.478	399.06
379.704	421.06
379.929	419.06
380.155	434.06
380.38	432.06
380.606	413.06
380.831	433.06
381.057	426.06
381.282	422.06
381.507	430.06
381.733	415.06
381.958	436.06
382.184	432.06
382.409	419.06
382.634	436.06
382.86	439.06
383.085	419.06
383.31	444.06
383.535	430.06
383.761	446.06
383.986	452.06
384.211	462.06
384.436	444.06
384.662	452.06
384.887	451.06
385.112	441.06
385.337	438.06
385.562	458.06
385.787	441.06
386.013	447.06
386.238	454.06
386.463	450.06
386.688	447.06
386.913	461.06
387.138	452.06
387.363	461.06
387.588	455.06
387.813	462.06
388.038	434.06
388.263	460.06
388.488	448.06
388.713	445.06
388.938	466.06
389.163	464.06
389.387	452.06
389.612	446.06
389.837	455.06
390.062	430.06
390.287	439.06
390.512	464.06
390.736	451.06
390.961	456.06
391.186	443.06
391.411	482.06
391.636	464.06
391.86	456.06
392.085	484.06
392.31	467.06
392.534	469.06
392.759	449.06
392.984	466.06
393.208	467.06
393.433	475.06
393.658	463.06
393.882	448.06
394.107	456.06
394.331	467.06
394.556	431.06
394.78	461.06
395.005	467.06
395.229	451.06
395.454	465.06
395.678	480.06
395.903	492.06
396.127	503.06
396.352	526.06
396.576	471.06
396.801	485.06
397.025	474.06
397.249	476.06
397.474	477.06
397.698	481.06
397.922	516.06
398.147	516.06
398.371	528.06
398.595	500.06
398.82	505.06
399.044	512.06
399.268	523.06
399.492	560.06
399.717	576.06
399.941	594.06
400.165	632.06
400.389	673.06
400.613	593.06
400.837	566.06
401.062	530.06
401.286	528.06
401.51	536.06
401.734	538.06
401.958	539.06
402.182	531.06
402.406	542.06
402.63	545.06
402.854	536.06
403.078	545.06
403.302	560.06
403.526	539.06
403.75	540.06
403.974	547.06
404.198	544.06
404.422	568.06
404.645	558.06
404.869	583.06
405.093	595.06
405.317	648.06
405.541	668.06
405.765	610.06
405.988	572.06
406.212	578.06
406.436	605.06
406.66	620.06
406.883	621.06
407.107	625.06
407.331	646.06
407.555	715.06
407.778	740.06
408.002	649.06
408.226	636.06
408.449	630.06
408.673	604.06
408.896	633.06
409.12	660.06
409.344	665.06
409.567	580.06
409.791	572.06
410.014	561.06
410.238	565.06
410.461	530.06
410.685	548.06
410.908	573.06
411.132	617.06
411.355	668.06
411.578	634.06
411.802	588.06
412.025	554.06
412.249	570.06
412.472	565.06
412.695	636.06
412.919	602.06
413.142	564.06
413.365	550.06
413.589	548.06
413.812	530.06
414.035	514.06
414.258	513.06
414.482	530.06
414.705	510.06
414.928	515.06
415.151	522.06
415.374	522.06
415.597	501.06
415.821	518.06
416.044	519.06
416.267	542.06
416.49	508.06
416.713	517.06
416.936	531.06
417.159	517.06
417.382	531.06
417.605	545.06
417.828	525.06
418.051	562.06
418.274	549.06
418.497	527.06
418.72	532.06
418.943	515.06
419.166	541.06
419.389	589.06
419.611	568.06
419.834	551.06
420.057	564.06
420.28	557.06
420.503	562.06
420.726	552.06
420.948	579.06
421.171	627.06
421.394	664.06
421.617	617.06
421.839	578.06
422.062	575.06
422.285	583.06
422.507	623.06
422.73	702.06
422.953	681.06
423.175	624.06
423.398	574.06
423.621	586.06
423.843	612.06
424.066	629.06
424.288	613.06
424.511	605.06
424.733	686.06
424.956	785.06
425.178	770.06
425.401	767.06
425.623	774.06
425.846	662.06
426.068	643.06
426.291	602.06
426.513	608.06
426.735	632.06
426.958	663.06
427.18	756.06
427.402	899.06
427.625	992.06
427.847	891.06
428.069	789.06
428.292	700.06
428.514	620.06
428.736	580.06
428.958	579.06
429.181	572.06
429.403	573.06
429.625	568.06
429.847	613.06
430.069	714.06
430.292	705.06
430.514	588.06
430.736	579.06
430.958	576.06
431.18	553.06
431.402	554.06
431.624	540.06
431.846	531.06
432.068	534.06
432.29	548.06
432.512	570.06
432.734	524.06
432.956	551.06
433.178	589.06
433.4	556.06
433.622	539.06
433.844	537.06
434.066	540.06
434.287	532.06
434.509	526.06
434.731	554.06
434.953	556.06
435.175	576.06
435.397	578.06
435.618	613.06
435.84	657.06
436.062	730.06
436.284	817.06
436.505	683.06
436.727	618.06
436.949	618.06
437.17	565.06
437.392	572.06
437.614	592.06
437.835	661.06
438.057	724.06
438.278	862.06
438.5	844.06
438.721	916.06
438.943	890.06
439.165	711.06
439.386	670.06
439.608	656.06
439.829	665.06
440.05	673.06
440.272	755.06
440.493	659.06
440.715	645.06
440.936	617.06
441.158	599.06
441.379	602.06
441.6	595.06
441.822	612.06
442.043	683.06
442.264	733.06
442.486	796.06
442.707	698.06
442.928	660.06
443.149	628.06
443.371	664.06
443.592	732.06
443.813	811.06
444.034	866.06
444.255	729.06
444.476	644.06
444.698	617.06
444.919	625.06
445.14	716.06
445.361	669.06
445.582	674.06
445.803	738.06
446.024	875.06
446.245	862.06
446.466	792.06
446.687	694.06
446.908	642.06
447.129	606.06
447.35	582.06
447.571	573.06
447.792	592.06
448.013	592.06
448.234	610.06
448.455	680.06
448.675	781.06
448.896	904.06
449.117	758.06
449.338	744.06
449.559	831.06
449.779	910.06
450	774.06
450.221	652.06
450.442	595.06
450.662	600.06
450.883	610.06
451.104	617.06
451.324	588.06
451.545	565.06
451.766	561.06
451.986	530.06
452.207	505.06
452.428	527.06
452.648	512.06
452.869	531.06
453.089	546.06
453.31	557.06
453.53	545.06
453.751	516.06
453.971	521.06
454.192	534.06
454.412	540.06
454.633	506.06
454.853	532.06
455.073	522.06
455.294	553.06
455.514	634.06
455.734	603.06
455.955	534.06
456.175	510.06
456.395	513.06
456.616	485.06
456.836	486.06
457.056	488.06
457.276	467.06
457.497	476.06
457.717	497.06
457.937	497.06
458.157	499.06
458.377	507.06
458.598	514.06
458.818	596.06
459.038	694.06
459.258	734.06
459.478	600.06
459.698	548.06
459.918	530.06
460.138	523.06
460.358	528.06
460.578	521.06
460.798	516.06
461.018	546.06
461.238	504.06
461.458	522.06
461.678	516.06
461.898	535.06
462.118	534.06
462.338	541.06
462.558	511.06
462.777	540.06
462.997	564.06
463.217	549.06
463.437	565.06
463.657	551.06
463.876	555.06
464.096	568.06
464.316	560.06
464.536	572.06
464.755	582.06
464.975	571.06
465.195	635.06
465.414	748.06
465.634	685.06
465.854	587.06
466.073	554.06
466.293	551.06
466.512	527.06
466.732	515.06
466.951	521.06
467.171	522.06
467.391	532.06
467.61	542.06
467.829	572.06
468.049	537.06
468.268	540.06
468.488	540.06
468.707	526.06
468.927	533.06
469.146	503.06
469.365	523.06
469.585	501.06
469.804	530.06
470.023	545.06
470.243	546.06
470.462	525.06
470.681	571.06
470.901	542.06
471.12	529.06
471.339	536.06
471.558	530.06
471.777	538.06
471.997	547.06
472.216	544.06
472.435	621.06
472.654	580.06
472.873	541.06
473.092	532.06
473.311	522.06
473.53	538.06
473.749	550.06
473.968	591.06
474.187	713.06
474.406	737.06
474.625	625.06
474.844	564.06
475.063	532.06
475.282	540.06
475.501	568.06
475.72	555.06
475.939	552.06
476.158	566.06
476.377	555.06
476.596	554.06
476.814	580.06
477.033	586.06
477.252	565.06
477.471	590.06
477.69	576.06
477.908	609.06
478.127	589.06
478.346	602.06
478.564	582.06
478.783	613.06
479.002	610.06
479.22	620.06
479.439	634.06
479.658	658.06
479.876	645.06
480.095	660.06
480.313	700.06
480.532	696.06
480.751	665.06
480.969	693.06
481.188	779.06
481.406	814.06
481.624	722.06
481.843	674.06
482.061	678.06
482.28	662.06
482.498	628.06
482.717	651.06
482.935	641.06
483.153	656.06
483.372	655.06
483.59	632.06
483.808	648.06
484.027	633.06
484.245	654.06
484.463	662.06
484.681	669.06
484.9	640.06
485.118	653.06
485.336	677.06
485.554	648.06
485.772	650.06
485.99	692.06
486.209	677.06
486.427	674.06
486.645	685.06
486.863	713.06
487.081	701.06
487.299	685.06
487.517	692.06
487.735	679.06
487.953	704.06
488.171	708.06
488.389	719.06
488.607	694.06
488.825	706.06
489.043	674.06
489.261	708.06
489.479	700.06
489.696	707.06
489.914	717.06
490.132	710.06
490.35	728.06
490.568	718.06
490.786	758.06
491.003	746.06
491.221	762.06
491.439	803.06
491.657	810.06
491.874	818.06
492.092	810.06
492.31	789.06
492.527	830.06
492.745	843.06
492.963	836.06
493.18	845.06
493.398	828.06
493.615	840.06
493.833	842.06
494.05	834.06
494.268	853.06
494.485	841.06
494.703	842.06
494.92	844.06
495.138	873.06
495.355	849.06
495.573	854.06
495.79	845.06
496.008	856.06
496.225	832.06
496.442	852.06
496.66	856.06
496.877	823.06
497.094	840.06
497.312	844.06
497.529	872.06
497.746	834.06
497.963	894.06
498.181	880.06
498.398	907.06
498.615	892.06
498.832	889.06
499.049	898.06
499.267	937.06
499.484	932.06
499.701	952.06
499.918	974.06
500.135	1003.06
500.352	1055.06
500.569	1058.06
500.786	1025.06
501.003	1036.06
501.22	1026.06
501.437	1008.06
501.654	1023.06
501.871	1004.06
502.088	990.06
502.305	951.06
502.522	948.06
502.739	926.06
502.956	889.06
503.172	888.06
503.389	886.06
503.606	896.06
503.823	845.06
504.04	844.06
504.256	858.06
504.473	834.06
504.69	820.06
504.907	843.06
505.123	829.06
505.34	811.06
505.557	802.06
505.773	794.06
505.99	787.06
506.207	776.06
506.423	811.06
506.64	827.06
506.856	798.06
507.073	794.06
507.289	783.06
507.506	784.06
507.722	830.06
507.939	837.06
508.155	803.06
508.372	768.06
508.588	737.06
508.805	778.06
509.021	817.06
509.238	789.06
509.454	818.06
509.67	804.06
509.887	798.06
510.103	777.06
510.319	797.06
510.536	925.06
510.752	1538.06
510.968	1250.06
511.184	827.06
511.401	772.06
511.617	758.06
511.833	757.06
512.049	740.06
512.265	742.06
512.481	750.06
512.698	715.06
512.914	758.06
513.13	722.06
513.346	739.06
513.562	727.06
513.778	740.06
513.994	743.06
514.21	772.06
514.426	807.06
514.642	885.06
514.858	900.06
515.074	937.06
515.29	1154.06
515.506	1740.06
515.721	1401.06
515.937	906.06
516.153	841.06
516.369	793.06
516.585	776.06
516.801	768.06
517.016	751.06
517.232	722.06
517.448	743.06
517.664	748.06
517.879	719.06
518.095	753.06
518.311	734.06
518.527	732.06
518.742	710.06
518.958	728.06
519.173	746.06
519.389	745.06
519.605	725.06
519.82	717.06
520.036	773.06
520.251	796.06
520.467	833.06
520.682	820.06
520.898	850.06
521.113	895.06
521.329	936.06
521.544	1045.06
521.76	1385.06
521.975	2253.06
522.19	2232.06
522.406	1184.06
522.621	890.06
522.836	778.06
523.052	713.06
523.267	702.06
523.482	692.06
523.698	659.06
523.913	682.06
524.128	698.06
524.343	653.06
524.559	642.06
524.774	634.06
524.989	629.06
525.204	658.06
525.419	669.06
525.634	636.06
525.849	630.06
526.064	615.06
526.28	625.06
526.495	580.06
526.71	606.06
526.925	580.06
527.14	619.06
527.355	587.06
527.57	596.06
527.785	606.06
527.999	596.06
528.214	575.06
528.429	610.06
528.644	582.06
528.859	616.06
529.074	600.06
529.289	629.06
529.503	712.06
529.718	725.06
529.933	646.06
530.148	621.06
530.363	591.06
530.577	596.06
530.792	561.06
531.007	596.06
531.221	574.06
531.436	589.06
531.651	578.06
531.865	569.06
532.08	550.06
532.295	556.06
532.509	557.06
532.724	556.06
532.938	569.06
533.153	564.06
533.367	562.06
533.582	567.06
533.796	549.06
534.011	567.06
534.225	553.06
534.44	541.06
534.654	547.06
534.868	531.06
535.083	551.06
535.297	537.06
535.511	561.06
535.726	578.06
535.94	567.06
536.154	549.06
536.369	543.06
536.583	534.06
536.797	541.06
537.011	516.06
537.225	544.06
537.44	521.06
537.654	514.06
537.868	527.06
538.082	522.06
538.296	534.06
538.51	545.06
538.724	548.06
538.938	525.06
539.153	521.06
539.367	555.06
539.581	576.06
539.795	542.06
540.009	525.06
540.222	524.06
540.436	526.06
540.65	521.06
540.864	550.06
541.078	547.06
541.292	563.06
541.506	529.06
541.72	531.06
541.934	518.06
542.147	549.06
542.361	549.06
542.575	523.06
542.789	517.06
543.002	536.06
543.216	560.06
543.43	530.06
543.644	542.06
543.857	530.06
544.071	537.06
544.285	548.06
544.498	515.06
544.712	515.06
544.925	516.06
545.139	520.06
545.352	534.06
545.566	508.06
545.779	521.06
545.993	515.06
546.206	516.06
546.42	513.06
546.633	504.06
546.847	522.06
547.06	483.06
547.274	512.06
547.487	506.06
547.7	505.06
547.914	485.06
548.127	500.06
548.34	487.06
548.554	474.06
548.767	487.06
548.98	520.06
549.193	504.06
549.407	514.06
549.62	513.06
549.833	474.06
550.046	488.06
550.259	497.06
550.473	474.06
550.686	497.06
550.899	489.06
551.112	490.06
551.325	476.06
551.538	457.06
551.751	498.06
551.964	468.06
552.177	460.06
552.39	496.06
552.603	476.06
552.816	495.06
553.029	490.06
553.242	475.06
553.455	499.06
553.667	531.06
553.88	522.06
554.093	526.06
554.306	516.06
554.519	491.06
554.732	477.06
554.944	473.06
555.157	465.06
555.37	477.06
555.583	474.06
555.795	455.06
556.008	478.06
556.221	461.06
556.433	461.06
556.646	462.06
556.859	470.06
557.071	468.06
557.284	476.06
557.496	456.06
557.709	461.06
557.921	443.06
558.134	431.06
558.346	448.06
558.559	432.06
558.771	444.06
558.984	452.06
559.196	426.06
559.409	445.06
559.621	444.06
559.833	443.06
560.046	457.06
560.258	448.06
560.47	451.06
560.683	438.06
560.895	438.06
561.107	436.06
561.32	425.06
561.532	447.06
561.744	415.06
561.956	453.06
562.168	440.06
562.381	459.06
562.593	450.06
562.805	461.06
563.017	447.06
563.229	432.06
563.441	430.06
563.653	440.06
563.865	432.06
564.077	443.06
564.289	455.06
564.501	445.06
564.713	456.06
564.925	436.06
565.137	493.06
565.349	461.06
565.561	475.06
565.773	468.06
565.985	457.06
566.197	479.06
566.408	499.06
566.62	493.06
566.832	497.06
567.044	514.06
567.255	489.06
567.467	514.06
567.679	504.06
567.891	491.06
568.102	489.06
568.314	526.06
568.526	481.06
568.737	484.06
568.949	462.06
569.161	449.06
569.372	445.06
569.584	445.06
569.795	426.06
570.007	434.06
570.218	502.06
570.43	511.06
570.641	423.06
570.853	437.06
571.064	420.06
571.276	429.06
571.487	415.06
571.698	419.06
571.91	411.06
572.121	408.06
572.333	402.06
572.544	385.06
572.755	412.06
572.966	379.06
573.178	386.06
573.389	408.06
573.6	393.06
573.811	396.06
574.023	393.06
574.234	380.06
574.445	391.06
574.656	380.06
574.867	387.06
575.078	377.06
575.289	380.06
575.501	388.06
575.712	366.06
575.923	344.06
576.134	365.06
576.345	365.06
576.556	368.06
576.767	382.06
576.978	356.06
577.188	366.06
577.399	357.06
577.61	376.06
577.821	371.06
578.032	362.06
578.243	410.06
578.454	720.06
578.665	500.06
578.875	383.06
579.086	365.06
579.297	352.06
579.508	359.06
579.718	358.06
579.929	350.06
580.14	344.06
580.35	346.06
580.561	354.06
580.772	342.06
580.982	356.06
581.193	345.06
581.403	347.06
581.614	339.06
581.825	348.06
582.035	344.06
582.246	336.06
582.456	361.06
582.667	349.06
582.877	346.06
583.087	331.06
583.298	334.06
583.508	347.06
583.719	336.06
583.929	347.06
584.139	340.06
584.35	331.06
584.56	343.06
584.77	324.06
584.981	356.06
585.191	330.06
585.401	324.06
585.611	331.06
585.821	323.06
586.032	340.06
586.242	332.06
586.452	325.06
586.662	314.06
586.872	326.06
587.082	300.06
587.292	310.06
587.502	309.06
587.713	330.06
587.923	326.06
588.133	339.06
588.343	319.06
588.553	315.06
588.762	336.06
588.972	331.06
589.182	336.06
589.392	313.06
589.602	335.06
589.812	332.06
590.022	342.06
590.232	304.06
590.441	320.06
590.651	328.06
590.861	309.06
591.071	328.06
591.281	330.06
591.49	331.06
591.7	326.06
591.91	333.06
592.119	311.06
592.329	338.06
592.539	332.06
592.748	307.06
592.958	323.06
593.167	313.06
593.377	346.06
593.587	334.06
593.796	323.06
594.006	339.06
594.215	335.06
594.424	328.06
594.634	324.06
594.843	301.06
595.053	331.06
595.262	314.06
595.472	338.06
595.681	324.06
595.89	327.06
596.1	317.06
596.309	325.06
596.518	301.06
596.727	299.06
596.937	316.06
597.146	309.06
597.355	326.06
597.564	276.06
597.774	310.06
597.983	310.06
598.192	292.06
598.401	307.06
598.61	288.06
598.819	292.06
599.028	295.06
599.237	292.06
599.446	290.06
599.655	283.06
599.864	301.06
600.073	285.06
600.282	299.06
600.491	279.06
600.7	270.06
600.909	277.06
601.118	284.06
601.327	286.06
601.536	308.06
601.745	291.06
601.953	284.06
602.162	284.06
602.371	287.06
602.58	276.06
602.789	278.06
602.997	286.06
603.206	277.06
603.415	276.06
603.623	278.06
603.832	300.06
604.041	280.06
604.249	282.06
604.458	280.06
604.666	267.06
604.875	263.06
605.084	273.06
605.292	270.06
605.501	263.06
605.709	276.06
605.918	276.06
606.126	253.06
606.334	280.06
606.543	289.06
606.751	281.06
606.96	285.06
607.168	254.06
607.376	275.06
607.585	275.06
607.793	283.06
608.001	257.06
608.21	255.06
608.418	252.06
608.626	284.06
608.834	271.06
609.043	276.06
609.251	264.06
609.459	268.06
609.667	268.06
609.875	252.06
610.083	269.06
610.291	279.06
610.499	281.06
610.707	272.06
610.916	273.06
611.124	267.06
611.332	266.06
611.54	278.06
611.748	296.06
611.955	262.06
612.163	279.06
612.371	262.06
612.579	245.06
612.787	260.06
612.995	264.06
613.203	270.06
613.411	262.06
613.618	262.06
613.826	264.06
614.034	277.06
614.242	248.06
614.449	240.06
614.657	270.06
614.865	271.06
615.072	255.06
615.28	261.06
615.488	254.06
615.695	238.06
615.903	254.06
616.111	268.06
616.318	261.06
616.526	265.06
616.733	244.06
616.941	245.06
617.148	261.06
617.356	257.06
617.563	267.06
617.771	257.06
617.978	253.06
618.185	259.06
618.393	249.06
618.6	270.06
618.807	266.06
619.015	248.06
619.222	260.06
619.429	254.06
619.637	245.06
619.844	241.06
620.051	234.06
620.258	246.06
620.466	261.06
620.673	244.06
620.88	250.06
621.087	245.06
621.294	243.06
621.501	226.06
621.708	250.06
621.915	241.06
622.122	249.06
622.329	244.06
622.536	251.06
622.743	258.06
622.95	244.06
623.157	248.06
623.364	256.06
623.571	242.06
623.778	237.06
623.985	242.06
624.192	235.06
624.399	253.06
624.606	253.06
624.812	241.06
625.019	216.06
625.226	235.06
625.433	239.06
625.639	235.06
625.846	234.06
626.053	229.06
626.259	219.06
626.466	228.06
626.673	217.06
626.879	213.06
627.086	225.06
627.293	222.06
627.499	220.06
627.706	226.06
627.912	209.06
628.119	226.06
628.325	240.06
628.532	213.06
628.738	237.06
628.945	225.06
629.151	214.06
629.357	221.06
629.564	218.06
629.77	234.06
629.976	202.06
630.183	220.06
630.389	226.06
630.595	210.06
630.802	222.06
631.008	208.06
631.214	217.06
631.42	206.06
631.627	211.06
631.833	220.06
632.039	209.06
632.245	209.06
632.451	215.06
632.657	218.06
632.863	203.06
633.069	199.06
633.275	197.06
633.481	205.06
633.688	210.06
633.893	221.06
634.099	202.06
634.305	189.06
634.511	188.06
634.717	204.06
634.923	193.06
635.129	190.06
635.335	215.06
635.541	169.06
635.747	216.06
635.952	206.06
636.158	195.06
636.364	199.06
636.57	209.06
636.775	197.06
636.981	215.06
637.187	209.06
637.392	192.06
637.598	202.06
637.804	200.06
638.009	189.06
638.215	197.06
638.421	188.06
638.626	204.06
638.832	199.06
639.037	195.06
639.243	163.06
639.448	180.06
639.654	176.06
639.859	177.06
640.065	183.06
640.27	180.06
640.475	188.06
640.681	184.06
640.886	188.06
641.091	190.06
641.297	197.06
641.502	185.06
641.707	178.06
641.913	184.06
642.118	188.06
642.323	189.06
642.528	182.06
642.733	180.06
642.939	196.06
643.144	185.06
643.349	196.06
643.554	171.06
643.759	172.06
643.964	173.06
644.169	189.06
644.374	177.06
644.579	174.06
644.784	167.06
644.989	179.06
645.194	172.06
645.399	174.06
645.604	181.06
645.809	183.06
646.014	170.06
646.219	167.06
646.423	186.06
646.628	181.06
646.833	188.06
647.038	176.06
647.243	188.06
647.447	174.06
647.652	189.06
647.857	164.06
648.062	170.06
648.266	175.06
648.471	178.06
648.676	185.06
648.88	171.06
649.085	187.06
649.289	170.06
649.494	184.06
649.698	205.06
649.903	199.06
650.107	188.06
650.312	197.06
650.516	185.06
650.721	160.06
650.925	174.06
651.13	170.06
651.334	158.06
651.539	157.06
651.743	156.06
651.947	157.06
652.152	168.06
652.356	150.06
652.56	133.06
652.764	150.06
652.969	154.06
653.173	142.06
653.377	148.06
653.581	132.06
653.785	153.06
653.99	144.06
654.194	156.06
654.398	129.06
654.602	124.06
654.806	145.06
655.01	148.06
655.214	140.06
655.418	146.06
655.622	132.06
655.826	132.06
656.03	139.06
656.234	133.06
656.438	124.06
656.642	138.06
656.846	129.06
657.049	133.06
657.253	129.06
657.457	125.06
657.661	116.06
657.865	109.06
658.068	104.06
658.272	107.06
658.476	105.06
658.68	97.06
658.883	102.06
659.087	101.06
659.291	96.06
659.494	99.06
659.698	100.06
659.901	93.06
660.105	107.06
660.309	101.06
660.512	86.06
660.716	105.06
660.919	89.06
661.123	92.06
661.326	107.06
661.53	88.06
661.733	97.06
661.936	88.06
662.14	86.06
662.343	83.06
662.546	88.06
662.75	87.06
662.953	94.06
663.156	83.06
663.36	82.06
663.563	88.06
663.766	68.06
663.969	79.06
664.173	90.06
664.376	71.06
664.579	70.06
664.782	72.06
664.985	83.06
665.188	87.06
665.391	95.06
665.594	76.06
665.797	85.06
666	88.06
666.203	79.06
666.406	83.06
666.609	77.06
666.812	86.06
667.015	81.06
667.218	87.06
667.421	74.06
667.624	100.06
667.827	79.06
668.03	88.06
668.232	82.06
668.435	84.06
668.638	89.06
668.841	84.06
669.043	89.06
669.246	82.06
669.449	82.06
669.651	78.06
669.854	64.06
670.057	80.06
670.259	84.06
670.462	84.06
670.665	86.06
670.867	82.06
671.07	88.06
671.272	78.06
671.475	83.06
671.677	78.06
671.88	85.06
672.082	96.06
672.284	84.06
672.487	80.06
672.689	87.06
672.892	84.06
