Data from 1970.PennyLincolnUp.Lamp.En5.5.200Scan.071719.P1._HRD10591_15-14-06-842.txt Node
Date: Thu Jul 18 15:14:06 EDT 2019
User: cochatt
Spectrometer: HR+D1059
Trigger mode: 1
Integration Time (sec): 1.000000E-1
Scans to average: 1
Electric dark correction enabled: true
Nonlinearity correction enabled: false
Boxcar width: 0
XAxis mode: Wavelengths
Number of Pixels in Spectrum: 2048
>>>>>Begin Spectral Data<<<<<
223.165	-26.19
223.4	-26.19
223.635	-26.19
223.869	-16.19
224.104	-17.19
224.338	-26.19
224.573	-20.19
224.808	2.81
225.042	8.81
225.277	3.81
225.511	0.81
225.746	-8.19
225.98	-9.19
226.215	12.81
226.449	13.81
226.683	22.81
226.918	29.81
227.152	27.81
227.387	30.81
227.621	37.81
227.856	55.81
228.09	46.81
228.324	45.81
228.559	68.81
228.793	72.81
229.027	104.81
229.262	116.81
229.496	148.81
229.73	145.81
229.964	178.81
230.199	134.81
230.433	126.81
230.667	122.81
230.901	130.81
231.136	109.81
231.37	109.81
231.604	130.81
231.838	128.81
232.072	122.81
232.306	130.81
232.541	134.81
232.775	111.81
233.009	106.81
233.243	122.81
233.477	109.81
233.711	100.81
233.945	123.81
234.179	109.81
234.413	114.81
234.647	106.81
234.881	121.81
235.115	126.81
235.349	137.81
235.583	120.81
235.817	136.81
236.051	133.81
236.285	132.81
236.519	136.81
236.753	143.81
236.987	158.81
237.221	188.81
237.455	260.81
237.689	204.81
237.922	160.81
238.156	139.81
238.39	147.81
238.624	128.81
238.858	125.81
239.091	122.81
239.325	131.81
239.559	127.81
239.793	146.81
240.027	153.81
240.26	150.81
240.494	163.81
240.728	168.81
240.961	170.81
241.195	152.81
241.429	140.81
241.662	146.81
241.896	118.81
242.13	141.81
242.363	132.81
242.597	134.81
242.83	142.81
243.064	159.81
243.298	165.81
243.531	129.81
243.765	133.81
243.998	142.81
244.232	150.81
244.465	146.81
244.699	153.81
244.932	140.81
245.166	150.81
245.399	140.81
245.633	158.81
245.866	135.81
246.099	148.81
246.333	153.81
246.566	173.81
246.8	152.81
247.033	156.81
247.266	168.81
247.5	178.81
247.733	183.81
247.966	191.81
248.2	202.81
248.433	189.81
248.666	184.81
248.899	204.81
249.133	225.81
249.366	214.81
249.599	227.81
249.832	199.81
250.066	216.81
250.299	177.81
250.532	192.81
250.765	229.81
250.998	245.81
251.231	250.81
251.465	241.81
251.698	238.81
251.931	231.81
252.164	211.81
252.397	217.81
252.63	215.81
252.863	230.81
253.096	231.81
253.329	241.81
253.562	229.81
253.795	239.81
254.028	239.81
254.261	245.81
254.494	270.81
254.727	275.81
254.96	297.81
255.193	291.81
255.426	268.81
255.659	258.81
255.892	245.81
256.124	248.81
256.357	243.81
256.59	236.81
256.823	241.81
257.056	228.81
257.289	227.81
257.521	212.81
257.754	226.81
257.987	226.81
258.22	238.81
258.452	209.81
258.685	213.81
258.918	212.81
259.151	238.81
259.383	237.81
259.616	260.81
259.849	233.81
260.081	248.81
260.314	268.81
260.547	273.81
260.779	260.81
261.012	282.81
261.244	251.81
261.477	218.81
261.71	224.81
261.942	229.81
262.175	240.81
262.407	248.81
262.64	234.81
262.872	234.81
263.105	213.81
263.337	209.81
263.57	217.81
263.802	222.81
264.035	199.81
264.267	233.81
264.499	229.81
264.732	192.81
264.964	206.81
265.197	220.81
265.429	236.81
265.661	215.81
265.894	228.81
266.126	208.81
266.358	220.81
266.591	233.81
266.823	210.81
267.055	231.81
267.287	227.81
267.52	232.81
267.752	234.81
267.984	226.81
268.216	229.81
268.448	235.81
268.681	244.81
268.913	243.81
269.145	276.81
269.377	288.81
269.609	283.81
269.841	277.81
270.073	282.81
270.306	292.81
270.538	350.81
270.77	330.81
271.002	314.81
271.234	308.81
271.466	309.81
271.698	323.81
271.93	345.81
272.162	323.81
272.394	325.81
272.626	327.81
272.858	310.81
273.09	289.81
273.322	292.81
273.553	276.81
273.785	256.81
274.017	273.81
274.249	262.81
274.481	262.81
274.713	267.81
274.945	265.81
275.176	274.81
275.408	257.81
275.64	244.81
275.872	268.81
276.104	266.81
276.335	270.81
276.567	272.81
276.799	277.81
277.031	301.81
277.262	313.81
277.494	325.81
277.726	304.81
277.957	284.81
278.189	271.81
278.421	264.81
278.652	287.81
278.884	273.81
279.115	268.81
279.347	254.81
279.579	287.81
279.81	260.81
280.042	267.81
280.273	251.81
280.505	253.81
280.736	270.81
280.968	271.81
281.199	244.81
281.431	269.81
281.662	257.81
281.894	264.81
282.125	273.81
282.356	274.81
282.588	292.81
282.819	301.81
283.051	283.81
283.282	254.81
283.513	293.81
283.745	282.81
283.976	270.81
284.207	262.81
284.439	278.81
284.67	263.81
284.901	268.81
285.132	268.81
285.364	258.81
285.595	258.81
285.826	267.81
286.057	265.81
286.288	264.81
286.52	263.81
286.751	260.81
286.982	285.81
287.213	254.81
287.444	278.81
287.675	285.81
287.906	271.81
288.138	285.81
288.369	283.81
288.6	296.81
288.831	284.81
289.062	288.81
289.293	292.81
289.524	294.81
289.755	293.81
289.986	274.81
290.217	292.81
290.448	288.81
290.679	270.81
290.91	265.81
291.141	289.81
291.371	274.81
291.602	281.81
291.833	269.81
292.064	292.81
292.295	269.81
292.526	286.81
292.757	268.81
292.987	282.81
293.218	280.81
293.449	258.81
293.68	270.81
293.91	289.81
294.141	266.81
294.372	245.81
294.603	285.81
294.833	284.81
295.064	295.81
295.295	269.81
295.525	268.81
295.756	282.81
295.987	298.81
296.217	300.81
296.448	321.81
296.679	304.81
296.909	286.81
297.14	310.81
297.37	288.81
297.601	274.81
297.831	278.81
298.062	291.81
298.292	304.81
298.523	278.81
298.753	286.81
298.984	288.81
299.214	283.81
299.445	316.81
299.675	289.81
299.905	296.81
300.136	301.81
300.366	291.81
300.597	304.81
300.827	313.81
301.057	284.81
301.288	298.81
301.518	316.81
301.748	316.81
301.979	310.81
302.209	320.81
302.439	317.81
302.669	305.81
302.9	321.81
303.13	310.81
303.36	318.81
303.59	295.81
303.82	328.81
304.051	345.81
304.281	327.81
304.511	323.81
304.741	305.81
304.971	332.81
305.201	304.81
305.431	310.81
305.661	316.81
305.891	315.81
306.121	323.81
306.352	330.81
306.582	317.81
306.812	303.81
307.042	317.81
307.272	330.81
307.502	309.81
307.731	332.81
307.961	336.81
308.191	314.81
308.421	326.81
308.651	332.81
308.881	319.81
309.111	312.81
309.341	333.81
309.571	366.81
309.8	343.81
310.03	346.81
310.26	374.81
310.49	388.81
310.72	379.81
310.949	391.81
311.179	407.81
311.409	386.81
311.639	388.81
311.868	373.81
312.098	382.81
312.328	387.81
312.557	416.81
312.787	404.81
313.017	401.81
313.246	398.81
313.476	374.81
313.706	370.81
313.935	378.81
314.165	392.81
314.394	394.81
314.624	410.81
314.853	381.81
315.083	357.81
315.312	378.81
315.542	346.81
315.771	347.81
316.001	372.81
316.23	358.81
316.46	378.81
316.689	390.81
316.919	410.81
317.148	359.81
317.377	375.81
317.607	369.81
317.836	381.81
318.065	358.81
318.295	366.81
318.524	373.81
318.753	362.81
318.983	363.81
319.212	370.81
319.441	400.81
319.67	395.81
319.9	360.81
320.129	366.81
320.358	381.81
320.587	385.81
320.816	406.81
321.046	387.81
321.275	390.81
321.504	413.81
321.733	398.81
321.962	402.81
322.191	408.81
322.42	436.81
322.649	430.81
322.878	474.81
323.108	455.81
323.337	514.81
323.566	548.81
323.795	552.81
324.024	631.81
324.253	764.81
324.482	1062.81
324.71	1622.81
324.939	2289.81
325.168	1981.81
325.397	1052.81
325.626	692.81
325.855	600.81
326.084	569.81
326.313	545.81
326.542	520.81
326.77	605.81
326.999	670.81
327.228	932.81
327.457	1420.81
327.686	1736.81
327.914	1177.81
328.143	776.81
328.372	684.81
328.6	642.81
328.829	592.81
329.058	614.81
329.287	628.81
329.515	573.81
329.744	527.81
329.972	542.81
330.201	576.81
330.43	607.81
330.658	662.81
330.887	656.81
331.115	649.81
331.344	548.81
331.572	522.81
331.801	484.81
332.03	510.81
332.258	474.81
332.486	450.81
332.715	444.81
332.943	433.81
333.172	422.81
333.4	448.81
333.629	476.81
333.857	485.81
334.085	493.81
334.314	491.81
334.542	541.81
334.771	559.81
334.999	517.81
335.227	452.81
335.455	445.81
335.684	436.81
335.912	437.81
336.14	427.81
336.369	434.81
336.597	432.81
336.825	436.81
337.053	434.81
337.281	431.81
337.51	441.81
337.738	447.81
337.966	428.81
338.194	439.81
338.422	441.81
338.65	446.81
338.878	425.81
339.106	420.81
339.334	410.81
339.562	416.81
339.79	417.81
340.018	416.81
340.246	433.81
340.474	454.81
340.702	423.81
340.93	424.81
341.158	429.81
341.386	423.81
341.614	442.81
341.842	440.81
342.07	432.81
342.298	412.81
342.526	424.81
342.754	408.81
342.981	395.81
343.209	408.81
343.437	422.81
343.665	403.81
343.893	414.81
344.12	426.81
344.348	421.81
344.576	440.81
344.804	447.81
345.031	434.81
345.259	450.81
345.487	441.81
345.714	437.81
345.942	431.81
346.17	398.81
346.397	394.81
346.625	411.81
346.853	417.81
347.08	415.81
347.308	425.81
347.535	426.81
347.763	419.81
347.99	429.81
348.218	444.81
348.445	445.81
348.673	430.81
348.9	428.81
349.128	417.81
349.355	402.81
349.583	418.81
349.81	410.81
350.037	417.81
350.265	404.81
350.492	406.81
350.72	414.81
350.947	430.81
351.174	429.81
351.402	423.81
351.629	455.81
351.856	428.81
352.083	432.81
352.311	431.81
352.538	455.81
352.765	468.81
352.992	438.81
353.22	421.81
353.447	429.81
353.674	406.81
353.901	409.81
354.128	395.81
354.355	400.81
354.583	383.81
354.81	394.81
355.037	381.81
355.264	390.81
355.491	375.81
355.718	395.81
355.945	390.81
356.172	392.81
356.399	383.81
356.626	384.81
356.853	403.81
357.08	392.81
357.307	381.81
357.534	377.81
357.761	388.81
357.988	401.81
358.215	390.81
358.441	402.81
358.668	395.81
358.895	418.81
359.122	383.81
359.349	411.81
359.576	422.81
359.802	429.81
360.029	489.81
360.256	478.81
360.483	483.81
360.709	434.81
360.936	411.81
361.163	429.81
361.39	426.81
361.616	407.81
361.843	421.81
362.07	430.81
362.296	445.81
362.523	413.81
362.749	416.81
362.976	401.81
363.203	388.81
363.429	417.81
363.656	406.81
363.882	420.81
364.109	408.81
364.335	398.81
364.562	416.81
364.788	426.81
365.015	406.81
365.241	408.81
365.468	430.81
365.694	425.81
365.92	415.81
366.147	403.81
366.373	402.81
366.599	409.81
366.826	408.81
367.052	391.81
367.278	392.81
367.505	401.81
367.731	421.81
367.957	404.81
368.184	418.81
368.41	380.81
368.636	408.81
368.862	430.81
369.089	430.81
369.315	411.81
369.541	415.81
369.767	411.81
369.993	413.81
370.219	419.81
370.445	395.81
370.672	388.81
370.898	425.81
371.124	400.81
371.35	406.81
371.576	396.81
371.802	422.81
372.028	393.81
372.254	388.81
372.48	414.81
372.706	396.81
372.932	400.81
373.158	394.81
373.384	402.81
373.61	407.81
373.835	399.81
374.061	381.81
374.287	386.81
374.513	407.81
374.739	412.81
374.965	406.81
375.191	379.81
375.416	411.81
375.642	431.81
375.868	400.81
376.094	410.81
376.319	398.81
376.545	400.81
376.771	412.81
376.997	397.81
377.222	415.81
377.448	391.81
377.674	398.81
377.899	414.81
378.125	416.81
378.35	403.81
378.576	401.81
378.802	398.81
379.027	423.81
379.253	399.81
379.478	403.81
379.704	402.81
379.929	409.81
380.155	412.81
380.38	386.81
380.606	416.81
380.831	418.81
381.057	401.81
381.282	419.81
381.507	410.81
381.733	418.81
381.958	403.81
382.184	392.81
382.409	386.81
382.634	416.81
382.86	400.81
383.085	396.81
383.31	421.81
383.535	408.81
383.761	408.81
383.986	417.81
384.211	426.81
384.436	414.81
384.662	437.81
384.887	425.81
385.112	428.81
385.337	442.81
385.562	431.81
385.787	425.81
386.013	446.81
386.238	429.81
386.463	434.81
386.688	442.81
386.913	436.81
387.138	432.81
387.363	448.81
387.588	433.81
387.813	425.81
388.038	426.81
388.263	446.81
388.488	440.81
388.713	445.81
388.938	424.81
389.163	426.81
389.387	433.81
389.612	431.81
389.837	443.81
390.062	441.81
390.287	418.81
390.512	429.81
390.736	453.81
390.961	446.81
391.186	461.81
391.411	433.81
391.636	442.81
391.86	457.81
392.085	448.81
392.31	452.81
392.534	456.81
392.759	458.81
392.984	447.81
393.208	440.81
393.433	457.81
393.658	464.81
393.882	441.81
394.107	459.81
394.331	464.81
394.556	439.81
394.78	434.81
395.005	457.81
395.229	446.81
395.454	468.81
395.678	451.81
395.903	467.81
396.127	486.81
396.352	496.81
396.576	465.81
396.801	451.81
397.025	472.81
397.249	474.81
397.474	462.81
397.698	488.81
397.922	470.81
398.147	507.81
398.371	508.81
398.595	485.81
398.82	486.81
399.044	495.81
399.268	515.81
399.492	520.81
399.717	564.81
399.941	570.81
400.165	613.81
400.389	618.81
400.613	564.81
400.837	514.81
401.062	518.81
401.286	530.81
401.51	515.81
401.734	518.81
401.958	480.81
402.182	518.81
402.406	524.81
402.63	497.81
402.854	511.81
403.078	525.81
403.302	523.81
403.526	516.81
403.75	526.81
403.974	535.81
404.198	528.81
404.422	541.81
404.645	541.81
404.869	548.81
405.093	566.81
405.317	599.81
405.541	634.81
405.765	597.81
405.988	566.81
406.212	556.81
406.436	578.81
406.66	598.81
406.883	584.81
407.107	575.81
407.331	648.81
407.555	700.81
407.778	694.81
408.002	640.81
408.226	594.81
408.449	618.81
408.673	597.81
408.896	618.81
409.12	672.81
409.344	619.81
409.567	553.81
409.791	544.81
410.014	528.81
410.238	520.81
410.461	539.81
410.685	541.81
410.908	541.81
411.132	611.81
411.355	644.81
411.578	604.81
411.802	543.81
412.025	530.81
412.249	564.81
412.472	582.81
412.695	598.81
412.919	573.81
413.142	556.81
413.365	514.81
413.589	548.81
413.812	508.81
414.035	525.81
414.258	491.81
414.482	508.81
414.705	502.81
414.928	516.81
415.151	471.81
415.374	506.81
415.597	491.81
415.821	472.81
416.044	504.81
416.267	514.81
416.49	510.81
416.713	507.81
416.936	501.81
417.159	477.81
417.382	497.81
417.605	518.81
417.828	523.81
418.051	533.81
418.274	528.81
418.497	508.81
418.72	508.81
418.943	519.81
419.166	526.81
419.389	555.81
419.611	549.81
419.834	527.81
420.057	544.81
420.28	538.81
420.503	557.81
420.726	538.81
420.948	562.81
421.171	596.81
421.394	613.81
421.617	564.81
421.839	551.81
422.062	558.81
422.285	538.81
422.507	624.81
422.73	682.81
422.953	644.81
423.175	598.81
423.398	561.81
423.621	573.81
423.843	589.81
424.066	579.81
424.288	596.81
424.511	597.81
424.733	679.81
424.956	753.81
425.178	718.81
425.401	719.81
425.623	722.81
425.846	636.81
426.068	572.81
426.291	583.81
426.513	589.81
426.735	628.81
426.958	645.81
427.18	716.81
427.402	860.81
427.625	933.81
427.847	845.81
428.069	746.81
428.292	651.81
428.514	617.81
428.736	584.81
428.958	577.81
429.181	589.81
429.403	576.81
429.625	567.81
429.847	593.81
430.069	688.81
430.292	662.81
430.514	585.81
430.736	560.81
430.958	547.81
431.18	526.81
431.402	537.81
431.624	529.81
431.846	489.81
432.068	510.81
432.29	524.81
432.512	517.81
432.734	524.81
432.956	520.81
433.178	523.81
433.4	545.81
433.622	531.81
433.844	530.81
434.066	516.81
434.287	522.81
434.509	521.81
434.731	534.81
434.953	538.81
435.175	559.81
435.397	598.81
435.618	599.81
435.84	632.81
436.062	736.81
436.284	808.81
436.505	675.81
436.727	615.81
436.949	593.81
437.17	551.81
437.392	558.81
437.614	564.81
437.835	596.81
438.057	732.81
438.278	832.81
438.5	808.81
438.721	870.81
438.943	828.81
439.165	693.81
439.386	632.81
439.608	626.81
439.829	621.81
440.05	650.81
440.272	684.81
440.493	670.81
440.715	601.81
440.936	581.81
441.158	572.81
441.379	553.81
441.6	577.81
441.822	608.81
442.043	651.81
442.264	718.81
442.486	778.81
442.707	685.81
442.928	624.81
443.149	634.81
443.371	652.81
443.592	679.81
443.813	799.81
444.034	811.81
444.255	688.81
444.476	652.81
444.698	605.81
444.919	588.81
445.14	728.81
445.361	669.81
445.582	636.81
445.803	713.81
446.024	817.81
446.245	822.81
446.466	752.81
446.687	642.81
446.908	600.81
447.129	580.81
447.35	578.81
447.571	572.81
447.792	553.81
448.013	575.81
448.234	590.81
448.455	649.81
448.675	764.81
448.896	866.81
449.117	732.81
449.338	698.81
449.559	790.81
449.779	876.81
450	719.81
450.221	635.81
450.442	577.81
450.662	574.81
450.883	579.81
451.104	594.81
451.324	571.81
451.545	527.81
451.766	506.81
451.986	523.81
452.207	516.81
452.428	493.81
452.648	506.81
452.869	512.81
453.089	519.81
453.31	532.81
453.53	528.81
453.751	499.81
453.971	505.81
454.192	521.81
454.412	538.81
454.633	486.81
454.853	498.81
455.073	501.81
455.294	518.81
455.514	618.81
455.734	575.81
455.955	503.81
456.175	474.81
456.395	484.81
456.616	469.81
456.836	481.81
457.056	461.81
457.276	440.81
457.497	480.81
457.717	454.81
457.937	468.81
458.157	501.81
458.377	467.81
458.598	505.81
458.818	597.81
459.038	667.81
459.258	666.81
459.478	598.81
459.698	540.81
459.918	508.81
460.138	513.81
460.358	505.81
460.578	522.81
460.798	525.81
461.018	516.81
461.238	516.81
461.458	488.81
461.678	514.81
461.898	528.81
462.118	517.81
462.338	518.81
462.558	517.81
462.777	518.81
462.997	529.81
463.217	537.81
463.437	545.81
463.657	530.81
463.876	544.81
464.096	540.81
464.316	537.81
464.536	567.81
464.755	560.81
464.975	569.81
465.195	615.81
465.414	702.81
465.634	607.81
465.854	576.81
466.073	547.81
466.293	512.81
466.512	516.81
466.732	518.81
466.951	519.81
467.171	502.81
467.391	530.81
467.61	524.81
467.829	537.81
468.049	522.81
468.268	524.81
468.488	515.81
468.707	512.81
468.927	497.81
469.146	491.81
469.365	492.81
469.585	514.81
469.804	503.81
470.023	532.81
470.243	524.81
470.462	512.81
470.681	538.81
470.901	512.81
471.12	520.81
471.339	524.81
471.558	514.81
471.777	510.81
471.997	498.81
472.216	520.81
472.435	562.81
472.654	543.81
472.873	548.81
473.092	507.81
473.311	521.81
473.53	515.81
473.749	533.81
473.968	574.81
474.187	676.81
474.406	678.81
474.625	598.81
474.844	531.81
475.063	545.81
475.282	523.81
475.501	518.81
475.72	531.81
475.939	542.81
476.158	525.81
476.377	545.81
476.596	540.81
476.814	557.81
477.033	553.81
477.252	564.81
477.471	550.81
477.69	564.81
477.908	560.81
478.127	548.81
478.346	579.81
478.564	553.81
478.783	568.81
479.002	576.81
479.22	586.81
479.439	604.81
479.658	604.81
479.876	636.81
480.095	633.81
480.313	670.81
480.532	653.81
480.751	642.81
480.969	633.81
481.188	753.81
481.406	756.81
481.624	670.81
481.843	632.81
482.061	616.81
482.28	628.81
482.498	631.81
482.717	633.81
482.935	629.81
483.153	612.81
483.372	644.81
483.59	632.81
483.808	597.81
484.027	644.81
484.245	613.81
484.463	610.81
484.681	636.81
484.9	644.81
485.118	649.81
485.336	640.81
485.554	622.81
485.772	634.81
485.99	640.81
486.209	658.81
486.427	650.81
486.645	657.81
486.863	665.81
487.081	662.81
487.299	663.81
487.517	684.81
487.735	660.81
487.953	672.81
488.171	666.81
488.389	684.81
488.607	696.81
488.825	671.81
489.043	680.81
489.261	682.81
489.479	689.81
489.696	698.81
489.914	697.81
490.132	681.81
490.35	682.81
490.568	733.81
490.786	721.81
491.003	733.81
491.221	761.81
491.439	776.81
491.657	767.81
491.874	786.81
492.092	757.81
492.31	782.81
492.527	797.81
492.745	802.81
492.963	798.81
493.18	825.81
493.398	805.81
493.615	824.81
493.833	801.81
494.05	817.81
494.268	804.81
494.485	825.81
494.703	800.81
494.92	804.81
495.138	820.81
495.355	810.81
495.573	812.81
495.79	812.81
496.008	816.81
496.225	821.81
496.442	816.81
496.66	820.81
496.877	804.81
497.094	809.81
497.312	815.81
497.529	844.81
497.746	847.81
497.963	827.81
498.181	836.81
498.398	856.81
498.615	851.81
498.832	898.81
499.049	892.81
499.267	885.81
499.484	886.81
499.701	944.81
499.918	925.81
500.135	974.81
500.352	1005.81
500.569	1009.81
500.786	1000.81
501.003	997.81
501.22	1016.81
501.437	972.81
501.654	954.81
501.871	981.81
502.088	954.81
502.305	904.81
502.522	882.81
502.739	871.81
502.956	882.81
503.172	834.81
503.389	832.81
503.606	814.81
503.823	843.81
504.04	813.81
504.256	825.81
504.473	816.81
504.69	818.81
504.907	807.81
505.123	824.81
505.34	766.81
505.557	757.81
505.773	785.81
505.99	776.81
506.207	788.81
506.423	810.81
506.64	756.81
506.856	792.81
507.073	768.81
507.289	764.81
507.506	755.81
507.722	768.81
507.939	799.81
508.155	784.81
508.372	744.81
508.588	747.81
508.805	723.81
509.021	743.81
509.238	758.81
509.454	744.81
509.67	744.81
509.887	757.81
510.103	741.81
510.319	769.81
510.536	872.81
510.752	1443.81
510.968	1192.81
511.184	789.81
511.401	745.81
511.617	728.81
511.833	721.81
512.049	689.81
512.265	702.81
512.481	743.81
512.698	692.81
512.914	711.81
513.13	709.81
513.346	712.81
513.562	694.81
513.778	727.81
513.994	698.81
514.21	746.81
514.426	780.81
514.642	812.81
514.858	847.81
515.074	913.81
515.29	1073.81
515.506	1588.81
515.721	1356.81
515.937	872.81
516.153	814.81
516.369	768.81
516.585	759.81
516.801	741.81
517.016	726.81
517.232	721.81
517.448	713.81
517.664	745.81
517.879	701.81
518.095	709.81
518.311	705.81
518.527	699.81
518.742	703.81
518.958	722.81
519.173	689.81
519.389	697.81
519.605	685.81
519.82	694.81
520.036	748.81
520.251	740.81
520.467	774.81
520.682	773.81
520.898	796.81
521.113	870.81
521.329	918.81
521.544	1008.81
521.76	1295.81
521.975	2138.81
522.19	2120.81
522.406	1133.81
522.621	859.81
522.836	760.81
523.052	738.81
523.267	698.81
523.482	662.81
523.698	670.81
523.913	658.81
524.128	639.81
524.343	632.81
524.559	656.81
524.774	618.81
524.989	621.81
525.204	619.81
525.419	627.81
525.634	621.81
525.849	622.81
526.064	587.81
526.28	585.81
526.495	602.81
526.71	609.81
526.925	590.81
527.14	572.81
527.355	580.81
527.57	577.81
527.785	584.81
527.999	560.81
528.214	562.81
528.429	568.81
528.644	548.81
528.859	589.81
529.074	578.81
529.289	618.81
529.503	711.81
529.718	693.81
529.933	638.81
530.148	578.81
530.363	572.81
530.577	574.81
530.792	552.81
531.007	528.81
531.221	557.81
531.436	550.81
531.651	561.81
531.865	538.81
532.08	543.81
532.295	520.81
532.509	526.81
532.724	530.81
532.938	520.81
533.153	521.81
533.367	553.81
533.582	517.81
533.796	542.81
534.011	537.81
534.225	518.81
534.44	521.81
534.654	518.81
534.868	530.81
535.083	525.81
535.297	528.81
535.511	531.81
535.726	536.81
535.94	548.81
536.154	533.81
536.369	517.81
536.583	519.81
536.797	523.81
537.011	510.81
537.225	496.81
537.44	505.81
537.654	514.81
537.868	494.81
538.082	524.81
538.296	508.81
538.51	512.81
538.724	527.81
538.938	524.81
539.153	515.81
539.367	553.81
539.581	538.81
539.795	487.81
540.009	514.81
540.222	497.81
540.436	545.81
540.65	528.81
540.864	537.81
541.078	519.81
541.292	514.81
541.506	526.81
541.72	514.81
541.934	509.81
542.147	529.81
542.361	520.81
542.575	536.81
542.789	489.81
543.002	518.81
543.216	524.81
543.43	533.81
543.644	528.81
543.857	520.81
544.071	528.81
544.285	508.81
544.498	524.81
544.712	498.81
544.925	491.81
545.139	508.81
545.352	488.81
545.566	503.81
545.779	487.81
545.993	506.81
546.206	483.81
546.42	506.81
546.633	501.81
546.847	480.81
547.06	516.81
547.274	498.81
547.487	467.81
547.7	486.81
547.914	484.81
548.127	462.81
548.34	482.81
548.554	464.81
548.767	490.81
548.98	500.81
549.193	504.81
549.407	466.81
549.62	486.81
549.833	488.81
550.046	479.81
550.259	507.81
550.473	480.81
550.686	474.81
550.899	485.81
551.112	465.81
551.325	467.81
551.538	454.81
551.751	462.81
551.964	452.81
552.177	464.81
552.39	482.81
552.603	470.81
552.816	481.81
553.029	469.81
553.242	496.81
553.455	475.81
553.667	500.81
553.88	524.81
554.093	487.81
554.306	489.81
554.519	488.81
554.732	486.81
554.944	459.81
555.157	482.81
555.37	466.81
555.583	463.81
555.795	468.81
556.008	457.81
556.221	468.81
556.433	452.81
556.646	457.81
556.859	422.81
557.071	441.81
557.284	440.81
557.496	446.81
557.709	438.81
557.921	442.81
558.134	451.81
558.346	454.81
558.559	440.81
558.771	429.81
558.984	426.81
559.196	440.81
559.409	419.81
559.621	447.81
559.833	416.81
560.046	416.81
560.258	411.81
560.47	425.81
560.683	438.81
560.895	426.81
561.107	433.81
561.32	445.81
561.532	413.81
561.744	446.81
561.956	422.81
562.168	430.81
562.381	419.81
562.593	426.81
562.805	447.81
563.017	448.81
563.229	429.81
563.441	420.81
563.653	399.81
563.865	453.81
564.077	424.81
564.289	454.81
564.501	435.81
564.713	427.81
564.925	441.81
565.137	461.81
565.349	461.81
565.561	459.81
565.773	453.81
565.985	461.81
566.197	451.81
566.408	443.81
566.62	487.81
566.832	470.81
567.044	496.81
567.255	497.81
567.467	487.81
567.679	501.81
567.891	492.81
568.102	493.81
568.314	476.81
568.526	474.81
568.737	475.81
568.949	442.81
569.161	442.81
569.372	431.81
569.584	425.81
569.795	433.81
570.007	453.81
570.218	495.81
570.43	484.81
570.641	432.81
570.853	418.81
571.064	411.81
571.276	406.81
571.487	393.81
571.698	385.81
571.91	398.81
572.121	395.81
572.333	409.81
572.544	370.81
572.755	392.81
572.966	385.81
573.178	379.81
573.389	381.81
573.6	392.81
573.811	379.81
574.023	370.81
574.234	369.81
574.445	376.81
574.656	378.81
574.867	365.81
575.078	364.81
575.289	380.81
575.501	370.81
575.712	353.81
575.923	376.81
576.134	380.81
576.345	353.81
576.556	350.81
576.767	350.81
576.978	361.81
577.188	363.81
577.399	351.81
577.61	393.81
577.821	352.81
578.032	361.81
578.243	409.81
578.454	680.81
578.665	516.81
578.875	368.81
579.086	355.81
579.297	342.81
579.508	351.81
579.718	349.81
579.929	346.81
580.14	357.81
580.35	331.81
580.561	351.81
580.772	338.81
580.982	317.81
581.193	338.81
581.403	336.81
581.614	346.81
581.825	350.81
582.035	327.81
582.246	314.81
582.456	326.81
582.667	320.81
582.877	348.81
583.087	310.81
583.298	331.81
583.508	316.81
583.719	315.81
583.929	324.81
584.139	313.81
584.35	332.81
584.56	322.81
584.77	345.81
584.981	325.81
585.191	303.81
585.401	337.81
585.611	328.81
585.821	325.81
586.032	338.81
586.242	320.81
586.452	344.81
586.662	336.81
586.872	321.81
587.082	318.81
587.292	306.81
587.502	310.81
587.713	312.81
587.923	309.81
588.133	335.81
588.343	322.81
588.553	325.81
588.762	317.81
588.972	310.81
589.182	310.81
589.392	325.81
589.602	311.81
589.812	318.81
590.022	328.81
590.232	306.81
590.441	296.81
590.651	312.81
590.861	312.81
591.071	327.81
591.281	296.81
591.49	313.81
591.7	272.81
591.91	320.81
592.119	329.81
592.329	325.81
592.539	330.81
592.748	333.81
592.958	330.81
593.167	329.81
593.377	317.81
593.587	305.81
593.796	315.81
594.006	338.81
594.215	312.81
594.424	317.81
594.634	305.81
594.843	314.81
595.053	331.81
595.262	312.81
595.472	319.81
595.681	314.81
595.89	298.81
596.1	298.81
596.309	310.81
596.518	308.81
596.727	300.81
596.937	292.81
597.146	305.81
597.355	285.81
597.564	294.81
597.774	297.81
597.983	284.81
598.192	282.81
598.401	296.81
598.61	286.81
598.819	300.81
599.028	266.81
599.237	286.81
599.446	287.81
599.655	293.81
599.864	286.81
600.073	276.81
600.282	294.81
600.491	290.81
600.7	297.81
600.909	282.81
601.118	279.81
601.327	285.81
601.536	270.81
601.745	278.81
601.953	274.81
602.162	284.81
602.371	283.81
602.58	261.81
602.789	277.81
602.997	281.81
603.206	266.81
603.415	274.81
603.623	261.81
603.832	287.81
604.041	265.81
604.249	285.81
604.458	263.81
604.666	274.81
604.875	290.81
605.084	276.81
605.292	266.81
605.501	278.81
605.709	276.81
605.918	260.81
606.126	266.81
606.334	281.81
606.543	273.81
606.751	265.81
606.96	264.81
607.168	234.81
607.376	274.81
607.585	275.81
607.793	261.81
608.001	263.81
608.21	254.81
608.418	269.81
608.626	252.81
608.834	270.81
609.043	259.81
609.251	275.81
609.459	264.81
609.667	273.81
609.875	268.81
610.083	251.81
610.291	256.81
610.499	281.81
610.707	261.81
610.916	260.81
611.124	273.81
611.332	276.81
611.54	271.81
611.748	278.81
611.955	269.81
612.163	268.81
612.371	261.81
612.579	247.81
612.787	245.81
612.995	263.81
613.203	267.81
613.411	267.81
613.618	263.81
613.826	257.81
614.034	252.81
614.242	254.81
614.449	267.81
614.657	246.81
614.865	262.81
615.072	264.81
615.28	261.81
615.488	261.81
615.695	256.81
615.903	268.81
616.111	252.81
616.318	253.81
616.526	238.81
616.733	239.81
616.941	258.81
617.148	264.81
617.356	264.81
617.563	263.81
617.771	269.81
617.978	261.81
618.185	259.81
618.393	257.81
618.6	256.81
618.807	246.81
619.015	256.81
619.222	249.81
619.429	248.81
619.637	266.81
619.844	244.81
620.051	256.81
620.258	233.81
620.466	233.81
620.673	244.81
620.88	233.81
621.087	237.81
621.294	247.81
621.501	264.81
621.708	248.81
621.915	249.81
622.122	234.81
622.329	232.81
622.536	251.81
622.743	231.81
622.95	244.81
623.157	209.81
623.364	241.81
623.571	226.81
623.778	244.81
623.985	237.81
624.192	236.81
624.399	243.81
624.606	238.81
624.812	220.81
625.019	223.81
625.226	229.81
625.433	237.81
625.639	233.81
625.846	213.81
626.053	207.81
626.259	223.81
626.466	233.81
626.673	225.81
626.879	224.81
627.086	233.81
627.293	219.81
627.499	214.81
627.706	240.81
627.912	228.81
628.119	221.81
628.325	205.81
628.532	232.81
628.738	219.81
628.945	217.81
629.151	194.81
629.357	213.81
629.564	211.81
629.77	220.81
629.976	205.81
630.183	216.81
630.389	205.81
630.595	205.81
630.802	208.81
631.008	205.81
631.214	221.81
631.42	206.81
631.627	211.81
631.833	193.81
632.039	216.81
632.245	202.81
632.451	192.81
632.657	205.81
632.863	216.81
633.069	176.81
633.275	197.81
633.481	207.81
633.688	192.81
633.893	209.81
634.099	206.81
634.305	205.81
634.511	190.81
634.717	195.81
634.923	198.81
635.129	196.81
635.335	188.81
635.541	189.81
635.747	204.81
635.952	184.81
636.158	193.81
636.364	207.81
636.57	206.81
636.775	206.81
636.981	202.81
637.187	200.81
637.392	188.81
637.598	204.81
637.804	193.81
638.009	210.81
638.215	202.81
638.421	195.81
638.626	203.81
638.832	196.81
639.037	184.81
639.243	190.81
639.448	191.81
639.654	188.81
639.859	185.81
640.065	184.81
640.27	199.81
640.475	186.81
640.681	173.81
640.886	186.81
641.091	181.81
641.297	201.81
641.502	183.81
641.707	185.81
641.913	184.81
642.118	188.81
642.323	189.81
642.528	170.81
642.733	180.81
642.939	160.81
643.144	176.81
643.349	192.81
643.554	177.81
643.759	180.81
643.964	160.81
644.169	174.81
644.374	189.81
644.579	185.81
644.784	172.81
644.989	180.81
645.194	187.81
645.399	175.81
645.604	186.81
645.809	191.81
646.014	190.81
646.219	172.81
646.423	169.81
646.628	200.81
646.833	191.81
647.038	177.81
647.243	189.81
647.447	173.81
647.652	192.81
647.857	193.81
648.062	174.81
648.266	182.81
648.471	170.81
648.676	178.81
648.88	171.81
649.085	172.81
649.289	178.81
649.494	170.81
649.698	182.81
649.903	182.81
650.107	188.81
650.312	189.81
650.516	163.81
650.721	167.81
650.925	172.81
651.13	161.81
651.334	172.81
651.539	161.81
651.743	158.81
651.947	154.81
652.152	154.81
652.356	151.81
652.56	161.81
652.764	140.81
652.969	155.81
653.173	134.81
653.377	136.81
653.581	150.81
653.785	152.81
653.99	135.81
654.194	146.81
654.398	146.81
654.602	136.81
654.806	134.81
655.01	149.81
655.214	155.81
655.418	141.81
655.622	136.81
655.826	144.81
656.03	141.81
656.234	141.81
656.438	125.81
656.642	121.81
656.846	120.81
657.049	122.81
657.253	128.81
657.457	111.81
657.661	113.81
657.865	119.81
658.068	137.81
658.272	114.81
658.476	106.81
658.68	110.81
658.883	112.81
659.087	116.81
659.291	99.81
659.494	109.81
659.698	84.81
659.901	106.81
660.105	93.81
660.309	94.81
660.512	100.81
660.716	88.81
660.919	97.81
661.123	88.81
661.326	95.81
661.53	84.81
661.733	90.81
661.936	89.81
662.14	94.81
662.343	100.81
662.546	87.81
662.75	87.81
662.953	77.81
663.156	97.81
663.36	87.81
663.563	95.81
663.766	86.81
663.969	82.81
664.173	94.81
664.376	84.81
664.579	82.81
664.782	82.81
664.985	85.81
665.188	84.81
665.391	92.81
665.594	87.81
665.797	93.81
666	77.81
666.203	92.81
666.406	79.81
666.609	92.81
666.812	96.81
667.015	96.81
667.218	88.81
667.421	85.81
667.624	81.81
667.827	77.81
668.03	82.81
668.232	83.81
668.435	70.81
668.638	87.81
668.841	83.81
669.043	76.81
669.246	85.81
669.449	100.81
669.651	76.81
669.854	88.81
670.057	85.81
670.259	78.81
670.462	72.81
670.665	81.81
670.867	93.81
671.07	76.81
671.272	79.81
671.475	92.81
671.677	71.81
671.88	83.81
672.082	74.81
672.284	80.81
672.487	77.81
672.689	88.81
672.892	76.81
