Data from 1970.PennyLincolnUp.Lamp.En5.5.200Scan.071719.P1._HRD10591_15-13-08-844.txt Node
Date: Thu Jul 18 15:13:08 EDT 2019
User: cochatt
Spectrometer: HR+D1059
Trigger mode: 1
Integration Time (sec): 1.000000E-1
Scans to average: 1
Electric dark correction enabled: true
Nonlinearity correction enabled: false
Boxcar width: 0
XAxis mode: Wavelengths
Number of Pixels in Spectrum: 2048
>>>>>Begin Spectral Data<<<<<
223.165	-27.94
223.4	-27.94
223.635	-27.94
223.869	-20.94
224.104	-17.94
224.338	-15.94
224.573	-22.94
224.808	-11.94
225.042	-16.94
225.277	2.06
225.511	8.06
225.746	6.06
225.98	6.06
226.215	29.06
226.449	29.06
226.683	3.06
226.918	27.06
227.152	24.06
227.387	47.06
227.621	31.06
227.856	43.06
228.09	28.06
228.324	48.06
228.559	56.06
228.793	72.06
229.027	80.06
229.262	102.06
229.496	115.06
229.73	115.06
229.964	130.06
230.199	124.06
230.433	102.06
230.667	108.06
230.901	114.06
231.136	117.06
231.37	98.06
231.604	101.06
231.838	119.06
232.072	107.06
232.306	96.06
232.541	103.06
232.775	107.06
233.009	106.06
233.243	102.06
233.477	92.06
233.711	115.06
233.945	110.06
234.179	106.06
234.413	113.06
234.647	110.06
234.881	112.06
235.115	98.06
235.349	112.06
235.583	117.06
235.817	104.06
236.051	109.06
236.285	123.06
236.519	112.06
236.753	127.06
236.987	140.06
237.221	162.06
237.455	194.06
237.689	161.06
237.922	136.06
238.156	136.06
238.39	129.06
238.624	111.06
238.858	125.06
239.091	106.06
239.325	116.06
239.559	107.06
239.793	124.06
240.027	116.06
240.26	132.06
240.494	156.06
240.728	136.06
240.961	133.06
241.195	140.06
241.429	127.06
241.662	118.06
241.896	125.06
242.13	124.06
242.363	131.06
242.597	121.06
242.83	124.06
243.064	119.06
243.298	112.06
243.531	118.06
243.765	123.06
243.998	137.06
244.232	144.06
244.465	158.06
244.699	124.06
244.932	138.06
245.166	153.06
245.399	128.06
245.633	138.06
245.866	144.06
246.099	113.06
246.333	134.06
246.566	140.06
246.8	142.06
247.033	155.06
247.266	147.06
247.5	154.06
247.733	158.06
247.966	171.06
248.2	167.06
248.433	153.06
248.666	154.06
248.899	143.06
249.133	167.06
249.366	193.06
249.599	187.06
249.832	155.06
250.066	170.06
250.299	171.06
250.532	166.06
250.765	182.06
250.998	208.06
251.231	212.06
251.465	197.06
251.698	190.06
251.931	188.06
252.164	202.06
252.397	198.06
252.63	202.06
252.863	195.06
253.096	201.06
253.329	208.06
253.562	205.06
253.795	194.06
254.028	199.06
254.261	200.06
254.494	192.06
254.727	230.06
254.96	254.06
255.193	233.06
255.426	214.06
255.659	234.06
255.892	208.06
256.124	201.06
256.357	206.06
256.59	206.06
256.823	207.06
257.056	194.06
257.289	189.06
257.521	200.06
257.754	198.06
257.987	184.06
258.22	188.06
258.452	195.06
258.685	174.06
258.918	191.06
259.151	184.06
259.383	199.06
259.616	193.06
259.849	195.06
260.081	203.06
260.314	236.06
260.547	206.06
260.779	197.06
261.012	203.06
261.244	184.06
261.477	206.06
261.71	188.06
261.942	203.06
262.175	204.06
262.407	195.06
262.64	181.06
262.872	167.06
263.105	198.06
263.337	171.06
263.57	200.06
263.802	175.06
264.035	184.06
264.267	187.06
264.499	186.06
264.732	192.06
264.964	201.06
265.197	186.06
265.429	182.06
265.661	182.06
265.894	175.06
266.126	184.06
266.358	182.06
266.591	187.06
266.823	188.06
267.055	196.06
267.287	204.06
267.52	186.06
267.752	201.06
267.984	200.06
268.216	188.06
268.448	195.06
268.681	181.06
268.913	202.06
269.145	222.06
269.377	230.06
269.609	210.06
269.841	226.06
270.073	199.06
270.306	230.06
270.538	240.06
270.77	265.06
271.002	229.06
271.234	245.06
271.466	244.06
271.698	259.06
271.93	253.06
272.162	239.06
272.394	274.06
272.626	256.06
272.858	232.06
273.09	228.06
273.322	227.06
273.553	216.06
273.785	201.06
274.017	202.06
274.249	215.06
274.481	226.06
274.713	211.06
274.945	218.06
275.176	207.06
275.408	209.06
275.64	223.06
275.872	215.06
276.104	209.06
276.335	219.06
276.567	204.06
276.799	218.06
277.031	230.06
277.262	272.06
277.494	257.06
277.726	243.06
277.957	229.06
278.189	226.06
278.421	203.06
278.652	231.06
278.884	206.06
279.115	208.06
279.347	225.06
279.579	214.06
279.81	213.06
280.042	211.06
280.273	240.06
280.505	203.06
280.736	210.06
280.968	216.06
281.199	215.06
281.431	202.06
281.662	207.06
281.894	212.06
282.125	210.06
282.356	242.06
282.588	229.06
282.819	237.06
283.051	228.06
283.282	194.06
283.513	221.06
283.745	228.06
283.976	225.06
284.207	211.06
284.439	200.06
284.67	220.06
284.901	229.06
285.132	227.06
285.364	214.06
285.595	240.06
285.826	225.06
286.057	195.06
286.288	231.06
286.52	209.06
286.751	207.06
286.982	233.06
287.213	226.06
287.444	233.06
287.675	222.06
287.906	225.06
288.138	227.06
288.369	233.06
288.6	236.06
288.831	243.06
289.062	242.06
289.293	233.06
289.524	220.06
289.755	215.06
289.986	251.06
290.217	224.06
290.448	224.06
290.679	231.06
290.91	228.06
291.141	225.06
291.371	225.06
291.602	222.06
291.833	220.06
292.064	229.06
292.295	225.06
292.526	214.06
292.757	233.06
292.987	210.06
293.218	230.06
293.449	231.06
293.68	242.06
293.91	240.06
294.141	224.06
294.372	223.06
294.603	215.06
294.833	231.06
295.064	213.06
295.295	228.06
295.525	225.06
295.756	239.06
295.987	224.06
296.217	250.06
296.448	244.06
296.679	241.06
296.909	236.06
297.14	236.06
297.37	239.06
297.601	250.06
297.831	247.06
298.062	235.06
298.292	239.06
298.523	220.06
298.753	250.06
298.984	243.06
299.214	247.06
299.445	239.06
299.675	240.06
299.905	245.06
300.136	246.06
300.366	239.06
300.597	251.06
300.827	246.06
301.057	257.06
301.288	253.06
301.518	239.06
301.748	236.06
301.979	245.06
302.209	260.06
302.439	248.06
302.669	251.06
302.9	240.06
303.13	246.06
303.36	238.06
303.59	272.06
303.82	262.06
304.051	264.06
304.281	244.06
304.511	259.06
304.741	242.06
304.971	230.06
305.201	249.06
305.431	251.06
305.661	264.06
305.891	249.06
306.121	250.06
306.352	251.06
306.582	259.06
306.812	266.06
307.042	258.06
307.272	252.06
307.502	244.06
307.731	262.06
307.961	265.06
308.191	268.06
308.421	245.06
308.651	256.06
308.881	260.06
309.111	270.06
309.341	270.06
309.571	265.06
309.8	268.06
310.03	280.06
310.26	277.06
310.49	291.06
310.72	283.06
310.949	291.06
311.179	289.06
311.409	279.06
311.639	284.06
311.868	283.06
312.098	286.06
312.328	308.06
312.557	306.06
312.787	323.06
313.017	318.06
313.246	295.06
313.476	280.06
313.706	285.06
313.935	309.06
314.165	309.06
314.394	306.06
314.624	310.06
314.853	291.06
315.083	293.06
315.312	284.06
315.542	270.06
315.771	290.06
316.001	291.06
316.23	276.06
316.46	286.06
316.689	276.06
316.919	296.06
317.148	273.06
317.377	299.06
317.607	279.06
317.836	287.06
318.065	302.06
318.295	289.06
318.524	279.06
318.753	278.06
318.983	287.06
319.212	279.06
319.441	306.06
319.67	302.06
319.9	310.06
320.129	297.06
320.358	287.06
320.587	299.06
320.816	301.06
321.046	312.06
321.275	312.06
321.504	322.06
321.733	302.06
321.962	297.06
322.191	319.06
322.42	330.06
322.649	343.06
322.878	353.06
323.108	352.06
323.337	373.06
323.566	392.06
323.795	418.06
324.024	422.06
324.253	507.06
324.482	698.06
324.71	1065.06
324.939	1529.06
325.168	1302.06
325.397	715.06
325.626	471.06
325.855	410.06
326.084	376.06
326.313	382.06
326.542	378.06
326.77	411.06
326.999	470.06
327.228	626.06
327.457	935.06
327.686	1127.06
327.914	794.06
328.143	511.06
328.372	454.06
328.6	440.06
328.829	435.06
329.058	416.06
329.287	444.06
329.515	424.06
329.744	390.06
329.972	386.06
330.201	380.06
330.43	425.06
330.658	429.06
330.887	446.06
331.115	444.06
331.344	403.06
331.572	377.06
331.801	361.06
332.03	356.06
332.258	367.06
332.486	335.06
332.715	334.06
332.943	338.06
333.172	350.06
333.4	348.06
333.629	357.06
333.857	353.06
334.085	371.06
334.314	374.06
334.542	386.06
334.771	398.06
334.999	381.06
335.227	375.06
335.455	347.06
335.684	352.06
335.912	369.06
336.14	330.06
336.369	322.06
336.597	351.06
336.825	365.06
337.053	344.06
337.281	341.06
337.51	329.06
337.738	333.06
337.966	325.06
338.194	341.06
338.422	341.06
338.65	334.06
338.878	332.06
339.106	333.06
339.334	341.06
339.562	332.06
339.79	328.06
340.018	342.06
340.246	342.06
340.474	331.06
340.702	330.06
340.93	341.06
341.158	337.06
341.386	346.06
341.614	346.06
341.842	323.06
342.07	338.06
342.298	332.06
342.526	330.06
342.754	323.06
342.981	328.06
343.209	339.06
343.437	337.06
343.665	336.06
343.893	343.06
344.12	330.06
344.348	337.06
344.576	345.06
344.804	348.06
345.031	346.06
345.259	354.06
345.487	371.06
345.714	332.06
345.942	348.06
346.17	344.06
346.397	337.06
346.625	327.06
346.853	329.06
347.08	343.06
347.308	339.06
347.535	334.06
347.763	348.06
347.99	334.06
348.218	345.06
348.445	368.06
348.673	346.06
348.9	358.06
349.128	318.06
349.355	303.06
349.583	327.06
349.81	334.06
350.037	322.06
350.265	317.06
350.492	326.06
350.72	318.06
350.947	317.06
351.174	337.06
351.402	326.06
351.629	320.06
351.856	341.06
352.083	351.06
352.311	348.06
352.538	343.06
352.765	342.06
352.992	325.06
353.22	317.06
353.447	349.06
353.674	330.06
353.901	313.06
354.128	338.06
354.355	331.06
354.583	318.06
354.81	319.06
355.037	321.06
355.264	328.06
355.491	325.06
355.718	320.06
355.945	321.06
356.172	307.06
356.399	314.06
356.626	336.06
356.853	316.06
357.08	319.06
357.307	325.06
357.534	331.06
357.761	318.06
357.988	306.06
358.215	318.06
358.441	316.06
358.668	348.06
358.895	306.06
359.122	304.06
359.349	336.06
359.576	344.06
359.802	344.06
360.029	373.06
360.256	374.06
360.483	367.06
360.709	354.06
360.936	335.06
361.163	352.06
361.39	331.06
361.616	343.06
361.843	342.06
362.07	352.06
362.296	340.06
362.523	360.06
362.749	339.06
362.976	340.06
363.203	335.06
363.429	340.06
363.656	358.06
363.882	337.06
364.109	319.06
364.335	321.06
364.562	318.06
364.788	339.06
365.015	327.06
365.241	326.06
365.468	333.06
365.694	340.06
365.92	341.06
366.147	325.06
366.373	334.06
366.599	325.06
366.826	335.06
367.052	329.06
367.278	335.06
367.505	328.06
367.731	325.06
367.957	333.06
368.184	344.06
368.41	338.06
368.636	343.06
368.862	343.06
369.089	341.06
369.315	358.06
369.541	318.06
369.767	351.06
369.993	361.06
370.219	320.06
370.445	334.06
370.672	340.06
370.898	336.06
371.124	340.06
371.35	334.06
371.576	340.06
371.802	330.06
372.028	327.06
372.254	365.06
372.48	342.06
372.706	326.06
372.932	337.06
373.158	335.06
373.384	334.06
373.61	346.06
373.835	328.06
374.061	342.06
374.287	331.06
374.513	331.06
374.739	348.06
374.965	348.06
375.191	336.06
375.416	366.06
375.642	350.06
375.868	357.06
376.094	339.06
376.319	348.06
376.545	329.06
376.771	354.06
376.997	352.06
377.222	344.06
377.448	344.06
377.674	324.06
377.899	327.06
378.125	339.06
378.35	335.06
378.576	334.06
378.802	331.06
379.027	336.06
379.253	337.06
379.478	366.06
379.704	333.06
379.929	343.06
380.155	343.06
380.38	333.06
380.606	340.06
380.831	335.06
381.057	344.06
381.282	340.06
381.507	338.06
381.733	348.06
381.958	330.06
382.184	354.06
382.409	351.06
382.634	359.06
382.86	364.06
383.085	367.06
383.31	349.06
383.535	358.06
383.761	371.06
383.986	362.06
384.211	362.06
384.436	380.06
384.662	361.06
384.887	354.06
385.112	361.06
385.337	378.06
385.562	374.06
385.787	381.06
386.013	375.06
386.238	391.06
386.463	391.06
386.688	396.06
386.913	384.06
387.138	375.06
387.363	358.06
387.588	363.06
387.813	373.06
388.038	374.06
388.263	378.06
388.488	366.06
388.713	385.06
388.938	349.06
389.163	378.06
389.387	363.06
389.612	377.06
389.837	372.06
390.062	373.06
390.287	389.06
390.512	360.06
390.736	374.06
390.961	371.06
391.186	379.06
391.411	392.06
391.636	386.06
391.86	387.06
392.085	363.06
392.31	380.06
392.534	381.06
392.759	365.06
392.984	404.06
393.208	370.06
393.433	379.06
393.658	410.06
393.882	398.06
394.107	370.06
394.331	376.06
394.556	354.06
394.78	372.06
395.005	380.06
395.229	375.06
395.454	377.06
395.678	392.06
395.903	389.06
396.127	423.06
396.352	413.06
396.576	408.06
396.801	406.06
397.025	399.06
397.249	390.06
397.474	409.06
397.698	406.06
397.922	420.06
398.147	413.06
398.371	428.06
398.595	420.06
398.82	418.06
399.044	407.06
399.268	445.06
399.492	440.06
399.717	455.06
399.941	470.06
400.165	518.06
400.389	495.06
400.613	464.06
400.837	469.06
401.062	434.06
401.286	437.06
401.51	436.06
401.734	417.06
401.958	425.06
402.182	406.06
402.406	400.06
402.63	448.06
402.854	415.06
403.078	422.06
403.302	423.06
403.526	444.06
403.75	434.06
403.974	440.06
404.198	449.06
404.422	430.06
404.645	471.06
404.869	460.06
405.093	458.06
405.317	503.06
405.541	530.06
405.765	489.06
405.988	472.06
406.212	461.06
406.436	484.06
406.66	490.06
406.883	471.06
407.107	503.06
407.331	546.06
407.555	566.06
407.778	563.06
408.002	535.06
408.226	525.06
408.449	490.06
408.673	481.06
408.896	507.06
409.12	527.06
409.344	516.06
409.567	496.06
409.791	455.06
410.014	446.06
410.238	423.06
410.461	461.06
410.685	446.06
410.908	461.06
411.132	490.06
411.355	522.06
411.578	487.06
411.802	472.06
412.025	425.06
412.249	440.06
412.472	456.06
412.695	481.06
412.919	464.06
413.142	454.06
413.365	438.06
413.589	437.06
413.812	426.06
414.035	427.06
414.258	428.06
414.482	420.06
414.705	422.06
414.928	427.06
415.151	425.06
415.374	430.06
415.597	413.06
415.821	422.06
416.044	416.06
416.267	434.06
416.49	444.06
416.713	428.06
416.936	434.06
417.159	431.06
417.382	427.06
417.605	420.06
417.828	446.06
418.051	450.06
418.274	454.06
418.497	448.06
418.72	438.06
418.943	408.06
419.166	453.06
419.389	470.06
419.611	448.06
419.834	441.06
420.057	447.06
420.28	431.06
420.503	443.06
420.726	423.06
420.948	455.06
421.171	477.06
421.394	532.06
421.617	478.06
421.839	458.06
422.062	450.06
422.285	462.06
422.507	507.06
422.73	581.06
422.953	558.06
423.175	491.06
423.398	481.06
423.621	479.06
423.843	481.06
424.066	477.06
424.288	474.06
424.511	512.06
424.733	546.06
424.956	596.06
425.178	578.06
425.401	553.06
425.623	584.06
425.846	538.06
426.068	502.06
426.291	489.06
426.513	489.06
426.735	508.06
426.958	534.06
427.18	594.06
427.402	687.06
427.625	784.06
427.847	653.06
428.069	599.06
428.292	536.06
428.514	472.06
428.736	478.06
428.958	467.06
429.181	456.06
429.403	462.06
429.625	463.06
429.847	505.06
430.069	568.06
430.292	555.06
430.514	482.06
430.736	440.06
430.958	454.06
431.18	429.06
431.402	434.06
431.624	430.06
431.846	427.06
432.068	429.06
432.29	414.06
432.512	431.06
432.734	449.06
432.956	442.06
433.178	455.06
433.4	444.06
433.622	436.06
433.844	445.06
434.066	437.06
434.287	412.06
434.509	431.06
434.731	455.06
434.953	455.06
435.175	459.06
435.397	471.06
435.618	513.06
435.84	522.06
436.062	590.06
436.284	644.06
436.505	560.06
436.727	506.06
436.949	472.06
437.17	460.06
437.392	455.06
437.614	469.06
437.835	480.06
438.057	581.06
438.278	660.06
438.5	643.06
438.721	730.06
438.943	689.06
439.165	567.06
439.386	502.06
439.608	494.06
439.829	482.06
440.05	532.06
440.272	552.06
440.493	506.06
440.715	466.06
440.936	489.06
441.158	444.06
441.379	456.06
441.6	462.06
441.822	471.06
442.043	516.06
442.264	566.06
442.486	620.06
442.707	528.06
442.928	506.06
443.149	498.06
443.371	525.06
443.592	543.06
443.813	628.06
444.034	688.06
444.255	569.06
444.476	528.06
444.698	480.06
444.919	499.06
445.14	622.06
445.361	557.06
445.582	537.06
445.803	564.06
446.024	631.06
446.245	656.06
446.466	594.06
446.687	523.06
446.908	488.06
447.129	452.06
447.35	474.06
447.571	471.06
447.792	454.06
448.013	484.06
448.234	495.06
448.455	507.06
448.675	607.06
448.896	711.06
449.117	586.06
449.338	566.06
449.559	635.06
449.779	728.06
450	597.06
450.221	515.06
450.442	479.06
450.662	458.06
450.883	479.06
451.104	474.06
451.324	466.06
451.545	452.06
451.766	414.06
451.986	426.06
452.207	407.06
452.428	402.06
452.648	397.06
452.869	407.06
453.089	408.06
453.31	425.06
453.53	408.06
453.751	410.06
453.971	390.06
454.192	436.06
454.412	408.06
454.633	398.06
454.853	401.06
455.073	404.06
455.294	435.06
455.514	488.06
455.734	478.06
455.955	401.06
456.175	408.06
456.395	380.06
456.616	382.06
456.836	377.06
457.056	389.06
457.276	399.06
457.497	371.06
457.717	380.06
457.937	388.06
458.157	382.06
458.377	401.06
458.598	400.06
458.818	432.06
459.038	535.06
459.258	540.06
459.478	465.06
459.698	414.06
459.918	413.06
460.138	419.06
460.358	416.06
460.578	422.06
460.798	418.06
461.018	432.06
461.238	422.06
461.458	441.06
461.678	422.06
461.898	410.06
462.118	415.06
462.338	446.06
462.558	426.06
462.777	451.06
462.997	466.06
463.217	464.06
463.437	476.06
463.657	452.06
463.876	450.06
464.096	459.06
464.316	454.06
464.536	456.06
464.755	447.06
464.975	455.06
465.195	477.06
465.414	533.06
465.634	491.06
465.854	446.06
466.073	431.06
466.293	430.06
466.512	434.06
466.732	403.06
466.951	408.06
467.171	424.06
467.391	428.06
467.61	428.06
467.829	423.06
468.049	445.06
468.268	413.06
468.488	417.06
468.707	404.06
468.927	412.06
469.146	425.06
469.365	416.06
469.585	427.06
469.804	420.06
470.023	432.06
470.243	435.06
470.462	442.06
470.681	441.06
470.901	458.06
471.12	432.06
471.339	440.06
471.558	442.06
471.777	428.06
471.997	415.06
472.216	444.06
472.435	467.06
472.654	418.06
472.873	403.06
473.092	420.06
473.311	427.06
473.53	439.06
473.749	432.06
473.968	464.06
474.187	541.06
474.406	551.06
474.625	469.06
474.844	462.06
475.063	437.06
475.282	447.06
475.501	437.06
475.72	439.06
475.939	443.06
476.158	431.06
476.377	454.06
476.596	442.06
476.814	440.06
477.033	471.06
477.252	458.06
477.471	457.06
477.69	458.06
477.908	468.06
478.127	454.06
478.346	467.06
478.564	460.06
478.783	475.06
479.002	491.06
479.22	479.06
479.439	497.06
479.658	517.06
479.876	502.06
480.095	503.06
480.313	524.06
480.532	520.06
480.751	508.06
480.969	509.06
481.188	557.06
481.406	600.06
481.624	539.06
481.843	495.06
482.061	554.06
482.28	516.06
482.498	487.06
482.717	502.06
482.935	518.06
483.153	504.06
483.372	523.06
483.59	520.06
483.808	501.06
484.027	517.06
484.245	511.06
484.463	516.06
484.681	518.06
484.9	519.06
485.118	516.06
485.336	528.06
485.554	498.06
485.772	528.06
485.99	504.06
486.209	534.06
486.427	521.06
486.645	541.06
486.863	549.06
487.081	545.06
487.299	572.06
487.517	546.06
487.735	549.06
487.953	553.06
488.171	561.06
488.389	535.06
488.607	578.06
488.825	549.06
489.043	552.06
489.261	571.06
489.479	555.06
489.696	568.06
489.914	564.06
490.132	571.06
490.35	592.06
490.568	596.06
490.786	596.06
491.003	616.06
491.221	623.06
491.439	615.06
491.657	608.06
491.874	626.06
492.092	654.06
492.31	634.06
492.527	631.06
492.745	636.06
492.963	667.06
493.18	640.06
493.398	672.06
493.615	659.06
493.833	655.06
494.05	664.06
494.268	681.06
494.485	626.06
494.703	680.06
494.92	646.06
495.138	646.06
495.355	657.06
495.573	647.06
495.79	643.06
496.008	655.06
496.225	636.06
496.442	652.06
496.66	668.06
496.877	679.06
497.094	660.06
497.312	678.06
497.529	692.06
497.746	666.06
497.963	690.06
498.181	692.06
498.398	698.06
498.615	702.06
498.832	742.06
499.049	730.06
499.267	737.06
499.484	743.06
499.701	751.06
499.918	810.06
500.135	822.06
500.352	845.06
500.569	839.06
500.786	879.06
501.003	846.06
501.22	822.06
501.437	812.06
501.654	797.06
501.871	798.06
502.088	780.06
502.305	749.06
502.522	747.06
502.739	722.06
502.956	712.06
503.172	714.06
503.389	668.06
503.606	669.06
503.823	669.06
504.04	663.06
504.256	645.06
504.473	660.06
504.69	662.06
504.907	673.06
505.123	662.06
505.34	651.06
505.557	645.06
505.773	637.06
505.99	626.06
506.207	630.06
506.423	646.06
506.64	614.06
506.856	612.06
507.073	610.06
507.289	596.06
507.506	608.06
507.722	604.06
507.939	622.06
508.155	608.06
508.372	600.06
508.588	595.06
508.805	586.06
509.021	592.06
509.238	615.06
509.454	599.06
509.67	598.06
509.887	589.06
510.103	588.06
510.319	579.06
510.536	696.06
510.752	1005.06
510.968	838.06
511.184	623.06
511.401	583.06
511.617	550.06
511.833	572.06
512.049	566.06
512.265	571.06
512.481	587.06
512.698	580.06
512.914	561.06
513.13	581.06
513.346	556.06
513.562	551.06
513.778	572.06
513.994	573.06
514.21	581.06
514.426	591.06
514.642	622.06
514.858	626.06
515.074	641.06
515.29	783.06
515.506	1029.06
515.721	897.06
515.937	644.06
516.153	630.06
516.369	608.06
516.585	567.06
516.801	574.06
517.016	568.06
517.232	569.06
517.448	568.06
517.664	571.06
517.879	569.06
518.095	564.06
518.311	576.06
518.527	566.06
518.742	568.06
518.958	557.06
519.173	565.06
519.389	554.06
519.605	551.06
519.82	570.06
520.036	580.06
520.251	571.06
520.467	588.06
520.682	602.06
520.898	600.06
521.113	636.06
521.329	644.06
521.544	691.06
521.76	847.06
521.975	1278.06
522.19	1308.06
522.406	776.06
522.621	614.06
522.836	584.06
523.052	570.06
523.267	549.06
523.482	524.06
523.698	516.06
523.913	543.06
524.128	538.06
524.343	525.06
524.559	519.06
524.774	492.06
524.989	497.06
525.204	516.06
525.419	503.06
525.634	489.06
525.849	488.06
526.064	471.06
526.28	484.06
526.495	476.06
526.71	493.06
526.925	481.06
527.14	480.06
527.355	460.06
527.57	479.06
527.785	479.06
527.999	472.06
528.214	455.06
528.429	458.06
528.644	490.06
528.859	475.06
529.074	470.06
529.289	503.06
529.503	532.06
529.718	535.06
529.933	489.06
530.148	475.06
530.363	480.06
530.577	435.06
530.792	458.06
531.007	458.06
531.221	464.06
531.436	454.06
531.651	438.06
531.865	442.06
532.08	454.06
532.295	460.06
532.509	442.06
532.724	440.06
532.938	454.06
533.153	439.06
533.367	433.06
533.582	452.06
533.796	438.06
534.011	450.06
534.225	437.06
534.44	428.06
534.654	418.06
534.868	446.06
535.083	442.06
535.297	446.06
535.511	438.06
535.726	456.06
535.94	465.06
536.154	436.06
536.369	423.06
536.583	435.06
536.797	430.06
537.011	424.06
537.225	428.06
537.44	429.06
537.654	439.06
537.868	420.06
538.082	430.06
538.296	442.06
538.51	445.06
538.724	430.06
538.938	438.06
539.153	419.06
539.367	450.06
539.581	414.06
539.795	420.06
540.009	406.06
540.222	436.06
540.436	417.06
540.65	415.06
540.864	438.06
541.078	444.06
541.292	451.06
541.506	431.06
541.72	431.06
541.934	438.06
542.147	418.06
542.361	419.06
542.575	428.06
542.789	439.06
543.002	398.06
543.216	430.06
543.43	430.06
543.644	438.06
543.857	431.06
544.071	432.06
544.285	435.06
544.498	434.06
544.712	426.06
544.925	415.06
545.139	424.06
545.352	427.06
545.566	435.06
545.779	430.06
545.993	424.06
546.206	435.06
546.42	440.06
546.633	421.06
546.847	414.06
547.06	420.06
547.274	426.06
547.487	434.06
547.7	450.06
547.914	410.06
548.127	405.06
548.34	422.06
548.554	438.06
548.767	424.06
548.98	419.06
549.193	400.06
549.407	405.06
549.62	414.06
549.833	428.06
550.046	436.06
550.259	412.06
550.473	429.06
550.686	404.06
550.899	402.06
551.112	396.06
551.325	422.06
551.538	407.06
551.751	402.06
551.964	409.06
552.177	399.06
552.39	400.06
552.603	403.06
552.816	391.06
553.029	419.06
553.242	403.06
553.455	408.06
553.667	436.06
553.88	439.06
554.093	415.06
554.306	417.06
554.519	413.06
554.732	404.06
554.944	422.06
555.157	416.06
555.37	385.06
555.583	398.06
555.795	403.06
556.008	399.06
556.221	388.06
556.433	374.06
556.646	391.06
556.859	386.06
557.071	370.06
557.284	371.06
557.496	380.06
557.709	375.06
557.921	370.06
558.134	379.06
558.346	358.06
558.559	378.06
558.771	374.06
558.984	355.06
559.196	384.06
559.409	378.06
559.621	375.06
559.833	372.06
560.046	348.06
560.258	356.06
560.47	365.06
560.683	382.06
560.895	374.06
561.107	359.06
561.32	365.06
561.532	354.06
561.744	360.06
561.956	376.06
562.168	361.06
562.381	363.06
562.593	365.06
562.805	373.06
563.017	376.06
563.229	360.06
563.441	388.06
563.653	361.06
563.865	363.06
564.077	391.06
564.289	378.06
564.501	374.06
564.713	379.06
564.925	382.06
565.137	390.06
565.349	394.06
565.561	387.06
565.773	392.06
565.985	389.06
566.197	410.06
566.408	410.06
566.62	413.06
566.832	424.06
567.044	423.06
567.255	412.06
567.467	437.06
567.679	442.06
567.891	430.06
568.102	427.06
568.314	429.06
568.526	408.06
568.737	400.06
568.949	404.06
569.161	389.06
569.372	379.06
569.584	386.06
569.795	371.06
570.007	370.06
570.218	403.06
570.43	377.06
570.641	352.06
570.853	364.06
571.064	345.06
571.276	345.06
571.487	337.06
571.698	347.06
571.91	346.06
572.121	340.06
572.333	346.06
572.544	351.06
572.755	334.06
572.966	341.06
573.178	316.06
573.389	338.06
573.6	331.06
573.811	319.06
574.023	317.06
574.234	302.06
574.445	316.06
574.656	326.06
574.867	319.06
575.078	330.06
575.289	309.06
575.501	320.06
575.712	332.06
575.923	292.06
576.134	316.06
576.345	295.06
576.556	328.06
576.767	316.06
576.978	303.06
577.188	310.06
577.399	325.06
577.61	307.06
577.821	302.06
578.032	310.06
578.243	334.06
578.454	506.06
578.665	410.06
578.875	307.06
579.086	312.06
579.297	312.06
579.508	292.06
579.718	298.06
579.929	316.06
580.14	298.06
580.35	316.06
580.561	303.06
580.772	303.06
580.982	299.06
581.193	292.06
581.403	302.06
581.614	298.06
581.825	291.06
582.035	296.06
582.246	283.06
582.456	284.06
582.667	308.06
582.877	285.06
583.087	280.06
583.298	294.06
583.508	282.06
583.719	289.06
583.929	279.06
584.139	288.06
584.35	282.06
584.56	269.06
584.77	298.06
584.981	309.06
585.191	300.06
585.401	284.06
585.611	280.06
585.821	283.06
586.032	291.06
586.242	264.06
586.452	311.06
586.662	292.06
586.872	284.06
587.082	293.06
587.292	276.06
587.502	283.06
587.713	282.06
587.923	271.06
588.133	260.06
588.343	264.06
588.553	256.06
588.762	290.06
588.972	278.06
589.182	288.06
589.392	299.06
589.602	291.06
589.812	286.06
590.022	258.06
590.232	284.06
590.441	271.06
590.651	259.06
590.861	255.06
591.071	295.06
591.281	278.06
591.49	286.06
591.7	275.06
591.91	261.06
592.119	284.06
592.329	265.06
592.539	281.06
592.748	293.06
592.958	285.06
593.167	280.06
593.377	273.06
593.587	303.06
593.796	278.06
594.006	284.06
594.215	294.06
594.424	286.06
594.634	269.06
594.843	281.06
595.053	280.06
595.262	284.06
595.472	271.06
595.681	267.06
595.89	268.06
596.1	274.06
596.309	262.06
596.518	275.06
596.727	266.06
596.937	268.06
597.146	278.06
597.355	250.06
597.564	250.06
597.774	267.06
597.983	270.06
598.192	271.06
598.401	268.06
598.61	243.06
598.819	246.06
599.028	246.06
599.237	250.06
599.446	246.06
599.655	260.06
599.864	261.06
600.073	237.06
600.282	249.06
600.491	246.06
600.7	244.06
600.909	230.06
601.118	251.06
601.327	236.06
601.536	231.06
601.745	247.06
601.953	262.06
602.162	248.06
602.371	248.06
602.58	254.06
602.789	248.06
602.997	242.06
603.206	252.06
603.415	249.06
603.623	231.06
603.832	215.06
604.041	244.06
604.249	235.06
604.458	236.06
604.666	231.06
604.875	222.06
605.084	229.06
605.292	237.06
605.501	225.06
605.709	235.06
605.918	229.06
606.126	226.06
606.334	235.06
606.543	224.06
606.751	234.06
606.96	232.06
607.168	240.06
607.376	226.06
607.585	240.06
607.793	233.06
608.001	252.06
608.21	242.06
608.418	232.06
608.626	223.06
608.834	246.06
609.043	236.06
609.251	239.06
609.459	226.06
609.667	229.06
609.875	235.06
610.083	236.06
610.291	242.06
610.499	229.06
610.707	228.06
610.916	252.06
611.124	239.06
611.332	235.06
611.54	234.06
611.748	238.06
611.955	244.06
612.163	228.06
612.371	230.06
612.579	219.06
612.787	233.06
612.995	251.06
613.203	214.06
613.411	239.06
613.618	237.06
613.826	226.06
614.034	236.06
614.242	221.06
614.449	218.06
614.657	228.06
614.865	214.06
615.072	219.06
615.28	227.06
615.488	228.06
615.695	238.06
615.903	218.06
616.111	231.06
616.318	227.06
616.526	234.06
616.733	222.06
616.941	242.06
617.148	229.06
617.356	215.06
617.563	241.06
617.771	228.06
617.978	217.06
618.185	218.06
618.393	237.06
618.6	236.06
618.807	229.06
619.015	207.06
619.222	216.06
619.429	218.06
619.637	230.06
619.844	211.06
620.051	215.06
620.258	230.06
620.466	211.06
620.673	216.06
620.88	196.06
621.087	214.06
621.294	210.06
621.501	196.06
621.708	218.06
621.915	206.06
622.122	214.06
622.329	216.06
622.536	231.06
622.743	202.06
622.95	216.06
623.157	206.06
623.364	205.06
623.571	231.06
623.778	198.06
623.985	215.06
624.192	215.06
624.399	208.06
624.606	210.06
624.812	214.06
625.019	193.06
625.226	199.06
625.433	212.06
625.639	199.06
625.846	195.06
626.053	206.06
626.259	197.06
626.466	204.06
626.673	195.06
626.879	208.06
627.086	194.06
627.293	197.06
627.499	197.06
627.706	183.06
627.912	205.06
628.119	191.06
628.325	205.06
628.532	187.06
628.738	205.06
628.945	210.06
629.151	206.06
629.357	208.06
629.564	186.06
629.77	203.06
629.976	190.06
630.183	186.06
630.389	187.06
630.595	195.06
630.802	209.06
631.008	186.06
631.214	199.06
631.42	184.06
631.627	189.06
631.833	193.06
632.039	194.06
632.245	188.06
632.451	184.06
632.657	183.06
632.863	184.06
633.069	199.06
633.275	191.06
633.481	183.06
633.688	174.06
633.893	196.06
634.099	175.06
634.305	183.06
634.511	177.06
634.717	182.06
634.923	171.06
635.129	168.06
635.335	171.06
635.541	173.06
635.747	183.06
635.952	191.06
636.158	172.06
636.364	184.06
636.57	187.06
636.775	186.06
636.981	184.06
637.187	180.06
637.392	195.06
637.598	165.06
637.804	189.06
638.009	180.06
638.215	164.06
638.421	171.06
638.626	176.06
638.832	180.06
639.037	185.06
639.243	181.06
639.448	149.06
639.654	183.06
639.859	167.06
640.065	148.06
640.27	187.06
640.475	173.06
640.681	173.06
640.886	160.06
641.091	172.06
641.297	176.06
641.502	171.06
641.707	150.06
641.913	179.06
642.118	178.06
642.323	170.06
642.528	166.06
642.733	164.06
642.939	173.06
643.144	163.06
643.349	168.06
643.554	158.06
643.759	162.06
643.964	166.06
644.169	166.06
644.374	150.06
644.579	154.06
644.784	149.06
644.989	167.06
645.194	152.06
645.399	147.06
645.604	162.06
645.809	170.06
646.014	166.06
646.219	159.06
646.423	165.06
646.628	155.06
646.833	163.06
647.038	160.06
647.243	156.06
647.447	168.06
647.652	163.06
647.857	174.06
648.062	155.06
648.266	178.06
648.471	168.06
648.676	179.06
648.88	159.06
649.085	165.06
649.289	159.06
649.494	167.06
649.698	180.06
649.903	161.06
650.107	159.06
650.312	158.06
650.516	157.06
650.721	134.06
650.925	145.06
651.13	148.06
651.334	178.06
651.539	162.06
651.743	150.06
651.947	151.06
652.152	145.06
652.356	149.06
652.56	139.06
652.764	140.06
652.969	142.06
653.173	135.06
653.377	136.06
653.581	153.06
653.785	133.06
653.99	133.06
654.194	134.06
654.398	144.06
654.602	132.06
654.806	131.06
655.01	126.06
655.214	130.06
655.418	150.06
655.622	144.06
655.826	130.06
656.03	136.06
656.234	114.06
656.438	126.06
656.642	131.06
656.846	118.06
657.049	123.06
657.253	128.06
657.457	117.06
657.661	117.06
657.865	119.06
658.068	121.06
658.272	124.06
658.476	125.06
658.68	102.06
658.883	110.06
659.087	108.06
659.291	108.06
659.494	93.06
659.698	82.06
659.901	105.06
660.105	102.06
660.309	94.06
660.512	88.06
660.716	99.06
660.919	76.06
661.123	105.06
661.326	106.06
661.53	84.06
661.733	99.06
661.936	75.06
662.14	69.06
662.343	90.06
662.546	92.06
662.75	83.06
662.953	85.06
663.156	111.06
663.36	89.06
663.563	93.06
663.766	80.06
663.969	80.06
664.173	80.06
664.376	80.06
664.579	84.06
664.782	76.06
664.985	78.06
665.188	86.06
665.391	82.06
665.594	70.06
665.797	93.06
666	87.06
666.203	80.06
666.406	83.06
666.609	93.06
666.812	83.06
667.015	94.06
667.218	80.06
667.421	86.06
667.624	71.06
667.827	68.06
668.03	89.06
668.232	89.06
668.435	79.06
668.638	78.06
668.841	97.06
669.043	72.06
669.246	82.06
669.449	93.06
669.651	79.06
669.854	74.06
670.057	82.06
670.259	66.06
670.462	81.06
670.665	83.06
670.867	81.06
671.07	77.06
671.272	98.06
671.475	78.06
671.677	101.06
671.88	80.06
672.082	71.06
672.284	91.06
672.487	79.06
672.689	83.06
672.892	97.06
