Data from 1970.PennyLincolnUp.Lamp.En5.5.200Scan.071719.P1._HRD10591_15-16-03-841.txt Node
Date: Thu Jul 18 15:16:03 EDT 2019
User: cochatt
Spectrometer: HR+D1059
Trigger mode: 1
Integration Time (sec): 1.000000E-1
Scans to average: 1
Electric dark correction enabled: true
Nonlinearity correction enabled: false
Boxcar width: 0
XAxis mode: Wavelengths
Number of Pixels in Spectrum: 2048
>>>>>Begin Spectral Data<<<<<
223.165	-20.19
223.4	-20.19
223.635	-20.19
223.869	-23.19
224.104	-17.19
224.338	-17.19
224.573	-14.19
224.808	-5.19
225.042	-22.19
225.277	-10.19
225.511	5.81
225.746	8.81
225.98	-1.19
226.215	11.81
226.449	22.81
226.683	22.81
226.918	24.81
227.152	33.81
227.387	45.81
227.621	37.81
227.856	50.81
228.09	21.81
228.324	41.81
228.559	36.81
228.793	75.81
229.027	116.81
229.262	117.81
229.496	125.81
229.73	154.81
229.964	170.81
230.199	170.81
230.433	125.81
230.667	129.81
230.901	122.81
231.136	121.81
231.37	118.81
231.604	121.81
231.838	112.81
232.072	121.81
232.306	126.81
232.541	130.81
232.775	123.81
233.009	132.81
233.243	106.81
233.477	138.81
233.711	131.81
233.945	117.81
234.179	131.81
234.413	142.81
234.647	122.81
234.881	127.81
235.115	132.81
235.349	134.81
235.583	139.81
235.817	130.81
236.051	132.81
236.285	138.81
236.519	126.81
236.753	146.81
236.987	161.81
237.221	198.81
237.455	278.81
237.689	228.81
237.922	161.81
238.156	147.81
238.39	142.81
238.624	124.81
238.858	138.81
239.091	125.81
239.325	119.81
239.559	136.81
239.793	142.81
240.027	153.81
240.26	178.81
240.494	174.81
240.728	172.81
240.961	179.81
241.195	156.81
241.429	156.81
241.662	154.81
241.896	135.81
242.13	133.81
242.363	152.81
242.597	144.81
242.83	151.81
243.064	163.81
243.298	144.81
243.531	154.81
243.765	140.81
243.998	150.81
244.232	132.81
244.465	178.81
244.699	141.81
244.932	155.81
245.166	154.81
245.399	157.81
245.633	159.81
245.866	171.81
246.099	150.81
246.333	177.81
246.566	161.81
246.8	164.81
247.033	176.81
247.266	158.81
247.5	182.81
247.733	172.81
247.966	192.81
248.2	182.81
248.433	187.81
248.666	188.81
248.899	196.81
249.133	219.81
249.366	254.81
249.599	232.81
249.832	198.81
250.066	197.81
250.299	204.81
250.532	199.81
250.765	223.81
250.998	256.81
251.231	278.81
251.465	243.81
251.698	223.81
251.931	210.81
252.164	226.81
252.397	229.81
252.63	218.81
252.863	214.81
253.096	236.81
253.329	262.81
253.562	268.81
253.795	252.81
254.028	233.81
254.261	250.81
254.494	255.81
254.727	301.81
254.96	321.81
255.193	303.81
255.426	297.81
255.659	288.81
255.892	251.81
256.124	259.81
256.357	256.81
256.59	269.81
256.823	252.81
257.056	243.81
257.289	238.81
257.521	226.81
257.754	232.81
257.987	230.81
258.22	219.81
258.452	231.81
258.685	235.81
258.918	221.81
259.151	213.81
259.383	259.81
259.616	242.81
259.849	260.81
260.081	256.81
260.314	254.81
260.547	290.81
260.779	274.81
261.012	260.81
261.244	260.81
261.477	252.81
261.71	237.81
261.942	256.81
262.175	252.81
262.407	249.81
262.64	225.81
262.872	243.81
263.105	225.81
263.337	231.81
263.57	226.81
263.802	227.81
264.035	234.81
264.267	238.81
264.499	217.81
264.732	251.81
264.964	210.81
265.197	208.81
265.429	225.81
265.661	244.81
265.894	211.81
266.126	232.81
266.358	223.81
266.591	235.81
266.823	224.81
267.055	234.81
267.287	243.81
267.52	234.81
267.752	241.81
267.984	242.81
268.216	247.81
268.448	250.81
268.681	254.81
268.913	245.81
269.145	269.81
269.377	304.81
269.609	292.81
269.841	293.81
270.073	285.81
270.306	315.81
270.538	338.81
270.77	341.81
271.002	336.81
271.234	320.81
271.466	322.81
271.698	321.81
271.93	346.81
272.162	353.81
272.394	344.81
272.626	325.81
272.858	318.81
273.09	306.81
273.322	295.81
273.553	292.81
273.785	278.81
274.017	283.81
274.249	282.81
274.481	272.81
274.713	277.81
274.945	283.81
275.176	276.81
275.408	285.81
275.64	259.81
275.872	270.81
276.104	277.81
276.335	264.81
276.567	284.81
276.799	298.81
277.031	330.81
277.262	343.81
277.494	338.81
277.726	339.81
277.957	311.81
278.189	280.81
278.421	304.81
278.652	276.81
278.884	281.81
279.115	284.81
279.347	275.81
279.579	275.81
279.81	279.81
280.042	273.81
280.273	281.81
280.505	289.81
280.736	260.81
280.968	266.81
281.199	267.81
281.431	264.81
281.662	268.81
281.894	269.81
282.125	278.81
282.356	301.81
282.588	314.81
282.819	331.81
283.051	291.81
283.282	260.81
283.513	264.81
283.745	278.81
283.976	298.81
284.207	282.81
284.439	301.81
284.67	288.81
284.901	287.81
285.132	292.81
285.364	269.81
285.595	294.81
285.826	268.81
286.057	270.81
286.288	276.81
286.52	294.81
286.751	285.81
286.982	280.81
287.213	291.81
287.444	268.81
287.675	299.81
287.906	290.81
288.138	292.81
288.369	307.81
288.6	320.81
288.831	282.81
289.062	320.81
289.293	295.81
289.524	274.81
289.755	300.81
289.986	288.81
290.217	289.81
290.448	270.81
290.679	282.81
290.91	290.81
291.141	285.81
291.371	290.81
291.602	292.81
291.833	286.81
292.064	304.81
292.295	281.81
292.526	288.81
292.757	281.81
292.987	294.81
293.218	294.81
293.449	287.81
293.68	283.81
293.91	280.81
294.141	274.81
294.372	297.81
294.603	285.81
294.833	275.81
295.064	301.81
295.295	285.81
295.525	297.81
295.756	299.81
295.987	309.81
296.217	342.81
296.448	357.81
296.679	308.81
296.909	292.81
297.14	294.81
297.37	293.81
297.601	296.81
297.831	297.81
298.062	279.81
298.292	289.81
298.523	316.81
298.753	296.81
298.984	310.81
299.214	297.81
299.445	308.81
299.675	311.81
299.905	320.81
300.136	322.81
300.366	315.81
300.597	313.81
300.827	316.81
301.057	326.81
301.288	336.81
301.518	338.81
301.748	327.81
301.979	314.81
302.209	323.81
302.439	358.81
302.669	346.81
302.9	356.81
303.13	332.81
303.36	315.81
303.59	330.81
303.82	340.81
304.051	341.81
304.281	340.81
304.511	349.81
304.741	322.81
304.971	329.81
305.201	323.81
305.431	340.81
305.661	347.81
305.891	328.81
306.121	335.81
306.352	331.81
306.582	330.81
306.812	342.81
307.042	331.81
307.272	326.81
307.502	344.81
307.731	345.81
307.961	317.81
308.191	344.81
308.421	335.81
308.651	329.81
308.881	342.81
309.111	342.81
309.341	331.81
309.571	378.81
309.8	365.81
310.03	380.81
310.26	392.81
310.49	402.81
310.72	391.81
310.949	396.81
311.179	418.81
311.409	400.81
311.639	376.81
311.868	398.81
312.098	388.81
312.328	412.81
312.557	432.81
312.787	437.81
313.017	429.81
313.246	405.81
313.476	390.81
313.706	391.81
313.935	409.81
314.165	394.81
314.394	444.81
314.624	443.81
314.853	396.81
315.083	404.81
315.312	362.81
315.542	377.81
315.771	374.81
316.001	372.81
316.23	374.81
316.46	381.81
316.689	392.81
316.919	370.81
317.148	417.81
317.377	408.81
317.607	397.81
317.836	398.81
318.065	394.81
318.295	391.81
318.524	393.81
318.753	390.81
318.983	383.81
319.212	377.81
319.441	406.81
319.67	425.81
319.9	387.81
320.129	377.81
320.358	380.81
320.587	398.81
320.816	425.81
321.046	418.81
321.275	420.81
321.504	438.81
321.733	404.81
321.962	440.81
322.191	446.81
322.42	458.81
322.649	461.81
322.878	505.81
323.108	508.81
323.337	544.81
323.566	557.81
323.795	594.81
324.024	704.81
324.253	818.81
324.482	1165.81
324.71	1836.81
324.939	2662.81
325.168	2256.81
325.397	1188.81
325.626	798.81
325.855	655.81
326.084	588.81
326.313	595.81
326.542	584.81
326.77	653.81
326.999	758.81
327.228	1066.81
327.457	1584.81
327.686	1996.81
327.914	1365.81
328.143	869.81
328.372	762.81
328.6	723.81
328.829	688.81
329.058	677.81
329.287	679.81
329.515	642.81
329.744	581.81
329.972	592.81
330.201	632.81
330.43	660.81
330.658	683.81
330.887	749.81
331.115	718.81
331.344	619.81
331.572	549.81
331.801	532.81
332.03	540.81
332.258	489.81
332.486	494.81
332.715	488.81
332.943	480.81
333.172	495.81
333.4	481.81
333.629	485.81
333.857	490.81
334.085	522.81
334.314	548.81
334.542	582.81
334.771	604.81
334.999	551.81
335.227	530.81
335.455	485.81
335.684	470.81
335.912	488.81
336.14	446.81
336.369	460.81
336.597	454.81
336.825	487.81
337.053	479.81
337.281	467.81
337.51	434.81
337.738	448.81
337.966	461.81
338.194	462.81
338.422	450.81
338.65	464.81
338.878	452.81
339.106	424.81
339.334	458.81
339.562	425.81
339.79	441.81
340.018	466.81
340.246	464.81
340.474	454.81
340.702	453.81
340.93	445.81
341.158	420.81
341.386	440.81
341.614	449.81
341.842	464.81
342.07	437.81
342.298	452.81
342.526	440.81
342.754	435.81
342.981	412.81
343.209	422.81
343.437	446.81
343.665	429.81
343.893	420.81
344.12	438.81
344.348	443.81
344.576	434.81
344.804	452.81
345.031	490.81
345.259	477.81
345.487	462.81
345.714	461.81
345.942	456.81
346.17	436.81
346.397	444.81
346.625	466.81
346.853	450.81
347.08	414.81
347.308	460.81
347.535	437.81
347.763	451.81
347.99	456.81
348.218	464.81
348.445	473.81
348.673	461.81
348.9	437.81
349.128	418.81
349.355	436.81
349.583	434.81
349.81	428.81
350.037	422.81
350.265	424.81
350.492	423.81
350.72	438.81
350.947	431.81
351.174	432.81
351.402	451.81
351.629	438.81
351.856	452.81
352.083	498.81
352.311	485.81
352.538	469.81
352.765	478.81
352.992	450.81
353.22	451.81
353.447	464.81
353.674	438.81
353.901	405.81
354.128	423.81
354.355	400.81
354.583	412.81
354.81	420.81
355.037	417.81
355.264	424.81
355.491	416.81
355.718	424.81
355.945	389.81
356.172	400.81
356.399	419.81
356.626	406.81
356.853	413.81
357.08	397.81
357.307	391.81
357.534	402.81
357.761	404.81
357.988	400.81
358.215	420.81
358.441	408.81
358.668	409.81
358.895	420.81
359.122	424.81
359.349	426.81
359.576	456.81
359.802	458.81
360.029	521.81
360.256	535.81
360.483	504.81
360.709	476.81
360.936	440.81
361.163	457.81
361.39	459.81
361.616	477.81
361.843	456.81
362.07	456.81
362.296	445.81
362.523	467.81
362.749	437.81
362.976	455.81
363.203	421.81
363.429	420.81
363.656	427.81
363.882	435.81
364.109	425.81
364.335	432.81
364.562	415.81
364.788	442.81
365.015	421.81
365.241	442.81
365.468	430.81
365.694	440.81
365.92	442.81
366.147	433.81
366.373	417.81
366.599	416.81
366.826	427.81
367.052	405.81
367.278	436.81
367.505	394.81
367.731	407.81
367.957	416.81
368.184	436.81
368.41	424.81
368.636	452.81
368.862	452.81
369.089	424.81
369.315	429.81
369.541	413.81
369.767	423.81
369.993	407.81
370.219	429.81
370.445	425.81
370.672	418.81
370.898	395.81
371.124	411.81
371.35	410.81
371.576	425.81
371.802	402.81
372.028	429.81
372.254	396.81
372.48	418.81
372.706	401.81
372.932	414.81
373.158	428.81
373.384	436.81
373.61	404.81
373.835	408.81
374.061	427.81
374.287	436.81
374.513	421.81
374.739	418.81
374.965	437.81
375.191	425.81
375.416	420.81
375.642	416.81
375.868	419.81
376.094	438.81
376.319	416.81
376.545	406.81
376.771	414.81
376.997	412.81
377.222	410.81
377.448	419.81
377.674	414.81
377.899	410.81
378.125	403.81
378.35	407.81
378.576	430.81
378.802	410.81
379.027	402.81
379.253	399.81
379.478	398.81
379.704	422.81
379.929	424.81
380.155	437.81
380.38	434.81
380.606	417.81
380.831	434.81
381.057	422.81
381.282	413.81
381.507	404.81
381.733	403.81
381.958	413.81
382.184	412.81
382.409	418.81
382.634	442.81
382.86	420.81
383.085	425.81
383.31	440.81
383.535	418.81
383.761	433.81
383.986	414.81
384.211	440.81
384.436	436.81
384.662	421.81
384.887	446.81
385.112	427.81
385.337	447.81
385.562	429.81
385.787	446.81
386.013	452.81
386.238	474.81
386.463	450.81
386.688	438.81
386.913	454.81
387.138	437.81
387.363	458.81
387.588	446.81
387.813	449.81
388.038	444.81
388.263	440.81
388.488	480.81
388.713	460.81
388.938	451.81
389.163	454.81
389.387	436.81
389.612	441.81
389.837	448.81
390.062	433.81
390.287	452.81
390.512	438.81
390.736	432.81
390.961	442.81
391.186	463.81
391.411	448.81
391.636	449.81
391.86	466.81
392.085	438.81
392.31	440.81
392.534	448.81
392.759	462.81
392.984	467.81
393.208	466.81
393.433	449.81
393.658	441.81
393.882	458.81
394.107	460.81
394.331	475.81
394.556	471.81
394.78	439.81
395.005	438.81
395.229	436.81
395.454	463.81
395.678	470.81
395.903	493.81
396.127	505.81
396.352	516.81
396.576	483.81
396.801	487.81
397.025	474.81
397.249	476.81
397.474	486.81
397.698	482.81
397.922	515.81
398.147	530.81
398.371	514.81
398.595	501.81
398.82	515.81
399.044	481.81
399.268	530.81
399.492	542.81
399.717	552.81
399.941	589.81
400.165	634.81
400.389	632.81
400.613	578.81
400.837	546.81
401.062	524.81
401.286	527.81
401.51	534.81
401.734	520.81
401.958	510.81
402.182	544.81
402.406	530.81
402.63	545.81
402.854	549.81
403.078	520.81
403.302	531.81
403.526	549.81
403.75	547.81
403.974	534.81
404.198	520.81
404.422	562.81
404.645	560.81
404.869	573.81
405.093	610.81
405.317	637.81
405.541	662.81
405.765	620.81
405.988	599.81
406.212	591.81
406.436	604.81
406.66	623.81
406.883	610.81
407.107	613.81
407.331	664.81
407.555	704.81
407.778	707.81
408.002	648.81
408.226	599.81
408.449	615.81
408.673	613.81
408.896	637.81
409.12	644.81
409.344	615.81
409.567	555.81
409.791	551.81
410.014	549.81
410.238	555.81
410.461	548.81
410.685	561.81
410.908	560.81
411.132	601.81
411.355	625.81
411.578	611.81
411.802	572.81
412.025	537.81
412.249	540.81
412.472	589.81
412.695	616.81
412.919	603.81
413.142	580.81
413.365	551.81
413.589	555.81
413.812	524.81
414.035	526.81
414.258	508.81
414.482	509.81
414.705	513.81
414.928	513.81
415.151	518.81
415.374	512.81
415.597	522.81
415.821	513.81
416.044	514.81
416.267	523.81
416.49	524.81
416.713	525.81
416.936	518.81
417.159	517.81
417.382	549.81
417.605	542.81
417.828	539.81
418.051	558.81
418.274	540.81
418.497	536.81
418.72	531.81
418.943	529.81
419.166	542.81
419.389	571.81
419.611	565.81
419.834	550.81
420.057	565.81
420.28	545.81
420.503	556.81
420.726	554.81
420.948	553.81
421.171	617.81
421.394	637.81
421.617	582.81
421.839	548.81
422.062	556.81
422.285	594.81
422.507	613.81
422.73	693.81
422.953	687.81
423.175	602.81
423.398	589.81
423.621	600.81
423.843	619.81
424.066	608.81
424.288	602.81
424.511	626.81
424.733	690.81
424.956	764.81
425.178	730.81
425.401	766.81
425.623	775.81
425.846	680.81
426.068	620.81
426.291	614.81
426.513	617.81
426.735	601.81
426.958	664.81
427.18	758.81
427.402	898.81
427.625	1017.81
427.847	930.81
428.069	772.81
428.292	694.81
428.514	638.81
428.736	601.81
428.958	586.81
429.181	566.81
429.403	576.81
429.625	597.81
429.847	643.81
430.069	693.81
430.292	692.81
430.514	605.81
430.736	568.81
430.958	563.81
431.18	544.81
431.402	540.81
431.624	533.81
431.846	512.81
432.068	525.81
432.29	538.81
432.512	534.81
432.734	556.81
432.956	552.81
433.178	546.81
433.4	555.81
433.622	544.81
433.844	556.81
434.066	539.81
434.287	532.81
434.509	539.81
434.731	564.81
434.953	552.81
435.175	570.81
435.397	593.81
435.618	619.81
435.84	662.81
436.062	760.81
436.284	826.81
436.505	709.81
436.727	655.81
436.949	585.81
437.17	586.81
437.392	564.81
437.614	610.81
437.835	642.81
438.057	754.81
438.278	860.81
438.5	861.81
438.721	902.81
438.943	874.81
439.165	710.81
439.386	646.81
439.608	650.81
439.829	631.81
440.05	660.81
440.272	714.81
440.493	684.81
440.715	608.81
440.936	614.81
441.158	597.81
441.379	589.81
441.6	605.81
441.822	619.81
442.043	668.81
442.264	766.81
442.486	797.81
442.707	717.81
442.928	662.81
443.149	637.81
443.371	675.81
443.592	713.81
443.813	813.81
444.034	872.81
444.255	713.81
444.476	618.81
444.698	609.81
444.919	610.81
445.14	764.81
445.361	686.81
445.582	671.81
445.803	734.81
446.024	842.81
446.245	861.81
446.466	780.81
446.687	706.81
446.908	622.81
447.129	584.81
447.35	595.81
447.571	586.81
447.792	604.81
448.013	577.81
448.234	596.81
448.455	669.81
448.675	796.81
448.896	880.81
449.117	781.81
449.338	730.81
449.559	829.81
449.779	926.81
450	756.81
450.221	642.81
450.442	616.81
450.662	599.81
450.883	589.81
451.104	603.81
451.324	610.81
451.545	566.81
451.766	563.81
451.986	526.81
452.207	511.81
452.428	522.81
452.648	524.81
452.869	523.81
453.089	526.81
453.31	532.81
453.53	547.81
453.751	534.81
453.971	537.81
454.192	559.81
454.412	549.81
454.633	516.81
454.853	507.81
455.073	526.81
455.294	552.81
455.514	611.81
455.734	606.81
455.955	516.81
456.175	491.81
456.395	477.81
456.616	493.81
456.836	493.81
457.056	471.81
457.276	471.81
457.497	483.81
457.717	475.81
457.937	481.81
458.157	473.81
458.377	505.81
458.598	550.81
458.818	621.81
459.038	732.81
459.258	718.81
459.478	608.81
459.698	561.81
459.918	521.81
460.138	517.81
460.358	541.81
460.578	526.81
460.798	541.81
461.018	536.81
461.238	509.81
461.458	550.81
461.678	530.81
461.898	527.81
462.118	517.81
462.338	528.81
462.558	522.81
462.777	547.81
462.997	560.81
463.217	552.81
463.437	526.81
463.657	531.81
463.876	544.81
464.096	560.81
464.316	540.81
464.536	569.81
464.755	558.81
464.975	576.81
465.195	644.81
465.414	743.81
465.634	674.81
465.854	603.81
466.073	579.81
466.293	558.81
466.512	552.81
466.732	542.81
466.951	527.81
467.171	525.81
467.391	535.81
467.61	537.81
467.829	554.81
468.049	570.81
468.268	544.81
468.488	554.81
468.707	530.81
468.927	507.81
469.146	490.81
469.365	496.81
469.585	516.81
469.804	533.81
470.023	530.81
470.243	533.81
470.462	549.81
470.681	580.81
470.901	554.81
471.12	554.81
471.339	542.81
471.558	549.81
471.777	552.81
471.997	528.81
472.216	553.81
472.435	594.81
472.654	570.81
472.873	548.81
473.092	551.81
473.311	522.81
473.53	560.81
473.749	571.81
473.968	601.81
474.187	703.81
474.406	732.81
474.625	621.81
474.844	562.81
475.063	540.81
475.282	520.81
475.501	537.81
475.72	551.81
475.939	549.81
476.158	545.81
476.377	548.81
476.596	549.81
476.814	554.81
477.033	564.81
477.252	586.81
477.471	552.81
477.69	589.81
477.908	582.81
478.127	578.81
478.346	590.81
478.564	609.81
478.783	586.81
479.002	595.81
479.22	597.81
479.439	611.81
479.658	644.81
479.876	624.81
480.095	660.81
480.313	684.81
480.532	681.81
480.751	664.81
480.969	678.81
481.188	731.81
481.406	859.81
481.624	736.81
481.843	682.81
482.061	658.81
482.28	662.81
482.498	640.81
482.717	640.81
482.935	637.81
483.153	650.81
483.372	652.81
483.59	646.81
483.808	643.81
484.027	634.81
484.245	646.81
484.463	650.81
484.681	656.81
484.9	668.81
485.118	650.81
485.336	661.81
485.554	655.81
485.772	677.81
485.99	651.81
486.209	672.81
486.427	666.81
486.645	681.81
486.863	701.81
487.081	719.81
487.299	711.81
487.517	708.81
487.735	692.81
487.953	713.81
488.171	702.81
488.389	676.81
488.607	696.81
488.825	688.81
489.043	700.81
489.261	700.81
489.479	720.81
489.696	717.81
489.914	723.81
490.132	730.81
490.35	764.81
490.568	742.81
490.786	733.81
491.003	743.81
491.221	805.81
491.439	790.81
491.657	813.81
491.874	808.81
492.092	824.81
492.31	841.81
492.527	825.81
492.745	844.81
492.963	840.81
493.18	831.81
493.398	848.81
493.615	858.81
493.833	846.81
494.05	838.81
494.268	841.81
494.485	853.81
494.703	858.81
494.92	845.81
495.138	851.81
495.355	858.81
495.573	866.81
495.79	862.81
496.008	844.81
496.225	842.81
496.442	857.81
496.66	857.81
496.877	833.81
497.094	849.81
497.312	841.81
497.529	869.81
497.746	858.81
497.963	855.81
498.181	892.81
498.398	877.81
498.615	903.81
498.832	914.81
499.049	924.81
499.267	914.81
499.484	949.81
499.701	967.81
499.918	968.81
500.135	980.81
500.352	1005.81
500.569	1003.81
500.786	1046.81
501.003	1020.81
501.22	1004.81
501.437	1018.81
501.654	978.81
501.871	985.81
502.088	992.81
502.305	912.81
502.522	933.81
502.739	906.81
502.956	892.81
503.172	877.81
503.389	837.81
503.606	877.81
503.823	851.81
504.04	841.81
504.256	825.81
504.473	822.81
504.69	809.81
504.907	816.81
505.123	820.81
505.34	822.81
505.557	819.81
505.773	832.81
505.99	801.81
506.207	800.81
506.423	809.81
506.64	799.81
506.856	806.81
507.073	801.81
507.289	809.81
507.506	793.81
507.722	804.81
507.939	846.81
508.155	826.81
508.372	788.81
508.588	768.81
508.805	810.81
509.021	781.81
509.238	798.81
509.454	829.81
509.67	790.81
509.887	784.81
510.103	802.81
510.319	806.81
510.536	939.81
510.752	1588.81
510.968	1314.81
511.184	823.81
511.401	786.81
511.617	769.81
511.833	768.81
512.049	764.81
512.265	735.81
512.481	740.81
512.698	741.81
512.914	744.81
513.13	738.81
513.346	758.81
513.562	752.81
513.778	736.81
513.994	756.81
514.21	780.81
514.426	824.81
514.642	876.81
514.858	917.81
515.074	984.81
515.29	1185.81
515.506	1807.81
515.721	1452.81
515.937	948.81
516.153	865.81
516.369	824.81
516.585	784.81
516.801	779.81
517.016	739.81
517.232	758.81
517.448	742.81
517.664	746.81
517.879	740.81
518.095	721.81
518.311	746.81
518.527	734.81
518.742	734.81
518.958	743.81
519.173	733.81
519.389	740.81
519.605	731.81
519.82	745.81
520.036	766.81
520.251	806.81
520.467	837.81
520.682	820.81
520.898	844.81
521.113	872.81
521.329	984.81
521.544	1101.81
521.76	1453.81
521.975	2374.81
522.19	2353.81
522.406	1251.81
522.621	934.81
522.836	816.81
523.052	798.81
523.267	733.81
523.482	722.81
523.698	691.81
523.913	699.81
524.128	696.81
524.343	666.81
524.559	667.81
524.774	650.81
524.989	645.81
525.204	647.81
525.419	660.81
525.634	653.81
525.849	630.81
526.064	632.81
526.28	627.81
526.495	620.81
526.71	596.81
526.925	609.81
527.14	600.81
527.355	598.81
527.57	585.81
527.785	610.81
527.999	591.81
528.214	581.81
528.429	578.81
528.644	575.81
528.859	609.81
529.074	606.81
529.289	641.81
529.503	748.81
529.718	736.81
529.933	688.81
530.148	635.81
530.363	596.81
530.577	600.81
530.792	581.81
531.007	577.81
531.221	580.81
531.436	576.81
531.651	595.81
531.865	549.81
532.08	569.81
532.295	590.81
532.509	536.81
532.724	574.81
532.938	568.81
533.153	571.81
533.367	556.81
533.582	554.81
533.796	558.81
534.011	554.81
534.225	550.81
534.44	517.81
534.654	542.81
534.868	544.81
535.083	518.81
535.297	542.81
535.511	586.81
535.726	576.81
535.94	579.81
536.154	549.81
536.369	555.81
536.583	562.81
536.797	541.81
537.011	528.81
537.225	522.81
537.44	532.81
537.654	543.81
537.868	548.81
538.082	521.81
538.296	532.81
538.51	539.81
538.724	550.81
538.938	549.81
539.153	558.81
539.367	544.81
539.581	556.81
539.795	547.81
540.009	500.81
540.222	532.81
540.436	529.81
540.65	531.81
540.864	570.81
541.078	551.81
541.292	564.81
541.506	534.81
541.72	540.81
541.934	516.81
542.147	523.81
542.361	528.81
542.575	517.81
542.789	521.81
543.002	503.81
543.216	525.81
543.43	554.81
543.644	547.81
543.857	547.81
544.071	534.81
544.285	520.81
544.498	530.81
544.712	530.81
544.925	514.81
545.139	527.81
545.352	512.81
545.566	502.81
545.779	512.81
545.993	519.81
546.206	510.81
546.42	506.81
546.633	521.81
546.847	481.81
547.06	514.81
547.274	516.81
547.487	529.81
547.7	512.81
547.914	498.81
548.127	500.81
548.34	516.81
548.554	506.81
548.767	490.81
548.98	494.81
549.193	510.81
549.407	493.81
549.62	496.81
549.833	501.81
550.046	493.81
550.259	488.81
550.473	483.81
550.686	517.81
550.899	508.81
551.112	489.81
551.325	474.81
551.538	498.81
551.751	477.81
551.964	475.81
552.177	482.81
552.39	473.81
552.603	480.81
552.816	488.81
553.029	506.81
553.242	507.81
553.455	492.81
553.667	518.81
553.88	521.81
554.093	497.81
554.306	504.81
554.519	492.81
554.732	501.81
554.944	472.81
555.157	498.81
555.37	463.81
555.583	468.81
555.795	489.81
556.008	454.81
556.221	449.81
556.433	450.81
556.646	460.81
556.859	476.81
557.071	445.81
557.284	453.81
557.496	453.81
557.709	467.81
557.921	465.81
558.134	451.81
558.346	450.81
558.559	449.81
558.771	450.81
558.984	448.81
559.196	455.81
559.409	416.81
559.621	452.81
559.833	448.81
560.046	441.81
560.258	438.81
560.47	437.81
560.683	448.81
560.895	437.81
561.107	445.81
561.32	428.81
561.532	429.81
561.744	436.81
561.956	439.81
562.168	435.81
562.381	416.81
562.593	455.81
562.805	442.81
563.017	438.81
563.229	453.81
563.441	453.81
563.653	423.81
563.865	418.81
564.077	427.81
564.289	428.81
564.501	442.81
564.713	448.81
564.925	451.81
565.137	463.81
565.349	467.81
565.561	452.81
565.773	465.81
565.985	446.81
566.197	453.81
566.408	464.81
566.62	473.81
566.832	490.81
567.044	477.81
567.255	485.81
567.467	492.81
567.679	493.81
567.891	502.81
568.102	493.81
568.314	471.81
568.526	467.81
568.737	454.81
568.949	465.81
569.161	454.81
569.372	436.81
569.584	458.81
569.795	428.81
570.007	448.81
570.218	492.81
570.43	489.81
570.641	433.81
570.853	418.81
571.064	413.81
571.276	392.81
571.487	401.81
571.698	392.81
571.91	399.81
572.121	390.81
572.333	406.81
572.544	398.81
572.755	381.81
572.966	388.81
573.178	393.81
573.389	397.81
573.6	373.81
573.811	386.81
574.023	384.81
574.234	369.81
574.445	384.81
574.656	364.81
574.867	390.81
575.078	386.81
575.289	374.81
575.501	365.81
575.712	386.81
575.923	368.81
576.134	365.81
576.345	354.81
576.556	346.81
576.767	374.81
576.978	359.81
577.188	370.81
577.399	372.81
577.61	368.81
577.821	367.81
578.032	361.81
578.243	418.81
578.454	737.81
578.665	532.81
578.875	382.81
579.086	340.81
579.297	347.81
579.508	333.81
579.718	345.81
579.929	342.81
580.14	364.81
580.35	343.81
580.561	324.81
580.772	343.81
580.982	347.81
581.193	363.81
581.403	345.81
581.614	345.81
581.825	336.81
582.035	327.81
582.246	350.81
582.456	350.81
582.667	341.81
582.877	351.81
583.087	334.81
583.298	317.81
583.508	337.81
583.719	346.81
583.929	348.81
584.139	329.81
584.35	315.81
584.56	320.81
584.77	341.81
584.981	339.81
585.191	341.81
585.401	349.81
585.611	335.81
585.821	340.81
586.032	340.81
586.242	330.81
586.452	325.81
586.662	320.81
586.872	325.81
587.082	312.81
587.292	320.81
587.502	323.81
587.713	331.81
587.923	317.81
588.133	304.81
588.343	304.81
588.553	317.81
588.762	320.81
588.972	330.81
589.182	328.81
589.392	316.81
589.602	312.81
589.812	325.81
590.022	348.81
590.232	325.81
590.441	320.81
590.651	320.81
590.861	311.81
591.071	307.81
591.281	317.81
591.49	313.81
591.7	330.81
591.91	305.81
592.119	331.81
592.329	324.81
592.539	323.81
592.748	312.81
592.958	331.81
593.167	332.81
593.377	331.81
593.587	342.81
593.796	337.81
594.006	341.81
594.215	314.81
594.424	328.81
594.634	321.81
594.843	321.81
595.053	309.81
595.262	309.81
595.472	300.81
595.681	285.81
595.89	305.81
596.1	317.81
596.309	285.81
596.518	291.81
596.727	290.81
596.937	299.81
597.146	313.81
597.355	306.81
597.564	300.81
597.774	294.81
597.983	279.81
598.192	281.81
598.401	294.81
598.61	303.81
598.819	283.81
599.028	299.81
599.237	298.81
599.446	292.81
599.655	289.81
599.864	288.81
600.073	293.81
600.282	301.81
600.491	297.81
600.7	285.81
600.909	279.81
601.118	294.81
601.327	274.81
601.536	275.81
601.745	280.81
601.953	281.81
602.162	294.81
602.371	275.81
602.58	283.81
602.789	283.81
602.997	282.81
603.206	304.81
603.415	276.81
603.623	278.81
603.832	264.81
604.041	275.81
604.249	283.81
604.458	262.81
604.666	270.81
604.875	261.81
605.084	283.81
605.292	284.81
605.501	269.81
605.709	272.81
605.918	272.81
606.126	275.81
606.334	283.81
606.543	281.81
606.751	270.81
606.96	269.81
607.168	280.81
607.376	265.81
607.585	279.81
607.793	245.81
608.001	262.81
608.21	276.81
608.418	261.81
608.626	264.81
608.834	249.81
609.043	266.81
609.251	262.81
609.459	268.81
609.667	269.81
609.875	254.81
610.083	276.81
610.291	262.81
610.499	277.81
610.707	256.81
610.916	265.81
611.124	276.81
611.332	275.81
611.54	280.81
611.748	267.81
611.955	274.81
612.163	264.81
612.371	275.81
612.579	262.81
612.787	250.81
612.995	255.81
613.203	246.81
613.411	268.81
613.618	248.81
613.826	252.81
614.034	250.81
614.242	265.81
614.449	272.81
614.657	254.81
614.865	248.81
615.072	248.81
615.28	255.81
615.488	260.81
615.695	277.81
615.903	260.81
616.111	268.81
616.318	276.81
616.526	257.81
616.733	257.81
616.941	266.81
617.148	260.81
617.356	242.81
617.563	272.81
617.771	264.81
617.978	245.81
618.185	249.81
618.393	266.81
618.6	270.81
618.807	251.81
619.015	266.81
619.222	250.81
619.429	256.81
619.637	234.81
619.844	247.81
620.051	255.81
620.258	249.81
620.466	233.81
620.673	228.81
620.88	238.81
621.087	244.81
621.294	229.81
621.501	236.81
621.708	236.81
621.915	253.81
622.122	228.81
622.329	243.81
622.536	246.81
622.743	251.81
622.95	254.81
623.157	245.81
623.364	246.81
623.571	248.81
623.778	239.81
623.985	253.81
624.192	242.81
624.399	258.81
624.606	261.81
624.812	228.81
625.019	229.81
625.226	236.81
625.433	230.81
625.639	243.81
625.846	243.81
626.053	220.81
626.259	228.81
626.466	208.81
626.673	235.81
626.879	234.81
627.086	234.81
627.293	232.81
627.499	231.81
627.706	228.81
627.912	221.81
628.119	224.81
628.325	232.81
628.532	233.81
628.738	229.81
628.945	215.81
629.151	227.81
629.357	196.81
629.564	213.81
629.77	229.81
629.976	225.81
630.183	205.81
630.389	209.81
630.595	216.81
630.802	213.81
631.008	196.81
631.214	212.81
631.42	204.81
631.627	209.81
631.833	202.81
632.039	205.81
632.245	210.81
632.451	219.81
632.657	205.81
632.863	206.81
633.069	206.81
633.275	201.81
633.481	194.81
633.688	204.81
633.893	189.81
634.099	193.81
634.305	204.81
634.511	200.81
634.717	205.81
634.923	188.81
635.129	197.81
635.335	204.81
635.541	189.81
635.747	187.81
635.952	188.81
636.158	192.81
636.364	198.81
636.57	211.81
636.775	201.81
636.981	188.81
637.187	198.81
637.392	205.81
637.598	192.81
637.804	197.81
638.009	195.81
638.215	182.81
638.421	201.81
638.626	202.81
638.832	185.81
639.037	189.81
639.243	184.81
639.448	196.81
639.654	176.81
639.859	182.81
640.065	201.81
640.27	193.81
640.475	185.81
640.681	189.81
640.886	196.81
641.091	182.81
641.297	193.81
641.502	173.81
641.707	175.81
641.913	174.81
642.118	188.81
642.323	170.81
642.528	189.81
642.733	178.81
642.939	176.81
643.144	183.81
643.349	178.81
643.554	184.81
643.759	192.81
643.964	166.81
644.169	180.81
644.374	180.81
644.579	171.81
644.784	170.81
644.989	193.81
645.194	170.81
645.399	189.81
645.604	176.81
645.809	171.81
646.014	178.81
646.219	184.81
646.423	180.81
646.628	191.81
646.833	167.81
647.038	176.81
647.243	168.81
647.447	176.81
647.652	180.81
647.857	170.81
648.062	174.81
648.266	172.81
648.471	180.81
648.676	182.81
648.88	167.81
649.085	172.81
649.289	164.81
649.494	159.81
649.698	195.81
649.903	197.81
650.107	192.81
650.312	178.81
650.516	164.81
650.721	168.81
650.925	178.81
651.13	155.81
651.334	165.81
651.539	168.81
651.743	150.81
651.947	147.81
652.152	163.81
652.356	142.81
652.56	149.81
652.764	156.81
652.969	151.81
653.173	148.81
653.377	154.81
653.581	140.81
653.785	138.81
653.99	152.81
654.194	150.81
654.398	146.81
654.602	146.81
654.806	132.81
655.01	143.81
655.214	158.81
655.418	142.81
655.622	136.81
655.826	128.81
656.03	128.81
656.234	122.81
656.438	140.81
656.642	113.81
656.846	135.81
657.049	124.81
657.253	131.81
657.457	126.81
657.661	114.81
657.865	115.81
658.068	107.81
658.272	120.81
658.476	116.81
658.68	105.81
658.883	96.81
659.087	109.81
659.291	104.81
659.494	106.81
659.698	94.81
659.901	99.81
660.105	96.81
660.309	101.81
660.512	75.81
660.716	97.81
660.919	89.81
661.123	103.81
661.326	101.81
661.53	100.81
661.733	103.81
661.936	84.81
662.14	84.81
662.343	94.81
662.546	92.81
662.75	69.81
662.953	81.81
663.156	69.81
663.36	88.81
663.563	92.81
663.766	75.81
663.969	90.81
664.173	84.81
664.376	83.81
664.579	77.81
664.782	81.81
664.985	77.81
665.188	66.81
665.391	85.81
665.594	87.81
665.797	84.81
666	75.81
666.203	84.81
666.406	70.81
666.609	77.81
666.812	73.81
667.015	74.81
667.218	74.81
667.421	96.81
667.624	89.81
667.827	82.81
668.03	72.81
668.232	71.81
668.435	83.81
668.638	81.81
668.841	89.81
669.043	85.81
669.246	89.81
669.449	68.81
669.651	79.81
669.854	67.81
670.057	78.81
670.259	83.81
670.462	86.81
670.665	82.81
670.867	84.81
671.07	78.81
671.272	75.81
671.475	97.81
671.677	80.81
671.88	83.81
672.082	72.81
672.284	84.81
672.487	85.81
672.689	87.81
672.892	96.81
