Data from 1970.PennyLincolnUp.Lamp.En5.5.200Scan.071719.P1._HRD10591_15-13-55-842.txt Node
Date: Thu Jul 18 15:13:55 EDT 2019
User: cochatt
Spectrometer: HR+D1059
Trigger mode: 1
Integration Time (sec): 1.000000E-1
Scans to average: 1
Electric dark correction enabled: true
Nonlinearity correction enabled: false
Boxcar width: 0
XAxis mode: Wavelengths
Number of Pixels in Spectrum: 2048
>>>>>Begin Spectral Data<<<<<
223.165	-8.38
223.4	-8.38
223.635	-8.38
223.869	-15.38
224.104	-19.38
224.338	-29.38
224.573	-13.38
224.808	-20.38
225.042	-8.38
225.277	-5.38
225.511	6.62
225.746	11.62
225.98	6.62
226.215	2.62
226.449	14.62
226.683	21.62
226.918	29.62
227.152	26.62
227.387	42.62
227.621	37.62
227.856	50.62
228.09	44.62
228.324	54.62
228.559	54.62
228.793	66.62
229.027	99.62
229.262	101.62
229.496	112.62
229.73	140.62
229.964	171.62
230.199	137.62
230.433	123.62
230.667	117.62
230.901	103.62
231.136	110.62
231.37	107.62
231.604	116.62
231.838	116.62
232.072	118.62
232.306	124.62
232.541	115.62
232.775	118.62
233.009	126.62
233.243	119.62
233.477	121.62
233.711	117.62
233.945	121.62
234.179	111.62
234.413	121.62
234.647	117.62
234.881	132.62
235.115	119.62
235.349	110.62
235.583	116.62
235.817	130.62
236.051	131.62
236.285	132.62
236.519	129.62
236.753	132.62
236.987	157.62
237.221	203.62
237.455	251.62
237.689	190.62
237.922	156.62
238.156	137.62
238.39	126.62
238.624	140.62
238.858	135.62
239.091	129.62
239.325	134.62
239.559	139.62
239.793	134.62
240.027	150.62
240.26	142.62
240.494	171.62
240.728	168.62
240.961	166.62
241.195	150.62
241.429	141.62
241.662	142.62
241.896	136.62
242.13	141.62
242.363	136.62
242.597	150.62
242.83	148.62
243.064	151.62
243.298	153.62
243.531	149.62
243.765	158.62
243.998	143.62
244.232	145.62
244.465	144.62
244.699	143.62
244.932	140.62
245.166	148.62
245.399	147.62
245.633	152.62
245.866	152.62
246.099	153.62
246.333	163.62
246.566	162.62
246.8	158.62
247.033	152.62
247.266	163.62
247.5	174.62
247.733	196.62
247.966	197.62
248.2	182.62
248.433	191.62
248.666	194.62
248.899	201.62
249.133	208.62
249.366	209.62
249.599	213.62
249.832	198.62
250.066	198.62
250.299	198.62
250.532	183.62
250.765	203.62
250.998	227.62
251.231	235.62
251.465	211.62
251.698	224.62
251.931	207.62
252.164	216.62
252.397	209.62
252.63	207.62
252.863	222.62
253.096	217.62
253.329	246.62
253.562	262.62
253.795	242.62
254.028	247.62
254.261	234.62
254.494	245.62
254.727	260.62
254.96	287.62
255.193	302.62
255.426	263.62
255.659	242.62
255.892	245.62
256.124	238.62
256.357	276.62
256.59	247.62
256.823	216.62
257.056	232.62
257.289	226.62
257.521	231.62
257.754	225.62
257.987	237.62
258.22	219.62
258.452	217.62
258.685	227.62
258.918	220.62
259.151	229.62
259.383	230.62
259.616	227.62
259.849	226.62
260.081	252.62
260.314	270.62
260.547	271.62
260.779	258.62
261.012	260.62
261.244	228.62
261.477	234.62
261.71	224.62
261.942	244.62
262.175	251.62
262.407	230.62
262.64	233.62
262.872	196.62
263.105	207.62
263.337	215.62
263.57	217.62
263.802	220.62
264.035	215.62
264.267	208.62
264.499	203.62
264.732	210.62
264.964	202.62
265.197	214.62
265.429	226.62
265.661	222.62
265.894	214.62
266.126	219.62
266.358	220.62
266.591	220.62
266.823	228.62
267.055	232.62
267.287	236.62
267.52	228.62
267.752	235.62
267.984	241.62
268.216	251.62
268.448	234.62
268.681	232.62
268.913	239.62
269.145	250.62
269.377	286.62
269.609	293.62
269.841	280.62
270.073	279.62
270.306	308.62
270.538	338.62
270.77	308.62
271.002	322.62
271.234	298.62
271.466	303.62
271.698	333.62
271.93	315.62
272.162	334.62
272.394	319.62
272.626	299.62
272.858	303.62
273.09	286.62
273.322	266.62
273.553	267.62
273.785	276.62
274.017	269.62
274.249	274.62
274.481	268.62
274.713	275.62
274.945	265.62
275.176	271.62
275.408	267.62
275.64	267.62
275.872	273.62
276.104	258.62
276.335	262.62
276.567	267.62
276.799	292.62
277.031	315.62
277.262	295.62
277.494	314.62
277.726	314.62
277.957	301.62
278.189	285.62
278.421	270.62
278.652	261.62
278.884	236.62
279.115	254.62
279.347	274.62
279.579	282.62
279.81	258.62
280.042	244.62
280.273	260.62
280.505	254.62
280.736	252.62
280.968	250.62
281.199	246.62
281.431	256.62
281.662	250.62
281.894	255.62
282.125	270.62
282.356	259.62
282.588	303.62
282.819	298.62
283.051	282.62
283.282	262.62
283.513	255.62
283.745	269.62
283.976	278.62
284.207	280.62
284.439	290.62
284.67	277.62
284.901	286.62
285.132	259.62
285.364	262.62
285.595	264.62
285.826	258.62
286.057	266.62
286.288	245.62
286.52	264.62
286.751	258.62
286.982	278.62
287.213	258.62
287.444	280.62
287.675	272.62
287.906	281.62
288.138	289.62
288.369	270.62
288.6	296.62
288.831	299.62
289.062	292.62
289.293	286.62
289.524	280.62
289.755	276.62
289.986	267.62
290.217	274.62
290.448	262.62
290.679	278.62
290.91	279.62
291.141	266.62
291.371	274.62
291.602	267.62
291.833	274.62
292.064	266.62
292.295	274.62
292.526	272.62
292.757	276.62
292.987	287.62
293.218	266.62
293.449	273.62
293.68	283.62
293.91	275.62
294.141	275.62
294.372	281.62
294.603	271.62
294.833	272.62
295.064	264.62
295.295	274.62
295.525	286.62
295.756	283.62
295.987	297.62
296.217	295.62
296.448	314.62
296.679	293.62
296.909	278.62
297.14	282.62
297.37	275.62
297.601	274.62
297.831	274.62
298.062	275.62
298.292	288.62
298.523	308.62
298.753	290.62
298.984	279.62
299.214	274.62
299.445	296.62
299.675	288.62
299.905	291.62
300.136	294.62
300.366	293.62
300.597	311.62
300.827	303.62
301.057	306.62
301.288	322.62
301.518	290.62
301.748	316.62
301.979	301.62
302.209	308.62
302.439	333.62
302.669	295.62
302.9	331.62
303.13	308.62
303.36	308.62
303.59	319.62
303.82	336.62
304.051	313.62
304.281	317.62
304.511	315.62
304.741	298.62
304.971	299.62
305.201	301.62
305.431	298.62
305.661	308.62
305.891	308.62
306.121	306.62
306.352	339.62
306.582	317.62
306.812	330.62
307.042	319.62
307.272	325.62
307.502	317.62
307.731	326.62
307.961	310.62
308.191	350.62
308.421	308.62
308.651	310.62
308.881	348.62
309.111	340.62
309.341	330.62
309.571	361.62
309.8	344.62
310.03	366.62
310.26	363.62
310.49	363.62
310.72	359.62
310.949	367.62
311.179	364.62
311.409	373.62
311.639	355.62
311.868	337.62
312.098	376.62
312.328	365.62
312.557	390.62
312.787	418.62
313.017	398.62
313.246	382.62
313.476	352.62
313.706	367.62
313.935	393.62
314.165	375.62
314.394	374.62
314.624	379.62
314.853	380.62
315.083	378.62
315.312	368.62
315.542	360.62
315.771	360.62
316.001	359.62
316.23	381.62
316.46	356.62
316.689	368.62
316.919	396.62
317.148	371.62
317.377	358.62
317.607	377.62
317.836	376.62
318.065	367.62
318.295	350.62
318.524	356.62
318.753	359.62
318.983	377.62
319.212	362.62
319.441	381.62
319.67	363.62
319.9	380.62
320.129	365.62
320.358	363.62
320.587	376.62
320.816	382.62
321.046	388.62
321.275	396.62
321.504	381.62
321.733	414.62
321.962	424.62
322.191	427.62
322.42	430.62
322.649	436.62
322.878	427.62
323.108	445.62
323.337	468.62
323.566	518.62
323.795	552.62
324.024	580.62
324.253	695.62
324.482	1020.62
324.71	1550.62
324.939	2160.62
325.168	1854.62
325.397	981.62
325.626	671.62
325.855	563.62
326.084	534.62
326.313	494.62
326.542	507.62
326.77	543.62
326.999	631.62
327.228	911.62
327.457	1328.62
327.686	1607.62
327.914	1132.62
328.143	738.62
328.372	640.62
328.6	610.62
328.829	566.62
329.058	583.62
329.287	585.62
329.515	552.62
329.744	534.62
329.972	522.62
330.201	539.62
330.43	577.62
330.658	593.62
330.887	632.62
331.115	610.62
331.344	536.62
331.572	513.62
331.801	483.62
332.03	488.62
332.258	475.62
332.486	461.62
332.715	465.62
332.943	445.62
333.172	455.62
333.4	448.62
333.629	458.62
333.857	453.62
334.085	471.62
334.314	474.62
334.542	514.62
334.771	526.62
334.999	478.62
335.227	456.62
335.455	444.62
335.684	446.62
335.912	444.62
336.14	426.62
336.369	424.62
336.597	448.62
336.825	446.62
337.053	429.62
337.281	458.62
337.51	407.62
337.738	419.62
337.966	435.62
338.194	418.62
338.422	432.62
338.65	423.62
338.878	421.62
339.106	411.62
339.334	425.62
339.562	433.62
339.79	410.62
340.018	413.62
340.246	420.62
340.474	416.62
340.702	439.62
340.93	435.62
341.158	437.62
341.386	444.62
341.614	441.62
341.842	415.62
342.07	419.62
342.298	413.62
342.526	393.62
342.754	400.62
342.981	380.62
343.209	394.62
343.437	402.62
343.665	388.62
343.893	418.62
344.12	416.62
344.348	424.62
344.576	423.62
344.804	425.62
345.031	431.62
345.259	429.62
345.487	441.62
345.714	447.62
345.942	431.62
346.17	415.62
346.397	404.62
346.625	403.62
346.853	423.62
347.08	403.62
347.308	416.62
347.535	427.62
347.763	420.62
347.99	428.62
348.218	426.62
348.445	453.62
348.673	422.62
348.9	413.62
349.128	412.62
349.355	396.62
349.583	403.62
349.81	418.62
350.037	406.62
350.265	399.62
350.492	391.62
350.72	382.62
350.947	430.62
351.174	421.62
351.402	427.62
351.629	422.62
351.856	430.62
352.083	446.62
352.311	459.62
352.538	438.62
352.765	446.62
352.992	422.62
353.22	423.62
353.447	409.62
353.674	414.62
353.901	404.62
354.128	401.62
354.355	393.62
354.583	393.62
354.81	379.62
355.037	381.62
355.264	396.62
355.491	392.62
355.718	393.62
355.945	389.62
356.172	396.62
356.399	380.62
356.626	373.62
356.853	384.62
357.08	404.62
357.307	383.62
357.534	380.62
357.761	388.62
357.988	391.62
358.215	394.62
358.441	401.62
358.668	400.62
358.895	411.62
359.122	420.62
359.349	412.62
359.576	416.62
359.802	471.62
360.029	480.62
360.256	482.62
360.483	461.62
360.709	439.62
360.936	440.62
361.163	434.62
361.39	435.62
361.616	429.62
361.843	413.62
362.07	424.62
362.296	412.62
362.523	414.62
362.749	419.62
362.976	422.62
363.203	413.62
363.429	414.62
363.656	418.62
363.882	416.62
364.109	412.62
364.335	403.62
364.562	418.62
364.788	399.62
365.015	404.62
365.241	411.62
365.468	428.62
365.694	420.62
365.92	422.62
366.147	410.62
366.373	431.62
366.599	405.62
366.826	402.62
367.052	398.62
367.278	408.62
367.505	401.62
367.731	414.62
367.957	398.62
368.184	407.62
368.41	418.62
368.636	422.62
368.862	429.62
369.089	426.62
369.315	412.62
369.541	406.62
369.767	417.62
369.993	415.62
370.219	393.62
370.445	399.62
370.672	426.62
370.898	401.62
371.124	423.62
371.35	411.62
371.576	420.62
371.802	406.62
372.028	412.62
372.254	412.62
372.48	404.62
372.706	407.62
372.932	417.62
373.158	421.62
373.384	430.62
373.61	410.62
373.835	431.62
374.061	422.62
374.287	413.62
374.513	422.62
374.739	405.62
374.965	407.62
375.191	406.62
375.416	424.62
375.642	413.62
375.868	429.62
376.094	386.62
376.319	405.62
376.545	399.62
376.771	414.62
376.997	418.62
377.222	394.62
377.448	406.62
377.674	416.62
377.899	399.62
378.125	407.62
378.35	416.62
378.576	410.62
378.802	404.62
379.027	413.62
379.253	404.62
379.478	403.62
379.704	419.62
379.929	412.62
380.155	392.62
380.38	400.62
380.606	413.62
380.831	415.62
381.057	419.62
381.282	412.62
381.507	398.62
381.733	425.62
381.958	404.62
382.184	418.62
382.409	414.62
382.634	417.62
382.86	408.62
383.085	434.62
383.31	425.62
383.535	431.62
383.761	395.62
383.986	430.62
384.211	420.62
384.436	434.62
384.662	442.62
384.887	428.62
385.112	450.62
385.337	420.62
385.562	429.62
385.787	445.62
386.013	439.62
386.238	453.62
386.463	455.62
386.688	442.62
386.913	430.62
387.138	432.62
387.363	435.62
387.588	434.62
387.813	436.62
388.038	458.62
388.263	441.62
388.488	445.62
388.713	431.62
388.938	446.62
389.163	444.62
389.387	440.62
389.612	435.62
389.837	416.62
390.062	438.62
390.287	446.62
390.512	448.62
390.736	426.62
390.961	452.62
391.186	454.62
391.411	436.62
391.636	442.62
391.86	427.62
392.085	468.62
392.31	447.62
392.534	470.62
392.759	448.62
392.984	447.62
393.208	461.62
393.433	487.62
393.658	440.62
393.882	462.62
394.107	440.62
394.331	456.62
394.556	458.62
394.78	442.62
395.005	446.62
395.229	467.62
395.454	434.62
395.678	457.62
395.903	450.62
396.127	471.62
396.352	494.62
396.576	471.62
396.801	462.62
397.025	464.62
397.249	474.62
397.474	474.62
397.698	479.62
397.922	490.62
398.147	495.62
398.371	532.62
398.595	502.62
398.82	502.62
399.044	504.62
399.268	524.62
399.492	529.62
399.717	568.62
399.941	570.62
400.165	584.62
400.389	610.62
400.613	554.62
400.837	539.62
401.062	522.62
401.286	498.62
401.51	525.62
401.734	516.62
401.958	534.62
402.182	520.62
402.406	529.62
402.63	518.62
402.854	503.62
403.078	508.62
403.302	518.62
403.526	513.62
403.75	531.62
403.974	518.62
404.198	521.62
404.422	536.62
404.645	548.62
404.869	529.62
405.093	559.62
405.317	613.62
405.541	632.62
405.765	598.62
405.988	572.62
406.212	582.62
406.436	579.62
406.66	597.62
406.883	587.62
407.107	597.62
407.331	646.62
407.555	698.62
407.778	700.62
408.002	631.62
408.226	614.62
408.449	603.62
408.673	557.62
408.896	594.62
409.12	638.62
409.344	596.62
409.567	550.62
409.791	543.62
410.014	540.62
410.238	528.62
410.461	549.62
410.685	552.62
410.908	560.62
411.132	586.62
411.355	642.62
411.578	587.62
411.802	552.62
412.025	517.62
412.249	520.62
412.472	555.62
412.695	614.62
412.919	578.62
413.142	551.62
413.365	542.62
413.589	502.62
413.812	517.62
414.035	511.62
414.258	495.62
414.482	491.62
414.705	498.62
414.928	506.62
415.151	514.62
415.374	522.62
415.597	513.62
415.821	514.62
416.044	502.62
416.267	527.62
416.49	499.62
416.713	506.62
416.936	494.62
417.159	505.62
417.382	538.62
417.605	519.62
417.828	532.62
418.051	537.62
418.274	540.62
418.497	517.62
418.72	512.62
418.943	520.62
419.166	528.62
419.389	557.62
419.611	554.62
419.834	551.62
420.057	543.62
420.28	542.62
420.503	556.62
420.726	542.62
420.948	544.62
421.171	611.62
421.394	626.62
421.617	568.62
421.839	554.62
422.062	563.62
422.285	554.62
422.507	624.62
422.73	687.62
422.953	646.62
423.175	603.62
423.398	585.62
423.621	562.62
423.843	573.62
424.066	598.62
424.288	588.62
424.511	603.62
424.733	656.62
424.956	727.62
425.178	718.62
425.401	732.62
425.623	765.62
425.846	648.62
426.068	584.62
426.291	588.62
426.513	590.62
426.735	586.62
426.958	655.62
427.18	730.62
427.402	847.62
427.625	950.62
427.847	854.62
428.069	745.62
428.292	669.62
428.514	602.62
428.736	568.62
428.958	577.62
429.181	552.62
429.403	555.62
429.625	553.62
429.847	604.62
430.069	671.62
430.292	668.62
430.514	578.62
430.736	568.62
430.958	555.62
431.18	532.62
431.402	542.62
431.624	519.62
431.846	521.62
432.068	512.62
432.29	519.62
432.512	533.62
432.734	535.62
432.956	531.62
433.178	521.62
433.4	554.62
433.622	541.62
433.844	506.62
434.066	500.62
434.287	518.62
434.509	527.62
434.731	516.62
434.953	523.62
435.175	541.62
435.397	584.62
435.618	599.62
435.84	630.62
436.062	719.62
436.284	795.62
436.505	684.62
436.727	605.62
436.949	586.62
437.17	569.62
437.392	579.62
437.614	593.62
437.835	618.62
438.057	730.62
438.278	824.62
438.5	820.62
438.721	872.62
438.943	811.62
439.165	682.62
439.386	622.62
439.608	600.62
439.829	603.62
440.05	655.62
440.272	696.62
440.493	644.62
440.715	607.62
440.936	591.62
441.158	576.62
441.379	562.62
441.6	546.62
441.822	604.62
442.043	630.62
442.264	724.62
442.486	757.62
442.707	652.62
442.928	631.62
443.149	629.62
443.371	638.62
443.592	695.62
443.813	777.62
444.034	822.62
444.255	708.62
444.476	619.62
444.698	594.62
444.919	605.62
445.14	707.62
445.361	644.62
445.582	631.62
445.803	696.62
446.024	813.62
446.245	786.62
446.466	726.62
446.687	653.62
446.908	598.62
447.129	584.62
447.35	580.62
447.571	573.62
447.792	546.62
448.013	562.62
448.234	581.62
448.455	641.62
448.675	751.62
448.896	830.62
449.117	716.62
449.338	692.62
449.559	803.62
449.779	876.62
450	744.62
450.221	602.62
450.442	567.62
450.662	553.62
450.883	559.62
451.104	575.62
451.324	567.62
451.545	546.62
451.766	520.62
451.986	486.62
452.207	488.62
452.428	501.62
452.648	507.62
452.869	478.62
453.089	524.62
453.31	512.62
453.53	500.62
453.751	514.62
453.971	517.62
454.192	527.62
454.412	499.62
454.633	522.62
454.853	483.62
455.073	504.62
455.294	537.62
455.514	601.62
455.734	603.62
455.955	508.62
456.175	457.62
456.395	469.62
456.616	477.62
456.836	465.62
457.056	461.62
457.276	466.62
457.497	448.62
457.717	467.62
457.937	466.62
458.157	466.62
458.377	471.62
458.598	509.62
458.818	559.62
459.038	650.62
459.258	670.62
459.478	576.62
459.698	520.62
459.918	522.62
460.138	513.62
460.358	504.62
460.578	519.62
460.798	538.62
461.018	511.62
461.238	534.62
461.458	515.62
461.678	493.62
461.898	513.62
462.118	503.62
462.338	507.62
462.558	506.62
462.777	518.62
462.997	523.62
463.217	530.62
463.437	548.62
463.657	554.62
463.876	542.62
464.096	549.62
464.316	539.62
464.536	553.62
464.755	542.62
464.975	548.62
465.195	621.62
465.414	699.62
465.634	599.62
465.854	566.62
466.073	547.62
466.293	536.62
466.512	507.62
466.732	478.62
466.951	508.62
467.171	492.62
467.391	523.62
467.61	506.62
467.829	516.62
468.049	530.62
468.268	523.62
468.488	511.62
468.707	493.62
468.927	489.62
469.146	491.62
469.365	488.62
469.585	497.62
469.804	504.62
470.023	540.62
470.243	514.62
470.462	521.62
470.681	527.62
470.901	534.62
471.12	514.62
471.339	506.62
471.558	542.62
471.777	527.62
471.997	519.62
472.216	525.62
472.435	536.62
472.654	552.62
472.873	543.62
473.092	521.62
473.311	523.62
473.53	522.62
473.749	546.62
473.968	539.62
474.187	678.62
474.406	706.62
474.625	610.62
474.844	565.62
475.063	527.62
475.282	519.62
475.501	502.62
475.72	523.62
475.939	532.62
476.158	532.62
476.377	557.62
476.596	544.62
476.814	554.62
477.033	544.62
477.252	565.62
477.471	562.62
477.69	559.62
477.908	581.62
478.127	568.62
478.346	568.62
478.564	566.62
478.783	571.62
479.002	578.62
479.22	590.62
479.439	602.62
479.658	619.62
479.876	617.62
480.095	626.62
480.313	662.62
480.532	631.62
480.751	592.62
480.969	644.62
481.188	727.62
481.406	752.62
481.624	684.62
481.843	653.62
482.061	632.62
482.28	613.62
482.498	644.62
482.717	604.62
482.935	632.62
483.153	620.62
483.372	604.62
483.59	606.62
483.808	640.62
484.027	633.62
484.245	627.62
484.463	627.62
484.681	627.62
484.9	621.62
485.118	648.62
485.336	650.62
485.554	647.62
485.772	638.62
485.99	645.62
486.209	619.62
486.427	639.62
486.645	679.62
486.863	674.62
487.081	684.62
487.299	698.62
487.517	676.62
487.735	666.62
487.953	662.62
488.171	655.62
488.389	644.62
488.607	662.62
488.825	694.62
489.043	677.62
489.261	686.62
489.479	679.62
489.696	673.62
489.914	682.62
490.132	686.62
490.35	699.62
490.568	716.62
490.786	711.62
491.003	724.62
491.221	747.62
491.439	746.62
491.657	798.62
491.874	810.62
492.092	772.62
492.31	784.62
492.527	763.62
492.745	808.62
492.963	799.62
493.18	812.62
493.398	812.62
493.615	811.62
493.833	815.62
494.05	825.62
494.268	820.62
494.485	812.62
494.703	788.62
494.92	816.62
495.138	805.62
495.355	810.62
495.573	844.62
495.79	816.62
496.008	836.62
496.225	812.62
496.442	823.62
496.66	834.62
496.877	803.62
497.094	797.62
497.312	840.62
497.529	840.62
497.746	854.62
497.963	828.62
498.181	896.62
498.398	850.62
498.615	854.62
498.832	880.62
499.049	889.62
499.267	886.62
499.484	919.62
499.701	930.62
499.918	928.62
500.135	984.62
500.352	1005.62
500.569	993.62
500.786	1010.62
501.003	1012.62
501.22	983.62
501.437	987.62
501.654	956.62
501.871	1001.62
502.088	952.62
502.305	928.62
502.522	910.62
502.739	893.62
502.956	855.62
503.172	826.62
503.389	818.62
503.606	824.62
503.823	853.62
504.04	835.62
504.256	800.62
504.473	790.62
504.69	806.62
504.907	798.62
505.123	792.62
505.34	803.62
505.557	781.62
505.773	784.62
505.99	773.62
506.207	795.62
506.423	790.62
506.64	772.62
506.856	765.62
507.073	754.62
507.289	763.62
507.506	741.62
507.722	786.62
507.939	812.62
508.155	779.62
508.372	763.62
508.588	735.62
508.805	774.62
509.021	761.62
509.238	769.62
509.454	762.62
509.67	770.62
509.887	712.62
510.103	754.62
510.319	748.62
510.536	873.62
510.752	1371.62
510.968	1129.62
511.184	785.62
511.401	720.62
511.617	733.62
511.833	708.62
512.049	703.62
512.265	692.62
512.481	711.62
512.698	690.62
512.914	698.62
513.13	701.62
513.346	704.62
513.562	694.62
513.778	696.62
513.994	693.62
514.21	724.62
514.426	743.62
514.642	807.62
514.858	825.62
515.074	867.62
515.29	1060.62
515.506	1507.62
515.721	1255.62
515.937	851.62
516.153	770.62
516.369	742.62
516.585	742.62
516.801	727.62
517.016	719.62
517.232	743.62
517.448	708.62
517.664	730.62
517.879	698.62
518.095	702.62
518.311	702.62
518.527	688.62
518.742	674.62
518.958	668.62
519.173	682.62
519.389	709.62
519.605	714.62
519.82	686.62
520.036	701.62
520.251	742.62
520.467	768.62
520.682	780.62
520.898	774.62
521.113	805.62
521.329	848.62
521.544	975.62
521.76	1183.62
521.975	1960.62
522.19	1920.62
522.406	1072.62
522.621	822.62
522.836	739.62
523.052	702.62
523.267	664.62
523.482	668.62
523.698	667.62
523.913	655.62
524.128	626.62
524.343	638.62
524.559	630.62
524.774	614.62
524.989	630.62
525.204	621.62
525.419	610.62
525.634	584.62
525.849	622.62
526.064	610.62
526.28	595.62
526.495	600.62
526.71	570.62
526.925	568.62
527.14	550.62
527.355	559.62
527.57	589.62
527.785	564.62
527.999	572.62
528.214	551.62
528.429	578.62
528.644	566.62
528.859	594.62
529.074	593.62
529.289	607.62
529.503	700.62
529.718	666.62
529.933	626.62
530.148	585.62
530.363	581.62
530.577	576.62
530.792	549.62
531.007	542.62
531.221	562.62
531.436	560.62
531.651	530.62
531.865	534.62
532.08	534.62
532.295	541.62
532.509	546.62
532.724	538.62
532.938	520.62
533.153	535.62
533.367	540.62
533.582	562.62
533.796	546.62
534.011	534.62
534.225	509.62
534.44	524.62
534.654	532.62
534.868	524.62
535.083	520.62
535.297	531.62
535.511	548.62
535.726	548.62
535.94	550.62
536.154	530.62
536.369	535.62
536.583	512.62
536.797	529.62
537.011	540.62
537.225	522.62
537.44	531.62
537.654	504.62
537.868	508.62
538.082	536.62
538.296	522.62
538.51	532.62
538.724	546.62
538.938	524.62
539.153	535.62
539.367	544.62
539.581	524.62
539.795	535.62
540.009	542.62
540.222	506.62
540.436	524.62
540.65	524.62
540.864	520.62
541.078	526.62
541.292	535.62
541.506	539.62
541.72	511.62
541.934	515.62
542.147	538.62
542.361	518.62
542.575	512.62
542.789	527.62
543.002	539.62
543.216	515.62
543.43	480.62
543.644	514.62
543.857	490.62
544.071	518.62
544.285	535.62
544.498	518.62
544.712	517.62
544.925	503.62
545.139	486.62
545.352	490.62
545.566	490.62
545.779	483.62
545.993	490.62
546.206	499.62
546.42	493.62
546.633	492.62
546.847	484.62
547.06	513.62
547.274	479.62
547.487	493.62
547.7	502.62
547.914	495.62
548.127	485.62
548.34	471.62
548.554	472.62
548.767	502.62
548.98	487.62
549.193	471.62
549.407	465.62
549.62	473.62
549.833	470.62
550.046	482.62
550.259	492.62
550.473	465.62
550.686	478.62
550.899	496.62
551.112	493.62
551.325	491.62
551.538	476.62
551.751	452.62
551.964	473.62
552.177	483.62
552.39	487.62
552.603	482.62
552.816	496.62
553.029	478.62
553.242	469.62
553.455	488.62
553.667	473.62
553.88	508.62
554.093	490.62
554.306	499.62
554.519	464.62
554.732	464.62
554.944	477.62
555.157	470.62
555.37	490.62
555.583	490.62
555.795	475.62
556.008	478.62
556.221	444.62
556.433	472.62
556.646	448.62
556.859	457.62
557.071	437.62
557.284	432.62
557.496	438.62
557.709	423.62
557.921	434.62
558.134	458.62
558.346	447.62
558.559	436.62
558.771	421.62
558.984	439.62
559.196	448.62
559.409	429.62
559.621	432.62
559.833	439.62
560.046	444.62
560.258	425.62
560.47	447.62
560.683	445.62
560.895	417.62
561.107	414.62
561.32	425.62
561.532	428.62
561.744	418.62
561.956	440.62
562.168	445.62
562.381	430.62
562.593	440.62
562.805	408.62
563.017	437.62
563.229	434.62
563.441	421.62
563.653	421.62
563.865	435.62
564.077	440.62
564.289	439.62
564.501	438.62
564.713	440.62
564.925	456.62
565.137	448.62
565.349	444.62
565.561	444.62
565.773	451.62
565.985	461.62
566.197	456.62
566.408	474.62
566.62	488.62
566.832	492.62
567.044	491.62
567.255	484.62
567.467	483.62
567.679	478.62
567.891	502.62
568.102	502.62
568.314	483.62
568.526	480.62
568.737	475.62
568.949	479.62
569.161	444.62
569.372	416.62
569.584	426.62
569.795	435.62
570.007	431.62
570.218	481.62
570.43	467.62
570.641	410.62
570.853	440.62
571.064	412.62
571.276	405.62
571.487	392.62
571.698	418.62
571.91	405.62
572.121	392.62
572.333	403.62
572.544	391.62
572.755	370.62
572.966	391.62
573.178	358.62
573.389	381.62
573.6	374.62
573.811	379.62
574.023	378.62
574.234	363.62
574.445	374.62
574.656	358.62
574.867	376.62
575.078	360.62
575.289	355.62
575.501	387.62
575.712	363.62
575.923	364.62
576.134	380.62
576.345	362.62
576.556	361.62
576.767	350.62
576.978	367.62
577.188	374.62
577.399	349.62
577.61	362.62
577.821	346.62
578.032	352.62
578.243	401.62
578.454	672.62
578.665	501.62
578.875	372.62
579.086	352.62
579.297	326.62
579.508	350.62
579.718	346.62
579.929	351.62
580.14	350.62
580.35	349.62
580.561	340.62
580.772	359.62
580.982	329.62
581.193	330.62
581.403	338.62
581.614	331.62
581.825	340.62
582.035	350.62
582.246	322.62
582.456	338.62
582.667	335.62
582.877	346.62
583.087	337.62
583.298	322.62
583.508	328.62
583.719	322.62
583.929	334.62
584.139	314.62
584.35	325.62
584.56	332.62
584.77	341.62
584.981	334.62
585.191	330.62
585.401	343.62
585.611	330.62
585.821	328.62
586.032	317.62
586.242	323.62
586.452	331.62
586.662	339.62
586.872	311.62
587.082	314.62
587.292	322.62
587.502	326.62
587.713	324.62
587.923	323.62
588.133	328.62
588.343	327.62
588.553	321.62
588.762	328.62
588.972	314.62
589.182	320.62
589.392	334.62
589.602	307.62
589.812	338.62
590.022	330.62
590.232	331.62
590.441	323.62
590.651	327.62
590.861	320.62
591.071	313.62
591.281	307.62
591.49	310.62
591.7	315.62
591.91	311.62
592.119	308.62
592.329	314.62
592.539	331.62
592.748	311.62
592.958	318.62
593.167	325.62
593.377	327.62
593.587	343.62
593.796	321.62
594.006	314.62
594.215	312.62
594.424	334.62
594.634	315.62
594.843	320.62
595.053	319.62
595.262	325.62
595.472	320.62
595.681	326.62
595.89	313.62
596.1	324.62
596.309	324.62
596.518	306.62
596.727	317.62
596.937	300.62
597.146	304.62
597.355	294.62
597.564	301.62
597.774	312.62
597.983	278.62
598.192	298.62
598.401	290.62
598.61	285.62
598.819	295.62
599.028	291.62
599.237	302.62
599.446	294.62
599.655	308.62
599.864	282.62
600.073	296.62
600.282	272.62
600.491	281.62
600.7	286.62
600.909	267.62
601.118	286.62
601.327	271.62
601.536	274.62
601.745	276.62
601.953	264.62
602.162	288.62
602.371	289.62
602.58	301.62
602.789	290.62
602.997	278.62
603.206	287.62
603.415	264.62
603.623	273.62
603.832	272.62
604.041	256.62
604.249	279.62
604.458	279.62
604.666	280.62
604.875	264.62
605.084	279.62
605.292	278.62
605.501	272.62
605.709	270.62
605.918	275.62
606.126	276.62
606.334	282.62
606.543	285.62
606.751	275.62
606.96	265.62
607.168	280.62
607.376	281.62
607.585	264.62
607.793	284.62
608.001	265.62
608.21	262.62
608.418	277.62
608.626	278.62
608.834	260.62
609.043	272.62
609.251	269.62
609.459	264.62
609.667	253.62
609.875	266.62
610.083	251.62
610.291	271.62
610.499	235.62
610.707	266.62
610.916	265.62
611.124	278.62
611.332	271.62
611.54	271.62
611.748	269.62
611.955	274.62
612.163	256.62
612.371	266.62
612.579	270.62
612.787	262.62
612.995	253.62
613.203	258.62
613.411	267.62
613.618	276.62
613.826	260.62
614.034	249.62
614.242	246.62
614.449	261.62
614.657	251.62
614.865	246.62
615.072	260.62
615.28	252.62
615.488	263.62
615.695	262.62
615.903	246.62
616.111	243.62
616.318	266.62
616.526	247.62
616.733	254.62
616.941	246.62
617.148	248.62
617.356	244.62
617.563	249.62
617.771	245.62
617.978	236.62
618.185	256.62
618.393	257.62
618.6	259.62
618.807	278.62
619.015	249.62
619.222	254.62
619.429	250.62
619.637	238.62
619.844	232.62
620.051	234.62
620.258	237.62
620.466	230.62
620.673	244.62
620.88	237.62
621.087	242.62
621.294	234.62
621.501	231.62
621.708	253.62
621.915	241.62
622.122	259.62
622.329	226.62
622.536	226.62
622.743	242.62
622.95	240.62
623.157	224.62
623.364	231.62
623.571	219.62
623.778	235.62
623.985	254.62
624.192	228.62
624.399	228.62
624.606	231.62
624.812	243.62
625.019	236.62
625.226	226.62
625.433	229.62
625.639	238.62
625.846	219.62
626.053	223.62
626.259	213.62
626.466	211.62
626.673	225.62
626.879	211.62
627.086	227.62
627.293	212.62
627.499	196.62
627.706	227.62
627.912	215.62
628.119	228.62
628.325	223.62
628.532	222.62
628.738	209.62
628.945	219.62
629.151	220.62
629.357	211.62
629.564	220.62
629.77	218.62
629.976	200.62
630.183	206.62
630.389	205.62
630.595	222.62
630.802	208.62
631.008	211.62
631.214	207.62
631.42	223.62
631.627	223.62
631.833	214.62
632.039	204.62
632.245	208.62
632.451	198.62
632.657	194.62
632.863	195.62
633.069	207.62
633.275	209.62
633.481	206.62
633.688	207.62
633.893	219.62
634.099	204.62
634.305	198.62
634.511	197.62
634.717	195.62
634.923	213.62
635.129	188.62
635.335	189.62
635.541	206.62
635.747	199.62
635.952	192.62
636.158	190.62
636.364	194.62
636.57	183.62
636.775	194.62
636.981	197.62
637.187	180.62
637.392	184.62
637.598	188.62
637.804	189.62
638.009	195.62
638.215	203.62
638.421	199.62
638.626	186.62
638.832	191.62
639.037	188.62
639.243	181.62
639.448	178.62
639.654	186.62
639.859	183.62
640.065	192.62
640.27	193.62
640.475	181.62
640.681	186.62
640.886	195.62
641.091	197.62
641.297	189.62
641.502	178.62
641.707	174.62
641.913	182.62
642.118	188.62
642.323	189.62
642.528	170.62
642.733	178.62
642.939	175.62
643.144	173.62
643.349	168.62
643.554	188.62
643.759	174.62
643.964	188.62
644.169	166.62
644.374	178.62
644.579	169.62
644.784	182.62
644.989	173.62
645.194	169.62
645.399	163.62
645.604	173.62
645.809	170.62
646.014	189.62
646.219	180.62
646.423	159.62
646.628	184.62
646.833	176.62
647.038	185.62
647.243	154.62
647.447	181.62
647.652	192.62
647.857	179.62
648.062	175.62
648.266	167.62
648.471	175.62
648.676	180.62
648.88	185.62
649.085	186.62
649.289	190.62
649.494	184.62
649.698	202.62
649.903	194.62
650.107	176.62
650.312	172.62
650.516	174.62
650.721	159.62
650.925	178.62
651.13	150.62
651.334	162.62
651.539	163.62
651.743	155.62
651.947	144.62
652.152	156.62
652.356	164.62
652.56	165.62
652.764	158.62
652.969	154.62
653.173	154.62
653.377	151.62
653.581	157.62
653.785	140.62
653.99	130.62
654.194	133.62
654.398	143.62
654.602	138.62
654.806	143.62
655.01	162.62
655.214	136.62
655.418	136.62
655.622	142.62
655.826	128.62
656.03	136.62
656.234	135.62
656.438	131.62
656.642	125.62
656.846	130.62
657.049	142.62
657.253	128.62
657.457	130.62
657.661	126.62
657.865	121.62
658.068	119.62
658.272	118.62
658.476	123.62
658.68	119.62
658.883	117.62
659.087	106.62
659.291	104.62
659.494	109.62
659.698	96.62
659.901	105.62
660.105	106.62
660.309	97.62
660.512	88.62
660.716	86.62
660.919	92.62
661.123	95.62
661.326	93.62
661.53	108.62
661.733	90.62
661.936	90.62
662.14	96.62
662.343	88.62
662.546	84.62
662.75	92.62
662.953	93.62
663.156	92.62
663.36	84.62
663.563	87.62
663.766	79.62
663.969	77.62
664.173	97.62
664.376	86.62
664.579	97.62
664.782	86.62
664.985	87.62
665.188	86.62
665.391	84.62
665.594	88.62
665.797	91.62
666	93.62
666.203	83.62
666.406	78.62
666.609	77.62
666.812	86.62
667.015	80.62
667.218	83.62
667.421	96.62
667.624	78.62
667.827	85.62
668.03	76.62
668.232	71.62
668.435	85.62
668.638	89.62
668.841	92.62
669.043	96.62
669.246	85.62
669.449	70.62
669.651	86.62
669.854	91.62
670.057	79.62
670.259	96.62
670.462	77.62
670.665	74.62
670.867	89.62
671.07	91.62
671.272	84.62
671.475	96.62
671.677	90.62
671.88	89.62
672.082	79.62
672.284	85.62
672.487	95.62
672.689	89.62
672.892	88.62
