Data from 1970.PennyLincolnUp.Lamp.En5.5.200Scan.071719.P1._HRD10591_15-15-34-842.txt Node
Date: Thu Jul 18 15:15:34 EDT 2019
User: cochatt
Spectrometer: HR+D1059
Trigger mode: 1
Integration Time (sec): 1.000000E-1
Scans to average: 1
Electric dark correction enabled: true
Nonlinearity correction enabled: false
Boxcar width: 0
XAxis mode: Wavelengths
Number of Pixels in Spectrum: 2048
>>>>>Begin Spectral Data<<<<<
223.165	-7.25
223.4	-7.25
223.635	-7.25
223.869	-25.25
224.104	-11.25
224.338	-4.25
224.573	-1.25
224.808	-32.25
225.042	-20.25
225.277	-20.25
225.511	-10.25
225.746	5.75
225.98	12.75
226.215	3.75
226.449	12.75
226.683	32.75
226.918	27.75
227.152	36.75
227.387	28.75
227.621	35.75
227.856	35.75
228.09	44.75
228.324	51.75
228.559	63.75
228.793	56.75
229.027	98.75
229.262	123.75
229.496	119.75
229.73	152.75
229.964	170.75
230.199	150.75
230.433	123.75
230.667	106.75
230.901	115.75
231.136	119.75
231.37	121.75
231.604	118.75
231.838	108.75
232.072	116.75
232.306	127.75
232.541	122.75
232.775	115.75
233.009	115.75
233.243	117.75
233.477	122.75
233.711	124.75
233.945	115.75
234.179	111.75
234.413	137.75
234.647	127.75
234.881	128.75
235.115	120.75
235.349	125.75
235.583	117.75
235.817	123.75
236.051	132.75
236.285	137.75
236.519	136.75
236.753	141.75
236.987	146.75
237.221	211.75
237.455	259.75
237.689	227.75
237.922	163.75
238.156	163.75
238.39	158.75
238.624	137.75
238.858	147.75
239.091	137.75
239.325	119.75
239.559	128.75
239.793	125.75
240.027	132.75
240.26	153.75
240.494	175.75
240.728	168.75
240.961	166.75
241.195	152.75
241.429	149.75
241.662	146.75
241.896	140.75
242.13	146.75
242.363	129.75
242.597	154.75
242.83	141.75
243.064	152.75
243.298	145.75
243.531	131.75
243.765	141.75
243.998	150.75
244.232	140.75
244.465	152.75
244.699	166.75
244.932	158.75
245.166	137.75
245.399	152.75
245.633	159.75
245.866	166.75
246.099	148.75
246.333	159.75
246.566	173.75
246.8	176.75
247.033	166.75
247.266	177.75
247.5	165.75
247.733	197.75
247.966	182.75
248.2	204.75
248.433	190.75
248.666	185.75
248.899	215.75
249.133	213.75
249.366	243.75
249.599	218.75
249.832	208.75
250.066	199.75
250.299	181.75
250.532	219.75
250.765	234.75
250.998	257.75
251.231	248.75
251.465	244.75
251.698	223.75
251.931	219.75
252.164	220.75
252.397	205.75
252.63	224.75
252.863	226.75
253.096	243.75
253.329	253.75
253.562	257.75
253.795	260.75
254.028	237.75
254.261	243.75
254.494	252.75
254.727	283.75
254.96	304.75
255.193	319.75
255.426	292.75
255.659	242.75
255.892	243.75
256.124	269.75
256.357	264.75
256.59	255.75
256.823	252.75
257.056	234.75
257.289	228.75
257.521	218.75
257.754	223.75
257.987	249.75
258.22	240.75
258.452	225.75
258.685	212.75
258.918	215.75
259.151	225.75
259.383	242.75
259.616	236.75
259.849	244.75
260.081	249.75
260.314	287.75
260.547	291.75
260.779	271.75
261.012	264.75
261.244	259.75
261.477	253.75
261.71	232.75
261.942	255.75
262.175	262.75
262.407	251.75
262.64	224.75
262.872	231.75
263.105	222.75
263.337	229.75
263.57	229.75
263.802	235.75
264.035	209.75
264.267	218.75
264.499	223.75
264.732	230.75
264.964	240.75
265.197	225.75
265.429	212.75
265.661	226.75
265.894	217.75
266.126	233.75
266.358	232.75
266.591	223.75
266.823	238.75
267.055	245.75
267.287	235.75
267.52	239.75
267.752	233.75
267.984	233.75
268.216	246.75
268.448	251.75
268.681	240.75
268.913	253.75
269.145	283.75
269.377	281.75
269.609	287.75
269.841	288.75
270.073	302.75
270.306	317.75
270.538	343.75
270.77	344.75
271.002	337.75
271.234	319.75
271.466	341.75
271.698	343.75
271.93	339.75
272.162	327.75
272.394	327.75
272.626	305.75
272.858	321.75
273.09	293.75
273.322	293.75
273.553	287.75
273.785	288.75
274.017	280.75
274.249	275.75
274.481	280.75
274.713	271.75
274.945	278.75
275.176	290.75
275.408	275.75
275.64	263.75
275.872	245.75
276.104	271.75
276.335	279.75
276.567	297.75
276.799	307.75
277.031	345.75
277.262	353.75
277.494	335.75
277.726	309.75
277.957	287.75
278.189	301.75
278.421	289.75
278.652	271.75
278.884	281.75
279.115	276.75
279.347	272.75
279.579	258.75
279.81	264.75
280.042	257.75
280.273	249.75
280.505	267.75
280.736	271.75
280.968	255.75
281.199	263.75
281.431	256.75
281.662	274.75
281.894	269.75
282.125	267.75
282.356	289.75
282.588	301.75
282.819	313.75
283.051	293.75
283.282	263.75
283.513	271.75
283.745	276.75
283.976	263.75
284.207	286.75
284.439	273.75
284.67	283.75
284.901	266.75
285.132	273.75
285.364	262.75
285.595	266.75
285.826	275.75
286.057	270.75
286.288	280.75
286.52	267.75
286.751	281.75
286.982	272.75
287.213	285.75
287.444	287.75
287.675	279.75
287.906	300.75
288.138	303.75
288.369	301.75
288.6	299.75
288.831	308.75
289.062	293.75
289.293	294.75
289.524	289.75
289.755	290.75
289.986	292.75
290.217	294.75
290.448	294.75
290.679	293.75
290.91	281.75
291.141	299.75
291.371	277.75
291.602	287.75
291.833	283.75
292.064	282.75
292.295	280.75
292.526	283.75
292.757	265.75
292.987	287.75
293.218	290.75
293.449	285.75
293.68	283.75
293.91	273.75
294.141	279.75
294.372	275.75
294.603	272.75
294.833	265.75
295.064	289.75
295.295	292.75
295.525	280.75
295.756	295.75
295.987	295.75
296.217	319.75
296.448	328.75
296.679	311.75
296.909	292.75
297.14	287.75
297.37	300.75
297.601	293.75
297.831	294.75
298.062	290.75
298.292	296.75
298.523	300.75
298.753	321.75
298.984	285.75
299.214	304.75
299.445	310.75
299.675	305.75
299.905	294.75
300.136	307.75
300.366	298.75
300.597	289.75
300.827	305.75
301.057	307.75
301.288	320.75
301.518	336.75
301.748	307.75
301.979	303.75
302.209	307.75
302.439	329.75
302.669	321.75
302.9	327.75
303.13	318.75
303.36	301.75
303.59	327.75
303.82	342.75
304.051	319.75
304.281	322.75
304.511	326.75
304.741	311.75
304.971	313.75
305.201	312.75
305.431	324.75
305.661	337.75
305.891	320.75
306.121	318.75
306.352	327.75
306.582	354.75
306.812	337.75
307.042	322.75
307.272	323.75
307.502	338.75
307.731	331.75
307.961	326.75
308.191	332.75
308.421	328.75
308.651	349.75
308.881	342.75
309.111	359.75
309.341	351.75
309.571	345.75
309.8	363.75
310.03	366.75
310.26	396.75
310.49	371.75
310.72	375.75
310.949	412.75
311.179	413.75
311.409	397.75
311.639	381.75
311.868	378.75
312.098	374.75
312.328	403.75
312.557	423.75
312.787	421.75
313.017	409.75
313.246	383.75
313.476	381.75
313.706	373.75
313.935	403.75
314.165	414.75
314.394	412.75
314.624	400.75
314.853	403.75
315.083	397.75
315.312	390.75
315.542	368.75
315.771	371.75
316.001	392.75
316.23	384.75
316.46	383.75
316.689	374.75
316.919	389.75
317.148	386.75
317.377	392.75
317.607	386.75
317.836	371.75
318.065	377.75
318.295	380.75
318.524	382.75
318.753	371.75
318.983	381.75
319.212	399.75
319.441	389.75
319.67	393.75
319.9	398.75
320.129	407.75
320.358	397.75
320.587	404.75
320.816	398.75
321.046	409.75
321.275	409.75
321.504	404.75
321.733	406.75
321.962	411.75
322.191	448.75
322.42	442.75
322.649	472.75
322.878	492.75
323.108	504.75
323.337	527.75
323.566	553.75
323.795	607.75
324.024	640.75
324.253	806.75
324.482	1192.75
324.71	1795.75
324.939	2565.75
325.168	2213.75
325.397	1168.75
325.626	788.75
325.855	627.75
326.084	557.75
326.313	569.75
326.542	575.75
326.77	629.75
326.999	736.75
327.228	1035.75
327.457	1571.75
327.686	1957.75
327.914	1310.75
328.143	868.75
328.372	753.75
328.6	649.75
328.829	636.75
329.058	651.75
329.287	653.75
329.515	632.75
329.744	584.75
329.972	564.75
330.201	605.75
330.43	648.75
330.658	684.75
330.887	720.75
331.115	677.75
331.344	598.75
331.572	561.75
331.801	535.75
332.03	549.75
332.258	505.75
332.486	488.75
332.715	453.75
332.943	474.75
333.172	464.75
333.4	465.75
333.629	464.75
333.857	465.75
334.085	518.75
334.314	531.75
334.542	584.75
334.771	599.75
334.999	536.75
335.227	495.75
335.455	460.75
335.684	458.75
335.912	443.75
336.14	445.75
336.369	455.75
336.597	474.75
336.825	461.75
337.053	444.75
337.281	425.75
337.51	445.75
337.738	426.75
337.966	441.75
338.194	459.75
338.422	464.75
338.65	454.75
338.878	463.75
339.106	433.75
339.334	447.75
339.562	434.75
339.79	421.75
340.018	427.75
340.246	434.75
340.474	446.75
340.702	446.75
340.93	426.75
341.158	439.75
341.386	452.75
341.614	441.75
341.842	415.75
342.07	414.75
342.298	423.75
342.526	420.75
342.754	424.75
342.981	403.75
343.209	420.75
343.437	433.75
343.665	416.75
343.893	430.75
344.12	436.75
344.348	426.75
344.576	438.75
344.804	472.75
345.031	473.75
345.259	474.75
345.487	457.75
345.714	452.75
345.942	437.75
346.17	416.75
346.397	419.75
346.625	440.75
346.853	454.75
347.08	440.75
347.308	447.75
347.535	466.75
347.763	468.75
347.99	457.75
348.218	440.75
348.445	451.75
348.673	451.75
348.9	424.75
349.128	407.75
349.355	387.75
349.583	418.75
349.81	419.75
350.037	410.75
350.265	409.75
350.492	428.75
350.72	432.75
350.947	444.75
351.174	416.75
351.402	460.75
351.629	450.75
351.856	451.75
352.083	445.75
352.311	469.75
352.538	470.75
352.765	456.75
352.992	468.75
353.22	448.75
353.447	444.75
353.674	428.75
353.901	410.75
354.128	426.75
354.355	419.75
354.583	401.75
354.81	395.75
355.037	391.75
355.264	376.75
355.491	397.75
355.718	395.75
355.945	384.75
356.172	390.75
356.399	402.75
356.626	377.75
356.853	401.75
357.08	388.75
357.307	392.75
357.534	403.75
357.761	409.75
357.988	391.75
358.215	398.75
358.441	394.75
358.668	408.75
358.895	392.75
359.122	409.75
359.349	428.75
359.576	453.75
359.802	473.75
360.029	496.75
360.256	533.75
360.483	477.75
360.709	453.75
360.936	444.75
361.163	437.75
361.39	441.75
361.616	460.75
361.843	426.75
362.07	440.75
362.296	432.75
362.523	440.75
362.749	443.75
362.976	456.75
363.203	459.75
363.429	421.75
363.656	422.75
363.882	419.75
364.109	410.75
364.335	430.75
364.562	449.75
364.788	402.75
365.015	407.75
365.241	405.75
365.468	427.75
365.694	439.75
365.92	435.75
366.147	418.75
366.373	408.75
366.599	407.75
366.826	404.75
367.052	404.75
367.278	425.75
367.505	405.75
367.731	413.75
367.957	419.75
368.184	425.75
368.41	422.75
368.636	446.75
368.862	456.75
369.089	439.75
369.315	424.75
369.541	423.75
369.767	415.75
369.993	435.75
370.219	421.75
370.445	418.75
370.672	412.75
370.898	412.75
371.124	403.75
371.35	423.75
371.576	399.75
371.802	404.75
372.028	402.75
372.254	394.75
372.48	406.75
372.706	423.75
372.932	413.75
373.158	411.75
373.384	403.75
373.61	410.75
373.835	433.75
374.061	405.75
374.287	416.75
374.513	403.75
374.739	443.75
374.965	425.75
375.191	421.75
375.416	435.75
375.642	410.75
375.868	414.75
376.094	394.75
376.319	429.75
376.545	424.75
376.771	422.75
376.997	408.75
377.222	436.75
377.448	397.75
377.674	423.75
377.899	397.75
378.125	418.75
378.35	423.75
378.576	411.75
378.802	418.75
379.027	411.75
379.253	405.75
379.478	397.75
379.704	408.75
379.929	411.75
380.155	393.75
380.38	424.75
380.606	417.75
380.831	420.75
381.057	411.75
381.282	424.75
381.507	398.75
381.733	427.75
381.958	421.75
382.184	411.75
382.409	419.75
382.634	417.75
382.86	413.75
383.085	394.75
383.31	417.75
383.535	430.75
383.761	405.75
383.986	405.75
384.211	415.75
384.436	436.75
384.662	438.75
384.887	423.75
385.112	427.75
385.337	438.75
385.562	442.75
385.787	439.75
386.013	465.75
386.238	456.75
386.463	444.75
386.688	447.75
386.913	437.75
387.138	445.75
387.363	436.75
387.588	443.75
387.813	435.75
388.038	449.75
388.263	438.75
388.488	444.75
388.713	450.75
388.938	433.75
389.163	445.75
389.387	459.75
389.612	443.75
389.837	435.75
390.062	433.75
390.287	457.75
390.512	443.75
390.736	433.75
390.961	441.75
391.186	444.75
391.411	446.75
391.636	446.75
391.86	444.75
392.085	452.75
392.31	444.75
392.534	446.75
392.759	443.75
392.984	453.75
393.208	465.75
393.433	442.75
393.658	455.75
393.882	434.75
394.107	456.75
394.331	443.75
394.556	423.75
394.78	450.75
395.005	447.75
395.229	448.75
395.454	485.75
395.678	468.75
395.903	460.75
396.127	508.75
396.352	479.75
396.576	452.75
396.801	457.75
397.025	479.75
397.249	476.75
397.474	456.75
397.698	486.75
397.922	483.75
398.147	490.75
398.371	486.75
398.595	479.75
398.82	487.75
399.044	508.75
399.268	491.75
399.492	539.75
399.717	544.75
399.941	570.75
400.165	609.75
400.389	659.75
400.613	589.75
400.837	535.75
401.062	536.75
401.286	518.75
401.51	521.75
401.734	526.75
401.958	529.75
402.182	514.75
402.406	519.75
402.63	543.75
402.854	533.75
403.078	531.75
403.302	521.75
403.526	529.75
403.75	535.75
403.974	530.75
404.198	533.75
404.422	544.75
404.645	556.75
404.869	568.75
405.093	602.75
405.317	617.75
405.541	650.75
405.765	588.75
405.988	578.75
406.212	602.75
406.436	613.75
406.66	618.75
406.883	581.75
407.107	620.75
407.331	646.75
407.555	715.75
407.778	728.75
408.002	636.75
408.226	592.75
408.449	583.75
408.673	588.75
408.896	623.75
409.12	650.75
409.344	630.75
409.567	570.75
409.791	563.75
410.014	537.75
410.238	513.75
410.461	525.75
410.685	557.75
410.908	573.75
411.132	593.75
411.355	613.75
411.578	603.75
411.802	551.75
412.025	524.75
412.249	561.75
412.472	610.75
412.695	630.75
412.919	602.75
413.142	563.75
413.365	547.75
413.589	526.75
413.812	510.75
414.035	518.75
414.258	511.75
414.482	514.75
414.705	517.75
414.928	518.75
415.151	503.75
415.374	476.75
415.597	503.75
415.821	502.75
416.044	536.75
416.267	512.75
416.49	505.75
416.713	477.75
416.936	500.75
417.159	508.75
417.382	521.75
417.605	539.75
417.828	537.75
418.051	550.75
418.274	564.75
418.497	517.75
418.72	512.75
418.943	506.75
419.166	539.75
419.389	524.75
419.611	529.75
419.834	553.75
420.057	554.75
420.28	556.75
420.503	575.75
420.726	561.75
420.948	582.75
421.171	621.75
421.394	620.75
421.617	574.75
421.839	538.75
422.062	563.75
422.285	551.75
422.507	610.75
422.73	685.75
422.953	675.75
423.175	609.75
423.398	579.75
423.621	582.75
423.843	589.75
424.066	592.75
424.288	597.75
424.511	615.75
424.733	665.75
424.956	769.75
425.178	740.75
425.401	726.75
425.623	734.75
425.846	673.75
426.068	640.75
426.291	603.75
426.513	610.75
426.735	623.75
426.958	652.75
427.18	752.75
427.402	891.75
427.625	991.75
427.847	901.75
428.069	795.75
428.292	703.75
428.514	653.75
428.736	595.75
428.958	589.75
429.181	592.75
429.403	559.75
429.625	591.75
429.847	619.75
430.069	694.75
430.292	661.75
430.514	592.75
430.736	544.75
430.958	547.75
431.18	538.75
431.402	536.75
431.624	501.75
431.846	509.75
432.068	500.75
432.29	529.75
432.512	519.75
432.734	541.75
432.956	540.75
433.178	542.75
433.4	564.75
433.622	540.75
433.844	521.75
434.066	524.75
434.287	520.75
434.509	540.75
434.731	529.75
434.953	548.75
435.175	564.75
435.397	595.75
435.618	610.75
435.84	648.75
436.062	747.75
436.284	805.75
436.505	709.75
436.727	637.75
436.949	598.75
437.17	583.75
437.392	557.75
437.614	595.75
437.835	624.75
438.057	748.75
438.278	845.75
438.5	848.75
438.721	901.75
438.943	858.75
439.165	721.75
439.386	663.75
439.608	651.75
439.829	628.75
440.05	673.75
440.272	724.75
440.493	673.75
440.715	629.75
440.936	597.75
441.158	572.75
441.379	577.75
441.6	570.75
441.822	612.75
442.043	642.75
442.264	744.75
442.486	790.75
442.707	681.75
442.928	644.75
443.149	658.75
443.371	697.75
443.592	723.75
443.813	805.75
444.034	856.75
444.255	728.75
444.476	671.75
444.698	634.75
444.919	605.75
445.14	743.75
445.361	679.75
445.582	681.75
445.803	764.75
446.024	843.75
446.245	843.75
446.466	759.75
446.687	696.75
446.908	650.75
447.129	603.75
447.35	586.75
447.571	571.75
447.792	572.75
448.013	595.75
448.234	597.75
448.455	666.75
448.675	783.75
448.896	887.75
449.117	765.75
449.338	727.75
449.559	822.75
449.779	920.75
450	771.75
450.221	644.75
450.442	612.75
450.662	588.75
450.883	586.75
451.104	585.75
451.324	585.75
451.545	565.75
451.766	530.75
451.986	532.75
452.207	499.75
452.428	503.75
452.648	503.75
452.869	521.75
453.089	517.75
453.31	554.75
453.53	519.75
453.751	502.75
453.971	512.75
454.192	518.75
454.412	543.75
454.633	528.75
454.853	489.75
455.073	520.75
455.294	541.75
455.514	610.75
455.734	620.75
455.955	524.75
456.175	497.75
456.395	476.75
456.616	466.75
456.836	476.75
457.056	507.75
457.276	471.75
457.497	471.75
457.717	487.75
457.937	485.75
458.157	484.75
458.377	530.75
458.598	532.75
458.818	593.75
459.038	687.75
459.258	699.75
459.478	594.75
459.698	525.75
459.918	541.75
460.138	513.75
460.358	522.75
460.578	525.75
460.798	519.75
461.018	530.75
461.238	513.75
461.458	536.75
461.678	517.75
461.898	495.75
462.118	508.75
462.338	517.75
462.558	531.75
462.777	535.75
462.997	558.75
463.217	552.75
463.437	544.75
463.657	521.75
463.876	532.75
464.096	549.75
464.316	524.75
464.536	563.75
464.755	571.75
464.975	535.75
465.195	627.75
465.414	710.75
465.634	657.75
465.854	590.75
466.073	565.75
466.293	558.75
466.512	530.75
466.732	520.75
466.951	516.75
467.171	514.75
467.391	513.75
467.61	533.75
467.829	534.75
468.049	548.75
468.268	546.75
468.488	538.75
468.707	517.75
468.927	513.75
469.146	478.75
469.365	515.75
469.585	495.75
469.804	496.75
470.023	518.75
470.243	541.75
470.462	531.75
470.681	538.75
470.901	547.75
471.12	520.75
471.339	538.75
471.558	532.75
471.777	517.75
471.997	524.75
472.216	540.75
472.435	576.75
472.654	560.75
472.873	524.75
473.092	534.75
473.311	545.75
473.53	517.75
473.749	545.75
473.968	601.75
474.187	715.75
474.406	733.75
474.625	600.75
474.844	584.75
475.063	553.75
475.282	529.75
475.501	549.75
475.72	548.75
475.939	532.75
476.158	523.75
476.377	561.75
476.596	522.75
476.814	562.75
477.033	554.75
477.252	551.75
477.471	556.75
477.69	564.75
477.908	560.75
478.127	592.75
478.346	572.75
478.564	584.75
478.783	588.75
479.002	591.75
479.22	606.75
479.439	632.75
479.658	631.75
479.876	636.75
480.095	623.75
480.313	673.75
480.532	668.75
480.751	640.75
480.969	675.75
481.188	756.75
481.406	799.75
481.624	719.75
481.843	679.75
482.061	642.75
482.28	643.75
482.498	617.75
482.717	631.75
482.935	627.75
483.153	625.75
483.372	645.75
483.59	632.75
483.808	641.75
484.027	628.75
484.245	631.75
484.463	626.75
484.681	657.75
484.9	638.75
485.118	637.75
485.336	631.75
485.554	633.75
485.772	660.75
485.99	640.75
486.209	649.75
486.427	661.75
486.645	660.75
486.863	687.75
487.081	704.75
487.299	692.75
487.517	689.75
487.735	662.75
487.953	683.75
488.171	692.75
488.389	706.75
488.607	705.75
488.825	709.75
489.043	676.75
489.261	701.75
489.479	706.75
489.696	721.75
489.914	724.75
490.132	722.75
490.35	738.75
490.568	753.75
490.786	732.75
491.003	745.75
491.221	771.75
491.439	754.75
491.657	798.75
491.874	806.75
492.092	823.75
492.31	826.75
492.527	829.75
492.745	802.75
492.963	813.75
493.18	822.75
493.398	851.75
493.615	834.75
493.833	859.75
494.05	837.75
494.268	842.75
494.485	825.75
494.703	840.75
494.92	840.75
495.138	852.75
495.355	836.75
495.573	852.75
495.79	845.75
496.008	822.75
496.225	838.75
496.442	819.75
496.66	848.75
496.877	825.75
497.094	848.75
497.312	842.75
497.529	851.75
497.746	838.75
497.963	856.75
498.181	876.75
498.398	895.75
498.615	889.75
498.832	900.75
499.049	881.75
499.267	908.75
499.484	889.75
499.701	948.75
499.918	947.75
500.135	969.75
500.352	1009.75
500.569	1009.75
500.786	1020.75
501.003	1013.75
501.22	987.75
501.437	984.75
501.654	971.75
501.871	980.75
502.088	980.75
502.305	944.75
502.522	912.75
502.739	893.75
502.956	852.75
503.172	859.75
503.389	869.75
503.606	861.75
503.823	821.75
504.04	849.75
504.256	843.75
504.473	856.75
504.69	809.75
504.907	809.75
505.123	807.75
505.34	784.75
505.557	795.75
505.773	804.75
505.99	792.75
506.207	785.75
506.423	795.75
506.64	794.75
506.856	802.75
507.073	805.75
507.289	777.75
507.506	779.75
507.722	790.75
507.939	818.75
508.155	809.75
508.372	764.75
508.588	775.75
508.805	763.75
509.021	788.75
509.238	789.75
509.454	769.75
509.67	788.75
509.887	763.75
510.103	776.75
510.319	795.75
510.536	915.75
510.752	1558.75
510.968	1273.75
511.184	811.75
511.401	764.75
511.617	755.75
511.833	737.75
512.049	729.75
512.265	762.75
512.481	741.75
512.698	735.75
512.914	717.75
513.13	735.75
513.346	742.75
513.562	740.75
513.778	752.75
513.994	748.75
514.21	785.75
514.426	795.75
514.642	820.75
514.858	862.75
515.074	936.75
515.29	1151.75
515.506	1708.75
515.721	1383.75
515.937	926.75
516.153	849.75
516.369	789.75
516.585	768.75
516.801	745.75
517.016	732.75
517.232	738.75
517.448	736.75
517.664	722.75
517.879	724.75
518.095	735.75
518.311	725.75
518.527	728.75
518.742	739.75
518.958	748.75
519.173	713.75
519.389	755.75
519.605	724.75
519.82	740.75
520.036	729.75
520.251	767.75
520.467	823.75
520.682	839.75
520.898	822.75
521.113	861.75
521.329	925.75
521.544	1049.75
521.76	1338.75
521.975	2272.75
522.19	2225.75
522.406	1209.75
522.621	913.75
522.836	799.75
523.052	771.75
523.267	730.75
523.482	704.75
523.698	680.75
523.913	668.75
524.128	690.75
524.343	690.75
524.559	660.75
524.774	629.75
524.989	641.75
525.204	654.75
525.419	633.75
525.634	607.75
525.849	627.75
526.064	631.75
526.28	605.75
526.495	581.75
526.71	609.75
526.925	585.75
527.14	586.75
527.355	578.75
527.57	572.75
527.785	586.75
527.999	589.75
528.214	603.75
528.429	578.75
528.644	597.75
528.859	580.75
529.074	588.75
529.289	616.75
529.503	734.75
529.718	707.75
529.933	659.75
530.148	615.75
530.363	598.75
530.577	576.75
530.792	586.75
531.007	552.75
531.221	565.75
531.436	589.75
531.651	561.75
531.865	577.75
532.08	559.75
532.295	546.75
532.509	551.75
532.724	537.75
532.938	563.75
533.153	548.75
533.367	525.75
533.582	534.75
533.796	540.75
534.011	526.75
534.225	533.75
534.44	540.75
534.654	538.75
534.868	541.75
535.083	539.75
535.297	542.75
535.511	557.75
535.726	558.75
535.94	563.75
536.154	583.75
536.369	571.75
536.583	528.75
536.797	539.75
537.011	540.75
537.225	532.75
537.44	516.75
537.654	517.75
537.868	513.75
538.082	520.75
538.296	550.75
538.51	505.75
538.724	519.75
538.938	513.75
539.153	537.75
539.367	548.75
539.581	552.75
539.795	529.75
540.009	538.75
540.222	526.75
540.436	509.75
540.65	513.75
540.864	534.75
541.078	537.75
541.292	551.75
541.506	529.75
541.72	532.75
541.934	533.75
542.147	554.75
542.361	512.75
542.575	535.75
542.789	539.75
543.002	524.75
543.216	508.75
543.43	526.75
543.644	541.75
543.857	537.75
544.071	514.75
544.285	543.75
544.498	505.75
544.712	509.75
544.925	537.75
545.139	534.75
545.352	505.75
545.566	495.75
545.779	525.75
545.993	504.75
546.206	505.75
546.42	500.75
546.633	472.75
546.847	488.75
547.06	500.75
547.274	509.75
547.487	509.75
547.7	491.75
547.914	491.75
548.127	507.75
548.34	492.75
548.554	491.75
548.767	490.75
548.98	469.75
549.193	462.75
549.407	485.75
549.62	485.75
549.833	481.75
550.046	484.75
550.259	490.75
550.473	479.75
550.686	465.75
550.899	490.75
551.112	482.75
551.325	479.75
551.538	492.75
551.751	467.75
551.964	457.75
552.177	484.75
552.39	482.75
552.603	500.75
552.816	488.75
553.029	491.75
553.242	458.75
553.455	489.75
553.667	529.75
553.88	511.75
554.093	499.75
554.306	516.75
554.519	486.75
554.732	463.75
554.944	479.75
555.157	460.75
555.37	469.75
555.583	472.75
555.795	466.75
556.008	468.75
556.221	477.75
556.433	449.75
556.646	439.75
556.859	428.75
557.071	444.75
557.284	446.75
557.496	452.75
557.709	445.75
557.921	420.75
558.134	445.75
558.346	435.75
558.559	437.75
558.771	440.75
558.984	432.75
559.196	439.75
559.409	452.75
559.621	420.75
559.833	426.75
560.046	445.75
560.258	444.75
560.47	408.75
560.683	431.75
560.895	424.75
561.107	443.75
561.32	428.75
561.532	421.75
561.744	441.75
561.956	435.75
562.168	422.75
562.381	425.75
562.593	432.75
562.805	437.75
563.017	437.75
563.229	438.75
563.441	438.75
563.653	423.75
563.865	427.75
564.077	436.75
564.289	425.75
564.501	422.75
564.713	439.75
564.925	441.75
565.137	451.75
565.349	454.75
565.561	457.75
565.773	459.75
565.985	450.75
566.197	465.75
566.408	452.75
566.62	470.75
566.832	485.75
567.044	472.75
567.255	496.75
567.467	499.75
567.679	489.75
567.891	508.75
568.102	471.75
568.314	488.75
568.526	461.75
568.737	464.75
568.949	468.75
569.161	444.75
569.372	437.75
569.584	432.75
569.795	403.75
570.007	421.75
570.218	502.75
570.43	492.75
570.641	433.75
570.853	416.75
571.064	405.75
571.276	414.75
571.487	421.75
571.698	394.75
571.91	405.75
572.121	390.75
572.333	395.75
572.544	374.75
572.755	387.75
572.966	385.75
573.178	380.75
573.389	401.75
573.6	392.75
573.811	387.75
574.023	397.75
574.234	354.75
574.445	357.75
574.656	370.75
574.867	371.75
575.078	357.75
575.289	374.75
575.501	377.75
575.712	368.75
575.923	375.75
576.134	370.75
576.345	361.75
576.556	351.75
576.767	354.75
576.978	357.75
577.188	369.75
577.399	349.75
577.61	331.75
577.821	353.75
578.032	343.75
578.243	376.75
578.454	725.75
578.665	495.75
578.875	371.75
579.086	355.75
579.297	355.75
579.508	336.75
579.718	355.75
579.929	354.75
580.14	356.75
580.35	336.75
580.561	348.75
580.772	341.75
580.982	333.75
581.193	339.75
581.403	346.75
581.614	334.75
581.825	363.75
582.035	323.75
582.246	334.75
582.456	324.75
582.667	360.75
582.877	333.75
583.087	344.75
583.298	330.75
583.508	332.75
583.719	342.75
583.929	341.75
584.139	332.75
584.35	333.75
584.56	330.75
584.77	333.75
584.981	336.75
585.191	322.75
585.401	331.75
585.611	321.75
585.821	330.75
586.032	324.75
586.242	308.75
586.452	317.75
586.662	324.75
586.872	317.75
587.082	321.75
587.292	327.75
587.502	318.75
587.713	319.75
587.923	319.75
588.133	340.75
588.343	321.75
588.553	304.75
588.762	328.75
588.972	315.75
589.182	317.75
589.392	322.75
589.602	317.75
589.812	310.75
590.022	324.75
590.232	309.75
590.441	313.75
590.651	324.75
590.861	321.75
591.071	303.75
591.281	313.75
591.49	308.75
591.7	308.75
591.91	319.75
592.119	308.75
592.329	323.75
592.539	306.75
592.748	309.75
592.958	312.75
593.167	311.75
593.377	346.75
593.587	353.75
593.796	338.75
594.006	323.75
594.215	334.75
594.424	320.75
594.634	308.75
594.843	313.75
595.053	314.75
595.262	309.75
595.472	298.75
595.681	291.75
595.89	310.75
596.1	292.75
596.309	300.75
596.518	313.75
596.727	297.75
596.937	301.75
597.146	303.75
597.355	292.75
597.564	301.75
597.774	288.75
597.983	290.75
598.192	289.75
598.401	289.75
598.61	290.75
598.819	300.75
599.028	288.75
599.237	280.75
599.446	278.75
599.655	294.75
599.864	279.75
600.073	272.75
600.282	277.75
600.491	265.75
600.7	293.75
600.909	277.75
601.118	282.75
601.327	290.75
601.536	276.75
601.745	265.75
601.953	279.75
602.162	279.75
602.371	276.75
602.58	263.75
602.789	278.75
602.997	293.75
603.206	272.75
603.415	266.75
603.623	256.75
603.832	278.75
604.041	274.75
604.249	285.75
604.458	272.75
604.666	268.75
604.875	269.75
605.084	278.75
605.292	245.75
605.501	260.75
605.709	269.75
605.918	267.75
606.126	263.75
606.334	257.75
606.543	276.75
606.751	271.75
606.96	252.75
607.168	267.75
607.376	267.75
607.585	261.75
607.793	283.75
608.001	269.75
608.21	257.75
608.418	260.75
608.626	269.75
608.834	273.75
609.043	283.75
609.251	248.75
609.459	269.75
609.667	265.75
609.875	263.75
610.083	262.75
610.291	276.75
610.499	275.75
610.707	270.75
610.916	281.75
611.124	276.75
611.332	278.75
611.54	275.75
611.748	265.75
611.955	260.75
612.163	285.75
612.371	273.75
612.579	268.75
612.787	264.75
612.995	252.75
613.203	258.75
613.411	262.75
613.618	255.75
613.826	243.75
614.034	257.75
614.242	254.75
614.449	269.75
614.657	258.75
614.865	249.75
615.072	278.75
615.28	241.75
615.488	256.75
615.695	267.75
615.903	259.75
616.111	249.75
616.318	268.75
616.526	273.75
616.733	275.75
616.941	258.75
617.148	249.75
617.356	253.75
617.563	272.75
617.771	259.75
617.978	240.75
618.185	257.75
618.393	243.75
618.6	263.75
618.807	260.75
619.015	233.75
619.222	248.75
619.429	233.75
619.637	230.75
619.844	255.75
620.051	270.75
620.258	230.75
620.466	242.75
620.673	229.75
620.88	243.75
621.087	239.75
621.294	231.75
621.501	233.75
621.708	239.75
621.915	244.75
622.122	260.75
622.329	237.75
622.536	233.75
622.743	233.75
622.95	234.75
623.157	221.75
623.364	237.75
623.571	250.75
623.778	237.75
623.985	239.75
624.192	239.75
624.399	233.75
624.606	228.75
624.812	222.75
625.019	253.75
625.226	237.75
625.433	237.75
625.639	221.75
625.846	232.75
626.053	224.75
626.259	234.75
626.466	220.75
626.673	234.75
626.879	213.75
627.086	221.75
627.293	224.75
627.499	222.75
627.706	212.75
627.912	225.75
628.119	233.75
628.325	216.75
628.532	219.75
628.738	204.75
628.945	225.75
629.151	195.75
629.357	213.75
629.564	235.75
629.77	223.75
629.976	223.75
630.183	218.75
630.389	214.75
630.595	215.75
630.802	214.75
631.008	202.75
631.214	204.75
631.42	225.75
631.627	207.75
631.833	202.75
632.039	200.75
632.245	194.75
632.451	194.75
632.657	197.75
632.863	216.75
633.069	213.75
633.275	192.75
633.481	196.75
633.688	203.75
633.893	200.75
634.099	199.75
634.305	188.75
634.511	200.75
634.717	204.75
634.923	191.75
635.129	182.75
635.335	199.75
635.541	180.75
635.747	187.75
635.952	185.75
636.158	193.75
636.364	196.75
636.57	195.75
636.775	189.75
636.981	191.75
637.187	199.75
637.392	189.75
637.598	189.75
637.804	197.75
638.009	203.75
638.215	183.75
638.421	182.75
638.626	181.75
638.832	173.75
639.037	190.75
639.243	189.75
639.448	174.75
639.654	173.75
639.859	183.75
640.065	181.75
640.27	173.75
640.475	175.75
640.681	195.75
640.886	181.75
641.091	195.75
641.297	186.75
641.502	183.75
641.707	177.75
641.913	182.75
642.118	169.75
642.323	178.75
642.528	167.75
642.733	191.75
642.939	190.75
643.144	196.75
643.349	172.75
643.554	173.75
643.759	180.75
643.964	172.75
644.169	157.75
644.374	169.75
644.579	180.75
644.784	183.75
644.989	200.75
645.194	180.75
645.399	168.75
645.604	170.75
645.809	184.75
646.014	163.75
646.219	165.75
646.423	177.75
646.628	183.75
646.833	169.75
647.038	180.75
647.243	170.75
647.447	169.75
647.652	192.75
647.857	170.75
648.062	176.75
648.266	186.75
648.471	183.75
648.676	169.75
648.88	180.75
649.085	172.75
649.289	177.75
649.494	175.75
649.698	199.75
649.903	190.75
650.107	178.75
650.312	187.75
650.516	160.75
650.721	172.75
650.925	153.75
651.13	167.75
651.334	167.75
651.539	149.75
651.743	148.75
651.947	171.75
652.152	152.75
652.356	140.75
652.56	145.75
652.764	172.75
652.969	140.75
653.173	128.75
653.377	144.75
653.581	152.75
653.785	124.75
653.99	132.75
654.194	145.75
654.398	138.75
654.602	131.75
654.806	138.75
655.01	124.75
655.214	146.75
655.418	126.75
655.622	147.75
655.826	142.75
656.03	138.75
656.234	121.75
656.438	141.75
656.642	133.75
656.846	133.75
657.049	133.75
657.253	128.75
657.457	108.75
657.661	120.75
657.865	125.75
658.068	101.75
658.272	100.75
658.476	104.75
658.68	102.75
658.883	104.75
659.087	102.75
659.291	106.75
659.494	106.75
659.698	93.75
659.901	95.75
660.105	89.75
660.309	97.75
660.512	83.75
660.716	96.75
660.919	98.75
661.123	92.75
661.326	83.75
661.53	86.75
661.733	91.75
661.936	80.75
662.14	85.75
662.343	85.75
662.546	86.75
662.75	82.75
662.953	102.75
663.156	84.75
663.36	88.75
663.563	85.75
663.766	85.75
663.969	81.75
664.173	73.75
664.376	75.75
664.579	91.75
664.782	75.75
664.985	81.75
665.188	89.75
665.391	87.75
665.594	87.75
665.797	92.75
666	96.75
666.203	81.75
666.406	99.75
666.609	86.75
666.812	85.75
667.015	91.75
667.218	73.75
667.421	87.75
667.624	85.75
667.827	82.75
668.03	84.75
668.232	66.75
668.435	91.75
668.638	82.75
668.841	91.75
669.043	75.75
669.246	86.75
669.449	81.75
669.651	79.75
669.854	80.75
670.057	77.75
670.259	82.75
670.462	67.75
670.665	80.75
670.867	74.75
671.07	81.75
671.272	101.75
671.475	76.75
671.677	77.75
671.88	81.75
672.082	86.75
672.284	95.75
672.487	79.75
672.689	73.75
672.892	84.75
