Data from 1970.PennyLincolnUp.Lamp.En5.5.200Scan.071719.P1._HRD10591_15-14-50-842.txt Node
Date: Thu Jul 18 15:14:50 EDT 2019
User: cochatt
Spectrometer: HR+D1059
Trigger mode: 1
Integration Time (sec): 1.000000E-1
Scans to average: 1
Electric dark correction enabled: true
Nonlinearity correction enabled: false
Boxcar width: 0
XAxis mode: Wavelengths
Number of Pixels in Spectrum: 2048
>>>>>Begin Spectral Data<<<<<
223.165	-14.12
223.4	-14.12
223.635	-14.12
223.869	-18.12
224.104	-6.12
224.338	-14.12
224.573	-8.12
224.808	-10.12
225.042	3.88
225.277	-6.12
225.511	-16.12
225.746	-20.12
225.98	-3.12
226.215	9.88
226.449	15.88
226.683	24.88
226.918	31.88
227.152	29.88
227.387	54.88
227.621	31.88
227.856	32.88
228.09	37.88
228.324	37.88
228.559	37.88
228.793	66.88
229.027	112.88
229.262	118.88
229.496	123.88
229.73	146.88
229.964	159.88
230.199	132.88
230.433	145.88
230.667	122.88
230.901	106.88
231.136	118.88
231.37	118.88
231.604	127.88
231.838	124.88
232.072	130.88
232.306	112.88
232.541	113.88
232.775	114.88
233.009	126.88
233.243	102.88
233.477	105.88
233.711	106.88
233.945	114.88
234.179	115.88
234.413	128.88
234.647	112.88
234.881	123.88
235.115	130.88
235.349	120.88
235.583	116.88
235.817	122.88
236.051	146.88
236.285	127.88
236.519	126.88
236.753	131.88
236.987	157.88
237.221	206.88
237.455	255.88
237.689	224.88
237.922	156.88
238.156	149.88
238.39	142.88
238.624	131.88
238.858	139.88
239.091	113.88
239.325	127.88
239.559	134.88
239.793	132.88
240.027	152.88
240.26	140.88
240.494	169.88
240.728	168.88
240.961	159.88
241.195	155.88
241.429	176.88
241.662	143.88
241.896	147.88
242.13	150.88
242.363	123.88
242.597	136.88
242.83	152.88
243.064	135.88
243.298	139.88
243.531	153.88
243.765	158.88
243.998	152.88
244.232	145.88
244.465	147.88
244.699	147.88
244.932	140.88
245.166	144.88
245.399	163.88
245.633	144.88
245.866	140.88
246.099	159.88
246.333	156.88
246.566	150.88
246.8	169.88
247.033	164.88
247.266	160.88
247.5	168.88
247.733	186.88
247.966	178.88
248.2	195.88
248.433	180.88
248.666	190.88
248.899	201.88
249.133	193.88
249.366	227.88
249.599	205.88
249.832	198.88
250.066	203.88
250.299	191.88
250.532	200.88
250.765	209.88
250.998	256.88
251.231	245.88
251.465	227.88
251.698	226.88
251.931	217.88
252.164	214.88
252.397	226.88
252.63	231.88
252.863	232.88
253.096	256.88
253.329	244.88
253.562	246.88
253.795	223.88
254.028	244.88
254.261	254.88
254.494	252.88
254.727	290.88
254.96	322.88
255.193	304.88
255.426	283.88
255.659	249.88
255.892	254.88
256.124	254.88
256.357	271.88
256.59	251.88
256.823	232.88
257.056	226.88
257.289	224.88
257.521	226.88
257.754	232.88
257.987	233.88
258.22	227.88
258.452	225.88
258.685	225.88
258.918	231.88
259.151	224.88
259.383	231.88
259.616	247.88
259.849	240.88
260.081	243.88
260.314	266.88
260.547	263.88
260.779	262.88
261.012	256.88
261.244	256.88
261.477	246.88
261.71	243.88
261.942	242.88
262.175	247.88
262.407	220.88
262.64	213.88
262.872	223.88
263.105	232.88
263.337	221.88
263.57	213.88
263.802	218.88
264.035	211.88
264.267	221.88
264.499	219.88
264.732	220.88
264.964	214.88
265.197	215.88
265.429	220.88
265.661	232.88
265.894	220.88
266.126	226.88
266.358	225.88
266.591	222.88
266.823	225.88
267.055	239.88
267.287	239.88
267.52	242.88
267.752	234.88
267.984	223.88
268.216	236.88
268.448	210.88
268.681	250.88
268.913	256.88
269.145	264.88
269.377	305.88
269.609	287.88
269.841	287.88
270.073	278.88
270.306	308.88
270.538	327.88
270.77	334.88
271.002	328.88
271.234	306.88
271.466	302.88
271.698	318.88
271.93	336.88
272.162	344.88
272.394	328.88
272.626	332.88
272.858	299.88
273.09	283.88
273.322	320.88
273.553	265.88
273.785	279.88
274.017	257.88
274.249	274.88
274.481	270.88
274.713	268.88
274.945	256.88
275.176	266.88
275.408	289.88
275.64	279.88
275.872	266.88
276.104	263.88
276.335	265.88
276.567	286.88
276.799	305.88
277.031	302.88
277.262	346.88
277.494	330.88
277.726	305.88
277.957	297.88
278.189	271.88
278.421	282.88
278.652	275.88
278.884	274.88
279.115	256.88
279.347	267.88
279.579	270.88
279.81	251.88
280.042	256.88
280.273	256.88
280.505	273.88
280.736	272.88
280.968	263.88
281.199	278.88
281.431	278.88
281.662	262.88
281.894	263.88
282.125	276.88
282.356	287.88
282.588	325.88
282.819	327.88
283.051	258.88
283.282	268.88
283.513	272.88
283.745	277.88
283.976	287.88
284.207	264.88
284.439	284.88
284.67	282.88
284.901	271.88
285.132	279.88
285.364	283.88
285.595	280.88
285.826	253.88
286.057	262.88
286.288	274.88
286.52	280.88
286.751	276.88
286.982	256.88
287.213	278.88
287.444	267.88
287.675	287.88
287.906	287.88
288.138	288.88
288.369	296.88
288.6	316.88
288.831	293.88
289.062	284.88
289.293	278.88
289.524	278.88
289.755	257.88
289.986	285.88
290.217	257.88
290.448	277.88
290.679	310.88
290.91	287.88
291.141	270.88
291.371	291.88
291.602	282.88
291.833	297.88
292.064	270.88
292.295	264.88
292.526	281.88
292.757	286.88
292.987	272.88
293.218	279.88
293.449	284.88
293.68	285.88
293.91	275.88
294.141	288.88
294.372	285.88
294.603	282.88
294.833	286.88
295.064	289.88
295.295	295.88
295.525	291.88
295.756	282.88
295.987	316.88
296.217	327.88
296.448	337.88
296.679	296.88
296.909	280.88
297.14	293.88
297.37	286.88
297.601	274.88
297.831	294.88
298.062	290.88
298.292	281.88
298.523	316.88
298.753	296.88
298.984	290.88
299.214	292.88
299.445	296.88
299.675	298.88
299.905	305.88
300.136	305.88
300.366	311.88
300.597	284.88
300.827	306.88
301.057	308.88
301.288	336.88
301.518	308.88
301.748	298.88
301.979	308.88
302.209	314.88
302.439	322.88
302.669	329.88
302.9	310.88
303.13	313.88
303.36	332.88
303.59	319.88
303.82	315.88
304.051	332.88
304.281	305.88
304.511	309.88
304.741	331.88
304.971	329.88
305.201	325.88
305.431	321.88
305.661	318.88
305.891	318.88
306.121	335.88
306.352	331.88
306.582	328.88
306.812	310.88
307.042	317.88
307.272	333.88
307.502	315.88
307.731	318.88
307.961	311.88
308.191	325.88
308.421	337.88
308.651	325.88
308.881	303.88
309.111	355.88
309.341	342.88
309.571	356.88
309.8	366.88
310.03	392.88
310.26	381.88
310.49	397.88
310.72	392.88
310.949	397.88
311.179	412.88
311.409	378.88
311.639	370.88
311.868	379.88
312.098	407.88
312.328	399.88
312.557	416.88
312.787	414.88
313.017	407.88
313.246	404.88
313.476	387.88
313.706	385.88
313.935	393.88
314.165	405.88
314.394	410.88
314.624	418.88
314.853	394.88
315.083	391.88
315.312	375.88
315.542	383.88
315.771	370.88
316.001	387.88
316.23	376.88
316.46	369.88
316.689	376.88
316.919	399.88
317.148	386.88
317.377	407.88
317.607	386.88
317.836	414.88
318.065	385.88
318.295	380.88
318.524	368.88
318.753	389.88
318.983	386.88
319.212	388.88
319.441	393.88
319.67	406.88
319.9	387.88
320.129	374.88
320.358	400.88
320.587	384.88
320.816	390.88
321.046	389.88
321.275	412.88
321.504	408.88
321.733	410.88
321.962	432.88
322.191	419.88
322.42	450.88
322.649	476.88
322.878	480.88
323.108	505.88
323.337	496.88
323.566	556.88
323.795	594.88
324.024	641.88
324.253	798.88
324.482	1094.88
324.71	1747.88
324.939	2435.88
325.168	2167.88
325.397	1156.88
325.626	753.88
325.855	604.88
326.084	554.88
326.313	552.88
326.542	566.88
326.77	600.88
326.999	735.88
327.228	1011.88
327.457	1477.88
327.686	1828.88
327.914	1226.88
328.143	822.88
328.372	718.88
328.6	678.88
328.829	619.88
329.058	639.88
329.287	664.88
329.515	612.88
329.744	571.88
329.972	576.88
330.201	583.88
330.43	623.88
330.658	657.88
330.887	681.88
331.115	691.88
331.344	567.88
331.572	543.88
331.801	512.88
332.03	518.88
332.258	495.88
332.486	473.88
332.715	447.88
332.943	464.88
333.172	454.88
333.4	455.88
333.629	515.88
333.857	505.88
334.085	491.88
334.314	502.88
334.542	573.88
334.771	578.88
334.999	536.88
335.227	494.88
335.455	487.88
335.684	467.88
335.912	437.88
336.14	446.88
336.369	448.88
336.597	452.88
336.825	460.88
337.053	454.88
337.281	430.88
337.51	454.88
337.738	448.88
337.966	447.88
338.194	441.88
338.422	448.88
338.65	430.88
338.878	454.88
339.106	451.88
339.334	436.88
339.562	425.88
339.79	418.88
340.018	440.88
340.246	449.88
340.474	443.88
340.702	456.88
340.93	441.88
341.158	432.88
341.386	436.88
341.614	453.88
341.842	445.88
342.07	437.88
342.298	418.88
342.526	428.88
342.754	416.88
342.981	411.88
343.209	432.88
343.437	409.88
343.665	426.88
343.893	448.88
344.12	446.88
344.348	449.88
344.576	446.88
344.804	443.88
345.031	438.88
345.259	477.88
345.487	464.88
345.714	452.88
345.942	441.88
346.17	435.88
346.397	431.88
346.625	443.88
346.853	427.88
347.08	416.88
347.308	433.88
347.535	448.88
347.763	465.88
347.99	442.88
348.218	448.88
348.445	459.88
348.673	461.88
348.9	457.88
349.128	421.88
349.355	437.88
349.583	407.88
349.81	407.88
350.037	412.88
350.265	414.88
350.492	407.88
350.72	422.88
350.947	433.88
351.174	432.88
351.402	440.88
351.629	432.88
351.856	453.88
352.083	460.88
352.311	478.88
352.538	464.88
352.765	472.88
352.992	444.88
353.22	420.88
353.447	449.88
353.674	418.88
353.901	412.88
354.128	400.88
354.355	411.88
354.583	405.88
354.81	417.88
355.037	408.88
355.264	408.88
355.491	394.88
355.718	391.88
355.945	407.88
356.172	382.88
356.399	406.88
356.626	408.88
356.853	401.88
357.08	396.88
357.307	397.88
357.534	398.88
357.761	403.88
357.988	397.88
358.215	391.88
358.441	412.88
358.668	412.88
358.895	433.88
359.122	414.88
359.349	402.88
359.576	438.88
359.802	464.88
360.029	507.88
360.256	528.88
360.483	488.88
360.709	444.88
360.936	421.88
361.163	443.88
361.39	453.88
361.616	447.88
361.843	433.88
362.07	414.88
362.296	451.88
362.523	429.88
362.749	431.88
362.976	439.88
363.203	431.88
363.429	399.88
363.656	419.88
363.882	413.88
364.109	419.88
364.335	418.88
364.562	427.88
364.788	391.88
365.015	415.88
365.241	423.88
365.468	444.88
365.694	433.88
365.92	432.88
366.147	397.88
366.373	435.88
366.599	404.88
366.826	435.88
367.052	421.88
367.278	425.88
367.505	394.88
367.731	410.88
367.957	409.88
368.184	427.88
368.41	430.88
368.636	404.88
368.862	454.88
369.089	419.88
369.315	417.88
369.541	419.88
369.767	423.88
369.993	410.88
370.219	418.88
370.445	404.88
370.672	393.88
370.898	428.88
371.124	397.88
371.35	401.88
371.576	410.88
371.802	406.88
372.028	411.88
372.254	392.88
372.48	420.88
372.706	408.88
372.932	402.88
373.158	433.88
373.384	419.88
373.61	409.88
373.835	416.88
374.061	401.88
374.287	422.88
374.513	411.88
374.739	404.88
374.965	393.88
375.191	429.88
375.416	425.88
375.642	431.88
375.868	426.88
376.094	404.88
376.319	402.88
376.545	415.88
376.771	403.88
376.997	420.88
377.222	397.88
377.448	410.88
377.674	405.88
377.899	419.88
378.125	424.88
378.35	409.88
378.576	401.88
378.802	419.88
379.027	403.88
379.253	412.88
379.478	398.88
379.704	420.88
379.929	415.88
380.155	431.88
380.38	418.88
380.606	426.88
380.831	419.88
381.057	413.88
381.282	423.88
381.507	412.88
381.733	444.88
381.958	415.88
382.184	431.88
382.409	419.88
382.634	418.88
382.86	404.88
383.085	437.88
383.31	403.88
383.535	420.88
383.761	428.88
383.986	421.88
384.211	434.88
384.436	455.88
384.662	410.88
384.887	456.88
385.112	398.88
385.337	421.88
385.562	436.88
385.787	441.88
386.013	454.88
386.238	486.88
386.463	455.88
386.688	466.88
386.913	445.88
387.138	452.88
387.363	445.88
387.588	448.88
387.813	450.88
388.038	455.88
388.263	450.88
388.488	456.88
388.713	452.88
388.938	446.88
389.163	447.88
389.387	432.88
389.612	432.88
389.837	435.88
390.062	447.88
390.287	436.88
390.512	435.88
390.736	440.88
390.961	441.88
391.186	441.88
391.411	452.88
391.636	456.88
391.86	442.88
392.085	459.88
392.31	450.88
392.534	422.88
392.759	457.88
392.984	456.88
393.208	466.88
393.433	455.88
393.658	445.88
393.882	455.88
394.107	450.88
394.331	443.88
394.556	461.88
394.78	458.88
395.005	458.88
395.229	449.88
395.454	447.88
395.678	459.88
395.903	451.88
396.127	501.88
396.352	494.88
396.576	498.88
396.801	474.88
397.025	466.88
397.249	493.88
397.474	473.88
397.698	473.88
397.922	489.88
398.147	495.88
398.371	500.88
398.595	494.88
398.82	507.88
399.044	514.88
399.268	520.88
399.492	522.88
399.717	540.88
399.941	589.88
400.165	624.88
400.389	640.88
400.613	601.88
400.837	554.88
401.062	555.88
401.286	513.88
401.51	498.88
401.734	510.88
401.958	504.88
402.182	511.88
402.406	540.88
402.63	532.88
402.854	525.88
403.078	542.88
403.302	526.88
403.526	527.88
403.75	528.88
403.974	547.88
404.198	523.88
404.422	530.88
404.645	539.88
404.869	566.88
405.093	579.88
405.317	625.88
405.541	633.88
405.765	604.88
405.988	579.88
406.212	610.88
406.436	634.88
406.66	629.88
406.883	593.88
407.107	611.88
407.331	648.88
407.555	703.88
407.778	698.88
408.002	676.88
408.226	622.88
408.449	622.88
408.673	605.88
408.896	636.88
409.12	642.88
409.344	630.88
409.567	570.88
409.791	565.88
410.014	566.88
410.238	530.88
410.461	547.88
410.685	564.88
410.908	552.88
411.132	596.88
411.355	658.88
411.578	606.88
411.802	567.88
412.025	544.88
412.249	579.88
412.472	596.88
412.695	613.88
412.919	630.88
413.142	574.88
413.365	556.88
413.589	536.88
413.812	526.88
414.035	546.88
414.258	524.88
414.482	529.88
414.705	531.88
414.928	511.88
415.151	497.88
415.374	495.88
415.597	509.88
415.821	525.88
416.044	519.88
416.267	521.88
416.49	507.88
416.713	501.88
416.936	510.88
417.159	521.88
417.382	511.88
417.605	545.88
417.828	544.88
418.051	556.88
418.274	537.88
418.497	539.88
418.72	512.88
418.943	504.88
419.166	524.88
419.389	547.88
419.611	561.88
419.834	560.88
420.057	558.88
420.28	587.88
420.503	544.88
420.726	559.88
420.948	585.88
421.171	622.88
421.394	678.88
421.617	584.88
421.839	552.88
422.062	552.88
422.285	553.88
422.507	647.88
422.73	708.88
422.953	686.88
423.175	630.88
423.398	580.88
423.621	576.88
423.843	598.88
424.066	618.88
424.288	596.88
424.511	619.88
424.733	682.88
424.956	766.88
425.178	753.88
425.401	743.88
425.623	752.88
425.846	664.88
426.068	624.88
426.291	601.88
426.513	592.88
426.735	626.88
426.958	666.88
427.18	717.88
427.402	869.88
427.625	967.88
427.847	887.88
428.069	755.88
428.292	680.88
428.514	618.88
428.736	593.88
428.958	592.88
429.181	567.88
429.403	561.88
429.625	596.88
429.847	633.88
430.069	674.88
430.292	672.88
430.514	604.88
430.736	580.88
430.958	575.88
431.18	549.88
431.402	528.88
431.624	517.88
431.846	518.88
432.068	534.88
432.29	553.88
432.512	520.88
432.734	544.88
432.956	532.88
433.178	530.88
433.4	548.88
433.622	539.88
433.844	541.88
434.066	529.88
434.287	525.88
434.509	531.88
434.731	546.88
434.953	553.88
435.175	561.88
435.397	630.88
435.618	604.88
435.84	675.88
436.062	755.88
436.284	818.88
436.505	693.88
436.727	641.88
436.949	613.88
437.17	576.88
437.392	581.88
437.614	588.88
437.835	634.88
438.057	768.88
438.278	858.88
438.5	865.88
438.721	888.88
438.943	866.88
439.165	697.88
439.386	669.88
439.608	662.88
439.829	623.88
440.05	676.88
440.272	722.88
440.493	658.88
440.715	614.88
440.936	612.88
441.158	611.88
441.379	579.88
441.6	608.88
441.822	608.88
442.043	679.88
442.264	744.88
442.486	776.88
442.707	661.88
442.928	627.88
443.149	656.88
443.371	681.88
443.592	711.88
443.813	797.88
444.034	878.88
444.255	720.88
444.476	658.88
444.698	624.88
444.919	623.88
445.14	686.88
445.361	683.88
445.582	646.88
445.803	715.88
446.024	843.88
446.245	850.88
446.466	772.88
446.687	685.88
446.908	618.88
447.129	594.88
447.35	586.88
447.571	592.88
447.792	581.88
448.013	601.88
448.234	590.88
448.455	661.88
448.675	789.88
448.896	893.88
449.117	755.88
449.338	721.88
449.559	814.88
449.779	938.88
450	772.88
450.221	658.88
450.442	595.88
450.662	580.88
450.883	595.88
451.104	602.88
451.324	579.88
451.545	550.88
451.766	558.88
451.986	542.88
452.207	522.88
452.428	506.88
452.648	508.88
452.869	515.88
453.089	513.88
453.31	535.88
453.53	535.88
453.751	499.88
453.971	517.88
454.192	546.88
454.412	522.88
454.633	524.88
454.853	515.88
455.073	509.88
455.294	551.88
455.514	601.88
455.734	603.88
455.955	535.88
456.175	471.88
456.395	478.88
456.616	472.88
456.836	478.88
457.056	482.88
457.276	450.88
457.497	473.88
457.717	471.88
457.937	478.88
458.157	500.88
458.377	525.88
458.598	530.88
458.818	582.88
459.038	686.88
459.258	692.88
459.478	580.88
459.698	546.88
459.918	548.88
460.138	531.88
460.358	521.88
460.578	522.88
460.798	547.88
461.018	534.88
461.238	496.88
461.458	516.88
461.678	513.88
461.898	501.88
462.118	527.88
462.338	522.88
462.558	519.88
462.777	510.88
462.997	524.88
463.217	561.88
463.437	577.88
463.657	555.88
463.876	548.88
464.096	575.88
464.316	530.88
464.536	567.88
464.755	586.88
464.975	583.88
465.195	627.88
465.414	722.88
465.634	638.88
465.854	603.88
466.073	562.88
466.293	538.88
466.512	515.88
466.732	531.88
466.951	502.88
467.171	530.88
467.391	528.88
467.61	518.88
467.829	544.88
468.049	546.88
468.268	529.88
468.488	535.88
468.707	519.88
468.927	508.88
469.146	498.88
469.365	493.88
469.585	535.88
469.804	521.88
470.023	537.88
470.243	522.88
470.462	549.88
470.681	556.88
470.901	558.88
471.12	535.88
471.339	517.88
471.558	547.88
471.777	531.88
471.997	534.88
472.216	557.88
472.435	581.88
472.654	601.88
472.873	533.88
473.092	534.88
473.311	529.88
473.53	526.88
473.749	530.88
473.968	595.88
474.187	700.88
474.406	729.88
474.625	631.88
474.844	562.88
475.063	528.88
475.282	562.88
475.501	552.88
475.72	532.88
475.939	560.88
476.158	539.88
476.377	547.88
476.596	543.88
476.814	549.88
477.033	559.88
477.252	564.88
477.471	571.88
477.69	566.88
477.908	572.88
478.127	577.88
478.346	560.88
478.564	589.88
478.783	610.88
479.002	608.88
479.22	609.88
479.439	616.88
479.658	635.88
479.876	646.88
480.095	661.88
480.313	675.88
480.532	679.88
480.751	656.88
480.969	644.88
481.188	738.88
481.406	806.88
481.624	724.88
481.843	674.88
482.061	632.88
482.28	639.88
482.498	666.88
482.717	648.88
482.935	656.88
483.153	636.88
483.372	639.88
483.59	663.88
483.808	642.88
484.027	624.88
484.245	634.88
484.463	649.88
484.681	637.88
484.9	639.88
485.118	653.88
485.336	660.88
485.554	647.88
485.772	670.88
485.99	647.88
486.209	639.88
486.427	661.88
486.645	692.88
486.863	708.88
487.081	686.88
487.299	698.88
487.517	691.88
487.735	706.88
487.953	700.88
488.171	706.88
488.389	698.88
488.607	675.88
488.825	694.88
489.043	688.88
489.261	716.88
489.479	692.88
489.696	706.88
489.914	722.88
490.132	721.88
490.35	733.88
490.568	713.88
490.786	741.88
491.003	745.88
491.221	778.88
491.439	784.88
491.657	787.88
491.874	810.88
492.092	803.88
492.31	844.88
492.527	826.88
492.745	831.88
492.963	832.88
493.18	840.88
493.398	815.88
493.615	834.88
493.833	842.88
494.05	836.88
494.268	846.88
494.485	809.88
494.703	838.88
494.92	843.88
495.138	859.88
495.355	859.88
495.573	855.88
495.79	839.88
496.008	827.88
496.225	852.88
496.442	857.88
496.66	824.88
496.877	839.88
497.094	837.88
497.312	854.88
497.529	834.88
497.746	851.88
497.963	864.88
498.181	902.88
498.398	873.88
498.615	880.88
498.832	927.88
499.049	894.88
499.267	908.88
499.484	912.88
499.701	962.88
499.918	959.88
500.135	1033.88
500.352	1035.88
500.569	1010.88
500.786	1021.88
501.003	1042.88
501.22	1000.88
501.437	1003.88
501.654	993.88
501.871	985.88
502.088	954.88
502.305	955.88
502.522	935.88
502.739	918.88
502.956	900.88
503.172	851.88
503.389	852.88
503.606	855.88
503.823	843.88
504.04	831.88
504.256	830.88
504.473	848.88
504.69	827.88
504.907	818.88
505.123	801.88
505.34	793.88
505.557	819.88
505.773	807.88
505.99	823.88
506.207	818.88
506.423	798.88
506.64	780.88
506.856	801.88
507.073	799.88
507.289	782.88
507.506	772.88
507.722	799.88
507.939	841.88
508.155	816.88
508.372	764.88
508.588	800.88
508.805	737.88
509.021	761.88
509.238	788.88
509.454	795.88
509.67	792.88
509.887	767.88
510.103	776.88
510.319	761.88
510.536	903.88
510.752	1499.88
510.968	1258.88
511.184	820.88
511.401	768.88
511.617	766.88
511.833	731.88
512.049	697.88
512.265	707.88
512.481	752.88
512.698	725.88
512.914	736.88
513.13	714.88
513.346	720.88
513.562	736.88
513.778	736.88
513.994	746.88
514.21	755.88
514.426	785.88
514.642	850.88
514.858	896.88
515.074	928.88
515.29	1104.88
515.506	1650.88
515.721	1347.88
515.937	912.88
516.153	831.88
516.369	792.88
516.585	766.88
516.801	736.88
517.016	745.88
517.232	740.88
517.448	770.88
517.664	749.88
517.879	736.88
518.095	718.88
518.311	705.88
518.527	723.88
518.742	755.88
518.958	724.88
519.173	707.88
519.389	711.88
519.605	728.88
519.82	743.88
520.036	744.88
520.251	790.88
520.467	794.88
520.682	801.88
520.898	841.88
521.113	865.88
521.329	908.88
521.544	1045.88
521.76	1322.88
521.975	2209.88
522.19	2194.88
522.406	1182.88
522.621	888.88
522.836	797.88
523.052	748.88
523.267	722.88
523.482	666.88
523.698	675.88
523.913	694.88
524.128	690.88
524.343	684.88
524.559	653.88
524.774	630.88
524.989	648.88
525.204	663.88
525.419	657.88
525.634	635.88
525.849	624.88
526.064	612.88
526.28	599.88
526.495	601.88
526.71	593.88
526.925	591.88
527.14	609.88
527.355	602.88
527.57	584.88
527.785	588.88
527.999	586.88
528.214	590.88
528.429	601.88
528.644	584.88
528.859	603.88
529.074	582.88
529.289	607.88
529.503	729.88
529.718	692.88
529.933	643.88
530.148	622.88
530.363	607.88
530.577	596.88
530.792	590.88
531.007	567.88
531.221	594.88
531.436	555.88
531.651	571.88
531.865	554.88
532.08	547.88
532.295	553.88
532.509	550.88
532.724	534.88
532.938	555.88
533.153	545.88
533.367	550.88
533.582	538.88
533.796	541.88
534.011	544.88
534.225	531.88
534.44	541.88
534.654	541.88
534.868	536.88
535.083	552.88
535.297	524.88
535.511	529.88
535.726	558.88
535.94	563.88
536.154	560.88
536.369	536.88
536.583	529.88
536.797	536.88
537.011	513.88
537.225	527.88
537.44	520.88
537.654	520.88
537.868	521.88
538.082	532.88
538.296	549.88
538.51	525.88
538.724	540.88
538.938	542.88
539.153	530.88
539.367	544.88
539.581	563.88
539.795	521.88
540.009	542.88
540.222	536.88
540.436	538.88
540.65	521.88
540.864	524.88
541.078	540.88
541.292	526.88
541.506	506.88
541.72	525.88
541.934	514.88
542.147	524.88
542.361	508.88
542.575	521.88
542.789	524.88
543.002	518.88
543.216	542.88
543.43	523.88
543.644	518.88
543.857	521.88
544.071	509.88
544.285	520.88
544.498	532.88
544.712	521.88
544.925	522.88
545.139	530.88
545.352	516.88
545.566	530.88
545.779	513.88
545.993	523.88
546.206	511.88
546.42	509.88
546.633	527.88
546.847	495.88
547.06	506.88
547.274	512.88
547.487	494.88
547.7	489.88
547.914	484.88
548.127	494.88
548.34	500.88
548.554	491.88
548.767	505.88
548.98	482.88
549.193	498.88
549.407	490.88
549.62	516.88
549.833	489.88
550.046	488.88
550.259	481.88
550.473	473.88
550.686	516.88
550.899	501.88
551.112	470.88
551.325	476.88
551.538	486.88
551.751	461.88
551.964	478.88
552.177	476.88
552.39	488.88
552.603	463.88
552.816	476.88
553.029	507.88
553.242	476.88
553.455	478.88
553.667	494.88
553.88	514.88
554.093	514.88
554.306	497.88
554.519	522.88
554.732	488.88
554.944	493.88
555.157	475.88
555.37	464.88
555.583	469.88
555.795	463.88
556.008	487.88
556.221	466.88
556.433	469.88
556.646	459.88
556.859	459.88
557.071	457.88
557.284	458.88
557.496	442.88
557.709	440.88
557.921	435.88
558.134	459.88
558.346	442.88
558.559	464.88
558.771	462.88
558.984	425.88
559.196	430.88
559.409	447.88
559.621	444.88
559.833	433.88
560.046	427.88
560.258	435.88
560.47	434.88
560.683	450.88
560.895	408.88
561.107	432.88
561.32	434.88
561.532	442.88
561.744	449.88
561.956	430.88
562.168	452.88
562.381	445.88
562.593	448.88
562.805	435.88
563.017	424.88
563.229	423.88
563.441	457.88
563.653	435.88
563.865	452.88
564.077	426.88
564.289	422.88
564.501	453.88
564.713	428.88
564.925	454.88
565.137	465.88
565.349	462.88
565.561	475.88
565.773	452.88
565.985	460.88
566.197	446.88
566.408	460.88
566.62	486.88
566.832	487.88
567.044	491.88
567.255	503.88
567.467	495.88
567.679	507.88
567.891	518.88
568.102	497.88
568.314	506.88
568.526	471.88
568.737	454.88
568.949	462.88
569.161	450.88
569.372	441.88
569.584	417.88
569.795	446.88
570.007	435.88
570.218	500.88
570.43	484.88
570.641	412.88
570.853	403.88
571.064	427.88
571.276	422.88
571.487	409.88
571.698	396.88
571.91	391.88
572.121	407.88
572.333	390.88
572.544	389.88
572.755	388.88
572.966	388.88
573.178	377.88
573.389	382.88
573.6	379.88
573.811	354.88
574.023	382.88
574.234	363.88
574.445	357.88
574.656	373.88
574.867	384.88
575.078	358.88
575.289	377.88
575.501	362.88
575.712	358.88
575.923	382.88
576.134	378.88
576.345	362.88
576.556	368.88
576.767	357.88
576.978	355.88
577.188	360.88
577.399	366.88
577.61	351.88
577.821	352.88
578.032	355.88
578.243	396.88
578.454	714.88
578.665	520.88
578.875	376.88
579.086	359.88
579.297	336.88
579.508	343.88
579.718	349.88
579.929	374.88
580.14	367.88
580.35	351.88
580.561	328.88
580.772	332.88
580.982	347.88
581.193	347.88
581.403	329.88
581.614	346.88
581.825	329.88
582.035	329.88
582.246	316.88
582.456	346.88
582.667	348.88
582.877	337.88
583.087	326.88
583.298	317.88
583.508	337.88
583.719	338.88
583.929	332.88
584.139	311.88
584.35	334.88
584.56	321.88
584.77	323.88
584.981	320.88
585.191	337.88
585.401	319.88
585.611	338.88
585.821	303.88
586.032	330.88
586.242	330.88
586.452	322.88
586.662	320.88
586.872	334.88
587.082	344.88
587.292	323.88
587.502	306.88
587.713	328.88
587.923	326.88
588.133	319.88
588.343	327.88
588.553	323.88
588.762	342.88
588.972	336.88
589.182	314.88
589.392	320.88
589.602	345.88
589.812	315.88
590.022	333.88
590.232	309.88
590.441	314.88
590.651	305.88
590.861	318.88
591.071	328.88
591.281	307.88
591.49	303.88
591.7	321.88
591.91	319.88
592.119	328.88
592.329	322.88
592.539	319.88
592.748	326.88
592.958	318.88
593.167	336.88
593.377	328.88
593.587	335.88
593.796	337.88
594.006	314.88
594.215	323.88
594.424	300.88
594.634	326.88
594.843	329.88
595.053	330.88
595.262	307.88
595.472	312.88
595.681	321.88
595.89	319.88
596.1	315.88
596.309	308.88
596.518	289.88
596.727	322.88
596.937	319.88
597.146	291.88
597.355	309.88
597.564	312.88
597.774	298.88
597.983	295.88
598.192	308.88
598.401	294.88
598.61	283.88
598.819	280.88
599.028	274.88
599.237	291.88
599.446	290.88
599.655	294.88
599.864	297.88
600.073	281.88
600.282	297.88
600.491	271.88
600.7	283.88
600.909	278.88
601.118	288.88
601.327	288.88
601.536	286.88
601.745	289.88
601.953	278.88
602.162	306.88
602.371	276.88
602.58	275.88
602.789	272.88
602.997	266.88
603.206	269.88
603.415	261.88
603.623	266.88
603.832	277.88
604.041	267.88
604.249	272.88
604.458	283.88
604.666	255.88
604.875	264.88
605.084	263.88
605.292	263.88
605.501	275.88
605.709	265.88
605.918	275.88
606.126	285.88
606.334	271.88
606.543	283.88
606.751	269.88
606.96	255.88
607.168	287.88
607.376	279.88
607.585	290.88
607.793	269.88
608.001	263.88
608.21	246.88
608.418	283.88
608.626	260.88
608.834	268.88
609.043	269.88
609.251	266.88
609.459	292.88
609.667	276.88
609.875	264.88
610.083	274.88
610.291	267.88
610.499	261.88
610.707	266.88
610.916	268.88
611.124	281.88
611.332	272.88
611.54	283.88
611.748	264.88
611.955	283.88
612.163	256.88
612.371	284.88
612.579	255.88
612.787	272.88
612.995	256.88
613.203	263.88
613.411	246.88
613.618	242.88
613.826	259.88
614.034	255.88
614.242	255.88
614.449	244.88
614.657	254.88
614.865	262.88
615.072	256.88
615.28	256.88
615.488	251.88
615.695	254.88
615.903	260.88
616.111	260.88
616.318	267.88
616.526	273.88
616.733	267.88
616.941	263.88
617.148	257.88
617.356	258.88
617.563	253.88
617.771	265.88
617.978	251.88
618.185	261.88
618.393	250.88
618.6	255.88
618.807	246.88
619.015	270.88
619.222	238.88
619.429	241.88
619.637	263.88
619.844	260.88
620.051	247.88
620.258	226.88
620.466	224.88
620.673	229.88
620.88	243.88
621.087	233.88
621.294	230.88
621.501	244.88
621.708	233.88
621.915	259.88
622.122	260.88
622.329	229.88
622.536	235.88
622.743	249.88
622.95	241.88
623.157	235.88
623.364	252.88
623.571	228.88
623.778	214.88
623.985	225.88
624.192	237.88
624.399	248.88
624.606	233.88
624.812	228.88
625.019	239.88
625.226	235.88
625.433	220.88
625.639	232.88
625.846	233.88
626.053	224.88
626.259	207.88
626.466	227.88
626.673	225.88
626.879	215.88
627.086	224.88
627.293	243.88
627.499	210.88
627.706	214.88
627.912	211.88
628.119	231.88
628.325	226.88
628.532	219.88
628.738	220.88
628.945	233.88
629.151	222.88
629.357	222.88
629.564	215.88
629.77	198.88
629.976	209.88
630.183	212.88
630.389	208.88
630.595	209.88
630.802	201.88
631.008	207.88
631.214	201.88
631.42	195.88
631.627	190.88
631.833	219.88
632.039	212.88
632.245	215.88
632.451	213.88
632.657	224.88
632.863	207.88
633.069	200.88
633.275	199.88
633.481	191.88
633.688	210.88
633.893	203.88
634.099	200.88
634.305	209.88
634.511	199.88
634.717	192.88
634.923	184.88
635.129	185.88
635.335	190.88
635.541	187.88
635.747	203.88
635.952	190.88
636.158	191.88
636.364	204.88
636.57	204.88
636.775	198.88
636.981	201.88
637.187	198.88
637.392	191.88
637.598	187.88
637.804	187.88
638.009	179.88
638.215	188.88
638.421	198.88
638.626	184.88
638.832	191.88
639.037	184.88
639.243	189.88
639.448	193.88
639.654	184.88
639.859	173.88
640.065	185.88
640.27	178.88
640.475	192.88
640.681	189.88
640.886	168.88
641.091	198.88
641.297	188.88
641.502	170.88
641.707	191.88
641.913	180.88
642.118	169.88
642.323	167.88
642.528	188.88
642.733	186.88
642.939	170.88
643.144	169.88
643.349	182.88
643.554	194.88
643.759	162.88
643.964	170.88
644.169	182.88
644.374	190.88
644.579	190.88
644.784	170.88
644.989	167.88
645.194	187.88
645.399	173.88
645.604	163.88
645.809	186.88
646.014	176.88
646.219	174.88
646.423	193.88
646.628	180.88
646.833	177.88
647.038	176.88
647.243	183.88
647.447	170.88
647.652	186.88
647.857	163.88
648.062	163.88
648.266	163.88
648.471	160.88
648.676	168.88
648.88	185.88
649.085	164.88
649.289	171.88
649.494	167.88
649.698	178.88
649.903	178.88
650.107	187.88
650.312	152.88
650.516	161.88
650.721	158.88
650.925	149.88
651.13	162.88
651.334	153.88
651.539	152.88
651.743	139.88
651.947	146.88
652.152	151.88
652.356	143.88
652.56	151.88
652.764	144.88
652.969	147.88
653.173	144.88
653.377	153.88
653.581	142.88
653.785	133.88
653.99	139.88
654.194	144.88
654.398	129.88
654.602	118.88
654.806	136.88
655.01	130.88
655.214	127.88
655.418	138.88
655.622	135.88
655.826	136.88
656.03	130.88
656.234	123.88
656.438	123.88
656.642	122.88
656.846	123.88
657.049	137.88
657.253	123.88
657.457	127.88
657.661	122.88
657.865	114.88
658.068	117.88
658.272	107.88
658.476	108.88
658.68	119.88
658.883	114.88
659.087	95.88
659.291	102.88
659.494	91.88
659.698	95.88
659.901	104.88
660.105	85.88
660.309	94.88
660.512	100.88
660.716	97.88
660.919	87.88
661.123	79.88
661.326	82.88
661.53	87.88
661.733	90.88
661.936	78.88
662.14	79.88
662.343	76.88
662.546	84.88
662.75	78.88
662.953	92.88
663.156	78.88
663.36	94.88
663.563	82.88
663.766	86.88
663.969	70.88
664.173	83.88
664.376	76.88
664.579	91.88
664.782	73.88
664.985	68.88
665.188	76.88
665.391	84.88
665.594	68.88
665.797	84.88
666	77.88
666.203	86.88
666.406	73.88
666.609	86.88
666.812	95.88
667.015	81.88
667.218	75.88
667.421	92.88
667.624	73.88
667.827	71.88
668.03	80.88
668.232	84.88
668.435	74.88
668.638	74.88
668.841	82.88
669.043	70.88
669.246	84.88
669.449	79.88
669.651	77.88
669.854	76.88
670.057	87.88
670.259	86.88
670.462	73.88
670.665	64.88
670.867	73.88
671.07	81.88
671.272	76.88
671.475	84.88
671.677	87.88
671.88	75.88
672.082	72.88
672.284	71.88
672.487	80.88
672.689	77.88
672.892	86.88
