Data from 1970.PennyLincolnUp.Lamp.En5.5.200Scan.071719.P1._HRD10591_15-16-19-841.txt Node
Date: Thu Jul 18 15:16:19 EDT 2019
User: cochatt
Spectrometer: HR+D1059
Trigger mode: 1
Integration Time (sec): 1.000000E-1
Scans to average: 1
Electric dark correction enabled: true
Nonlinearity correction enabled: false
Boxcar width: 0
XAxis mode: Wavelengths
Number of Pixels in Spectrum: 2048
>>>>>Begin Spectral Data<<<<<
223.165	-20.44
223.4	-20.44
223.635	-20.44
223.869	-19.44
224.104	-10.44
224.338	-26.44
224.573	-9.44
224.808	-12.44
225.042	-10.44
225.277	-5.44
225.511	-9.44
225.746	11.56
225.98	6.56
226.215	12.56
226.449	13.56
226.683	23.56
226.918	23.56
227.152	32.56
227.387	23.56
227.621	36.56
227.856	45.56
228.09	52.56
228.324	47.56
228.559	51.56
228.793	73.56
229.027	103.56
229.262	126.56
229.496	121.56
229.73	163.56
229.964	179.56
230.199	154.56
230.433	131.56
230.667	128.56
230.901	131.56
231.136	130.56
231.37	124.56
231.604	122.56
231.838	122.56
232.072	128.56
232.306	116.56
232.541	120.56
232.775	127.56
233.009	127.56
233.243	128.56
233.477	128.56
233.711	139.56
233.945	115.56
234.179	123.56
234.413	125.56
234.647	119.56
234.881	128.56
235.115	135.56
235.349	120.56
235.583	134.56
235.817	134.56
236.051	131.56
236.285	123.56
236.519	121.56
236.753	131.56
236.987	148.56
237.221	214.56
237.455	263.56
237.689	221.56
237.922	179.56
238.156	148.56
238.39	156.56
238.624	145.56
238.858	146.56
239.091	131.56
239.325	127.56
239.559	143.56
239.793	138.56
240.027	152.56
240.26	161.56
240.494	174.56
240.728	166.56
240.961	168.56
241.195	156.56
241.429	167.56
241.662	152.56
241.896	129.56
242.13	138.56
242.363	163.56
242.597	165.56
242.83	173.56
243.064	160.56
243.298	162.56
243.531	165.56
243.765	157.56
243.998	151.56
244.232	160.56
244.465	158.56
244.699	160.56
244.932	158.56
245.166	143.56
245.399	165.56
245.633	162.56
245.866	137.56
246.099	142.56
246.333	164.56
246.566	172.56
246.8	152.56
247.033	181.56
247.266	182.56
247.5	179.56
247.733	193.56
247.966	202.56
248.2	201.56
248.433	177.56
248.666	178.56
248.899	201.56
249.133	235.56
249.366	238.56
249.599	229.56
249.832	204.56
250.066	212.56
250.299	227.56
250.532	224.56
250.765	234.56
250.998	264.56
251.231	267.56
251.465	261.56
251.698	255.56
251.931	225.56
252.164	228.56
252.397	235.56
252.63	223.56
252.863	219.56
253.096	248.56
253.329	259.56
253.562	279.56
253.795	269.56
254.028	259.56
254.261	235.56
254.494	268.56
254.727	281.56
254.96	332.56
255.193	329.56
255.426	298.56
255.659	264.56
255.892	259.56
256.124	268.56
256.357	293.56
256.59	268.56
256.823	248.56
257.056	249.56
257.289	238.56
257.521	240.56
257.754	227.56
257.987	252.56
258.22	221.56
258.452	228.56
258.685	247.56
258.918	251.56
259.151	251.56
259.383	233.56
259.616	247.56
259.849	237.56
260.081	263.56
260.314	297.56
260.547	278.56
260.779	271.56
261.012	263.56
261.244	255.56
261.477	256.56
261.71	265.56
261.942	258.56
262.175	251.56
262.407	261.56
262.64	243.56
262.872	252.56
263.105	235.56
263.337	223.56
263.57	233.56
263.802	237.56
264.035	233.56
264.267	218.56
264.499	218.56
264.732	243.56
264.964	238.56
265.197	257.56
265.429	234.56
265.661	238.56
265.894	226.56
266.126	239.56
266.358	235.56
266.591	234.56
266.823	241.56
267.055	236.56
267.287	246.56
267.52	227.56
267.752	247.56
267.984	252.56
268.216	231.56
268.448	239.56
268.681	246.56
268.913	272.56
269.145	278.56
269.377	317.56
269.609	313.56
269.841	291.56
270.073	296.56
270.306	339.56
270.538	336.56
270.77	349.56
271.002	327.56
271.234	330.56
271.466	318.56
271.698	351.56
271.93	356.56
272.162	354.56
272.394	362.56
272.626	335.56
272.858	316.56
273.09	293.56
273.322	293.56
273.553	278.56
273.785	278.56
274.017	272.56
274.249	288.56
274.481	285.56
274.713	293.56
274.945	293.56
275.176	286.56
275.408	279.56
275.64	284.56
275.872	281.56
276.104	285.56
276.335	280.56
276.567	292.56
276.799	302.56
277.031	345.56
277.262	345.56
277.494	339.56
277.726	344.56
277.957	308.56
278.189	294.56
278.421	287.56
278.652	300.56
278.884	273.56
279.115	281.56
279.347	285.56
279.579	271.56
279.81	275.56
280.042	275.56
280.273	301.56
280.505	280.56
280.736	267.56
280.968	275.56
281.199	291.56
281.431	277.56
281.662	274.56
281.894	280.56
282.125	289.56
282.356	315.56
282.588	328.56
282.819	321.56
283.051	289.56
283.282	283.56
283.513	287.56
283.745	309.56
283.976	293.56
284.207	292.56
284.439	283.56
284.67	287.56
284.901	284.56
285.132	295.56
285.364	311.56
285.595	281.56
285.826	282.56
286.057	273.56
286.288	273.56
286.52	279.56
286.751	283.56
286.982	289.56
287.213	274.56
287.444	295.56
287.675	287.56
287.906	294.56
288.138	321.56
288.369	307.56
288.6	310.56
288.831	304.56
289.062	312.56
289.293	313.56
289.524	298.56
289.755	305.56
289.986	299.56
290.217	295.56
290.448	309.56
290.679	300.56
290.91	285.56
291.141	297.56
291.371	287.56
291.602	292.56
291.833	300.56
292.064	275.56
292.295	301.56
292.526	275.56
292.757	307.56
292.987	282.56
293.218	297.56
293.449	317.56
293.68	289.56
293.91	286.56
294.141	300.56
294.372	286.56
294.603	287.56
294.833	304.56
295.064	287.56
295.295	316.56
295.525	300.56
295.756	312.56
295.987	333.56
296.217	349.56
296.448	360.56
296.679	304.56
296.909	318.56
297.14	305.56
297.37	296.56
297.601	315.56
297.831	292.56
298.062	332.56
298.292	307.56
298.523	296.56
298.753	321.56
298.984	305.56
299.214	314.56
299.445	316.56
299.675	309.56
299.905	317.56
300.136	309.56
300.366	315.56
300.597	303.56
300.827	327.56
301.057	329.56
301.288	348.56
301.518	351.56
301.748	329.56
301.979	336.56
302.209	328.56
302.439	319.56
302.669	335.56
302.9	336.56
303.13	337.56
303.36	335.56
303.59	347.56
303.82	357.56
304.051	359.56
304.281	323.56
304.511	331.56
304.741	333.56
304.971	327.56
305.201	320.56
305.431	352.56
305.661	343.56
305.891	309.56
306.121	329.56
306.352	349.56
306.582	333.56
306.812	359.56
307.042	343.56
307.272	332.56
307.502	335.56
307.731	347.56
307.961	351.56
308.191	354.56
308.421	336.56
308.651	367.56
308.881	368.56
309.111	365.56
309.341	363.56
309.571	385.56
309.8	390.56
310.03	398.56
310.26	398.56
310.49	376.56
310.72	395.56
310.949	450.56
311.179	434.56
311.409	436.56
311.639	406.56
311.868	403.56
312.098	403.56
312.328	403.56
312.557	420.56
312.787	445.56
313.017	436.56
313.246	409.56
313.476	410.56
313.706	414.56
313.935	404.56
314.165	417.56
314.394	423.56
314.624	431.56
314.853	425.56
315.083	408.56
315.312	393.56
315.542	399.56
315.771	386.56
316.001	380.56
316.23	399.56
316.46	391.56
316.689	389.56
316.919	425.56
317.148	404.56
317.377	443.56
317.607	407.56
317.836	410.56
318.065	406.56
318.295	405.56
318.524	389.56
318.753	382.56
318.983	408.56
319.212	394.56
319.441	403.56
319.67	428.56
319.9	412.56
320.129	383.56
320.358	408.56
320.587	411.56
320.816	409.56
321.046	443.56
321.275	430.56
321.504	412.56
321.733	421.56
321.962	443.56
322.191	451.56
322.42	484.56
322.649	523.56
322.878	505.56
323.108	501.56
323.337	553.56
323.566	563.56
323.795	637.56
324.024	695.56
324.253	818.56
324.482	1177.56
324.71	1868.56
324.939	2611.56
325.168	2253.56
325.397	1197.56
325.626	794.56
325.855	647.56
326.084	596.56
326.313	579.56
326.542	596.56
326.77	624.56
326.999	760.56
327.228	1060.56
327.457	1603.56
327.686	1992.56
327.914	1329.56
328.143	870.56
328.372	723.56
328.6	694.56
328.829	675.56
329.058	670.56
329.287	689.56
329.515	647.56
329.744	584.56
329.972	595.56
330.201	605.56
330.43	676.56
330.658	702.56
330.887	747.56
331.115	695.56
331.344	581.56
331.572	568.56
331.801	529.56
332.03	545.56
332.258	508.56
332.486	506.56
332.715	475.56
332.943	487.56
333.172	476.56
333.4	499.56
333.629	495.56
333.857	527.56
334.085	542.56
334.314	535.56
334.542	616.56
334.771	635.56
334.999	569.56
335.227	516.56
335.455	488.56
335.684	502.56
335.912	485.56
336.14	463.56
336.369	454.56
336.597	467.56
336.825	484.56
337.053	462.56
337.281	474.56
337.51	461.56
337.738	473.56
337.966	486.56
338.194	491.56
338.422	465.56
338.65	478.56
338.878	438.56
339.106	431.56
339.334	463.56
339.562	465.56
339.79	465.56
340.018	461.56
340.246	463.56
340.474	454.56
340.702	464.56
340.93	463.56
341.158	438.56
341.386	451.56
341.614	466.56
341.842	457.56
342.07	462.56
342.298	439.56
342.526	449.56
342.754	449.56
342.981	453.56
343.209	435.56
343.437	427.56
343.665	438.56
343.893	435.56
344.12	441.56
344.348	439.56
344.576	475.56
344.804	475.56
345.031	469.56
345.259	482.56
345.487	478.56
345.714	464.56
345.942	441.56
346.17	445.56
346.397	443.56
346.625	448.56
346.853	431.56
347.08	456.56
347.308	460.56
347.535	466.56
347.763	467.56
347.99	477.56
348.218	460.56
348.445	480.56
348.673	480.56
348.9	441.56
349.128	445.56
349.355	432.56
349.583	441.56
349.81	432.56
350.037	446.56
350.265	435.56
350.492	436.56
350.72	445.56
350.947	451.56
351.174	446.56
351.402	467.56
351.629	453.56
351.856	460.56
352.083	490.56
352.311	497.56
352.538	512.56
352.765	472.56
352.992	492.56
353.22	464.56
353.447	459.56
353.674	445.56
353.901	426.56
354.128	445.56
354.355	422.56
354.583	441.56
354.81	422.56
355.037	422.56
355.264	415.56
355.491	419.56
355.718	414.56
355.945	406.56
356.172	415.56
356.399	404.56
356.626	416.56
356.853	408.56
357.08	425.56
357.307	408.56
357.534	424.56
357.761	439.56
357.988	408.56
358.215	432.56
358.441	399.56
358.668	413.56
358.895	429.56
359.122	442.56
359.349	454.56
359.576	445.56
359.802	458.56
360.029	549.56
360.256	547.56
360.483	523.56
360.709	475.56
360.936	459.56
361.163	467.56
361.39	463.56
361.616	447.56
361.843	460.56
362.07	451.56
362.296	456.56
362.523	469.56
362.749	460.56
362.976	449.56
363.203	446.56
363.429	422.56
363.656	439.56
363.882	442.56
364.109	445.56
364.335	436.56
364.562	431.56
364.788	415.56
365.015	433.56
365.241	436.56
365.468	423.56
365.694	450.56
365.92	470.56
366.147	423.56
366.373	445.56
366.599	441.56
366.826	426.56
367.052	415.56
367.278	429.56
367.505	446.56
367.731	441.56
367.957	440.56
368.184	452.56
368.41	453.56
368.636	458.56
368.862	455.56
369.089	431.56
369.315	431.56
369.541	439.56
369.767	452.56
369.993	445.56
370.219	422.56
370.445	429.56
370.672	435.56
370.898	421.56
371.124	428.56
371.35	444.56
371.576	424.56
371.802	431.56
372.028	430.56
372.254	419.56
372.48	426.56
372.706	419.56
372.932	416.56
373.158	410.56
373.384	425.56
373.61	428.56
373.835	449.56
374.061	427.56
374.287	437.56
374.513	446.56
374.739	460.56
374.965	452.56
375.191	425.56
375.416	424.56
375.642	415.56
375.868	424.56
376.094	432.56
376.319	427.56
376.545	421.56
376.771	422.56
376.997	428.56
377.222	438.56
377.448	452.56
377.674	445.56
377.899	419.56
378.125	429.56
378.35	423.56
378.576	433.56
378.802	425.56
379.027	409.56
379.253	430.56
379.478	437.56
379.704	438.56
379.929	438.56
380.155	449.56
380.38	447.56
380.606	435.56
380.831	417.56
381.057	444.56
381.282	441.56
381.507	442.56
381.733	449.56
381.958	432.56
382.184	433.56
382.409	430.56
382.634	458.56
382.86	420.56
383.085	454.56
383.31	460.56
383.535	464.56
383.761	429.56
383.986	459.56
384.211	445.56
384.436	447.56
384.662	438.56
384.887	464.56
385.112	456.56
385.337	465.56
385.562	470.56
385.787	457.56
386.013	480.56
386.238	471.56
386.463	473.56
386.688	473.56
386.913	449.56
387.138	457.56
387.363	484.56
387.588	459.56
387.813	440.56
388.038	449.56
388.263	479.56
388.488	465.56
388.713	470.56
388.938	459.56
389.163	481.56
389.387	472.56
389.612	448.56
389.837	469.56
390.062	458.56
390.287	483.56
390.512	443.56
390.736	461.56
390.961	469.56
391.186	471.56
391.411	457.56
391.636	493.56
391.86	463.56
392.085	464.56
392.31	463.56
392.534	470.56
392.759	489.56
392.984	455.56
393.208	468.56
393.433	475.56
393.658	472.56
393.882	455.56
394.107	490.56
394.331	481.56
394.556	465.56
394.78	444.56
395.005	475.56
395.229	457.56
395.454	469.56
395.678	491.56
395.903	496.56
396.127	524.56
396.352	515.56
396.576	505.56
396.801	485.56
397.025	486.56
397.249	493.56
397.474	485.56
397.698	493.56
397.922	508.56
398.147	525.56
398.371	525.56
398.595	512.56
398.82	530.56
399.044	525.56
399.268	528.56
399.492	541.56
399.717	581.56
399.941	602.56
400.165	639.56
400.389	655.56
400.613	608.56
400.837	569.56
401.062	561.56
401.286	549.56
401.51	524.56
401.734	544.56
401.958	539.56
402.182	547.56
402.406	534.56
402.63	566.56
402.854	543.56
403.078	556.56
403.302	584.56
403.526	553.56
403.75	575.56
403.974	549.56
404.198	543.56
404.422	552.56
404.645	569.56
404.869	584.56
405.093	608.56
405.317	663.56
405.541	705.56
405.765	606.56
405.988	594.56
406.212	613.56
406.436	630.56
406.66	641.56
406.883	626.56
407.107	640.56
407.331	687.56
407.555	742.56
407.778	742.56
408.002	684.56
408.226	636.56
408.449	615.56
408.673	629.56
408.896	680.56
409.12	713.56
409.344	661.56
409.567	605.56
409.791	584.56
410.014	568.56
410.238	573.56
410.461	547.56
410.685	566.56
410.908	591.56
411.132	631.56
411.355	660.56
411.578	633.56
411.802	595.56
412.025	575.56
412.249	579.56
412.472	605.56
412.695	672.56
412.919	645.56
413.142	585.56
413.365	557.56
413.589	548.56
413.812	557.56
414.035	561.56
414.258	542.56
414.482	545.56
414.705	540.56
414.928	537.56
415.151	547.56
415.374	532.56
415.597	533.56
415.821	535.56
416.044	527.56
416.267	544.56
416.49	549.56
416.713	559.56
416.936	534.56
417.159	548.56
417.382	541.56
417.605	545.56
417.828	569.56
418.051	579.56
418.274	543.56
418.497	541.56
418.72	556.56
418.943	540.56
419.166	554.56
419.389	573.56
419.611	565.56
419.834	571.56
420.057	590.56
420.28	569.56
420.503	572.56
420.726	583.56
420.948	592.56
421.171	624.56
421.394	664.56
421.617	592.56
421.839	559.56
422.062	580.56
422.285	584.56
422.507	656.56
422.73	741.56
422.953	693.56
423.175	657.56
423.398	611.56
423.621	607.56
423.843	617.56
424.066	633.56
424.288	615.56
424.511	637.56
424.733	693.56
424.956	791.56
425.178	789.56
425.401	776.56
425.623	778.56
425.846	671.56
426.068	639.56
426.291	649.56
426.513	644.56
426.735	631.56
426.958	706.56
427.18	780.56
427.402	899.56
427.625	1007.56
427.847	924.56
428.069	803.56
428.292	717.56
428.514	688.56
428.736	627.56
428.958	627.56
429.181	592.56
429.403	597.56
429.625	619.56
429.847	625.56
430.069	707.56
430.292	697.56
430.514	597.56
430.736	588.56
430.958	575.56
431.18	558.56
431.402	541.56
431.624	550.56
431.846	539.56
432.068	536.56
432.29	547.56
432.512	538.56
432.734	587.56
432.956	561.56
433.178	585.56
433.4	595.56
433.622	568.56
433.844	551.56
434.066	555.56
434.287	558.56
434.509	549.56
434.731	553.56
434.953	575.56
435.175	599.56
435.397	624.56
435.618	658.56
435.84	691.56
436.062	761.56
436.284	880.56
436.505	731.56
436.727	649.56
436.949	608.56
437.17	598.56
437.392	591.56
437.614	609.56
437.835	655.56
438.057	767.56
438.278	912.56
438.5	881.56
438.721	950.56
438.943	887.56
439.165	736.56
439.386	658.56
439.608	655.56
439.829	683.56
440.05	708.56
440.272	734.56
440.493	697.56
440.715	643.56
440.936	611.56
441.158	618.56
441.379	616.56
441.6	631.56
441.822	651.56
442.043	696.56
442.264	760.56
442.486	798.56
442.707	691.56
442.928	664.56
443.149	649.56
443.371	679.56
443.592	736.56
443.813	807.56
444.034	893.56
444.255	738.56
444.476	673.56
444.698	645.56
444.919	619.56
445.14	752.56
445.361	695.56
445.582	679.56
445.803	759.56
446.024	902.56
446.245	880.56
446.466	799.56
446.687	698.56
446.908	645.56
447.129	613.56
447.35	607.56
447.571	583.56
447.792	586.56
448.013	616.56
448.234	617.56
448.455	692.56
448.675	813.56
448.896	909.56
449.117	800.56
449.338	747.56
449.559	863.56
449.779	953.56
450	775.56
450.221	678.56
450.442	620.56
450.662	588.56
450.883	584.56
451.104	640.56
451.324	615.56
451.545	577.56
451.766	541.56
451.986	527.56
452.207	540.56
452.428	545.56
452.648	552.56
452.869	541.56
453.089	557.56
453.31	532.56
453.53	554.56
453.751	556.56
453.971	548.56
454.192	573.56
454.412	571.56
454.633	543.56
454.853	520.56
455.073	524.56
455.294	568.56
455.514	618.56
455.734	619.56
455.955	541.56
456.175	513.56
456.395	492.56
456.616	489.56
456.836	479.56
457.056	492.56
457.276	479.56
457.497	495.56
457.717	477.56
457.937	505.56
458.157	502.56
458.377	510.56
458.598	559.56
458.818	615.56
459.038	739.56
459.258	732.56
459.478	628.56
459.698	563.56
459.918	545.56
460.138	522.56
460.358	547.56
460.578	553.56
460.798	544.56
461.018	557.56
461.238	547.56
461.458	538.56
461.678	547.56
461.898	540.56
462.118	528.56
462.338	561.56
462.558	539.56
462.777	564.56
462.997	550.56
463.217	574.56
463.437	591.56
463.657	548.56
463.876	567.56
464.096	589.56
464.316	601.56
464.536	601.56
464.755	603.56
464.975	590.56
465.195	661.56
465.414	781.56
465.634	680.56
465.854	614.56
466.073	568.56
466.293	558.56
466.512	553.56
466.732	565.56
466.951	549.56
467.171	527.56
467.391	532.56
467.61	545.56
467.829	556.56
468.049	570.56
468.268	559.56
468.488	545.56
468.707	546.56
468.927	519.56
469.146	519.56
469.365	523.56
469.585	528.56
469.804	557.56
470.023	539.56
470.243	536.56
470.462	551.56
470.681	592.56
470.901	590.56
471.12	553.56
471.339	551.56
471.558	578.56
471.777	554.56
471.997	544.56
472.216	555.56
472.435	628.56
472.654	588.56
472.873	565.56
473.092	560.56
473.311	539.56
473.53	567.56
473.749	565.56
473.968	631.56
474.187	723.56
474.406	752.56
474.625	613.56
474.844	575.56
475.063	566.56
475.282	576.56
475.501	563.56
475.72	583.56
475.939	579.56
476.158	542.56
476.377	579.56
476.596	551.56
476.814	590.56
477.033	574.56
477.252	577.56
477.471	583.56
477.69	576.56
477.908	577.56
478.127	597.56
478.346	607.56
478.564	615.56
478.783	592.56
479.002	619.56
479.22	648.56
479.439	650.56
479.658	655.56
479.876	666.56
480.095	697.56
480.313	708.56
480.532	680.56
480.751	665.56
480.969	694.56
481.188	782.56
481.406	891.56
481.624	743.56
481.843	685.56
482.061	711.56
482.28	656.56
482.498	656.56
482.717	663.56
482.935	662.56
483.153	629.56
483.372	649.56
483.59	676.56
483.808	656.56
484.027	668.56
484.245	673.56
484.463	666.56
484.681	665.56
484.9	666.56
485.118	661.56
485.336	661.56
485.554	695.56
485.772	699.56
485.99	677.56
486.209	658.56
486.427	702.56
486.645	711.56
486.863	713.56
487.081	733.56
487.299	738.56
487.517	716.56
487.735	697.56
487.953	711.56
488.171	717.56
488.389	695.56
488.607	715.56
488.825	713.56
489.043	725.56
489.261	719.56
489.479	756.56
489.696	731.56
489.914	737.56
490.132	752.56
490.35	744.56
490.568	775.56
490.786	785.56
491.003	768.56
491.221	800.56
491.439	815.56
491.657	813.56
491.874	829.56
492.092	825.56
492.31	873.56
492.527	843.56
492.745	864.56
492.963	845.56
493.18	868.56
493.398	850.56
493.615	885.56
493.833	865.56
494.05	877.56
494.268	862.56
494.485	885.56
494.703	835.56
494.92	861.56
495.138	875.56
495.355	887.56
495.573	893.56
495.79	867.56
496.008	875.56
496.225	867.56
496.442	867.56
496.66	864.56
496.877	839.56
497.094	862.56
497.312	870.56
497.529	884.56
497.746	903.56
497.963	915.56
498.181	926.56
498.398	928.56
498.615	873.56
498.832	917.56
499.049	905.56
499.267	950.56
499.484	937.56
499.701	988.56
499.918	1005.56
500.135	1049.56
500.352	1079.56
500.569	1061.56
500.786	1068.56
501.003	1048.56
501.22	1047.56
501.437	1046.56
501.654	1035.56
501.871	1037.56
502.088	1000.56
502.305	984.56
502.522	949.56
502.739	947.56
502.956	913.56
503.172	906.56
503.389	881.56
503.606	905.56
503.823	875.56
504.04	888.56
504.256	864.56
504.473	833.56
504.69	832.56
504.907	816.56
505.123	864.56
505.34	822.56
505.557	835.56
505.773	841.56
505.99	857.56
506.207	823.56
506.423	879.56
506.64	844.56
506.856	809.56
507.073	828.56
507.289	816.56
507.506	828.56
507.722	825.56
507.939	886.56
508.155	841.56
508.372	838.56
508.588	805.56
508.805	821.56
509.021	800.56
509.238	784.56
509.454	804.56
509.67	822.56
509.887	816.56
510.103	827.56
510.319	815.56
510.536	955.56
510.752	1575.56
510.968	1314.56
511.184	839.56
511.401	792.56
511.617	779.56
511.833	757.56
512.049	762.56
512.265	764.56
512.481	765.56
512.698	771.56
512.914	747.56
513.13	770.56
513.346	751.56
513.562	752.56
513.778	761.56
513.994	783.56
514.21	784.56
514.426	842.56
514.642	890.56
514.858	902.56
515.074	990.56
515.29	1188.56
515.506	1834.56
515.721	1459.56
515.937	965.56
516.153	851.56
516.369	826.56
516.585	796.56
516.801	773.56
517.016	789.56
517.232	793.56
517.448	757.56
517.664	755.56
517.879	751.56
518.095	759.56
518.311	758.56
518.527	745.56
518.742	731.56
518.958	756.56
519.173	784.56
519.389	780.56
519.605	776.56
519.82	753.56
520.036	800.56
520.251	839.56
520.467	853.56
520.682	827.56
520.898	859.56
521.113	866.56
521.329	963.56
521.544	1105.56
521.76	1395.56
521.975	2339.56
522.19	2343.56
522.406	1230.56
522.621	947.56
522.836	851.56
523.052	788.56
523.267	737.56
523.482	726.56
523.698	708.56
523.913	733.56
524.128	714.56
524.343	687.56
524.559	664.56
524.774	681.56
524.989	656.56
525.204	668.56
525.419	677.56
525.634	654.56
525.849	670.56
526.064	614.56
526.28	624.56
526.495	627.56
526.71	631.56
526.925	601.56
527.14	594.56
527.355	617.56
527.57	601.56
527.785	605.56
527.999	589.56
528.214	599.56
528.429	580.56
528.644	606.56
528.859	607.56
529.074	614.56
529.289	650.56
529.503	755.56
529.718	734.56
529.933	663.56
530.148	629.56
530.363	611.56
530.577	616.56
530.792	611.56
531.007	598.56
531.221	593.56
531.436	584.56
531.651	591.56
531.865	569.56
532.08	584.56
532.295	556.56
532.509	558.56
532.724	558.56
532.938	563.56
533.153	604.56
533.367	565.56
533.582	581.56
533.796	580.56
534.011	588.56
534.225	578.56
534.44	553.56
534.654	546.56
534.868	541.56
535.083	561.56
535.297	568.56
535.511	585.56
535.726	598.56
535.94	596.56
536.154	584.56
536.369	589.56
536.583	584.56
536.797	537.56
537.011	540.56
537.225	540.56
537.44	573.56
537.654	533.56
537.868	519.56
538.082	558.56
538.296	543.56
538.51	544.56
538.724	539.56
538.938	555.56
539.153	561.56
539.367	560.56
539.581	573.56
539.795	550.56
540.009	541.56
540.222	548.56
540.436	557.56
540.65	539.56
540.864	558.56
541.078	538.56
541.292	549.56
541.506	545.56
541.72	540.56
541.934	543.56
542.147	549.56
542.361	550.56
542.575	544.56
542.789	542.56
543.002	550.56
543.216	527.56
543.43	527.56
543.644	542.56
543.857	538.56
544.071	545.56
544.285	553.56
544.498	521.56
544.712	529.56
544.925	538.56
545.139	503.56
545.352	545.56
545.566	527.56
545.779	522.56
545.993	538.56
546.206	528.56
546.42	521.56
546.633	521.56
546.847	508.56
547.06	525.56
547.274	489.56
547.487	515.56
547.7	504.56
547.914	501.56
548.127	525.56
548.34	515.56
548.554	516.56
548.767	523.56
548.98	535.56
549.193	516.56
549.407	521.56
549.62	513.56
549.833	488.56
550.046	511.56
550.259	488.56
550.473	483.56
550.686	509.56
550.899	524.56
551.112	509.56
551.325	501.56
551.538	492.56
551.751	500.56
551.964	484.56
552.177	494.56
552.39	490.56
552.603	504.56
552.816	511.56
553.029	487.56
553.242	517.56
553.455	525.56
553.667	532.56
553.88	519.56
554.093	520.56
554.306	530.56
554.519	543.56
554.732	518.56
554.944	488.56
555.157	500.56
555.37	462.56
555.583	503.56
555.795	467.56
556.008	484.56
556.221	490.56
556.433	471.56
556.646	475.56
556.859	453.56
557.071	484.56
557.284	470.56
557.496	475.56
557.709	458.56
557.921	467.56
558.134	461.56
558.346	476.56
558.559	458.56
558.771	456.56
558.984	454.56
559.196	453.56
559.409	455.56
559.621	446.56
559.833	442.56
560.046	448.56
560.258	419.56
560.47	455.56
560.683	423.56
560.895	439.56
561.107	442.56
561.32	435.56
561.532	442.56
561.744	455.56
561.956	460.56
562.168	442.56
562.381	470.56
562.593	454.56
562.805	475.56
563.017	455.56
563.229	453.56
563.441	439.56
563.653	462.56
563.865	458.56
564.077	452.56
564.289	453.56
564.501	454.56
564.713	463.56
564.925	465.56
565.137	462.56
565.349	471.56
565.561	461.56
565.773	459.56
565.985	487.56
566.197	485.56
566.408	484.56
566.62	506.56
566.832	509.56
567.044	495.56
567.255	512.56
567.467	489.56
567.679	515.56
567.891	494.56
568.102	515.56
568.314	501.56
568.526	484.56
568.737	478.56
568.949	506.56
569.161	459.56
569.372	451.56
569.584	454.56
569.795	464.56
570.007	430.56
570.218	516.56
570.43	480.56
570.641	430.56
570.853	428.56
571.064	441.56
571.276	421.56
571.487	422.56
571.698	423.56
571.91	418.56
572.121	410.56
572.333	413.56
572.544	388.56
572.755	395.56
572.966	409.56
573.178	395.56
573.389	368.56
573.6	401.56
573.811	403.56
574.023	390.56
574.234	399.56
574.445	395.56
574.656	400.56
574.867	400.56
575.078	387.56
575.289	383.56
575.501	375.56
575.712	375.56
575.923	413.56
576.134	383.56
576.345	368.56
576.556	389.56
576.767	387.56
576.978	361.56
577.188	367.56
577.399	351.56
577.61	372.56
577.821	371.56
578.032	385.56
578.243	419.56
578.454	729.56
578.665	544.56
578.875	364.56
579.086	371.56
579.297	377.56
579.508	359.56
579.718	364.56
579.929	347.56
580.14	374.56
580.35	375.56
580.561	347.56
580.772	349.56
580.982	355.56
581.193	330.56
581.403	344.56
581.614	349.56
581.825	362.56
582.035	336.56
582.246	350.56
582.456	343.56
582.667	358.56
582.877	343.56
583.087	326.56
583.298	335.56
583.508	355.56
583.719	354.56
583.929	359.56
584.139	343.56
584.35	341.56
584.56	323.56
584.77	349.56
584.981	347.56
585.191	329.56
585.401	349.56
585.611	346.56
585.821	329.56
586.032	351.56
586.242	350.56
586.452	347.56
586.662	347.56
586.872	331.56
587.082	321.56
587.292	328.56
587.502	320.56
587.713	331.56
587.923	346.56
588.133	338.56
588.343	327.56
588.553	331.56
588.762	327.56
588.972	330.56
589.182	321.56
589.392	333.56
589.602	330.56
589.812	319.56
590.022	340.56
590.232	329.56
590.441	347.56
590.651	337.56
590.861	317.56
591.071	345.56
591.281	334.56
591.49	327.56
591.7	325.56
591.91	312.56
592.119	327.56
592.329	341.56
592.539	331.56
592.748	348.56
592.958	328.56
593.167	328.56
593.377	326.56
593.587	347.56
593.796	341.56
594.006	327.56
594.215	338.56
594.424	339.56
594.634	334.56
594.843	343.56
595.053	334.56
595.262	326.56
595.472	312.56
595.681	328.56
595.89	310.56
596.1	316.56
596.309	317.56
596.518	325.56
596.727	298.56
596.937	319.56
597.146	298.56
597.355	309.56
597.564	301.56
597.774	300.56
597.983	316.56
598.192	291.56
598.401	302.56
598.61	302.56
598.819	293.56
599.028	316.56
599.237	298.56
599.446	312.56
599.655	300.56
599.864	310.56
600.073	307.56
600.282	294.56
600.491	301.56
600.7	304.56
600.909	291.56
601.118	285.56
601.327	295.56
601.536	289.56
601.745	308.56
601.953	295.56
602.162	295.56
602.371	299.56
602.58	273.56
602.789	297.56
602.997	304.56
603.206	285.56
603.415	272.56
603.623	302.56
603.832	276.56
604.041	294.56
604.249	284.56
604.458	282.56
604.666	285.56
604.875	266.56
605.084	284.56
605.292	287.56
605.501	265.56
605.709	249.56
605.918	266.56
606.126	287.56
606.334	276.56
606.543	290.56
606.751	275.56
606.96	281.56
607.168	266.56
607.376	251.56
607.585	264.56
607.793	277.56
608.001	279.56
608.21	286.56
608.418	275.56
608.626	270.56
608.834	283.56
609.043	282.56
609.251	284.56
609.459	254.56
609.667	282.56
609.875	285.56
610.083	258.56
610.291	295.56
610.499	279.56
610.707	275.56
610.916	276.56
611.124	272.56
611.332	290.56
611.54	286.56
611.748	284.56
611.955	285.56
612.163	274.56
612.371	273.56
612.579	270.56
612.787	272.56
612.995	281.56
613.203	270.56
613.411	259.56
613.618	270.56
613.826	254.56
614.034	268.56
614.242	271.56
614.449	279.56
614.657	269.56
614.865	271.56
615.072	269.56
615.28	273.56
615.488	269.56
615.695	262.56
615.903	267.56
616.111	265.56
616.318	271.56
616.526	278.56
616.733	272.56
616.941	255.56
617.148	277.56
617.356	273.56
617.563	267.56
617.771	259.56
617.978	250.56
618.185	248.56
618.393	251.56
618.6	252.56
618.807	264.56
619.015	254.56
619.222	256.56
619.429	262.56
619.637	266.56
619.844	232.56
620.051	272.56
620.258	287.56
620.466	260.56
620.673	241.56
620.88	241.56
621.087	262.56
621.294	279.56
621.501	240.56
621.708	250.56
621.915	253.56
622.122	272.56
622.329	267.56
622.536	273.56
622.743	260.56
622.95	252.56
623.157	247.56
623.364	256.56
623.571	243.56
623.778	255.56
623.985	243.56
624.192	239.56
624.399	238.56
624.606	243.56
624.812	222.56
625.019	240.56
625.226	232.56
625.433	238.56
625.639	236.56
625.846	230.56
626.053	234.56
626.259	234.56
626.466	236.56
626.673	225.56
626.879	234.56
627.086	241.56
627.293	229.56
627.499	240.56
627.706	237.56
627.912	239.56
628.119	246.56
628.325	231.56
628.532	217.56
628.738	244.56
628.945	223.56
629.151	215.56
629.357	233.56
629.564	209.56
629.77	213.56
629.976	223.56
630.183	214.56
630.389	218.56
630.595	217.56
630.802	210.56
631.008	212.56
631.214	212.56
631.42	232.56
631.627	230.56
631.833	221.56
632.039	215.56
632.245	200.56
632.451	211.56
632.657	213.56
632.863	203.56
633.069	198.56
633.275	218.56
633.481	198.56
633.688	218.56
633.893	213.56
634.099	226.56
634.305	219.56
634.511	203.56
634.717	205.56
634.923	203.56
635.129	189.56
635.335	201.56
635.541	201.56
635.747	207.56
635.952	192.56
636.158	220.56
636.364	213.56
636.57	215.56
636.775	208.56
636.981	211.56
637.187	205.56
637.392	228.56
637.598	209.56
637.804	196.56
638.009	218.56
638.215	194.56
638.421	195.56
638.626	195.56
638.832	195.56
639.037	198.56
639.243	203.56
639.448	194.56
639.654	196.56
639.859	196.56
640.065	187.56
640.27	202.56
640.475	207.56
640.681	175.56
640.886	204.56
641.091	192.56
641.297	187.56
641.502	200.56
641.707	181.56
641.913	188.56
642.118	183.56
642.323	191.56
642.528	192.56
642.733	183.56
642.939	192.56
643.144	192.56
643.349	182.56
643.554	190.56
643.759	183.56
643.964	179.56
644.169	182.56
644.374	194.56
644.579	168.56
644.784	189.56
644.989	181.56
645.194	180.56
645.399	178.56
645.604	183.56
645.809	190.56
646.014	182.56
646.219	180.56
646.423	172.56
646.628	181.56
646.833	186.56
647.038	191.56
647.243	168.56
647.447	185.56
647.652	195.56
647.857	175.56
648.062	168.56
648.266	161.56
648.471	187.56
648.676	196.56
648.88	179.56
649.085	180.56
649.289	186.56
649.494	171.56
649.698	196.56
649.903	195.56
650.107	180.56
650.312	173.56
650.516	159.56
650.721	173.56
650.925	172.56
651.13	167.56
651.334	149.56
651.539	158.56
651.743	159.56
651.947	154.56
652.152	164.56
652.356	152.56
652.56	160.56
652.764	165.56
652.969	147.56
653.173	164.56
653.377	158.56
653.581	146.56
653.785	144.56
653.99	141.56
654.194	144.56
654.398	142.56
654.602	152.56
654.806	150.56
655.01	159.56
655.214	158.56
655.418	147.56
655.622	135.56
655.826	151.56
656.03	130.56
656.234	155.56
656.438	139.56
656.642	135.56
656.846	144.56
657.049	129.56
657.253	122.56
657.457	127.56
657.661	122.56
657.865	135.56
658.068	128.56
658.272	117.56
658.476	126.56
658.68	119.56
658.883	112.56
659.087	120.56
659.291	103.56
659.494	107.56
659.698	112.56
659.901	111.56
660.105	116.56
660.309	104.56
660.512	88.56
660.716	103.56
660.919	104.56
661.123	108.56
661.326	105.56
661.53	92.56
661.733	96.56
661.936	94.56
662.14	95.56
662.343	84.56
662.546	95.56
662.75	103.56
662.953	87.56
663.156	87.56
663.36	81.56
663.563	85.56
663.766	89.56
663.969	91.56
664.173	92.56
664.376	75.56
664.579	81.56
664.782	84.56
664.985	79.56
665.188	82.56
665.391	88.56
665.594	78.56
665.797	79.56
666	87.56
666.203	96.56
666.406	85.56
666.609	82.56
666.812	92.56
667.015	94.56
667.218	100.56
667.421	84.56
667.624	84.56
667.827	100.56
668.03	91.56
668.232	78.56
668.435	90.56
668.638	93.56
668.841	87.56
669.043	71.56
669.246	85.56
669.449	91.56
669.651	80.56
669.854	93.56
670.057	95.56
670.259	76.56
670.462	87.56
670.665	74.56
670.867	82.56
671.07	80.56
671.272	74.56
671.475	89.56
671.677	88.56
671.88	77.56
672.082	82.56
672.284	86.56
672.487	87.56
672.689	87.56
672.892	88.56
