Data from 1970.PennyLincolnUp.Lamp.En5.5.200Scan.071719.P1._HRD10591_15-13-47-842.txt Node
Date: Thu Jul 18 15:13:47 EDT 2019
User: cochatt
Spectrometer: HR+D1059
Trigger mode: 1
Integration Time (sec): 1.000000E-1
Scans to average: 1
Electric dark correction enabled: true
Nonlinearity correction enabled: false
Boxcar width: 0
XAxis mode: Wavelengths
Number of Pixels in Spectrum: 2048
>>>>>Begin Spectral Data<<<<<
223.165	-4.19
223.4	-4.19
223.635	-4.19
223.869	-10.19
224.104	-6.19
224.338	-15.19
224.573	-14.19
224.808	-9.19
225.042	-13.19
225.277	1.81
225.511	-9.19
225.746	0.81
225.98	-0.19
226.215	11.81
226.449	20.81
226.683	13.81
226.918	5.81
227.152	26.81
227.387	36.81
227.621	38.81
227.856	51.81
228.09	51.81
228.324	53.81
228.559	42.81
228.793	55.81
229.027	89.81
229.262	111.81
229.496	110.81
229.73	125.81
229.964	152.81
230.199	134.81
230.433	100.81
230.667	108.81
230.901	112.81
231.136	125.81
231.37	116.81
231.604	111.81
231.838	125.81
232.072	101.81
232.306	120.81
232.541	104.81
232.775	110.81
233.009	106.81
233.243	124.81
233.477	115.81
233.711	119.81
233.945	124.81
234.179	118.81
234.413	116.81
234.647	135.81
234.881	131.81
235.115	112.81
235.349	105.81
235.583	129.81
235.817	126.81
236.051	121.81
236.285	134.81
236.519	127.81
236.753	123.81
236.987	149.81
237.221	186.81
237.455	230.81
237.689	184.81
237.922	146.81
238.156	136.81
238.39	133.81
238.624	132.81
238.858	121.81
239.091	130.81
239.325	132.81
239.559	134.81
239.793	136.81
240.027	136.81
240.26	160.81
240.494	144.81
240.728	160.81
240.961	156.81
241.195	151.81
241.429	151.81
241.662	150.81
241.896	152.81
242.13	137.81
242.363	138.81
242.597	152.81
242.83	136.81
243.064	143.81
243.298	156.81
243.531	155.81
243.765	129.81
243.998	135.81
244.232	143.81
244.465	152.81
244.699	164.81
244.932	152.81
245.166	151.81
245.399	144.81
245.633	141.81
245.866	163.81
246.099	159.81
246.333	141.81
246.566	157.81
246.8	149.81
247.033	144.81
247.266	141.81
247.5	180.81
247.733	186.81
247.966	180.81
248.2	171.81
248.433	181.81
248.666	196.81
248.899	185.81
249.133	196.81
249.366	199.81
249.599	224.81
249.832	196.81
250.066	191.81
250.299	195.81
250.532	190.81
250.765	205.81
250.998	228.81
251.231	232.81
251.465	235.81
251.698	230.81
251.931	222.81
252.164	206.81
252.397	220.81
252.63	220.81
252.863	221.81
253.096	245.81
253.329	232.81
253.562	221.81
253.795	216.81
254.028	229.81
254.261	236.81
254.494	246.81
254.727	265.81
254.96	296.81
255.193	295.81
255.426	269.81
255.659	251.81
255.892	253.81
256.124	244.81
256.357	253.81
256.59	232.81
256.823	243.81
257.056	236.81
257.289	217.81
257.521	225.81
257.754	236.81
257.987	230.81
258.22	207.81
258.452	220.81
258.685	199.81
258.918	204.81
259.151	227.81
259.383	212.81
259.616	237.81
259.849	251.81
260.081	241.81
260.314	259.81
260.547	272.81
260.779	240.81
261.012	223.81
261.244	230.81
261.477	254.81
261.71	216.81
261.942	234.81
262.175	230.81
262.407	224.81
262.64	219.81
262.872	230.81
263.105	217.81
263.337	225.81
263.57	209.81
263.802	217.81
264.035	208.81
264.267	213.81
264.499	215.81
264.732	228.81
264.964	211.81
265.197	233.81
265.429	208.81
265.661	210.81
265.894	218.81
266.126	221.81
266.358	212.81
266.591	232.81
266.823	216.81
267.055	215.81
267.287	232.81
267.52	217.81
267.752	214.81
267.984	222.81
268.216	227.81
268.448	236.81
268.681	239.81
268.913	234.81
269.145	260.81
269.377	285.81
269.609	308.81
269.841	271.81
270.073	283.81
270.306	304.81
270.538	307.81
270.77	317.81
271.002	304.81
271.234	262.81
271.466	294.81
271.698	286.81
271.93	323.81
272.162	321.81
272.394	320.81
272.626	289.81
272.858	296.81
273.09	280.81
273.322	289.81
273.553	283.81
273.785	281.81
274.017	257.81
274.249	266.81
274.481	247.81
274.713	262.81
274.945	261.81
275.176	264.81
275.408	264.81
275.64	246.81
275.872	264.81
276.104	272.81
276.335	267.81
276.567	279.81
276.799	272.81
277.031	301.81
277.262	316.81
277.494	308.81
277.726	278.81
277.957	285.81
278.189	279.81
278.421	277.81
278.652	265.81
278.884	273.81
279.115	272.81
279.347	254.81
279.579	232.81
279.81	268.81
280.042	255.81
280.273	255.81
280.505	252.81
280.736	246.81
280.968	279.81
281.199	252.81
281.431	261.81
281.662	268.81
281.894	268.81
282.125	267.81
282.356	266.81
282.588	294.81
282.819	286.81
283.051	277.81
283.282	255.81
283.513	256.81
283.745	254.81
283.976	244.81
284.207	250.81
284.439	280.81
284.67	270.81
284.901	253.81
285.132	261.81
285.364	268.81
285.595	256.81
285.826	260.81
286.057	261.81
286.288	254.81
286.52	275.81
286.751	254.81
286.982	279.81
287.213	277.81
287.444	262.81
287.675	262.81
287.906	283.81
288.138	302.81
288.369	294.81
288.6	292.81
288.831	284.81
289.062	288.81
289.293	279.81
289.524	278.81
289.755	272.81
289.986	271.81
290.217	284.81
290.448	279.81
290.679	263.81
290.91	284.81
291.141	293.81
291.371	271.81
291.602	279.81
291.833	266.81
292.064	265.81
292.295	270.81
292.526	279.81
292.757	286.81
292.987	281.81
293.218	283.81
293.449	268.81
293.68	272.81
293.91	263.81
294.141	270.81
294.372	268.81
294.603	268.81
294.833	270.81
295.064	256.81
295.295	277.81
295.525	268.81
295.756	288.81
295.987	278.81
296.217	307.81
296.448	307.81
296.679	307.81
296.909	279.81
297.14	278.81
297.37	277.81
297.601	281.81
297.831	278.81
298.062	286.81
298.292	285.81
298.523	296.81
298.753	273.81
298.984	300.81
299.214	299.81
299.445	283.81
299.675	290.81
299.905	279.81
300.136	292.81
300.366	299.81
300.597	290.81
300.827	299.81
301.057	309.81
301.288	295.81
301.518	296.81
301.748	293.81
301.979	293.81
302.209	293.81
302.439	302.81
302.669	300.81
302.9	315.81
303.13	298.81
303.36	316.81
303.59	323.81
303.82	309.81
304.051	311.81
304.281	319.81
304.511	303.81
304.741	316.81
304.971	300.81
305.201	309.81
305.431	299.81
305.661	311.81
305.891	321.81
306.121	310.81
306.352	293.81
306.582	334.81
306.812	320.81
307.042	310.81
307.272	319.81
307.502	303.81
307.731	304.81
307.961	330.81
308.191	307.81
308.421	321.81
308.651	324.81
308.881	316.81
309.111	337.81
309.341	329.81
309.571	327.81
309.8	334.81
310.03	373.81
310.26	368.81
310.49	348.81
310.72	368.81
310.949	372.81
311.179	362.81
311.409	336.81
311.639	353.81
311.868	358.81
312.098	357.81
312.328	371.81
312.557	351.81
312.787	394.81
313.017	393.81
313.246	356.81
313.476	349.81
313.706	358.81
313.935	358.81
314.165	376.81
314.394	351.81
314.624	381.81
314.853	381.81
315.083	374.81
315.312	353.81
315.542	368.81
315.771	356.81
316.001	347.81
316.23	349.81
316.46	351.81
316.689	361.81
316.919	359.81
317.148	372.81
317.377	391.81
317.607	375.81
317.836	371.81
318.065	373.81
318.295	340.81
318.524	357.81
318.753	359.81
318.983	365.81
319.212	352.81
319.441	371.81
319.67	389.81
319.9	358.81
320.129	367.81
320.358	368.81
320.587	379.81
320.816	371.81
321.046	385.81
321.275	375.81
321.504	386.81
321.733	398.81
321.962	392.81
322.191	403.81
322.42	420.81
322.649	424.81
322.878	432.81
323.108	443.81
323.337	474.81
323.566	502.81
323.795	560.81
324.024	583.81
324.253	711.81
324.482	963.81
324.71	1468.81
324.939	2065.81
325.168	1798.81
325.397	995.81
325.626	651.81
325.855	542.81
326.084	505.81
326.313	476.81
326.542	516.81
326.77	559.81
326.999	633.81
327.228	849.81
327.457	1291.81
327.686	1592.81
327.914	1105.81
328.143	733.81
328.372	646.81
328.6	580.81
328.829	574.81
329.058	579.81
329.287	592.81
329.515	560.81
329.744	517.81
329.972	519.81
330.201	505.81
330.43	566.81
330.658	600.81
330.887	617.81
331.115	606.81
331.344	527.81
331.572	481.81
331.801	503.81
332.03	477.81
332.258	473.81
332.486	441.81
332.715	424.81
332.943	439.81
333.172	420.81
333.4	439.81
333.629	435.81
333.857	459.81
334.085	481.81
334.314	475.81
334.542	515.81
334.771	526.81
334.999	481.81
335.227	447.81
335.455	426.81
335.684	447.81
335.912	430.81
336.14	413.81
336.369	410.81
336.597	432.81
336.825	429.81
337.053	417.81
337.281	432.81
337.51	416.81
337.738	426.81
337.966	429.81
338.194	434.81
338.422	419.81
338.65	423.81
338.878	419.81
339.106	394.81
339.334	400.81
339.562	390.81
339.79	388.81
340.018	389.81
340.246	426.81
340.474	415.81
340.702	416.81
340.93	415.81
341.158	423.81
341.386	422.81
341.614	432.81
341.842	404.81
342.07	415.81
342.298	422.81
342.526	414.81
342.754	397.81
342.981	400.81
343.209	394.81
343.437	423.81
343.665	407.81
343.893	402.81
344.12	409.81
344.348	415.81
344.576	411.81
344.804	425.81
345.031	410.81
345.259	447.81
345.487	430.81
345.714	424.81
345.942	409.81
346.17	424.81
346.397	395.81
346.625	399.81
346.853	404.81
347.08	411.81
347.308	412.81
347.535	419.81
347.763	413.81
347.99	408.81
348.218	426.81
348.445	412.81
348.673	435.81
348.9	405.81
349.128	402.81
349.355	408.81
349.583	403.81
349.81	408.81
350.037	384.81
350.265	416.81
350.492	406.81
350.72	393.81
350.947	396.81
351.174	414.81
351.402	437.81
351.629	425.81
351.856	422.81
352.083	419.81
352.311	435.81
352.538	426.81
352.765	438.81
352.992	405.81
353.22	428.81
353.447	423.81
353.674	415.81
353.901	392.81
354.128	379.81
354.355	379.81
354.583	365.81
354.81	393.81
355.037	389.81
355.264	377.81
355.491	374.81
355.718	372.81
355.945	367.81
356.172	372.81
356.399	387.81
356.626	379.81
356.853	384.81
357.08	394.81
357.307	393.81
357.534	372.81
357.761	392.81
357.988	398.81
358.215	399.81
358.441	399.81
358.668	391.81
358.895	398.81
359.122	389.81
359.349	417.81
359.576	424.81
359.802	425.81
360.029	470.81
360.256	469.81
360.483	469.81
360.709	406.81
360.936	424.81
361.163	401.81
361.39	398.81
361.616	424.81
361.843	409.81
362.07	413.81
362.296	406.81
362.523	415.81
362.749	414.81
362.976	424.81
363.203	421.81
363.429	399.81
363.656	404.81
363.882	392.81
364.109	383.81
364.335	400.81
364.562	391.81
364.788	402.81
365.015	405.81
365.241	395.81
365.468	408.81
365.694	417.81
365.92	415.81
366.147	408.81
366.373	398.81
366.599	419.81
366.826	422.81
367.052	398.81
367.278	415.81
367.505	411.81
367.731	400.81
367.957	409.81
368.184	425.81
368.41	406.81
368.636	429.81
368.862	405.81
369.089	424.81
369.315	403.81
369.541	400.81
369.767	408.81
369.993	413.81
370.219	396.81
370.445	414.81
370.672	401.81
370.898	384.81
371.124	394.81
371.35	407.81
371.576	381.81
371.802	397.81
372.028	376.81
372.254	365.81
372.48	377.81
372.706	382.81
372.932	412.81
373.158	413.81
373.384	416.81
373.61	395.81
373.835	413.81
374.061	399.81
374.287	415.81
374.513	424.81
374.739	403.81
374.965	418.81
375.191	411.81
375.416	393.81
375.642	399.81
375.868	417.81
376.094	399.81
376.319	404.81
376.545	413.81
376.771	391.81
376.997	408.81
377.222	396.81
377.448	389.81
377.674	412.81
377.899	394.81
378.125	408.81
378.35	407.81
378.576	390.81
378.802	399.81
379.027	396.81
379.253	398.81
379.478	406.81
379.704	399.81
379.929	408.81
380.155	399.81
380.38	402.81
380.606	402.81
380.831	408.81
381.057	393.81
381.282	388.81
381.507	402.81
381.733	403.81
381.958	403.81
382.184	408.81
382.409	415.81
382.634	411.81
382.86	414.81
383.085	426.81
383.31	423.81
383.535	449.81
383.761	426.81
383.986	401.81
384.211	426.81
384.436	428.81
384.662	404.81
384.887	429.81
385.112	436.81
385.337	446.81
385.562	437.81
385.787	433.81
386.013	465.81
386.238	435.81
386.463	439.81
386.688	438.81
386.913	414.81
387.138	429.81
387.363	450.81
387.588	456.81
387.813	441.81
388.038	439.81
388.263	423.81
388.488	421.81
388.713	452.81
388.938	423.81
389.163	421.81
389.387	438.81
389.612	413.81
389.837	414.81
390.062	434.81
390.287	442.81
390.512	419.81
390.736	419.81
390.961	431.81
391.186	414.81
391.411	429.81
391.636	453.81
391.86	437.81
392.085	463.81
392.31	457.81
392.534	442.81
392.759	433.81
392.984	439.81
393.208	443.81
393.433	445.81
393.658	451.81
393.882	436.81
394.107	418.81
394.331	442.81
394.556	445.81
394.78	428.81
395.005	441.81
395.229	443.81
395.454	466.81
395.678	470.81
395.903	484.81
396.127	472.81
396.352	485.81
396.576	477.81
396.801	444.81
397.025	464.81
397.249	478.81
397.474	468.81
397.698	460.81
397.922	483.81
398.147	487.81
398.371	512.81
398.595	507.81
398.82	508.81
399.044	491.81
399.268	481.81
399.492	528.81
399.717	536.81
399.941	574.81
400.165	601.81
400.389	648.81
400.613	541.81
400.837	512.81
401.062	509.81
401.286	492.81
401.51	494.81
401.734	484.81
401.958	521.81
402.182	506.81
402.406	521.81
402.63	519.81
402.854	527.81
403.078	502.81
403.302	512.81
403.526	508.81
403.75	522.81
403.974	525.81
404.198	501.81
404.422	517.81
404.645	521.81
404.869	519.81
405.093	559.81
405.317	590.81
405.541	612.81
405.765	583.81
405.988	530.81
406.212	549.81
406.436	574.81
406.66	584.81
406.883	557.81
407.107	585.81
407.331	615.81
407.555	709.81
407.778	685.81
408.002	632.81
408.226	587.81
408.449	591.81
408.673	589.81
408.896	589.81
409.12	629.81
409.344	629.81
409.567	567.81
409.791	544.81
410.014	547.81
410.238	541.81
410.461	526.81
410.685	517.81
410.908	535.81
411.132	596.81
411.355	618.81
411.578	592.81
411.802	551.81
412.025	534.81
412.249	547.81
412.472	557.81
412.695	589.81
412.919	559.81
413.142	543.81
413.365	501.81
413.589	501.81
413.812	507.81
414.035	512.81
414.258	512.81
414.482	516.81
414.705	503.81
414.928	477.81
415.151	508.81
415.374	483.81
415.597	481.81
415.821	478.81
416.044	497.81
416.267	510.81
416.49	493.81
416.713	494.81
416.936	500.81
417.159	487.81
417.382	506.81
417.605	505.81
417.828	531.81
418.051	519.81
418.274	505.81
418.497	495.81
418.72	487.81
418.943	488.81
419.166	512.81
419.389	520.81
419.611	511.81
419.834	535.81
420.057	522.81
420.28	533.81
420.503	517.81
420.726	515.81
420.948	556.81
421.171	574.81
421.394	620.81
421.617	556.81
421.839	530.81
422.062	541.81
422.285	552.81
422.507	595.81
422.73	691.81
422.953	643.81
423.175	581.81
423.398	585.81
423.621	552.81
423.843	582.81
424.066	577.81
424.288	556.81
424.511	598.81
424.733	663.81
424.956	723.81
425.178	675.81
425.401	701.81
425.623	717.81
425.846	621.81
426.068	616.81
426.291	582.81
426.513	577.81
426.735	600.81
426.958	619.81
427.18	721.81
427.402	860.81
427.625	931.81
427.847	825.81
428.069	695.81
428.292	637.81
428.514	600.81
428.736	573.81
428.958	569.81
429.181	549.81
429.403	555.81
429.625	554.81
429.847	579.81
430.069	643.81
430.292	641.81
430.514	575.81
430.736	564.81
430.958	539.81
431.18	522.81
431.402	531.81
431.624	517.81
431.846	505.81
432.068	494.81
432.29	487.81
432.512	502.81
432.734	519.81
432.956	536.81
433.178	527.81
433.4	561.81
433.622	530.81
433.844	511.81
434.066	495.81
434.287	511.81
434.509	505.81
434.731	510.81
434.953	523.81
435.175	557.81
435.397	583.81
435.618	573.81
435.84	638.81
436.062	708.81
436.284	807.81
436.505	669.81
436.727	630.81
436.949	557.81
437.17	566.81
437.392	531.81
437.614	547.81
437.835	598.81
438.057	687.81
438.278	803.81
438.5	804.81
438.721	844.81
438.943	824.81
439.165	681.81
439.386	629.81
439.608	593.81
439.829	589.81
440.05	636.81
440.272	658.81
440.493	616.81
440.715	620.81
440.936	590.81
441.158	572.81
441.379	548.81
441.6	565.81
441.822	584.81
442.043	639.81
442.264	704.81
442.486	768.81
442.707	649.81
442.928	590.81
443.149	611.81
443.371	633.81
443.592	658.81
443.813	749.81
444.034	791.81
444.255	659.81
444.476	604.81
444.698	589.81
444.919	580.81
445.14	716.81
445.361	646.81
445.582	636.81
445.803	699.81
446.024	749.81
446.245	806.81
446.466	721.81
446.687	627.81
446.908	597.81
447.129	589.81
447.35	560.81
447.571	565.81
447.792	539.81
448.013	559.81
448.234	573.81
448.455	625.81
448.675	734.81
448.896	843.81
449.117	733.81
449.338	697.81
449.559	764.81
449.779	857.81
450	718.81
450.221	596.81
450.442	587.81
450.662	535.81
450.883	536.81
451.104	576.81
451.324	547.81
451.545	510.81
451.766	515.81
451.986	497.81
452.207	477.81
452.428	483.81
452.648	505.81
452.869	483.81
453.089	493.81
453.31	521.81
453.53	501.81
453.751	491.81
453.971	487.81
454.192	497.81
454.412	519.81
454.633	471.81
454.853	489.81
455.073	494.81
455.294	501.81
455.514	581.81
455.734	572.81
455.955	520.81
456.175	464.81
456.395	468.81
456.616	456.81
456.836	443.81
457.056	456.81
457.276	455.81
457.497	437.81
457.717	463.81
457.937	477.81
458.157	463.81
458.377	478.81
458.598	506.81
458.818	569.81
459.038	654.81
459.258	659.81
459.478	569.81
459.698	494.81
459.918	511.81
460.138	498.81
460.358	506.81
460.578	502.81
460.798	536.81
461.018	517.81
461.238	504.81
461.458	503.81
461.678	495.81
461.898	517.81
462.118	501.81
462.338	517.81
462.558	502.81
462.777	516.81
462.997	539.81
463.217	548.81
463.437	543.81
463.657	535.81
463.876	532.81
464.096	535.81
464.316	519.81
464.536	527.81
464.755	528.81
464.975	534.81
465.195	592.81
465.414	660.81
465.634	607.81
465.854	563.81
466.073	523.81
466.293	513.81
466.512	502.81
466.732	493.81
466.951	507.81
467.171	527.81
467.391	481.81
467.61	505.81
467.829	534.81
468.049	513.81
468.268	523.81
468.488	502.81
468.707	516.81
468.927	491.81
469.146	474.81
469.365	496.81
469.585	533.81
469.804	489.81
470.023	510.81
470.243	517.81
470.462	521.81
470.681	520.81
470.901	511.81
471.12	495.81
471.339	501.81
471.558	487.81
471.777	497.81
471.997	501.81
472.216	508.81
472.435	527.81
472.654	527.81
472.873	510.81
473.092	503.81
473.311	502.81
473.53	516.81
473.749	518.81
473.968	550.81
474.187	655.81
474.406	665.81
474.625	571.81
474.844	535.81
475.063	539.81
475.282	525.81
475.501	506.81
475.72	533.81
475.939	548.81
476.158	499.81
476.377	558.81
476.596	545.81
476.814	532.81
477.033	527.81
477.252	548.81
477.471	541.81
477.69	539.81
477.908	572.81
478.127	575.81
478.346	558.81
478.564	575.81
478.783	557.81
479.002	580.81
479.22	559.81
479.439	607.81
479.658	604.81
479.876	600.81
480.095	588.81
480.313	634.81
480.532	609.81
480.751	599.81
480.969	614.81
481.188	705.81
481.406	708.81
481.624	655.81
481.843	615.81
482.061	617.81
482.28	613.81
482.498	592.81
482.717	602.81
482.935	612.81
483.153	623.81
483.372	610.81
483.59	613.81
483.808	599.81
484.027	595.81
484.245	595.81
484.463	590.81
484.681	605.81
484.9	620.81
485.118	607.81
485.336	613.81
485.554	615.81
485.772	611.81
485.99	627.81
486.209	643.81
486.427	636.81
486.645	651.81
486.863	662.81
487.081	666.81
487.299	652.81
487.517	660.81
487.735	651.81
487.953	671.81
488.171	655.81
488.389	669.81
488.607	689.81
488.825	657.81
489.043	663.81
489.261	686.81
489.479	675.81
489.696	664.81
489.914	672.81
490.132	678.81
490.35	696.81
490.568	709.81
490.786	720.81
491.003	727.81
491.221	727.81
491.439	720.81
491.657	752.81
491.874	752.81
492.092	747.81
492.31	781.81
492.527	779.81
492.745	767.81
492.963	780.81
493.18	799.81
493.398	795.81
493.615	806.81
493.833	789.81
494.05	797.81
494.268	809.81
494.485	811.81
494.703	789.81
494.92	802.81
495.138	793.81
495.355	803.81
495.573	808.81
495.79	797.81
496.008	793.81
496.225	822.81
496.442	782.81
496.66	793.81
496.877	782.81
497.094	803.81
497.312	794.81
497.529	808.81
497.746	809.81
497.963	815.81
498.181	841.81
498.398	833.81
498.615	837.81
498.832	848.81
499.049	862.81
499.267	889.81
499.484	881.81
499.701	933.81
499.918	921.81
500.135	973.81
500.352	972.81
500.569	991.81
500.786	1012.81
501.003	1011.81
501.22	1002.81
501.437	939.81
501.654	975.81
501.871	944.81
502.088	921.81
502.305	880.81
502.522	861.81
502.739	878.81
502.956	862.81
503.172	823.81
503.389	815.81
503.606	846.81
503.823	800.81
504.04	803.81
504.256	797.81
504.473	785.81
504.69	765.81
504.907	792.81
505.123	787.81
505.34	754.81
505.557	750.81
505.773	768.81
505.99	770.81
506.207	749.81
506.423	760.81
506.64	744.81
506.856	762.81
507.073	761.81
507.289	744.81
507.506	753.81
507.722	751.81
507.939	774.81
508.155	748.81
508.372	743.81
508.588	722.81
508.805	747.81
509.021	704.81
509.238	743.81
509.454	732.81
509.67	730.81
509.887	727.81
510.103	737.81
510.319	750.81
510.536	812.81
510.752	1356.81
510.968	1110.81
511.184	743.81
511.401	730.81
511.617	713.81
511.833	701.81
512.049	681.81
512.265	714.81
512.481	681.81
512.698	669.81
512.914	698.81
513.13	691.81
513.346	672.81
513.562	681.81
513.778	679.81
513.994	677.81
514.21	713.81
514.426	732.81
514.642	795.81
514.858	807.81
515.074	824.81
515.29	1005.81
515.506	1509.81
515.721	1183.81
515.937	829.81
516.153	745.81
516.369	744.81
516.585	725.81
516.801	701.81
517.016	697.81
517.232	702.81
517.448	696.81
517.664	703.81
517.879	694.81
518.095	679.81
518.311	691.81
518.527	669.81
518.742	699.81
518.958	700.81
519.173	669.81
519.389	702.81
519.605	701.81
519.82	702.81
520.036	718.81
520.251	742.81
520.467	767.81
520.682	757.81
520.898	738.81
521.113	793.81
521.329	839.81
521.544	933.81
521.76	1173.81
521.975	1902.81
522.19	1896.81
522.406	1053.81
522.621	803.81
522.836	739.81
523.052	696.81
523.267	677.81
523.482	643.81
523.698	647.81
523.913	635.81
524.128	630.81
524.343	640.81
524.559	622.81
524.774	614.81
524.989	621.81
525.204	616.81
525.419	617.81
525.634	591.81
525.849	580.81
526.064	592.81
526.28	575.81
526.495	567.81
526.71	558.81
526.925	554.81
527.14	572.81
527.355	556.81
527.57	567.81
527.785	574.81
527.999	550.81
528.214	569.81
528.429	531.81
528.644	580.81
528.859	568.81
529.074	574.81
529.289	585.81
529.503	693.81
529.718	664.81
529.933	601.81
530.148	569.81
530.363	587.81
530.577	548.81
530.792	543.81
531.007	533.81
531.221	536.81
531.436	542.81
531.651	551.81
531.865	534.81
532.08	528.81
532.295	535.81
532.509	530.81
532.724	524.81
532.938	538.81
533.153	540.81
533.367	504.81
533.582	510.81
533.796	540.81
534.011	532.81
534.225	543.81
534.44	529.81
534.654	521.81
534.868	535.81
535.083	512.81
535.297	535.81
535.511	550.81
535.726	538.81
535.94	537.81
536.154	520.81
536.369	513.81
536.583	516.81
536.797	515.81
537.011	539.81
537.225	516.81
537.44	521.81
537.654	518.81
537.868	520.81
538.082	502.81
538.296	523.81
538.51	518.81
538.724	527.81
538.938	485.81
539.153	511.81
539.367	517.81
539.581	522.81
539.795	519.81
540.009	518.81
540.222	489.81
540.436	501.81
540.65	509.81
540.864	529.81
541.078	519.81
541.292	508.81
541.506	507.81
541.72	529.81
541.934	503.81
542.147	505.81
542.361	500.81
542.575	486.81
542.789	489.81
543.002	489.81
543.216	507.81
543.43	513.81
543.644	489.81
543.857	491.81
544.071	497.81
544.285	481.81
544.498	501.81
544.712	520.81
544.925	492.81
545.139	493.81
545.352	496.81
545.566	488.81
545.779	466.81
545.993	483.81
546.206	518.81
546.42	493.81
546.633	487.81
546.847	481.81
547.06	496.81
547.274	486.81
547.487	493.81
547.7	456.81
547.914	475.81
548.127	483.81
548.34	480.81
548.554	468.81
548.767	482.81
548.98	490.81
549.193	468.81
549.407	472.81
549.62	475.81
549.833	483.81
550.046	480.81
550.259	463.81
550.473	475.81
550.686	481.81
550.899	469.81
551.112	463.81
551.325	469.81
551.538	469.81
551.751	444.81
551.964	465.81
552.177	476.81
552.39	480.81
552.603	474.81
552.816	462.81
553.029	479.81
553.242	470.81
553.455	497.81
553.667	480.81
553.88	484.81
554.093	487.81
554.306	473.81
554.519	484.81
554.732	465.81
554.944	481.81
555.157	464.81
555.37	470.81
555.583	456.81
555.795	442.81
556.008	439.81
556.221	438.81
556.433	450.81
556.646	446.81
556.859	430.81
557.071	436.81
557.284	427.81
557.496	439.81
557.709	431.81
557.921	427.81
558.134	440.81
558.346	438.81
558.559	426.81
558.771	428.81
558.984	447.81
559.196	454.81
559.409	430.81
559.621	427.81
559.833	424.81
560.046	428.81
560.258	430.81
560.47	424.81
560.683	430.81
560.895	421.81
561.107	417.81
561.32	413.81
561.532	424.81
561.744	432.81
561.956	413.81
562.168	415.81
562.381	404.81
562.593	438.81
562.805	428.81
563.017	425.81
563.229	419.81
563.441	428.81
563.653	433.81
563.865	426.81
564.077	451.81
564.289	430.81
564.501	457.81
564.713	442.81
564.925	428.81
565.137	439.81
565.349	447.81
565.561	424.81
565.773	437.81
565.985	458.81
566.197	453.81
566.408	460.81
566.62	463.81
566.832	470.81
567.044	477.81
567.255	490.81
567.467	488.81
567.679	484.81
567.891	505.81
568.102	466.81
568.314	468.81
568.526	467.81
568.737	456.81
568.949	459.81
569.161	449.81
569.372	430.81
569.584	428.81
569.795	438.81
570.007	441.81
570.218	505.81
570.43	455.81
570.641	424.81
570.853	420.81
571.064	402.81
571.276	394.81
571.487	379.81
571.698	394.81
571.91	393.81
572.121	397.81
572.333	397.81
572.544	393.81
572.755	397.81
572.966	373.81
573.178	389.81
573.389	406.81
573.6	397.81
573.811	383.81
574.023	351.81
574.234	357.81
574.445	362.81
574.656	365.81
574.867	368.81
575.078	346.81
575.289	353.81
575.501	389.81
575.712	333.81
575.923	355.81
576.134	362.81
576.345	348.81
576.556	356.81
576.767	366.81
576.978	353.81
577.188	352.81
577.399	349.81
577.61	354.81
577.821	358.81
578.032	355.81
578.243	386.81
578.454	654.81
578.665	472.81
578.875	360.81
579.086	348.81
579.297	351.81
579.508	353.81
579.718	344.81
579.929	334.81
580.14	321.81
580.35	338.81
580.561	342.81
580.772	346.81
580.982	334.81
581.193	334.81
581.403	350.81
581.614	321.81
581.825	323.81
582.035	328.81
582.246	324.81
582.456	333.81
582.667	331.81
582.877	326.81
583.087	325.81
583.298	335.81
583.508	314.81
583.719	329.81
583.929	337.81
584.139	342.81
584.35	330.81
584.56	331.81
584.77	330.81
584.981	330.81
585.191	325.81
585.401	305.81
585.611	307.81
585.821	329.81
586.032	337.81
586.242	312.81
586.452	319.81
586.662	315.81
586.872	328.81
587.082	311.81
587.292	323.81
587.502	323.81
587.713	312.81
587.923	323.81
588.133	313.81
588.343	301.81
588.553	317.81
588.762	302.81
588.972	328.81
589.182	332.81
589.392	313.81
589.602	313.81
589.812	304.81
590.022	329.81
590.232	311.81
590.441	314.81
590.651	325.81
590.861	318.81
591.071	314.81
591.281	327.81
591.49	297.81
591.7	318.81
591.91	312.81
592.119	309.81
592.329	325.81
592.539	319.81
592.748	320.81
592.958	337.81
593.167	326.81
593.377	316.81
593.587	320.81
593.796	325.81
594.006	316.81
594.215	310.81
594.424	329.81
594.634	322.81
594.843	313.81
595.053	318.81
595.262	313.81
595.472	288.81
595.681	313.81
595.89	290.81
596.1	291.81
596.309	308.81
596.518	314.81
596.727	300.81
596.937	298.81
597.146	300.81
597.355	281.81
597.564	305.81
597.774	295.81
597.983	291.81
598.192	311.81
598.401	300.81
598.61	281.81
598.819	281.81
599.028	299.81
599.237	288.81
599.446	271.81
599.655	257.81
599.864	292.81
600.073	279.81
600.282	277.81
600.491	266.81
600.7	284.81
600.909	287.81
601.118	281.81
601.327	291.81
601.536	279.81
601.745	272.81
601.953	307.81
602.162	268.81
602.371	259.81
602.58	276.81
602.789	274.81
602.997	277.81
603.206	273.81
603.415	277.81
603.623	284.81
603.832	262.81
604.041	259.81
604.249	264.81
604.458	282.81
604.666	265.81
604.875	268.81
605.084	267.81
605.292	265.81
605.501	264.81
605.709	264.81
605.918	267.81
606.126	273.81
606.334	254.81
606.543	256.81
606.751	268.81
606.96	261.81
607.168	261.81
607.376	261.81
607.585	266.81
607.793	277.81
608.001	272.81
608.21	262.81
608.418	268.81
608.626	260.81
608.834	263.81
609.043	253.81
609.251	239.81
609.459	245.81
609.667	264.81
609.875	259.81
610.083	272.81
610.291	276.81
610.499	262.81
610.707	263.81
610.916	271.81
611.124	265.81
611.332	279.81
611.54	273.81
611.748	277.81
611.955	264.81
612.163	263.81
612.371	254.81
612.579	267.81
612.787	244.81
612.995	273.81
613.203	263.81
613.411	263.81
613.618	254.81
613.826	253.81
614.034	256.81
614.242	268.81
614.449	264.81
614.657	263.81
614.865	253.81
615.072	278.81
615.28	260.81
615.488	264.81
615.695	254.81
615.903	265.81
616.111	281.81
616.318	265.81
616.526	275.81
616.733	257.81
616.941	249.81
617.148	245.81
617.356	245.81
617.563	252.81
617.771	266.81
617.978	254.81
618.185	242.81
618.393	235.81
618.6	255.81
618.807	247.81
619.015	233.81
619.222	266.81
619.429	245.81
619.637	238.81
619.844	245.81
620.051	245.81
620.258	243.81
620.466	242.81
620.673	243.81
620.88	236.81
621.087	228.81
621.294	244.81
621.501	236.81
621.708	252.81
621.915	234.81
622.122	253.81
622.329	245.81
622.536	243.81
622.743	247.81
622.95	248.81
623.157	229.81
623.364	237.81
623.571	224.81
623.778	240.81
623.985	226.81
624.192	240.81
624.399	221.81
624.606	235.81
624.812	223.81
625.019	236.81
625.226	230.81
625.433	232.81
625.639	224.81
625.846	227.81
626.053	214.81
626.259	215.81
626.466	243.81
626.673	219.81
626.879	209.81
627.086	202.81
627.293	232.81
627.499	221.81
627.706	225.81
627.912	229.81
628.119	216.81
628.325	211.81
628.532	206.81
628.738	203.81
628.945	225.81
629.151	223.81
629.357	213.81
629.564	219.81
629.77	219.81
629.976	216.81
630.183	207.81
630.389	190.81
630.595	198.81
630.802	232.81
631.008	215.81
631.214	205.81
631.42	202.81
631.627	215.81
631.833	200.81
632.039	209.81
632.245	206.81
632.451	200.81
632.657	195.81
632.863	208.81
633.069	212.81
633.275	190.81
633.481	206.81
633.688	191.81
633.893	209.81
634.099	183.81
634.305	199.81
634.511	195.81
634.717	210.81
634.923	174.81
635.129	184.81
635.335	201.81
635.541	190.81
635.747	192.81
635.952	197.81
636.158	205.81
636.364	197.81
636.57	211.81
636.775	202.81
636.981	202.81
637.187	198.81
637.392	198.81
637.598	189.81
637.804	205.81
638.009	198.81
638.215	202.81
638.421	193.81
638.626	186.81
638.832	192.81
639.037	189.81
639.243	181.81
639.448	173.81
639.654	177.81
639.859	179.81
640.065	170.81
640.27	187.81
640.475	188.81
640.681	177.81
640.886	172.81
641.091	187.81
641.297	188.81
641.502	186.81
641.707	184.81
641.913	185.81
642.118	176.81
642.323	188.81
642.528	171.81
642.733	189.81
642.939	177.81
643.144	175.81
643.349	164.81
643.554	164.81
643.759	172.81
643.964	168.81
644.169	167.81
644.374	160.81
644.579	186.81
644.784	165.81
644.989	199.81
645.194	190.81
645.399	184.81
645.604	183.81
645.809	170.81
646.014	199.81
646.219	180.81
646.423	172.81
646.628	176.81
646.833	179.81
647.038	177.81
647.243	181.81
647.447	172.81
647.652	174.81
647.857	156.81
648.062	156.81
648.266	180.81
648.471	176.81
648.676	176.81
648.88	198.81
649.085	199.81
649.289	172.81
649.494	181.81
649.698	188.81
649.903	205.81
650.107	175.81
650.312	172.81
650.516	167.81
650.721	162.81
650.925	174.81
651.13	170.81
651.334	148.81
651.539	153.81
651.743	157.81
651.947	156.81
652.152	157.81
652.356	149.81
652.56	156.81
652.764	149.81
652.969	146.81
653.173	126.81
653.377	151.81
653.581	141.81
653.785	133.81
653.99	150.81
654.194	131.81
654.398	134.81
654.602	139.81
654.806	142.81
655.01	139.81
655.214	132.81
655.418	135.81
655.622	139.81
655.826	151.81
656.03	153.81
656.234	132.81
656.438	127.81
656.642	134.81
656.846	139.81
657.049	137.81
657.253	133.81
657.457	120.81
657.661	125.81
657.865	111.81
658.068	115.81
658.272	106.81
658.476	115.81
658.68	123.81
658.883	105.81
659.087	99.81
659.291	104.81
659.494	110.81
659.698	99.81
659.901	94.81
660.105	104.81
660.309	87.81
660.512	103.81
660.716	98.81
660.919	88.81
661.123	108.81
661.326	106.81
661.53	96.81
661.733	91.81
661.936	95.81
662.14	82.81
662.343	97.81
662.546	99.81
662.75	99.81
662.953	95.81
663.156	91.81
663.36	80.81
663.563	100.81
663.766	77.81
663.969	88.81
664.173	86.81
664.376	76.81
664.579	87.81
664.782	85.81
664.985	76.81
665.188	97.81
665.391	91.81
665.594	69.81
665.797	79.81
666	87.81
666.203	77.81
666.406	87.81
666.609	91.81
666.812	88.81
667.015	78.81
667.218	83.81
667.421	84.81
667.624	66.81
667.827	89.81
668.03	87.81
668.232	88.81
668.435	79.81
668.638	87.81
668.841	88.81
669.043	80.81
669.246	90.81
669.449	83.81
669.651	86.81
669.854	81.81
670.057	79.81
670.259	81.81
670.462	97.81
670.665	77.81
670.867	82.81
671.07	78.81
671.272	86.81
671.475	75.81
671.677	77.81
671.88	89.81
672.082	78.81
672.284	81.81
672.487	87.81
672.689	87.81
672.892	90.81
