Data from 1970.PennyLincolnUp.Lamp.En5.5.200Scan.071719.P1._HRD10591_15-13-29-844.txt Node
Date: Thu Jul 18 15:13:29 EDT 2019
User: cochatt
Spectrometer: HR+D1059
Trigger mode: 1
Integration Time (sec): 1.000000E-1
Scans to average: 1
Electric dark correction enabled: true
Nonlinearity correction enabled: false
Boxcar width: 0
XAxis mode: Wavelengths
Number of Pixels in Spectrum: 2048
>>>>>Begin Spectral Data<<<<<
223.165	0.06
223.4	0.06
223.635	0.06
223.869	-21.94
224.104	-13.94
224.338	-18.94
224.573	2.06
224.808	-15.94
225.042	8.06
225.277	3.06
225.511	-8.94
225.746	10.06
225.98	6.06
226.215	-1.94
226.449	2.06
226.683	10.06
226.918	16.06
227.152	24.06
227.387	37.06
227.621	27.06
227.856	55.06
228.09	45.06
228.324	51.06
228.559	56.06
228.793	60.06
229.027	86.06
229.262	111.06
229.496	114.06
229.73	128.06
229.964	141.06
230.199	126.06
230.433	108.06
230.667	121.06
230.901	108.06
231.136	108.06
231.37	116.06
231.604	118.06
231.838	106.06
232.072	113.06
232.306	105.06
232.541	111.06
232.775	107.06
233.009	115.06
233.243	127.06
233.477	110.06
233.711	104.06
233.945	124.06
234.179	116.06
234.413	132.06
234.647	120.06
234.881	123.06
235.115	110.06
235.349	120.06
235.583	94.06
235.817	120.06
236.051	113.06
236.285	129.06
236.519	132.06
236.753	127.06
236.987	122.06
237.221	179.06
237.455	209.06
237.689	180.06
237.922	142.06
238.156	134.06
238.39	138.06
238.624	130.06
238.858	124.06
239.091	116.06
239.325	107.06
239.559	140.06
239.793	130.06
240.027	142.06
240.26	125.06
240.494	139.06
240.728	134.06
240.961	147.06
241.195	140.06
241.429	140.06
241.662	147.06
241.896	136.06
242.13	137.06
242.363	157.06
242.597	148.06
242.83	138.06
243.064	141.06
243.298	146.06
243.531	144.06
243.765	125.06
243.998	154.06
244.232	127.06
244.465	141.06
244.699	135.06
244.932	150.06
245.166	154.06
245.399	140.06
245.633	134.06
245.866	140.06
246.099	136.06
246.333	141.06
246.566	164.06
246.8	150.06
247.033	142.06
247.266	160.06
247.5	165.06
247.733	166.06
247.966	163.06
248.2	174.06
248.433	159.06
248.666	165.06
248.899	179.06
249.133	186.06
249.366	186.06
249.599	184.06
249.832	180.06
250.066	169.06
250.299	175.06
250.532	175.06
250.765	203.06
250.998	224.06
251.231	216.06
251.465	218.06
251.698	213.06
251.931	199.06
252.164	226.06
252.397	193.06
252.63	204.06
252.863	202.06
253.096	220.06
253.329	233.06
253.562	219.06
253.795	223.06
254.028	203.06
254.261	198.06
254.494	227.06
254.727	234.06
254.96	282.06
255.193	271.06
255.426	227.06
255.659	218.06
255.892	230.06
256.124	214.06
256.357	206.06
256.59	228.06
256.823	206.06
257.056	216.06
257.289	200.06
257.521	220.06
257.754	202.06
257.987	219.06
258.22	202.06
258.452	202.06
258.685	201.06
258.918	191.06
259.151	199.06
259.383	213.06
259.616	211.06
259.849	229.06
260.081	238.06
260.314	264.06
260.547	220.06
260.779	242.06
261.012	198.06
261.244	213.06
261.477	226.06
261.71	206.06
261.942	218.06
262.175	247.06
262.407	206.06
262.64	210.06
262.872	199.06
263.105	200.06
263.337	200.06
263.57	199.06
263.802	199.06
264.035	194.06
264.267	193.06
264.499	204.06
264.732	202.06
264.964	186.06
265.197	191.06
265.429	182.06
265.661	205.06
265.894	176.06
266.126	195.06
266.358	190.06
266.591	199.06
266.823	200.06
267.055	194.06
267.287	213.06
267.52	196.06
267.752	191.06
267.984	215.06
268.216	210.06
268.448	208.06
268.681	198.06
268.913	213.06
269.145	230.06
269.377	240.06
269.609	248.06
269.841	226.06
270.073	226.06
270.306	257.06
270.538	283.06
270.77	294.06
271.002	267.06
271.234	260.06
271.466	265.06
271.698	276.06
271.93	286.06
272.162	288.06
272.394	271.06
272.626	276.06
272.858	251.06
273.09	246.06
273.322	257.06
273.553	240.06
273.785	244.06
274.017	237.06
274.249	237.06
274.481	243.06
274.713	238.06
274.945	214.06
275.176	229.06
275.408	232.06
275.64	230.06
275.872	223.06
276.104	231.06
276.335	218.06
276.567	243.06
276.799	269.06
277.031	264.06
277.262	269.06
277.494	282.06
277.726	269.06
277.957	276.06
278.189	228.06
278.421	250.06
278.652	248.06
278.884	220.06
279.115	222.06
279.347	227.06
279.579	245.06
279.81	240.06
280.042	224.06
280.273	241.06
280.505	254.06
280.736	221.06
280.968	235.06
281.199	219.06
281.431	229.06
281.662	223.06
281.894	234.06
282.125	224.06
282.356	247.06
282.588	270.06
282.819	247.06
283.051	220.06
283.282	225.06
283.513	242.06
283.745	235.06
283.976	242.06
284.207	250.06
284.439	252.06
284.67	221.06
284.901	210.06
285.132	226.06
285.364	242.06
285.595	229.06
285.826	248.06
286.057	246.06
286.288	212.06
286.52	229.06
286.751	231.06
286.982	245.06
287.213	235.06
287.444	237.06
287.675	235.06
287.906	258.06
288.138	250.06
288.369	272.06
288.6	259.06
288.831	246.06
289.062	236.06
289.293	262.06
289.524	233.06
289.755	242.06
289.986	237.06
290.217	242.06
290.448	238.06
290.679	265.06
290.91	248.06
291.141	234.06
291.371	237.06
291.602	235.06
291.833	233.06
292.064	243.06
292.295	238.06
292.526	258.06
292.757	264.06
292.987	240.06
293.218	250.06
293.449	243.06
293.68	237.06
293.91	260.06
294.141	249.06
294.372	242.06
294.603	251.06
294.833	274.06
295.064	236.06
295.295	258.06
295.525	249.06
295.756	251.06
295.987	253.06
296.217	279.06
296.448	294.06
296.679	248.06
296.909	251.06
297.14	262.06
297.37	247.06
297.601	255.06
297.831	264.06
298.062	251.06
298.292	260.06
298.523	267.06
298.753	239.06
298.984	259.06
299.214	235.06
299.445	261.06
299.675	260.06
299.905	258.06
300.136	248.06
300.366	257.06
300.597	247.06
300.827	261.06
301.057	284.06
301.288	274.06
301.518	271.06
301.748	257.06
301.979	272.06
302.209	278.06
302.439	276.06
302.669	271.06
302.9	289.06
303.13	274.06
303.36	278.06
303.59	280.06
303.82	286.06
304.051	298.06
304.281	300.06
304.511	278.06
304.741	275.06
304.971	282.06
305.201	281.06
305.431	264.06
305.661	289.06
305.891	290.06
306.121	263.06
306.352	297.06
306.582	293.06
306.812	283.06
307.042	291.06
307.272	272.06
307.502	279.06
307.731	298.06
307.961	288.06
308.191	270.06
308.421	275.06
308.651	295.06
308.881	288.06
309.111	285.06
309.341	300.06
309.571	294.06
309.8	299.06
310.03	302.06
310.26	299.06
310.49	311.06
310.72	329.06
310.949	328.06
311.179	325.06
311.409	315.06
311.639	328.06
311.868	315.06
312.098	307.06
312.328	341.06
312.557	343.06
312.787	341.06
313.017	360.06
313.246	317.06
313.476	315.06
313.706	308.06
313.935	332.06
314.165	335.06
314.394	328.06
314.624	338.06
314.853	316.06
315.083	311.06
315.312	324.06
315.542	317.06
315.771	316.06
316.001	335.06
316.23	309.06
316.46	300.06
316.689	311.06
316.919	348.06
317.148	316.06
317.377	328.06
317.607	336.06
317.836	322.06
318.065	326.06
318.295	324.06
318.524	324.06
318.753	325.06
318.983	332.06
319.212	312.06
319.441	339.06
319.67	345.06
319.9	343.06
320.129	333.06
320.358	327.06
320.587	338.06
320.816	334.06
321.046	332.06
321.275	348.06
321.504	349.06
321.733	354.06
321.962	331.06
322.191	344.06
322.42	366.06
322.649	369.06
322.878	382.06
323.108	394.06
323.337	399.06
323.566	426.06
323.795	446.06
324.024	507.06
324.253	615.06
324.482	841.06
324.71	1268.06
324.939	1773.06
325.168	1510.06
325.397	850.06
325.626	588.06
325.855	509.06
326.084	458.06
326.313	422.06
326.542	445.06
326.77	472.06
326.999	575.06
327.228	738.06
327.457	1148.06
327.686	1348.06
327.914	928.06
328.143	632.06
328.372	559.06
328.6	517.06
328.829	478.06
329.058	494.06
329.287	506.06
329.515	491.06
329.744	444.06
329.972	438.06
330.201	475.06
330.43	486.06
330.658	515.06
330.887	534.06
331.115	528.06
331.344	449.06
331.572	418.06
331.801	418.06
332.03	412.06
332.258	395.06
332.486	384.06
332.715	368.06
332.943	377.06
333.172	397.06
333.4	407.06
333.629	384.06
333.857	395.06
334.085	413.06
334.314	401.06
334.542	420.06
334.771	454.06
334.999	421.06
335.227	408.06
335.455	370.06
335.684	387.06
335.912	382.06
336.14	379.06
336.369	376.06
336.597	373.06
336.825	384.06
337.053	386.06
337.281	360.06
337.51	382.06
337.738	392.06
337.966	351.06
338.194	370.06
338.422	346.06
338.65	382.06
338.878	356.06
339.106	366.06
339.334	367.06
339.562	355.06
339.79	361.06
340.018	362.06
340.246	373.06
340.474	377.06
340.702	383.06
340.93	386.06
341.158	371.06
341.386	365.06
341.614	365.06
341.842	360.06
342.07	374.06
342.298	364.06
342.526	362.06
342.754	341.06
342.981	362.06
343.209	350.06
343.437	363.06
343.665	370.06
343.893	376.06
344.12	371.06
344.348	366.06
344.576	371.06
344.804	379.06
345.031	377.06
345.259	390.06
345.487	381.06
345.714	383.06
345.942	375.06
346.17	351.06
346.397	359.06
346.625	386.06
346.853	351.06
347.08	365.06
347.308	358.06
347.535	375.06
347.763	355.06
347.99	359.06
348.218	362.06
348.445	384.06
348.673	362.06
348.9	376.06
349.128	380.06
349.355	358.06
349.583	355.06
349.81	334.06
350.037	352.06
350.265	345.06
350.492	358.06
350.72	351.06
350.947	353.06
351.174	366.06
351.402	386.06
351.629	357.06
351.856	359.06
352.083	364.06
352.311	371.06
352.538	386.06
352.765	396.06
352.992	387.06
353.22	364.06
353.447	355.06
353.674	377.06
353.901	362.06
354.128	337.06
354.355	354.06
354.583	330.06
354.81	354.06
355.037	345.06
355.264	343.06
355.491	312.06
355.718	336.06
355.945	331.06
356.172	337.06
356.399	331.06
356.626	330.06
356.853	334.06
357.08	327.06
357.307	350.06
357.534	333.06
357.761	332.06
357.988	359.06
358.215	343.06
358.441	338.06
358.668	339.06
358.895	347.06
359.122	352.06
359.349	342.06
359.576	370.06
359.802	377.06
360.029	422.06
360.256	423.06
360.483	395.06
360.709	384.06
360.936	381.06
361.163	367.06
361.39	379.06
361.616	398.06
361.843	352.06
362.07	359.06
362.296	373.06
362.523	363.06
362.749	364.06
362.976	362.06
363.203	347.06
363.429	355.06
363.656	374.06
363.882	363.06
364.109	356.06
364.335	354.06
364.562	343.06
364.788	348.06
365.015	365.06
365.241	361.06
365.468	358.06
365.694	359.06
365.92	346.06
366.147	343.06
366.373	352.06
366.599	372.06
366.826	364.06
367.052	339.06
367.278	358.06
367.505	357.06
367.731	385.06
367.957	372.06
368.184	374.06
368.41	374.06
368.636	401.06
368.862	358.06
369.089	360.06
369.315	355.06
369.541	363.06
369.767	358.06
369.993	356.06
370.219	360.06
370.445	355.06
370.672	356.06
370.898	367.06
371.124	387.06
371.35	376.06
371.576	372.06
371.802	386.06
372.028	383.06
372.254	348.06
372.48	374.06
372.706	348.06
372.932	362.06
373.158	380.06
373.384	377.06
373.61	377.06
373.835	371.06
374.061	363.06
374.287	382.06
374.513	376.06
374.739	359.06
374.965	377.06
375.191	360.06
375.416	368.06
375.642	377.06
375.868	366.06
376.094	367.06
376.319	372.06
376.545	370.06
376.771	368.06
376.997	381.06
377.222	374.06
377.448	361.06
377.674	365.06
377.899	351.06
378.125	360.06
378.35	356.06
378.576	352.06
378.802	362.06
379.027	371.06
379.253	360.06
379.478	347.06
379.704	366.06
379.929	369.06
380.155	372.06
380.38	368.06
380.606	368.06
380.831	387.06
381.057	366.06
381.282	364.06
381.507	359.06
381.733	373.06
381.958	376.06
382.184	382.06
382.409	379.06
382.634	392.06
382.86	365.06
383.085	374.06
383.31	357.06
383.535	380.06
383.761	368.06
383.986	381.06
384.211	390.06
384.436	379.06
384.662	386.06
384.887	388.06
385.112	380.06
385.337	375.06
385.562	383.06
385.787	388.06
386.013	401.06
386.238	403.06
386.463	378.06
386.688	396.06
386.913	399.06
387.138	372.06
387.363	404.06
387.588	389.06
387.813	382.06
388.038	407.06
388.263	419.06
388.488	399.06
388.713	394.06
388.938	388.06
389.163	395.06
389.387	387.06
389.612	416.06
389.837	400.06
390.062	395.06
390.287	394.06
390.512	400.06
390.736	392.06
390.961	389.06
391.186	391.06
391.411	408.06
391.636	382.06
391.86	401.06
392.085	418.06
392.31	388.06
392.534	406.06
392.759	399.06
392.984	387.06
393.208	406.06
393.433	418.06
393.658	413.06
393.882	400.06
394.107	387.06
394.331	399.06
394.556	398.06
394.78	413.06
395.005	397.06
395.229	400.06
395.454	414.06
395.678	410.06
395.903	438.06
396.127	419.06
396.352	429.06
396.576	409.06
396.801	390.06
397.025	440.06
397.249	414.06
397.474	404.06
397.698	420.06
397.922	436.06
398.147	439.06
398.371	437.06
398.595	423.06
398.82	450.06
399.044	427.06
399.268	460.06
399.492	460.06
399.717	494.06
399.941	501.06
400.165	517.06
400.389	538.06
400.613	494.06
400.837	475.06
401.062	429.06
401.286	462.06
401.51	446.06
401.734	452.06
401.958	440.06
402.182	445.06
402.406	469.06
402.63	458.06
402.854	471.06
403.078	454.06
403.302	461.06
403.526	469.06
403.75	455.06
403.974	440.06
404.198	446.06
404.422	463.06
404.645	480.06
404.869	476.06
405.093	498.06
405.317	525.06
405.541	562.06
405.765	518.06
405.988	476.06
406.212	486.06
406.436	515.06
406.66	520.06
406.883	516.06
407.107	516.06
407.331	564.06
407.555	615.06
407.778	603.06
408.002	554.06
408.226	502.06
408.449	521.06
408.673	521.06
408.896	534.06
409.12	559.06
409.344	544.06
409.567	499.06
409.791	480.06
410.014	480.06
410.238	447.06
410.461	469.06
410.685	472.06
410.908	499.06
411.132	531.06
411.355	546.06
411.578	535.06
411.802	490.06
412.025	459.06
412.249	466.06
412.472	466.06
412.695	537.06
412.919	524.06
413.142	466.06
413.365	451.06
413.589	466.06
413.812	464.06
414.035	469.06
414.258	437.06
414.482	449.06
414.705	442.06
414.928	447.06
415.151	431.06
415.374	451.06
415.597	429.06
415.821	442.06
416.044	448.06
416.267	431.06
416.49	421.06
416.713	451.06
416.936	442.06
417.159	450.06
417.382	461.06
417.605	459.06
417.828	477.06
418.051	503.06
418.274	483.06
418.497	462.06
418.72	446.06
418.943	441.06
419.166	445.06
419.389	480.06
419.611	478.06
419.834	439.06
420.057	483.06
420.28	487.06
420.503	462.06
420.726	477.06
420.948	495.06
421.171	504.06
421.394	553.06
421.617	470.06
421.839	486.06
422.062	490.06
422.285	501.06
422.507	546.06
422.73	589.06
422.953	580.06
423.175	506.06
423.398	518.06
423.621	487.06
423.843	512.06
424.066	520.06
424.288	504.06
424.511	544.06
424.733	592.06
424.956	623.06
425.178	607.06
425.401	608.06
425.623	629.06
425.846	559.06
426.068	534.06
426.291	518.06
426.513	526.06
426.735	515.06
426.958	562.06
427.18	623.06
427.402	729.06
427.625	793.06
427.847	743.06
428.069	657.06
428.292	570.06
428.514	528.06
428.736	521.06
428.958	504.06
429.181	475.06
429.403	473.06
429.625	493.06
429.847	521.06
430.069	577.06
430.292	589.06
430.514	519.06
430.736	491.06
430.958	494.06
431.18	465.06
431.402	419.06
431.624	460.06
431.846	448.06
432.068	432.06
432.29	439.06
432.512	443.06
432.734	472.06
432.956	452.06
433.178	438.06
433.4	475.06
433.622	474.06
433.844	463.06
434.066	434.06
434.287	451.06
434.509	444.06
434.731	466.06
434.953	466.06
435.175	499.06
435.397	530.06
435.618	519.06
435.84	580.06
436.062	646.06
436.284	683.06
436.505	584.06
436.727	534.06
436.949	488.06
437.17	496.06
437.392	482.06
437.614	528.06
437.835	534.06
438.057	640.06
438.278	704.06
438.5	709.06
438.721	749.06
438.943	715.06
439.165	611.06
439.386	563.06
439.608	523.06
439.829	538.06
440.05	534.06
440.272	585.06
440.493	551.06
440.715	514.06
440.936	502.06
441.158	486.06
441.379	489.06
441.6	487.06
441.822	538.06
442.043	576.06
442.264	623.06
442.486	672.06
442.707	591.06
442.928	559.06
443.149	539.06
443.371	551.06
443.592	627.06
443.813	680.06
444.034	727.06
444.255	608.06
444.476	558.06
444.698	539.06
444.919	532.06
445.14	632.06
445.361	590.06
445.582	567.06
445.803	611.06
446.024	700.06
446.245	702.06
446.466	664.06
446.687	566.06
446.908	562.06
447.129	483.06
447.35	494.06
447.571	484.06
447.792	462.06
448.013	482.06
448.234	516.06
448.455	564.06
448.675	660.06
448.896	770.06
449.117	657.06
449.338	638.06
449.559	695.06
449.779	785.06
450	660.06
450.221	554.06
450.442	511.06
450.662	494.06
450.883	486.06
451.104	485.06
451.324	516.06
451.545	457.06
451.766	447.06
451.986	444.06
452.207	438.06
452.428	438.06
452.648	447.06
452.869	446.06
453.089	434.06
453.31	455.06
453.53	462.06
453.751	430.06
453.971	432.06
454.192	468.06
454.412	444.06
454.633	426.06
454.853	422.06
455.073	443.06
455.294	468.06
455.514	542.06
455.734	505.06
455.955	436.06
456.175	420.06
456.395	410.06
456.616	413.06
456.836	403.06
457.056	414.06
457.276	390.06
457.497	408.06
457.717	415.06
457.937	438.06
458.157	422.06
458.377	418.06
458.598	431.06
458.818	491.06
459.038	597.06
459.258	598.06
459.478	502.06
459.698	476.06
459.918	474.06
460.138	447.06
460.358	436.06
460.578	447.06
460.798	439.06
461.018	455.06
461.238	476.06
461.458	452.06
461.678	439.06
461.898	442.06
462.118	456.06
462.338	458.06
462.558	484.06
462.777	466.06
462.997	474.06
463.217	464.06
463.437	481.06
463.657	489.06
463.876	476.06
464.096	470.06
464.316	501.06
464.536	498.06
464.755	493.06
464.975	494.06
465.195	510.06
465.414	601.06
465.634	555.06
465.854	510.06
466.073	480.06
466.293	469.06
466.512	444.06
466.732	457.06
466.951	448.06
467.171	442.06
467.391	441.06
467.61	467.06
467.829	473.06
468.049	486.06
468.268	441.06
468.488	438.06
468.707	450.06
468.927	436.06
469.146	429.06
469.365	444.06
469.585	447.06
469.804	431.06
470.023	471.06
470.243	451.06
470.462	449.06
470.681	458.06
470.901	469.06
471.12	458.06
471.339	454.06
471.558	443.06
471.777	460.06
471.997	460.06
472.216	471.06
472.435	488.06
472.654	456.06
472.873	459.06
473.092	461.06
473.311	454.06
473.53	456.06
473.749	455.06
473.968	515.06
474.187	608.06
474.406	623.06
474.625	492.06
474.844	503.06
475.063	488.06
475.282	457.06
475.501	452.06
475.72	476.06
475.939	466.06
476.158	470.06
476.377	470.06
476.596	473.06
476.814	454.06
477.033	479.06
477.252	486.06
477.471	478.06
477.69	493.06
477.908	502.06
478.127	490.06
478.346	480.06
478.564	491.06
478.783	506.06
479.002	516.06
479.22	524.06
479.439	515.06
479.658	542.06
479.876	545.06
480.095	546.06
480.313	559.06
480.532	561.06
480.751	557.06
480.969	568.06
481.188	620.06
481.406	647.06
481.624	578.06
481.843	558.06
482.061	570.06
482.28	564.06
482.498	556.06
482.717	550.06
482.935	533.06
483.153	537.06
483.372	557.06
483.59	545.06
483.808	557.06
484.027	553.06
484.245	557.06
484.463	554.06
484.681	555.06
484.9	529.06
485.118	556.06
485.336	564.06
485.554	558.06
485.772	579.06
485.99	549.06
486.209	557.06
486.427	582.06
486.645	588.06
486.863	579.06
487.081	610.06
487.299	592.06
487.517	588.06
487.735	592.06
487.953	588.06
488.171	597.06
488.389	605.06
488.607	612.06
488.825	590.06
489.043	595.06
489.261	602.06
489.479	584.06
489.696	603.06
489.914	598.06
490.132	612.06
490.35	638.06
490.568	624.06
490.786	619.06
491.003	664.06
491.221	662.06
491.439	688.06
491.657	672.06
491.874	687.06
492.092	678.06
492.31	696.06
492.527	695.06
492.745	727.06
492.963	695.06
493.18	687.06
493.398	726.06
493.615	726.06
493.833	692.06
494.05	700.06
494.268	713.06
494.485	704.06
494.703	708.06
494.92	719.06
495.138	709.06
495.355	714.06
495.573	720.06
495.79	715.06
496.008	712.06
496.225	702.06
496.442	724.06
496.66	696.06
496.877	725.06
497.094	712.06
497.312	720.06
497.529	712.06
497.746	746.06
497.963	735.06
498.181	738.06
498.398	744.06
498.615	782.06
498.832	774.06
499.049	749.06
499.267	756.06
499.484	792.06
499.701	795.06
499.918	824.06
500.135	844.06
500.352	870.06
500.569	870.06
500.786	890.06
501.003	890.06
501.22	874.06
501.437	846.06
501.654	840.06
501.871	856.06
502.088	828.06
502.305	775.06
502.522	796.06
502.739	773.06
502.956	742.06
503.172	756.06
503.389	738.06
503.606	735.06
503.823	735.06
504.04	725.06
504.256	723.06
504.473	710.06
504.69	715.06
504.907	697.06
505.123	676.06
505.34	695.06
505.557	670.06
505.773	669.06
505.99	695.06
506.207	667.06
506.423	676.06
506.64	671.06
506.856	646.06
507.073	672.06
507.289	687.06
507.506	678.06
507.722	682.06
507.939	684.06
508.155	668.06
508.372	651.06
508.588	664.06
508.805	634.06
509.021	666.06
509.238	661.06
509.454	674.06
509.67	676.06
509.887	654.06
510.103	658.06
510.319	676.06
510.536	732.06
510.752	1173.06
510.968	975.06
511.184	670.06
511.401	630.06
511.617	642.06
511.833	608.06
512.049	634.06
512.265	615.06
512.481	624.06
512.698	603.06
512.914	609.06
513.13	614.06
513.346	627.06
513.562	629.06
513.778	634.06
513.994	635.06
514.21	650.06
514.426	658.06
514.642	695.06
514.858	711.06
515.074	748.06
515.29	892.06
515.506	1311.06
515.721	1057.06
515.937	747.06
516.153	706.06
516.369	674.06
516.585	667.06
516.801	652.06
517.016	623.06
517.232	598.06
517.448	630.06
517.664	617.06
517.879	628.06
518.095	623.06
518.311	633.06
518.527	616.06
518.742	584.06
518.958	621.06
519.173	609.06
519.389	610.06
519.605	619.06
519.82	629.06
520.036	616.06
520.251	650.06
520.467	680.06
520.682	673.06
520.898	681.06
521.113	685.06
521.329	744.06
521.544	816.06
521.76	1023.06
521.975	1689.06
522.19	1653.06
522.406	927.06
522.621	721.06
522.836	654.06
523.052	596.06
523.267	608.06
523.482	574.06
523.698	549.06
523.913	575.06
524.128	573.06
524.343	551.06
524.559	559.06
524.774	535.06
524.989	548.06
525.204	533.06
525.419	515.06
525.634	516.06
525.849	502.06
526.064	529.06
526.28	520.06
526.495	508.06
526.71	522.06
526.925	525.06
527.14	521.06
527.355	500.06
527.57	502.06
527.785	482.06
527.999	506.06
528.214	506.06
528.429	499.06
528.644	526.06
528.859	502.06
529.074	507.06
529.289	529.06
529.503	612.06
529.718	601.06
529.933	544.06
530.148	485.06
530.363	508.06
530.577	518.06
530.792	493.06
531.007	498.06
531.221	517.06
531.436	504.06
531.651	483.06
531.865	463.06
532.08	475.06
532.295	485.06
532.509	467.06
532.724	476.06
532.938	484.06
533.153	488.06
533.367	491.06
533.582	474.06
533.796	479.06
534.011	462.06
534.225	470.06
534.44	472.06
534.654	472.06
534.868	473.06
535.083	465.06
535.297	485.06
535.511	477.06
535.726	484.06
535.94	482.06
536.154	452.06
536.369	460.06
536.583	469.06
536.797	465.06
537.011	451.06
537.225	455.06
537.44	452.06
537.654	459.06
537.868	449.06
538.082	452.06
538.296	457.06
538.51	454.06
538.724	478.06
538.938	448.06
539.153	453.06
539.367	468.06
539.581	478.06
539.795	460.06
540.009	448.06
540.222	445.06
540.436	473.06
540.65	462.06
540.864	460.06
541.078	481.06
541.292	475.06
541.506	458.06
541.72	466.06
541.934	473.06
542.147	446.06
542.361	445.06
542.575	428.06
542.789	461.06
543.002	470.06
543.216	460.06
543.43	455.06
543.644	467.06
543.857	440.06
544.071	462.06
544.285	460.06
544.498	443.06
544.712	453.06
544.925	452.06
545.139	448.06
545.352	450.06
545.566	454.06
545.779	450.06
545.993	457.06
546.206	439.06
546.42	453.06
546.633	437.06
546.847	445.06
547.06	423.06
547.274	472.06
547.487	439.06
547.7	446.06
547.914	419.06
548.127	442.06
548.34	445.06
548.554	447.06
548.767	426.06
548.98	434.06
549.193	435.06
549.407	446.06
549.62	434.06
549.833	435.06
550.046	413.06
550.259	427.06
550.473	427.06
550.686	414.06
550.899	407.06
551.112	426.06
551.325	432.06
551.538	413.06
551.751	420.06
551.964	398.06
552.177	414.06
552.39	417.06
552.603	436.06
552.816	420.06
553.029	414.06
553.242	438.06
553.455	447.06
553.667	440.06
553.88	471.06
554.093	452.06
554.306	420.06
554.519	452.06
554.732	418.06
554.944	419.06
555.157	407.06
555.37	419.06
555.583	415.06
555.795	420.06
556.008	414.06
556.221	392.06
556.433	416.06
556.646	401.06
556.859	409.06
557.071	415.06
557.284	407.06
557.496	385.06
557.709	391.06
557.921	389.06
558.134	410.06
558.346	398.06
558.559	398.06
558.771	399.06
558.984	385.06
559.196	388.06
559.409	382.06
559.621	391.06
559.833	400.06
560.046	391.06
560.258	382.06
560.47	410.06
560.683	394.06
560.895	387.06
561.107	388.06
561.32	383.06
561.532	366.06
561.744	370.06
561.956	372.06
562.168	371.06
562.381	397.06
562.593	394.06
562.805	381.06
563.017	394.06
563.229	382.06
563.441	367.06
563.653	392.06
563.865	390.06
564.077	389.06
564.289	394.06
564.501	384.06
564.713	403.06
564.925	399.06
565.137	425.06
565.349	411.06
565.561	411.06
565.773	398.06
565.985	421.06
566.197	415.06
566.408	428.06
566.62	430.06
566.832	453.06
567.044	440.06
567.255	435.06
567.467	438.06
567.679	439.06
567.891	470.06
568.102	428.06
568.314	418.06
568.526	440.06
568.737	431.06
568.949	415.06
569.161	391.06
569.372	400.06
569.584	403.06
569.795	392.06
570.007	400.06
570.218	414.06
570.43	418.06
570.641	359.06
570.853	365.06
571.064	382.06
571.276	368.06
571.487	356.06
571.698	358.06
571.91	342.06
572.121	373.06
572.333	381.06
572.544	354.06
572.755	338.06
572.966	335.06
573.178	342.06
573.389	349.06
573.6	330.06
573.811	348.06
574.023	330.06
574.234	312.06
574.445	324.06
574.656	326.06
574.867	333.06
575.078	327.06
575.289	312.06
575.501	342.06
575.712	313.06
575.923	330.06
576.134	324.06
576.345	332.06
576.556	328.06
576.767	323.06
576.978	324.06
577.188	327.06
577.399	340.06
577.61	333.06
577.821	338.06
578.032	312.06
578.243	356.06
578.454	596.06
578.665	456.06
578.875	329.06
579.086	303.06
579.297	314.06
579.508	304.06
579.718	308.06
579.929	300.06
580.14	301.06
580.35	302.06
580.561	303.06
580.772	308.06
580.982	296.06
581.193	313.06
581.403	293.06
581.614	288.06
581.825	314.06
582.035	310.06
582.246	283.06
582.456	292.06
582.667	307.06
582.877	284.06
583.087	293.06
583.298	286.06
583.508	285.06
583.719	308.06
583.929	294.06
584.139	288.06
584.35	293.06
584.56	306.06
584.77	302.06
584.981	278.06
585.191	303.06
585.401	306.06
585.611	298.06
585.821	300.06
586.032	292.06
586.242	295.06
586.452	292.06
586.662	274.06
586.872	278.06
587.082	286.06
587.292	289.06
587.502	291.06
587.713	285.06
587.923	297.06
588.133	295.06
588.343	290.06
588.553	288.06
588.762	287.06
588.972	299.06
589.182	304.06
589.392	289.06
589.602	299.06
589.812	289.06
590.022	310.06
590.232	282.06
590.441	291.06
590.651	277.06
590.861	277.06
591.071	288.06
591.281	270.06
591.49	272.06
591.7	277.06
591.91	292.06
592.119	290.06
592.329	281.06
592.539	296.06
592.748	275.06
592.958	323.06
593.167	310.06
593.377	302.06
593.587	306.06
593.796	312.06
594.006	290.06
594.215	302.06
594.424	271.06
594.634	292.06
594.843	290.06
595.053	309.06
595.262	294.06
595.472	288.06
595.681	302.06
595.89	280.06
596.1	286.06
596.309	284.06
596.518	261.06
596.727	264.06
596.937	269.06
597.146	268.06
597.355	266.06
597.564	255.06
597.774	269.06
597.983	264.06
598.192	268.06
598.401	269.06
598.61	262.06
598.819	270.06
599.028	229.06
599.237	246.06
599.446	246.06
599.655	264.06
599.864	254.06
600.073	272.06
600.282	263.06
600.491	257.06
600.7	276.06
600.909	237.06
601.118	237.06
601.327	253.06
601.536	246.06
601.745	266.06
601.953	251.06
602.162	254.06
602.371	263.06
602.58	251.06
602.789	252.06
602.997	239.06
603.206	239.06
603.415	234.06
603.623	242.06
603.832	255.06
604.041	246.06
604.249	244.06
604.458	250.06
604.666	242.06
604.875	258.06
605.084	239.06
605.292	251.06
605.501	246.06
605.709	256.06
605.918	264.06
606.126	247.06
606.334	247.06
606.543	248.06
606.751	253.06
606.96	244.06
607.168	257.06
607.376	243.06
607.585	233.06
607.793	233.06
608.001	247.06
608.21	248.06
608.418	257.06
608.626	243.06
608.834	246.06
609.043	244.06
609.251	238.06
609.459	231.06
609.667	232.06
609.875	251.06
610.083	234.06
610.291	242.06
610.499	239.06
610.707	244.06
610.916	251.06
611.124	242.06
611.332	243.06
611.54	243.06
611.748	231.06
611.955	240.06
612.163	231.06
612.371	235.06
612.579	245.06
612.787	230.06
612.995	240.06
613.203	248.06
613.411	249.06
613.618	222.06
613.826	249.06
614.034	246.06
614.242	221.06
614.449	227.06
614.657	224.06
614.865	247.06
615.072	226.06
615.28	225.06
615.488	227.06
615.695	243.06
615.903	248.06
616.111	243.06
616.318	243.06
616.526	237.06
616.733	240.06
616.941	227.06
617.148	222.06
617.356	232.06
617.563	217.06
617.771	235.06
617.978	230.06
618.185	232.06
618.393	244.06
618.6	246.06
618.807	237.06
619.015	233.06
619.222	227.06
619.429	236.06
619.637	226.06
619.844	215.06
620.051	216.06
620.258	214.06
620.466	219.06
620.673	215.06
620.88	215.06
621.087	218.06
621.294	202.06
621.501	229.06
621.708	224.06
621.915	230.06
622.122	216.06
622.329	204.06
622.536	238.06
622.743	231.06
622.95	210.06
623.157	224.06
623.364	235.06
623.571	226.06
623.778	212.06
623.985	210.06
624.192	214.06
624.399	224.06
624.606	233.06
624.812	212.06
625.019	214.06
625.226	207.06
625.433	233.06
625.639	213.06
625.846	200.06
626.053	206.06
626.259	221.06
626.466	183.06
626.673	208.06
626.879	204.06
627.086	210.06
627.293	199.06
627.499	211.06
627.706	208.06
627.912	211.06
628.119	205.06
628.325	204.06
628.532	193.06
628.738	205.06
628.945	198.06
629.151	195.06
629.357	210.06
629.564	186.06
629.77	201.06
629.976	215.06
630.183	196.06
630.389	196.06
630.595	195.06
630.802	206.06
631.008	191.06
631.214	191.06
631.42	197.06
631.627	197.06
631.833	183.06
632.039	197.06
632.245	198.06
632.451	189.06
632.657	185.06
632.863	198.06
633.069	183.06
633.275	188.06
633.481	178.06
633.688	181.06
633.893	186.06
634.099	174.06
634.305	191.06
634.511	187.06
634.717	190.06
634.923	185.06
635.129	189.06
635.335	185.06
635.541	188.06
635.747	197.06
635.952	188.06
636.158	180.06
636.364	199.06
636.57	183.06
636.775	165.06
636.981	188.06
637.187	196.06
637.392	182.06
637.598	180.06
637.804	173.06
638.009	186.06
638.215	167.06
638.421	178.06
638.626	166.06
638.832	178.06
639.037	176.06
639.243	176.06
639.448	173.06
639.654	186.06
639.859	181.06
640.065	159.06
640.27	188.06
640.475	172.06
640.681	154.06
640.886	174.06
641.091	170.06
641.297	171.06
641.502	176.06
641.707	168.06
641.913	174.06
642.118	186.06
642.323	152.06
642.528	171.06
642.733	164.06
642.939	171.06
643.144	179.06
643.349	157.06
643.554	164.06
643.759	171.06
643.964	171.06
644.169	161.06
644.374	179.06
644.579	171.06
644.784	157.06
644.989	162.06
645.194	170.06
645.399	158.06
645.604	175.06
645.809	164.06
646.014	150.06
646.219	160.06
646.423	162.06
646.628	152.06
646.833	169.06
647.038	174.06
647.243	163.06
647.447	167.06
647.652	156.06
647.857	169.06
648.062	168.06
648.266	151.06
648.471	166.06
648.676	167.06
648.88	164.06
649.085	175.06
649.289	173.06
649.494	167.06
649.698	192.06
649.903	173.06
650.107	177.06
650.312	178.06
650.516	159.06
650.721	165.06
650.925	143.06
651.13	154.06
651.334	156.06
651.539	149.06
651.743	132.06
651.947	148.06
652.152	148.06
652.356	154.06
652.56	144.06
652.764	153.06
652.969	134.06
653.173	150.06
653.377	146.06
653.581	137.06
653.785	138.06
653.99	149.06
654.194	132.06
654.398	143.06
654.602	141.06
654.806	137.06
655.01	142.06
655.214	134.06
655.418	130.06
655.622	137.06
655.826	131.06
656.03	129.06
656.234	126.06
656.438	126.06
656.642	127.06
656.846	127.06
657.049	138.06
657.253	140.06
657.457	115.06
657.661	121.06
657.865	135.06
658.068	113.06
658.272	122.06
658.476	99.06
658.68	106.06
658.883	106.06
659.087	99.06
659.291	114.06
659.494	106.06
659.698	96.06
659.901	94.06
660.105	107.06
660.309	91.06
660.512	102.06
660.716	88.06
660.919	89.06
661.123	103.06
661.326	90.06
661.53	93.06
661.733	80.06
661.936	92.06
662.14	91.06
662.343	85.06
662.546	86.06
662.75	99.06
662.953	92.06
663.156	87.06
663.36	90.06
663.563	78.06
663.766	96.06
663.969	73.06
664.173	81.06
664.376	74.06
664.579	92.06
664.782	74.06
664.985	73.06
665.188	78.06
665.391	96.06
665.594	82.06
665.797	73.06
666	78.06
666.203	87.06
666.406	78.06
666.609	88.06
666.812	93.06
667.015	87.06
667.218	98.06
667.421	96.06
667.624	86.06
667.827	77.06
668.03	82.06
668.232	69.06
668.435	81.06
668.638	83.06
668.841	86.06
669.043	87.06
669.246	82.06
669.449	80.06
669.651	93.06
669.854	77.06
670.057	94.06
670.259	88.06
670.462	84.06
670.665	75.06
670.867	84.06
671.07	86.06
671.272	82.06
671.475	84.06
671.677	74.06
671.88	82.06
672.082	77.06
672.284	94.06
672.487	92.06
672.689	79.06
672.892	65.06
