Data from 1970.PennyLincolnUp.Lamp.En5.5.200Scan.071719.P1._HRD10591_15-14-27-842.txt Node
Date: Thu Jul 18 15:14:27 EDT 2019
User: cochatt
Spectrometer: HR+D1059
Trigger mode: 1
Integration Time (sec): 1.000000E-1
Scans to average: 1
Electric dark correction enabled: true
Nonlinearity correction enabled: false
Boxcar width: 0
XAxis mode: Wavelengths
Number of Pixels in Spectrum: 2048
>>>>>Begin Spectral Data<<<<<
223.165	-22.31
223.4	-22.31
223.635	-22.31
223.869	-7.31
224.104	-20.31
224.338	-8.31
224.573	-16.31
224.808	-10.31
225.042	-13.31
225.277	-13.31
225.511	-7.31
225.746	3.69
225.98	15.69
226.215	20.69
226.449	19.69
226.683	9.69
226.918	28.69
227.152	20.69
227.387	43.69
227.621	20.69
227.856	58.69
228.09	53.69
228.324	35.69
228.559	52.69
228.793	43.69
229.027	100.69
229.262	104.69
229.496	112.69
229.73	149.69
229.964	175.69
230.199	146.69
230.433	116.69
230.667	118.69
230.901	109.69
231.136	107.69
231.37	102.69
231.604	117.69
231.838	117.69
232.072	133.69
232.306	148.69
232.541	120.69
232.775	120.69
233.009	112.69
233.243	112.69
233.477	106.69
233.711	122.69
233.945	113.69
234.179	116.69
234.413	119.69
234.647	120.69
234.881	121.69
235.115	99.69
235.349	127.69
235.583	113.69
235.817	132.69
236.051	146.69
236.285	141.69
236.519	123.69
236.753	135.69
236.987	149.69
237.221	205.69
237.455	267.69
237.689	204.69
237.922	152.69
238.156	138.69
238.39	150.69
238.624	140.69
238.858	140.69
239.091	133.69
239.325	135.69
239.559	129.69
239.793	132.69
240.027	130.69
240.26	164.69
240.494	180.69
240.728	168.69
240.961	164.69
241.195	157.69
241.429	146.69
241.662	153.69
241.896	154.69
242.13	154.69
242.363	133.69
242.597	138.69
242.83	136.69
243.064	141.69
243.298	140.69
243.531	158.69
243.765	164.69
243.998	140.69
244.232	147.69
244.465	154.69
244.699	169.69
244.932	164.69
245.166	148.69
245.399	153.69
245.633	163.69
245.866	168.69
246.099	159.69
246.333	155.69
246.566	146.69
246.8	165.69
247.033	171.69
247.266	189.69
247.5	182.69
247.733	187.69
247.966	180.69
248.2	190.69
248.433	190.69
248.666	185.69
248.899	226.69
249.133	231.69
249.366	217.69
249.599	212.69
249.832	211.69
250.066	203.69
250.299	214.69
250.532	201.69
250.765	219.69
250.998	223.69
251.231	268.69
251.465	253.69
251.698	229.69
251.931	227.69
252.164	215.69
252.397	212.69
252.63	220.69
252.863	220.69
253.096	242.69
253.329	266.69
253.562	244.69
253.795	247.69
254.028	242.69
254.261	248.69
254.494	261.69
254.727	305.69
254.96	331.69
255.193	313.69
255.426	292.69
255.659	265.69
255.892	265.69
256.124	281.69
256.357	259.69
256.59	244.69
256.823	241.69
257.056	238.69
257.289	248.69
257.521	236.69
257.754	240.69
257.987	220.69
258.22	244.69
258.452	244.69
258.685	236.69
258.918	218.69
259.151	213.69
259.383	245.69
259.616	241.69
259.849	245.69
260.081	260.69
260.314	289.69
260.547	276.69
260.779	272.69
261.012	260.69
261.244	252.69
261.477	252.69
261.71	229.69
261.942	237.69
262.175	248.69
262.407	258.69
262.64	234.69
262.872	249.69
263.105	232.69
263.337	226.69
263.57	226.69
263.802	222.69
264.035	219.69
264.267	221.69
264.499	233.69
264.732	217.69
264.964	234.69
265.197	220.69
265.429	233.69
265.661	224.69
265.894	228.69
266.126	237.69
266.358	236.69
266.591	231.69
266.823	229.69
267.055	224.69
267.287	227.69
267.52	230.69
267.752	228.69
267.984	245.69
268.216	236.69
268.448	240.69
268.681	250.69
268.913	260.69
269.145	281.69
269.377	290.69
269.609	309.69
269.841	283.69
270.073	291.69
270.306	297.69
270.538	336.69
270.77	353.69
271.002	321.69
271.234	304.69
271.466	319.69
271.698	342.69
271.93	348.69
272.162	338.69
272.394	333.69
272.626	352.69
272.858	324.69
273.09	301.69
273.322	301.69
273.553	286.69
273.785	270.69
274.017	283.69
274.249	288.69
274.481	276.69
274.713	278.69
274.945	276.69
275.176	267.69
275.408	253.69
275.64	265.69
275.872	256.69
276.104	274.69
276.335	275.69
276.567	280.69
276.799	322.69
277.031	346.69
277.262	317.69
277.494	346.69
277.726	316.69
277.957	306.69
278.189	296.69
278.421	285.69
278.652	295.69
278.884	279.69
279.115	272.69
279.347	267.69
279.579	259.69
279.81	267.69
280.042	270.69
280.273	275.69
280.505	289.69
280.736	249.69
280.968	262.69
281.199	262.69
281.431	269.69
281.662	266.69
281.894	272.69
282.125	278.69
282.356	292.69
282.588	305.69
282.819	314.69
283.051	274.69
283.282	284.69
283.513	273.69
283.745	274.69
283.976	287.69
284.207	282.69
284.439	295.69
284.67	280.69
284.901	269.69
285.132	264.69
285.364	289.69
285.595	249.69
285.826	284.69
286.057	288.69
286.288	264.69
286.52	296.69
286.751	263.69
286.982	298.69
287.213	269.69
287.444	280.69
287.675	310.69
287.906	291.69
288.138	290.69
288.369	329.69
288.6	312.69
288.831	288.69
289.062	321.69
289.293	300.69
289.524	277.69
289.755	288.69
289.986	280.69
290.217	288.69
290.448	285.69
290.679	280.69
290.91	296.69
291.141	288.69
291.371	265.69
291.602	288.69
291.833	285.69
292.064	293.69
292.295	283.69
292.526	282.69
292.757	285.69
292.987	289.69
293.218	280.69
293.449	285.69
293.68	294.69
293.91	289.69
294.141	284.69
294.372	290.69
294.603	282.69
294.833	281.69
295.064	295.69
295.295	288.69
295.525	284.69
295.756	316.69
295.987	302.69
296.217	341.69
296.448	343.69
296.679	301.69
296.909	309.69
297.14	316.69
297.37	293.69
297.601	296.69
297.831	292.69
298.062	310.69
298.292	298.69
298.523	324.69
298.753	297.69
298.984	288.69
299.214	326.69
299.445	309.69
299.675	310.69
299.905	318.69
300.136	308.69
300.366	305.69
300.597	322.69
300.827	310.69
301.057	320.69
301.288	315.69
301.518	320.69
301.748	326.69
301.979	318.69
302.209	319.69
302.439	312.69
302.669	327.69
302.9	330.69
303.13	308.69
303.36	325.69
303.59	333.69
303.82	330.69
304.051	327.69
304.281	304.69
304.511	326.69
304.741	314.69
304.971	325.69
305.201	314.69
305.431	318.69
305.661	339.69
305.891	324.69
306.121	310.69
306.352	324.69
306.582	335.69
306.812	342.69
307.042	341.69
307.272	321.69
307.502	332.69
307.731	334.69
307.961	317.69
308.191	333.69
308.421	336.69
308.651	352.69
308.881	349.69
309.111	346.69
309.341	329.69
309.571	363.69
309.8	374.69
310.03	384.69
310.26	369.69
310.49	388.69
310.72	410.69
310.949	384.69
311.179	413.69
311.409	382.69
311.639	380.69
311.868	376.69
312.098	379.69
312.328	396.69
312.557	422.69
312.787	425.69
313.017	422.69
313.246	402.69
313.476	398.69
313.706	400.69
313.935	399.69
314.165	398.69
314.394	404.69
314.624	421.69
314.853	403.69
315.083	384.69
315.312	390.69
315.542	371.69
315.771	369.69
316.001	370.69
316.23	386.69
316.46	370.69
316.689	369.69
316.919	391.69
317.148	404.69
317.377	420.69
317.607	399.69
317.836	386.69
318.065	391.69
318.295	396.69
318.524	382.69
318.753	390.69
318.983	376.69
319.212	386.69
319.441	393.69
319.67	436.69
319.9	402.69
320.129	398.69
320.358	403.69
320.587	405.69
320.816	404.69
321.046	414.69
321.275	415.69
321.504	414.69
321.733	414.69
321.962	441.69
322.191	456.69
322.42	458.69
322.649	492.69
322.878	491.69
323.108	513.69
323.337	533.69
323.566	542.69
323.795	597.69
324.024	638.69
324.253	782.69
324.482	1124.69
324.71	1719.69
324.939	2392.69
325.168	2130.69
325.397	1167.69
325.626	760.69
325.855	643.69
326.084	561.69
326.313	549.69
326.542	549.69
326.77	603.69
326.999	715.69
327.228	983.69
327.457	1487.69
327.686	1841.69
327.914	1286.69
328.143	836.69
328.372	736.69
328.6	661.69
328.829	626.69
329.058	640.69
329.287	658.69
329.515	642.69
329.744	563.69
329.972	553.69
330.201	581.69
330.43	641.69
330.658	664.69
330.887	690.69
331.115	683.69
331.344	591.69
331.572	523.69
331.801	539.69
332.03	521.69
332.258	497.69
332.486	473.69
332.715	445.69
332.943	447.69
333.172	461.69
333.4	501.69
333.629	482.69
333.857	508.69
334.085	506.69
334.314	515.69
334.542	587.69
334.771	577.69
334.999	526.69
335.227	480.69
335.455	468.69
335.684	465.69
335.912	461.69
336.14	459.69
336.369	455.69
336.597	464.69
336.825	459.69
337.053	465.69
337.281	452.69
337.51	461.69
337.738	462.69
337.966	468.69
338.194	477.69
338.422	450.69
338.65	470.69
338.878	453.69
339.106	442.69
339.334	446.69
339.562	432.69
339.79	432.69
340.018	435.69
340.246	444.69
340.474	460.69
340.702	455.69
340.93	439.69
341.158	438.69
341.386	429.69
341.614	450.69
341.842	431.69
342.07	448.69
342.298	453.69
342.526	421.69
342.754	410.69
342.981	413.69
343.209	436.69
343.437	423.69
343.665	444.69
343.893	462.69
344.12	445.69
344.348	439.69
344.576	441.69
344.804	470.69
345.031	478.69
345.259	475.69
345.487	477.69
345.714	455.69
345.942	453.69
346.17	440.69
346.397	438.69
346.625	440.69
346.853	441.69
347.08	441.69
347.308	436.69
347.535	463.69
347.763	470.69
347.99	457.69
348.218	456.69
348.445	470.69
348.673	459.69
348.9	426.69
349.128	430.69
349.355	427.69
349.583	448.69
349.81	412.69
350.037	416.69
350.265	417.69
350.492	437.69
350.72	398.69
350.947	437.69
351.174	450.69
351.402	455.69
351.629	451.69
351.856	449.69
352.083	461.69
352.311	485.69
352.538	464.69
352.765	487.69
352.992	471.69
353.22	450.69
353.447	453.69
353.674	437.69
353.901	436.69
354.128	422.69
354.355	413.69
354.583	430.69
354.81	401.69
355.037	418.69
355.264	414.69
355.491	396.69
355.718	407.69
355.945	423.69
356.172	411.69
356.399	403.69
356.626	397.69
356.853	426.69
357.08	417.69
357.307	414.69
357.534	399.69
357.761	417.69
357.988	397.69
358.215	387.69
358.441	410.69
358.668	437.69
358.895	432.69
359.122	433.69
359.349	425.69
359.576	452.69
359.802	489.69
360.029	496.69
360.256	522.69
360.483	507.69
360.709	465.69
360.936	435.69
361.163	440.69
361.39	466.69
361.616	456.69
361.843	443.69
362.07	455.69
362.296	475.69
362.523	456.69
362.749	454.69
362.976	435.69
363.203	440.69
363.429	427.69
363.656	438.69
363.882	414.69
364.109	417.69
364.335	423.69
364.562	411.69
364.788	406.69
365.015	421.69
365.241	429.69
365.468	453.69
365.694	433.69
365.92	457.69
366.147	438.69
366.373	432.69
366.599	430.69
366.826	436.69
367.052	436.69
367.278	423.69
367.505	419.69
367.731	440.69
367.957	420.69
368.184	427.69
368.41	448.69
368.636	448.69
368.862	449.69
369.089	440.69
369.315	437.69
369.541	434.69
369.767	418.69
369.993	422.69
370.219	427.69
370.445	421.69
370.672	419.69
370.898	427.69
371.124	407.69
371.35	449.69
371.576	412.69
371.802	412.69
372.028	426.69
372.254	432.69
372.48	410.69
372.706	436.69
372.932	414.69
373.158	411.69
373.384	419.69
373.61	414.69
373.835	440.69
374.061	433.69
374.287	446.69
374.513	436.69
374.739	424.69
374.965	444.69
375.191	441.69
375.416	433.69
375.642	438.69
375.868	439.69
376.094	424.69
376.319	413.69
376.545	426.69
376.771	429.69
376.997	412.69
377.222	437.69
377.448	420.69
377.674	417.69
377.899	420.69
378.125	406.69
378.35	433.69
378.576	424.69
378.802	412.69
379.027	436.69
379.253	427.69
379.478	415.69
379.704	410.69
379.929	424.69
380.155	438.69
380.38	432.69
380.606	448.69
380.831	421.69
381.057	424.69
381.282	440.69
381.507	434.69
381.733	419.69
381.958	425.69
382.184	423.69
382.409	432.69
382.634	422.69
382.86	424.69
383.085	438.69
383.31	453.69
383.535	432.69
383.761	446.69
383.986	432.69
384.211	433.69
384.436	463.69
384.662	449.69
384.887	453.69
385.112	457.69
385.337	461.69
385.562	454.69
385.787	456.69
386.013	462.69
386.238	474.69
386.463	467.69
386.688	483.69
386.913	473.69
387.138	454.69
387.363	448.69
387.588	462.69
387.813	464.69
388.038	456.69
388.263	464.69
388.488	451.69
388.713	463.69
388.938	448.69
389.163	436.69
389.387	454.69
389.612	461.69
389.837	460.69
390.062	449.69
390.287	453.69
390.512	471.69
390.736	469.69
390.961	467.69
391.186	443.69
391.411	463.69
391.636	461.69
391.86	456.69
392.085	472.69
392.31	469.69
392.534	469.69
392.759	463.69
392.984	465.69
393.208	465.69
393.433	464.69
393.658	482.69
393.882	460.69
394.107	433.69
394.331	472.69
394.556	468.69
394.78	464.69
395.005	461.69
395.229	447.69
395.454	480.69
395.678	455.69
395.903	471.69
396.127	513.69
396.352	511.69
396.576	497.69
396.801	503.69
397.025	492.69
397.249	452.69
397.474	493.69
397.698	489.69
397.922	510.69
398.147	520.69
398.371	534.69
398.595	526.69
398.82	508.69
399.044	510.69
399.268	529.69
399.492	568.69
399.717	580.69
399.941	618.69
400.165	644.69
400.389	642.69
400.613	587.69
400.837	554.69
401.062	556.69
401.286	532.69
401.51	510.69
401.734	519.69
401.958	526.69
402.182	522.69
402.406	544.69
402.63	550.69
402.854	518.69
403.078	545.69
403.302	567.69
403.526	554.69
403.75	556.69
403.974	544.69
404.198	536.69
404.422	564.69
404.645	562.69
404.869	566.69
405.093	602.69
405.317	623.69
405.541	660.69
405.765	608.69
405.988	598.69
406.212	616.69
406.436	610.69
406.66	633.69
406.883	610.69
407.107	606.69
407.331	650.69
407.555	736.69
407.778	731.69
408.002	669.69
408.226	642.69
408.449	605.69
408.673	602.69
408.896	624.69
409.12	699.69
409.344	646.69
409.567	588.69
409.791	564.69
410.014	553.69
410.238	557.69
410.461	547.69
410.685	556.69
410.908	591.69
411.132	604.69
411.355	634.69
411.578	596.69
411.802	578.69
412.025	561.69
412.249	561.69
412.472	592.69
412.695	662.69
412.919	610.69
413.142	586.69
413.365	551.69
413.589	546.69
413.812	550.69
414.035	527.69
414.258	542.69
414.482	522.69
414.705	525.69
414.928	548.69
415.151	517.69
415.374	504.69
415.597	528.69
415.821	516.69
416.044	524.69
416.267	506.69
416.49	526.69
416.713	535.69
416.936	520.69
417.159	537.69
417.382	544.69
417.605	544.69
417.828	547.69
418.051	562.69
418.274	542.69
418.497	518.69
418.72	525.69
418.943	548.69
419.166	545.69
419.389	554.69
419.611	553.69
419.834	594.69
420.057	554.69
420.28	574.69
420.503	543.69
420.726	565.69
420.948	607.69
421.171	635.69
421.394	660.69
421.617	590.69
421.839	584.69
422.062	553.69
422.285	590.69
422.507	633.69
422.73	742.69
422.953	715.69
423.175	632.69
423.398	604.69
423.621	597.69
423.843	641.69
424.066	616.69
424.288	617.69
424.511	640.69
424.733	704.69
424.956	798.69
425.178	743.69
425.401	744.69
425.623	786.69
425.846	652.69
426.068	618.69
426.291	618.69
426.513	608.69
426.735	644.69
426.958	662.69
427.18	748.69
427.402	877.69
427.625	984.69
427.847	907.69
428.069	796.69
428.292	681.69
428.514	633.69
428.736	604.69
428.958	594.69
429.181	597.69
429.403	574.69
429.625	590.69
429.847	643.69
430.069	702.69
430.292	697.69
430.514	597.69
430.736	576.69
430.958	568.69
431.18	551.69
431.402	543.69
431.624	552.69
431.846	546.69
432.068	537.69
432.29	536.69
432.512	532.69
432.734	555.69
432.956	546.69
433.178	556.69
433.4	573.69
433.622	537.69
433.844	534.69
434.066	531.69
434.287	537.69
434.509	553.69
434.731	551.69
434.953	551.69
435.175	590.69
435.397	595.69
435.618	630.69
435.84	673.69
436.062	788.69
436.284	816.69
436.505	700.69
436.727	665.69
436.949	620.69
437.17	581.69
437.392	582.69
437.614	611.69
437.835	633.69
438.057	760.69
438.278	876.69
438.5	873.69
438.721	925.69
438.943	884.69
439.165	722.69
439.386	660.69
439.608	652.69
439.829	642.69
440.05	672.69
440.272	718.69
440.493	700.69
440.715	637.69
440.936	613.69
441.158	610.69
441.379	604.69
441.6	582.69
441.822	640.69
442.043	656.69
442.264	747.69
442.486	794.69
442.707	708.69
442.928	649.69
443.149	660.69
443.371	688.69
443.592	728.69
443.813	825.69
444.034	885.69
444.255	748.69
444.476	655.69
444.698	617.69
444.919	615.69
445.14	710.69
445.361	701.69
445.582	693.69
445.803	742.69
446.024	850.69
446.245	846.69
446.466	804.69
446.687	708.69
446.908	652.69
447.129	614.69
447.35	612.69
447.571	574.69
447.792	567.69
448.013	615.69
448.234	610.69
448.455	676.69
448.675	778.69
448.896	894.69
449.117	767.69
449.338	727.69
449.559	856.69
449.779	928.69
450	770.69
450.221	661.69
450.442	615.69
450.662	571.69
450.883	600.69
451.104	605.69
451.324	580.69
451.545	560.69
451.766	578.69
451.986	539.69
452.207	517.69
452.428	525.69
452.648	512.69
452.869	540.69
453.089	530.69
453.31	550.69
453.53	530.69
453.751	526.69
453.971	532.69
454.192	577.69
454.412	534.69
454.633	531.69
454.853	548.69
455.073	518.69
455.294	556.69
455.514	619.69
455.734	616.69
455.955	523.69
456.175	494.69
456.395	476.69
456.616	479.69
456.836	498.69
457.056	483.69
457.276	482.69
457.497	499.69
457.717	493.69
457.937	506.69
458.157	501.69
458.377	516.69
458.598	530.69
458.818	583.69
459.038	700.69
459.258	700.69
459.478	599.69
459.698	562.69
459.918	555.69
460.138	510.69
460.358	518.69
460.578	554.69
460.798	541.69
461.018	567.69
461.238	534.69
461.458	521.69
461.678	534.69
461.898	532.69
462.118	528.69
462.338	543.69
462.558	563.69
462.777	556.69
462.997	567.69
463.217	551.69
463.437	588.69
463.657	569.69
463.876	562.69
464.096	561.69
464.316	557.69
464.536	561.69
464.755	589.69
464.975	593.69
465.195	611.69
465.414	733.69
465.634	649.69
465.854	593.69
466.073	572.69
466.293	545.69
466.512	540.69
466.732	534.69
466.951	532.69
467.171	531.69
467.391	520.69
467.61	538.69
467.829	542.69
468.049	568.69
468.268	536.69
468.488	531.69
468.707	518.69
468.927	514.69
469.146	513.69
469.365	517.69
469.585	507.69
469.804	514.69
470.023	578.69
470.243	555.69
470.462	557.69
470.681	565.69
470.901	555.69
471.12	547.69
471.339	556.69
471.558	535.69
471.777	554.69
471.997	525.69
472.216	540.69
472.435	603.69
472.654	583.69
472.873	542.69
473.092	550.69
473.311	546.69
473.53	546.69
473.749	563.69
473.968	598.69
474.187	699.69
474.406	747.69
474.625	619.69
474.844	579.69
475.063	562.69
475.282	552.69
475.501	543.69
475.72	523.69
475.939	557.69
476.158	565.69
476.377	560.69
476.596	546.69
476.814	574.69
477.033	613.69
477.252	590.69
477.471	564.69
477.69	577.69
477.908	602.69
478.127	604.69
478.346	582.69
478.564	609.69
478.783	597.69
479.002	607.69
479.22	618.69
479.439	637.69
479.658	658.69
479.876	688.69
480.095	664.69
480.313	710.69
480.532	670.69
480.751	646.69
480.969	669.69
481.188	758.69
481.406	804.69
481.624	712.69
481.843	677.69
482.061	664.69
482.28	663.69
482.498	633.69
482.717	669.69
482.935	641.69
483.153	639.69
483.372	638.69
483.59	646.69
483.808	641.69
484.027	653.69
484.245	681.69
484.463	663.69
484.681	660.69
484.9	660.69
485.118	646.69
485.336	636.69
485.554	667.69
485.772	680.69
485.99	675.69
486.209	665.69
486.427	692.69
486.645	706.69
486.863	719.69
487.081	708.69
487.299	686.69
487.517	712.69
487.735	696.69
487.953	680.69
488.171	706.69
488.389	720.69
488.607	683.69
488.825	730.69
489.043	708.69
489.261	711.69
489.479	738.69
489.696	718.69
489.914	728.69
490.132	734.69
490.35	721.69
490.568	729.69
490.786	755.69
491.003	772.69
491.221	797.69
491.439	809.69
491.657	812.69
491.874	830.69
492.092	812.69
492.31	840.69
492.527	837.69
492.745	831.69
492.963	837.69
493.18	840.69
493.398	854.69
493.615	880.69
493.833	884.69
494.05	844.69
494.268	837.69
494.485	849.69
494.703	858.69
494.92	858.69
495.138	865.69
495.355	842.69
495.573	883.69
495.79	849.69
496.008	858.69
496.225	841.69
496.442	859.69
496.66	866.69
496.877	858.69
497.094	853.69
497.312	882.69
497.529	863.69
497.746	898.69
497.963	867.69
498.181	906.69
498.398	884.69
498.615	883.69
498.832	925.69
499.049	912.69
499.267	915.69
499.484	937.69
499.701	970.69
499.918	976.69
500.135	1036.69
500.352	1061.69
500.569	1043.69
500.786	1039.69
501.003	1051.69
501.22	1056.69
501.437	1021.69
501.654	987.69
501.871	1001.69
502.088	997.69
502.305	938.69
502.522	939.69
502.739	927.69
502.956	910.69
503.172	892.69
503.389	863.69
503.606	876.69
503.823	897.69
504.04	866.69
504.256	840.69
504.473	873.69
504.69	832.69
504.907	845.69
505.123	844.69
505.34	829.69
505.557	821.69
505.773	817.69
505.99	830.69
506.207	818.69
506.423	812.69
506.64	803.69
506.856	808.69
507.073	813.69
507.289	820.69
507.506	782.69
507.722	818.69
507.939	822.69
508.155	817.69
508.372	785.69
508.588	812.69
508.805	778.69
509.021	781.69
509.238	803.69
509.454	805.69
509.67	794.69
509.887	789.69
510.103	798.69
510.319	825.69
510.536	926.69
510.752	1507.69
510.968	1257.69
511.184	834.69
511.401	780.69
511.617	757.69
511.833	766.69
512.049	753.69
512.265	738.69
512.481	739.69
512.698	738.69
512.914	736.69
513.13	751.69
513.346	734.69
513.562	737.69
513.778	752.69
513.994	758.69
514.21	750.69
514.426	811.69
514.642	864.69
514.858	888.69
515.074	936.69
515.29	1074.69
515.506	1669.69
515.721	1342.69
515.937	936.69
516.153	840.69
516.369	800.69
516.585	774.69
516.801	753.69
517.016	741.69
517.232	748.69
517.448	761.69
517.664	728.69
517.879	764.69
518.095	744.69
518.311	761.69
518.527	749.69
518.742	742.69
518.958	713.69
519.173	724.69
519.389	723.69
519.605	748.69
519.82	746.69
520.036	758.69
520.251	788.69
520.467	824.69
520.682	828.69
520.898	834.69
521.113	889.69
521.329	916.69
521.544	1024.69
521.76	1333.69
521.975	2134.69
522.19	2101.69
522.406	1134.69
522.621	895.69
522.836	793.69
523.052	762.69
523.267	708.69
523.482	696.69
523.698	670.69
523.913	695.69
524.128	665.69
524.343	652.69
524.559	645.69
524.774	643.69
524.989	652.69
525.204	650.69
525.419	658.69
525.634	642.69
525.849	651.69
526.064	596.69
526.28	617.69
526.495	618.69
526.71	609.69
526.925	603.69
527.14	616.69
527.355	588.69
527.57	582.69
527.785	597.69
527.999	593.69
528.214	573.69
528.429	601.69
528.644	593.69
528.859	618.69
529.074	608.69
529.289	628.69
529.503	716.69
529.718	692.69
529.933	621.69
530.148	636.69
530.363	618.69
530.577	573.69
530.792	597.69
531.007	570.69
531.221	570.69
531.436	570.69
531.651	588.69
531.865	580.69
532.08	569.69
532.295	557.69
532.509	560.69
532.724	547.69
532.938	571.69
533.153	558.69
533.367	571.69
533.582	553.69
533.796	536.69
534.011	562.69
534.225	580.69
534.44	557.69
534.654	546.69
534.868	562.69
535.083	540.69
535.297	541.69
535.511	565.69
535.726	585.69
535.94	566.69
536.154	542.69
536.369	544.69
536.583	535.69
536.797	551.69
537.011	549.69
537.225	533.69
537.44	528.69
537.654	560.69
537.868	522.69
538.082	542.69
538.296	556.69
538.51	542.69
538.724	577.69
538.938	529.69
539.153	512.69
539.367	564.69
539.581	554.69
539.795	537.69
540.009	544.69
540.222	537.69
540.436	529.69
540.65	539.69
540.864	542.69
541.078	565.69
541.292	534.69
541.506	531.69
541.72	530.69
541.934	529.69
542.147	555.69
542.361	556.69
542.575	554.69
542.789	528.69
543.002	537.69
543.216	534.69
543.43	552.69
543.644	538.69
543.857	540.69
544.071	537.69
544.285	518.69
544.498	553.69
544.712	551.69
544.925	522.69
545.139	527.69
545.352	509.69
545.566	518.69
545.779	534.69
545.993	510.69
546.206	528.69
546.42	516.69
546.633	525.69
546.847	525.69
547.06	510.69
547.274	502.69
547.487	513.69
547.7	522.69
547.914	498.69
548.127	520.69
548.34	503.69
548.554	506.69
548.767	522.69
548.98	512.69
549.193	508.69
549.407	499.69
549.62	520.69
549.833	504.69
550.046	498.69
550.259	475.69
550.473	487.69
550.686	524.69
550.899	513.69
551.112	497.69
551.325	494.69
551.538	485.69
551.751	472.69
551.964	483.69
552.177	473.69
552.39	498.69
552.603	489.69
552.816	504.69
553.029	502.69
553.242	491.69
553.455	511.69
553.667	507.69
553.88	525.69
554.093	505.69
554.306	497.69
554.519	499.69
554.732	499.69
554.944	497.69
555.157	503.69
555.37	482.69
555.583	466.69
555.795	478.69
556.008	464.69
556.221	456.69
556.433	473.69
556.646	456.69
556.859	460.69
557.071	469.69
557.284	472.69
557.496	461.69
557.709	452.69
557.921	454.69
558.134	447.69
558.346	445.69
558.559	468.69
558.771	442.69
558.984	463.69
559.196	434.69
559.409	451.69
559.621	442.69
559.833	446.69
560.046	440.69
560.258	458.69
560.47	436.69
560.683	432.69
560.895	451.69
561.107	446.69
561.32	434.69
561.532	451.69
561.744	434.69
561.956	430.69
562.168	451.69
562.381	414.69
562.593	451.69
562.805	447.69
563.017	444.69
563.229	445.69
563.441	453.69
563.653	449.69
563.865	443.69
564.077	462.69
564.289	453.69
564.501	456.69
564.713	456.69
564.925	456.69
565.137	484.69
565.349	486.69
565.561	473.69
565.773	480.69
565.985	490.69
566.197	474.69
566.408	485.69
566.62	517.69
566.832	498.69
567.044	531.69
567.255	502.69
567.467	509.69
567.679	513.69
567.891	531.69
568.102	504.69
568.314	496.69
568.526	513.69
568.737	493.69
568.949	467.69
569.161	476.69
569.372	466.69
569.584	450.69
569.795	442.69
570.007	442.69
570.218	497.69
570.43	482.69
570.641	452.69
570.853	429.69
571.064	426.69
571.276	414.69
571.487	404.69
571.698	420.69
571.91	415.69
572.121	395.69
572.333	398.69
572.544	412.69
572.755	394.69
572.966	404.69
573.178	392.69
573.389	404.69
573.6	372.69
573.811	394.69
574.023	381.69
574.234	370.69
574.445	377.69
574.656	375.69
574.867	381.69
575.078	385.69
575.289	369.69
575.501	385.69
575.712	375.69
575.923	370.69
576.134	387.69
576.345	372.69
576.556	361.69
576.767	374.69
576.978	363.69
577.188	379.69
577.399	370.69
577.61	368.69
577.821	376.69
578.032	373.69
578.243	402.69
578.454	678.69
578.665	517.69
578.875	383.69
579.086	359.69
579.297	362.69
579.508	361.69
579.718	364.69
579.929	355.69
580.14	360.69
580.35	357.69
580.561	357.69
580.772	346.69
580.982	349.69
581.193	355.69
581.403	346.69
581.614	338.69
581.825	341.69
582.035	361.69
582.246	337.69
582.456	329.69
582.667	360.69
582.877	339.69
583.087	350.69
583.298	345.69
583.508	337.69
583.719	343.69
583.929	353.69
584.139	333.69
584.35	333.69
584.56	339.69
584.77	356.69
584.981	338.69
585.191	353.69
585.401	352.69
585.611	336.69
585.821	350.69
586.032	323.69
586.242	312.69
586.452	331.69
586.662	324.69
586.872	325.69
587.082	336.69
587.292	329.69
587.502	329.69
587.713	345.69
587.923	337.69
588.133	313.69
588.343	333.69
588.553	317.69
588.762	327.69
588.972	318.69
589.182	342.69
589.392	332.69
589.602	318.69
589.812	326.69
590.022	345.69
590.232	337.69
590.441	314.69
590.651	328.69
590.861	314.69
591.071	316.69
591.281	349.69
591.49	327.69
591.7	331.69
591.91	326.69
592.119	327.69
592.329	324.69
592.539	349.69
592.748	316.69
592.958	351.69
593.167	338.69
593.377	335.69
593.587	332.69
593.796	345.69
594.006	330.69
594.215	307.69
594.424	306.69
594.634	317.69
594.843	320.69
595.053	315.69
595.262	329.69
595.472	321.69
595.681	308.69
595.89	310.69
596.1	313.69
596.309	334.69
596.518	308.69
596.727	298.69
596.937	310.69
597.146	302.69
597.355	308.69
597.564	294.69
597.774	310.69
597.983	300.69
598.192	313.69
598.401	306.69
598.61	303.69
598.819	295.69
599.028	288.69
599.237	299.69
599.446	291.69
599.655	302.69
599.864	300.69
600.073	297.69
600.282	286.69
600.491	290.69
600.7	302.69
600.909	302.69
601.118	278.69
601.327	293.69
601.536	291.69
601.745	282.69
601.953	286.69
602.162	282.69
602.371	275.69
602.58	290.69
602.789	306.69
602.997	285.69
603.206	283.69
603.415	288.69
603.623	297.69
603.832	272.69
604.041	290.69
604.249	262.69
604.458	280.69
604.666	277.69
604.875	276.69
605.084	274.69
605.292	268.69
605.501	284.69
605.709	267.69
605.918	286.69
606.126	287.69
606.334	278.69
606.543	280.69
606.751	269.69
606.96	279.69
607.168	268.69
607.376	264.69
607.585	261.69
607.793	267.69
608.001	262.69
608.21	254.69
608.418	277.69
608.626	284.69
608.834	281.69
609.043	281.69
609.251	272.69
609.459	281.69
609.667	283.69
609.875	267.69
610.083	247.69
610.291	261.69
610.499	270.69
610.707	264.69
610.916	275.69
611.124	284.69
611.332	262.69
611.54	259.69
611.748	275.69
611.955	262.69
612.163	268.69
612.371	262.69
612.579	271.69
612.787	258.69
612.995	292.69
613.203	273.69
613.411	274.69
613.618	271.69
613.826	286.69
614.034	262.69
614.242	265.69
614.449	248.69
614.657	240.69
614.865	276.69
615.072	258.69
615.28	278.69
615.488	270.69
615.695	242.69
615.903	266.69
616.111	256.69
616.318	272.69
616.526	266.69
616.733	256.69
616.941	248.69
617.148	262.69
617.356	245.69
617.563	272.69
617.771	235.69
617.978	254.69
618.185	265.69
618.393	273.69
618.6	258.69
618.807	258.69
619.015	261.69
619.222	249.69
619.429	257.69
619.637	253.69
619.844	241.69
620.051	253.69
620.258	245.69
620.466	252.69
620.673	246.69
620.88	232.69
621.087	258.69
621.294	248.69
621.501	237.69
621.708	253.69
621.915	278.69
622.122	238.69
622.329	246.69
622.536	252.69
622.743	224.69
622.95	250.69
623.157	259.69
623.364	245.69
623.571	240.69
623.778	236.69
623.985	267.69
624.192	234.69
624.399	225.69
624.606	220.69
624.812	242.69
625.019	240.69
625.226	236.69
625.433	242.69
625.639	245.69
625.846	220.69
626.053	240.69
626.259	231.69
626.466	210.69
626.673	231.69
626.879	231.69
627.086	230.69
627.293	231.69
627.499	227.69
627.706	238.69
627.912	227.69
628.119	226.69
628.325	228.69
628.532	212.69
628.738	212.69
628.945	221.69
629.151	212.69
629.357	225.69
629.564	213.69
629.77	228.69
629.976	198.69
630.183	216.69
630.389	208.69
630.595	218.69
630.802	219.69
631.008	204.69
631.214	210.69
631.42	200.69
631.627	217.69
631.833	203.69
632.039	209.69
632.245	202.69
632.451	199.69
632.657	212.69
632.863	210.69
633.069	192.69
633.275	226.69
633.481	204.69
633.688	201.69
633.893	200.69
634.099	206.69
634.305	204.69
634.511	200.69
634.717	205.69
634.923	197.69
635.129	198.69
635.335	190.69
635.541	206.69
635.747	177.69
635.952	193.69
636.158	195.69
636.364	207.69
636.57	216.69
636.775	206.69
636.981	186.69
637.187	211.69
637.392	190.69
637.598	203.69
637.804	190.69
638.009	201.69
638.215	188.69
638.421	199.69
638.626	185.69
638.832	170.69
639.037	193.69
639.243	199.69
639.448	206.69
639.654	197.69
639.859	188.69
640.065	167.69
640.27	194.69
640.475	189.69
640.681	183.69
640.886	208.69
641.091	188.69
641.297	198.69
641.502	185.69
641.707	182.69
641.913	201.69
642.118	178.69
642.323	188.69
642.528	187.69
642.733	199.69
642.939	188.69
643.144	176.69
643.349	185.69
643.554	192.69
643.759	188.69
643.964	185.69
644.169	170.69
644.374	172.69
644.579	181.69
644.784	184.69
644.989	184.69
645.194	176.69
645.399	184.69
645.604	190.69
645.809	178.69
646.014	197.69
646.219	169.69
646.423	179.69
646.628	166.69
646.833	184.69
647.038	188.69
647.243	189.69
647.447	177.69
647.652	184.69
647.857	192.69
648.062	169.69
648.266	154.69
648.471	190.69
648.676	184.69
648.88	188.69
649.085	183.69
649.289	189.69
649.494	201.69
649.698	189.69
649.903	200.69
650.107	183.69
650.312	182.69
650.516	173.69
650.721	170.69
650.925	160.69
651.13	176.69
651.334	165.69
651.539	166.69
651.743	142.69
651.947	145.69
652.152	150.69
652.356	157.69
652.56	146.69
652.764	156.69
652.969	158.69
653.173	146.69
653.377	156.69
653.581	141.69
653.785	134.69
653.99	129.69
654.194	155.69
654.398	136.69
654.602	137.69
654.806	139.69
655.01	139.69
655.214	146.69
655.418	133.69
655.622	137.69
655.826	143.69
656.03	138.69
656.234	133.69
656.438	126.69
656.642	128.69
656.846	117.69
657.049	117.69
657.253	116.69
657.457	113.69
657.661	130.69
657.865	136.69
658.068	128.69
658.272	98.69
658.476	100.69
658.68	106.69
658.883	97.69
659.087	113.69
659.291	101.69
659.494	91.69
659.698	96.69
659.901	80.69
660.105	87.69
660.309	96.69
660.512	82.69
660.716	92.69
660.919	82.69
661.123	88.69
661.326	88.69
661.53	94.69
661.733	93.69
661.936	84.69
662.14	84.69
662.343	80.69
662.546	89.69
662.75	75.69
662.953	85.69
663.156	84.69
663.36	97.69
663.563	83.69
663.766	85.69
663.969	91.69
664.173	77.69
664.376	71.69
664.579	73.69
664.782	69.69
664.985	87.69
665.188	57.69
665.391	76.69
665.594	77.69
665.797	75.69
666	79.69
666.203	88.69
666.406	83.69
666.609	81.69
666.812	84.69
667.015	70.69
667.218	78.69
667.421	80.69
667.624	72.69
667.827	79.69
668.03	93.69
668.232	78.69
668.435	70.69
668.638	83.69
668.841	79.69
669.043	67.69
669.246	89.69
669.449	87.69
669.651	93.69
669.854	59.69
670.057	82.69
670.259	72.69
670.462	87.69
670.665	78.69
670.867	77.69
671.07	92.69
671.272	73.69
671.475	89.69
671.677	85.69
671.88	87.69
672.082	79.69
672.284	78.69
672.487	87.69
672.689	85.69
672.892	83.69
