Data from 1970.PennyLincolnUp.Lamp.En5.5.200Scan.071719.P1._HRD10591_15-15-57-843.txt Node
Date: Thu Jul 18 15:15:57 EDT 2019
User: cochatt
Spectrometer: HR+D1059
Trigger mode: 1
Integration Time (sec): 1.000000E-1
Scans to average: 1
Electric dark correction enabled: true
Nonlinearity correction enabled: false
Boxcar width: 0
XAxis mode: Wavelengths
Number of Pixels in Spectrum: 2048
>>>>>Begin Spectral Data<<<<<
223.165	-5.62
223.4	-5.62
223.635	-5.62
223.869	-12.62
224.104	-6.62
224.338	-26.62
224.573	-22.62
224.808	-11.62
225.042	-14.62
225.277	-5.62
225.511	-6.62
225.746	-2.62
225.98	7.38
226.215	12.38
226.449	24.38
226.683	19.38
226.918	10.38
227.152	41.38
227.387	28.38
227.621	33.38
227.856	39.38
228.09	23.38
228.324	35.38
228.559	60.38
228.793	68.38
229.027	114.38
229.262	113.38
229.496	125.38
229.73	138.38
229.964	172.38
230.199	130.38
230.433	130.38
230.667	114.38
230.901	124.38
231.136	125.38
231.37	104.38
231.604	121.38
231.838	120.38
232.072	120.38
232.306	128.38
232.541	130.38
232.775	120.38
233.009	125.38
233.243	120.38
233.477	121.38
233.711	120.38
233.945	124.38
234.179	129.38
234.413	113.38
234.647	131.38
234.881	94.38
235.115	124.38
235.349	135.38
235.583	127.38
235.817	125.38
236.051	149.38
236.285	142.38
236.519	154.38
236.753	146.38
236.987	163.38
237.221	210.38
237.455	273.38
237.689	214.38
237.922	147.38
238.156	145.38
238.39	142.38
238.624	145.38
238.858	124.38
239.091	132.38
239.325	124.38
239.559	139.38
239.793	147.38
240.027	152.38
240.26	168.38
240.494	188.38
240.728	152.38
240.961	155.38
241.195	156.38
241.429	145.38
241.662	146.38
241.896	137.38
242.13	142.38
242.363	149.38
242.597	150.38
242.83	159.38
243.064	154.38
243.298	157.38
243.531	150.38
243.765	139.38
243.998	159.38
244.232	170.38
244.465	146.38
244.699	168.38
244.932	158.38
245.166	162.38
245.399	161.38
245.633	154.38
245.866	163.38
246.099	151.38
246.333	158.38
246.566	160.38
246.8	155.38
247.033	162.38
247.266	184.38
247.5	176.38
247.733	191.38
247.966	204.38
248.2	190.38
248.433	191.38
248.666	184.38
248.899	192.38
249.133	232.38
249.366	228.38
249.599	221.38
249.832	204.38
250.066	216.38
250.299	215.38
250.532	218.38
250.765	231.38
250.998	221.38
251.231	271.38
251.465	239.38
251.698	225.38
251.931	226.38
252.164	215.38
252.397	229.38
252.63	235.38
252.863	230.38
253.096	235.38
253.329	276.38
253.562	250.38
253.795	238.38
254.028	247.38
254.261	244.38
254.494	246.38
254.727	281.38
254.96	309.38
255.193	304.38
255.426	308.38
255.659	252.38
255.892	277.38
256.124	266.38
256.357	264.38
256.59	271.38
256.823	236.38
257.056	245.38
257.289	232.38
257.521	244.38
257.754	247.38
257.987	224.38
258.22	222.38
258.452	233.38
258.685	246.38
258.918	244.38
259.151	220.38
259.383	224.38
259.616	226.38
259.849	226.38
260.081	252.38
260.314	267.38
260.547	277.38
260.779	270.38
261.012	257.38
261.244	254.38
261.477	257.38
261.71	241.38
261.942	250.38
262.175	262.38
262.407	254.38
262.64	244.38
262.872	246.38
263.105	229.38
263.337	226.38
263.57	243.38
263.802	240.38
264.035	230.38
264.267	223.38
264.499	216.38
264.732	235.38
264.964	224.38
265.197	224.38
265.429	205.38
265.661	230.38
265.894	223.38
266.126	224.38
266.358	227.38
266.591	225.38
266.823	233.38
267.055	230.38
267.287	253.38
267.52	235.38
267.752	234.38
267.984	230.38
268.216	247.38
268.448	236.38
268.681	253.38
268.913	232.38
269.145	260.38
269.377	296.38
269.609	274.38
269.841	282.38
270.073	289.38
270.306	314.38
270.538	346.38
270.77	348.38
271.002	308.38
271.234	312.38
271.466	328.38
271.698	342.38
271.93	348.38
272.162	318.38
272.394	357.38
272.626	337.38
272.858	325.38
273.09	307.38
273.322	293.38
273.553	284.38
273.785	293.38
274.017	298.38
274.249	289.38
274.481	273.38
274.713	279.38
274.945	276.38
275.176	286.38
275.408	278.38
275.64	264.38
275.872	278.38
276.104	281.38
276.335	266.38
276.567	274.38
276.799	297.38
277.031	325.38
277.262	332.38
277.494	346.38
277.726	327.38
277.957	310.38
278.189	316.38
278.421	281.38
278.652	280.38
278.884	278.38
279.115	294.38
279.347	271.38
279.579	264.38
279.81	285.38
280.042	269.38
280.273	263.38
280.505	272.38
280.736	274.38
280.968	269.38
281.199	262.38
281.431	266.38
281.662	265.38
281.894	257.38
282.125	279.38
282.356	292.38
282.588	316.38
282.819	329.38
283.051	283.38
283.282	276.38
283.513	274.38
283.745	275.38
283.976	297.38
284.207	272.38
284.439	281.38
284.67	274.38
284.901	271.38
285.132	275.38
285.364	252.38
285.595	270.38
285.826	286.38
286.057	287.38
286.288	298.38
286.52	287.38
286.751	275.38
286.982	271.38
287.213	271.38
287.444	301.38
287.675	302.38
287.906	295.38
288.138	326.38
288.369	295.38
288.6	322.38
288.831	310.38
289.062	290.38
289.293	289.38
289.524	287.38
289.755	278.38
289.986	289.38
290.217	280.38
290.448	284.38
290.679	288.38
290.91	297.38
291.141	300.38
291.371	278.38
291.602	293.38
291.833	304.38
292.064	276.38
292.295	294.38
292.526	292.38
292.757	282.38
292.987	282.38
293.218	290.38
293.449	306.38
293.68	289.38
293.91	301.38
294.141	280.38
294.372	274.38
294.603	280.38
294.833	273.38
295.064	303.38
295.295	292.38
295.525	282.38
295.756	309.38
295.987	334.38
296.217	333.38
296.448	350.38
296.679	314.38
296.909	308.38
297.14	305.38
297.37	308.38
297.601	304.38
297.831	316.38
298.062	314.38
298.292	308.38
298.523	319.38
298.753	300.38
298.984	305.38
299.214	305.38
299.445	309.38
299.675	311.38
299.905	310.38
300.136	324.38
300.366	301.38
300.597	303.38
300.827	321.38
301.057	314.38
301.288	342.38
301.518	309.38
301.748	336.38
301.979	309.38
302.209	331.38
302.439	317.38
302.669	330.38
302.9	330.38
303.13	340.38
303.36	345.38
303.59	348.38
303.82	341.38
304.051	339.38
304.281	335.38
304.511	332.38
304.741	316.38
304.971	328.38
305.201	314.38
305.431	321.38
305.661	337.38
305.891	320.38
306.121	353.38
306.352	322.38
306.582	344.38
306.812	338.38
307.042	322.38
307.272	328.38
307.502	324.38
307.731	333.38
307.961	348.38
308.191	342.38
308.421	357.38
308.651	317.38
308.881	338.38
309.111	354.38
309.341	366.38
309.571	366.38
309.8	383.38
310.03	382.38
310.26	406.38
310.49	392.38
310.72	389.38
310.949	422.38
311.179	414.38
311.409	401.38
311.639	377.38
311.868	395.38
312.098	403.38
312.328	402.38
312.557	406.38
312.787	429.38
313.017	440.38
313.246	417.38
313.476	412.38
313.706	387.38
313.935	416.38
314.165	415.38
314.394	413.38
314.624	420.38
314.853	398.38
315.083	404.38
315.312	384.38
315.542	369.38
315.771	386.38
316.001	382.38
316.23	375.38
316.46	378.38
316.689	384.38
316.919	395.38
317.148	407.38
317.377	409.38
317.607	409.38
317.836	408.38
318.065	383.38
318.295	398.38
318.524	380.38
318.753	399.38
318.983	400.38
319.212	386.38
319.441	387.38
319.67	411.38
319.9	377.38
320.129	377.38
320.358	395.38
320.587	401.38
320.816	414.38
321.046	439.38
321.275	406.38
321.504	428.38
321.733	430.38
321.962	443.38
322.191	452.38
322.42	467.38
322.649	474.38
322.878	500.38
323.108	485.38
323.337	530.38
323.566	560.38
323.795	610.38
324.024	646.38
324.253	785.38
324.482	1128.38
324.71	1758.38
324.939	2500.38
325.168	2135.38
325.397	1171.38
325.626	778.38
325.855	633.38
326.084	589.38
326.313	547.38
326.542	556.38
326.77	624.38
326.999	722.38
327.228	998.38
327.457	1545.38
327.686	1874.38
327.914	1251.38
328.143	860.38
328.372	726.38
328.6	686.38
328.829	653.38
329.058	670.38
329.287	688.38
329.515	634.38
329.744	581.38
329.972	578.38
330.201	609.38
330.43	662.38
330.658	687.38
330.887	708.38
331.115	685.38
331.344	578.38
331.572	529.38
331.801	543.38
332.03	543.38
332.258	501.38
332.486	469.38
332.715	472.38
332.943	479.38
333.172	482.38
333.4	474.38
333.629	484.38
333.857	490.38
334.085	515.38
334.314	534.38
334.542	590.38
334.771	620.38
334.999	522.38
335.227	484.38
335.455	475.38
335.684	471.38
335.912	453.38
336.14	447.38
336.369	456.38
336.597	465.38
336.825	466.38
337.053	453.38
337.281	468.38
337.51	440.38
337.738	457.38
337.966	453.38
338.194	452.38
338.422	478.38
338.65	452.38
338.878	442.38
339.106	444.38
339.334	445.38
339.562	455.38
339.79	440.38
340.018	448.38
340.246	454.38
340.474	456.38
340.702	454.38
340.93	459.38
341.158	433.38
341.386	426.38
341.614	448.38
341.842	428.38
342.07	443.38
342.298	422.38
342.526	458.38
342.754	418.38
342.981	423.38
343.209	424.38
343.437	450.38
343.665	438.38
343.893	425.38
344.12	438.38
344.348	452.38
344.576	440.38
344.804	426.38
345.031	464.38
345.259	484.38
345.487	465.38
345.714	458.38
345.942	446.38
346.17	433.38
346.397	427.38
346.625	447.38
346.853	441.38
347.08	438.38
347.308	449.38
347.535	450.38
347.763	461.38
347.99	452.38
348.218	463.38
348.445	465.38
348.673	465.38
348.9	441.38
349.128	452.38
349.355	423.38
349.583	421.38
349.81	426.38
350.037	426.38
350.265	441.38
350.492	436.38
350.72	417.38
350.947	430.38
351.174	447.38
351.402	445.38
351.629	467.38
351.856	455.38
352.083	468.38
352.311	448.38
352.538	483.38
352.765	463.38
352.992	450.38
353.22	442.38
353.447	437.38
353.674	441.38
353.901	419.38
354.128	413.38
354.355	423.38
354.583	425.38
354.81	401.38
355.037	398.38
355.264	408.38
355.491	401.38
355.718	413.38
355.945	416.38
356.172	417.38
356.399	393.38
356.626	384.38
356.853	394.38
357.08	397.38
357.307	388.38
357.534	415.38
357.761	406.38
357.988	376.38
358.215	407.38
358.441	405.38
358.668	406.38
358.895	409.38
359.122	426.38
359.349	437.38
359.576	464.38
359.802	479.38
360.029	540.38
360.256	538.38
360.483	508.38
360.709	454.38
360.936	442.38
361.163	430.38
361.39	440.38
361.616	430.38
361.843	458.38
362.07	449.38
362.296	453.38
362.523	437.38
362.749	458.38
362.976	432.38
363.203	435.38
363.429	433.38
363.656	436.38
363.882	414.38
364.109	432.38
364.335	444.38
364.562	412.38
364.788	418.38
365.015	428.38
365.241	405.38
365.468	419.38
365.694	433.38
365.92	422.38
366.147	436.38
366.373	413.38
366.599	426.38
366.826	427.38
367.052	385.38
367.278	426.38
367.505	441.38
367.731	434.38
367.957	438.38
368.184	410.38
368.41	422.38
368.636	442.38
368.862	448.38
369.089	435.38
369.315	461.38
369.541	425.38
369.767	418.38
369.993	425.38
370.219	421.38
370.445	418.38
370.672	410.38
370.898	434.38
371.124	425.38
371.35	407.38
371.576	439.38
371.802	421.38
372.028	414.38
372.254	402.38
372.48	412.38
372.706	406.38
372.932	418.38
373.158	424.38
373.384	427.38
373.61	432.38
373.835	403.38
374.061	418.38
374.287	424.38
374.513	430.38
374.739	438.38
374.965	427.38
375.191	438.38
375.416	442.38
375.642	424.38
375.868	421.38
376.094	438.38
376.319	419.38
376.545	393.38
376.771	405.38
376.997	423.38
377.222	434.38
377.448	405.38
377.674	427.38
377.899	413.38
378.125	397.38
378.35	419.38
378.576	409.38
378.802	415.38
379.027	430.38
379.253	394.38
379.478	422.38
379.704	421.38
379.929	430.38
380.155	423.38
380.38	438.38
380.606	427.38
380.831	430.38
381.057	430.38
381.282	429.38
381.507	423.38
381.733	450.38
381.958	416.38
382.184	445.38
382.409	416.38
382.634	438.38
382.86	426.38
383.085	449.38
383.31	425.38
383.535	429.38
383.761	436.38
383.986	421.38
384.211	461.38
384.436	440.38
384.662	434.38
384.887	440.38
385.112	421.38
385.337	446.38
385.562	444.38
385.787	451.38
386.013	467.38
386.238	462.38
386.463	460.38
386.688	456.38
386.913	452.38
387.138	447.38
387.363	451.38
387.588	461.38
387.813	449.38
388.038	465.38
388.263	466.38
388.488	468.38
388.713	457.38
388.938	452.38
389.163	471.38
389.387	462.38
389.612	452.38
389.837	475.38
390.062	460.38
390.287	461.38
390.512	462.38
390.736	454.38
390.961	440.38
391.186	445.38
391.411	449.38
391.636	433.38
391.86	445.38
392.085	433.38
392.31	446.38
392.534	459.38
392.759	488.38
392.984	465.38
393.208	462.38
393.433	459.38
393.658	453.38
393.882	471.38
394.107	445.38
394.331	484.38
394.556	466.38
394.78	480.38
395.005	469.38
395.229	469.38
395.454	458.38
395.678	468.38
395.903	488.38
396.127	513.38
396.352	528.38
396.576	470.38
396.801	482.38
397.025	479.38
397.249	472.38
397.474	486.38
397.698	482.38
397.922	500.38
398.147	512.38
398.371	519.38
398.595	514.38
398.82	520.38
399.044	506.38
399.268	522.38
399.492	543.38
399.717	570.38
399.941	576.38
400.165	604.38
400.389	629.38
400.613	596.38
400.837	556.38
401.062	537.38
401.286	522.38
401.51	519.38
401.734	520.38
401.958	534.38
402.182	542.38
402.406	551.38
402.63	544.38
402.854	554.38
403.078	526.38
403.302	559.38
403.526	558.38
403.75	559.38
403.974	548.38
404.198	560.38
404.422	562.38
404.645	553.38
404.869	562.38
405.093	600.38
405.317	634.38
405.541	661.38
405.765	625.38
405.988	602.38
406.212	599.38
406.436	643.38
406.66	648.38
406.883	607.38
407.107	600.38
407.331	642.38
407.555	723.38
407.778	721.38
408.002	671.38
408.226	617.38
408.449	597.38
408.673	582.38
408.896	633.38
409.12	702.38
409.344	657.38
409.567	592.38
409.791	564.38
410.014	555.38
410.238	560.38
410.461	574.38
410.685	552.38
410.908	574.38
411.132	610.38
411.355	641.38
411.578	622.38
411.802	572.38
412.025	555.38
412.249	564.38
412.472	587.38
412.695	640.38
412.919	621.38
413.142	582.38
413.365	553.38
413.589	550.38
413.812	531.38
414.035	520.38
414.258	534.38
414.482	515.38
414.705	540.38
414.928	530.38
415.151	513.38
415.374	513.38
415.597	525.38
415.821	525.38
416.044	524.38
416.267	529.38
416.49	528.38
416.713	530.38
416.936	530.38
417.159	536.38
417.382	531.38
417.605	522.38
417.828	554.38
418.051	571.38
418.274	582.38
418.497	538.38
418.72	540.38
418.943	541.38
419.166	545.38
419.389	572.38
419.611	568.38
419.834	551.38
420.057	545.38
420.28	557.38
420.503	572.38
420.726	567.38
420.948	581.38
421.171	648.38
421.394	651.38
421.617	606.38
421.839	570.38
422.062	554.38
422.285	570.38
422.507	623.38
422.73	708.38
422.953	696.38
423.175	618.38
423.398	592.38
423.621	602.38
423.843	598.38
424.066	618.38
424.288	619.38
424.511	625.38
424.733	684.38
424.956	745.38
425.178	750.38
425.401	739.38
425.623	745.38
425.846	657.38
426.068	639.38
426.291	613.38
426.513	603.38
426.735	638.38
426.958	652.38
427.18	767.38
427.402	881.38
427.625	975.38
427.847	881.38
428.069	793.38
428.292	709.38
428.514	648.38
428.736	610.38
428.958	595.38
429.181	574.38
429.403	572.38
429.625	580.38
429.847	621.38
430.069	723.38
430.292	685.38
430.514	602.38
430.736	584.38
430.958	549.38
431.18	527.38
431.402	523.38
431.624	548.38
431.846	526.38
432.068	514.38
432.29	524.38
432.512	532.38
432.734	550.38
432.956	526.38
433.178	557.38
433.4	560.38
433.622	556.38
433.844	552.38
434.066	535.38
434.287	545.38
434.509	574.38
434.731	547.38
434.953	557.38
435.175	560.38
435.397	609.38
435.618	617.38
435.84	671.38
436.062	786.38
436.284	836.38
436.505	726.38
436.727	642.38
436.949	596.38
437.17	582.38
437.392	554.38
437.614	598.38
437.835	630.38
438.057	740.38
438.278	878.38
438.5	830.38
438.721	921.38
438.943	862.38
439.165	721.38
439.386	654.38
439.608	674.38
439.829	643.38
440.05	684.38
440.272	723.38
440.493	676.38
440.715	663.38
440.936	607.38
441.158	584.38
441.379	590.38
441.6	615.38
441.822	614.38
442.043	654.38
442.264	734.38
442.486	827.38
442.707	678.38
442.928	642.38
443.149	674.38
443.371	688.38
443.592	695.38
443.813	831.38
444.034	854.38
444.255	726.38
444.476	642.38
444.698	616.38
444.919	616.38
445.14	753.38
445.361	684.38
445.582	665.38
445.803	762.38
446.024	860.38
446.245	866.38
446.466	776.38
446.687	692.38
446.908	648.38
447.129	603.38
447.35	588.38
447.571	601.38
447.792	579.38
448.013	584.38
448.234	585.38
448.455	666.38
448.675	795.38
448.896	885.38
449.117	785.38
449.338	718.38
449.559	841.38
449.779	913.38
450	778.38
450.221	647.38
450.442	606.38
450.662	584.38
450.883	580.38
451.104	605.38
451.324	602.38
451.545	566.38
451.766	553.38
451.986	524.38
452.207	540.38
452.428	512.38
452.648	505.38
452.869	515.38
453.089	526.38
453.31	548.38
453.53	520.38
453.751	516.38
453.971	519.38
454.192	551.38
454.412	544.38
454.633	539.38
454.853	527.38
455.073	510.38
455.294	550.38
455.514	612.38
455.734	620.38
455.955	537.38
456.175	498.38
456.395	500.38
456.616	509.38
456.836	479.38
457.056	501.38
457.276	472.38
457.497	493.38
457.717	489.38
457.937	477.38
458.157	479.38
458.377	485.38
458.598	537.38
458.818	576.38
459.038	729.38
459.258	710.38
459.478	607.38
459.698	556.38
459.918	520.38
460.138	529.38
460.358	538.38
460.578	520.38
460.798	524.38
461.018	537.38
461.238	512.38
461.458	528.38
461.678	522.38
461.898	543.38
462.118	543.38
462.338	531.38
462.558	548.38
462.777	554.38
462.997	539.38
463.217	535.38
463.437	566.38
463.657	577.38
463.876	554.38
464.096	556.38
464.316	540.38
464.536	543.38
464.755	549.38
464.975	593.38
465.195	642.38
465.414	719.38
465.634	650.38
465.854	602.38
466.073	569.38
466.293	554.38
466.512	550.38
466.732	523.38
466.951	541.38
467.171	523.38
467.391	527.38
467.61	542.38
467.829	572.38
468.049	552.38
468.268	546.38
468.488	508.38
468.707	528.38
468.927	531.38
469.146	518.38
469.365	507.38
469.585	516.38
469.804	535.38
470.023	550.38
470.243	540.38
470.462	558.38
470.681	584.38
470.901	566.38
471.12	558.38
471.339	531.38
471.558	554.38
471.777	552.38
471.997	529.38
472.216	552.38
472.435	603.38
472.654	602.38
472.873	536.38
473.092	525.38
473.311	525.38
473.53	559.38
473.749	564.38
473.968	607.38
474.187	712.38
474.406	742.38
474.625	614.38
474.844	551.38
475.063	537.38
475.282	539.38
475.501	528.38
475.72	541.38
475.939	564.38
476.158	545.38
476.377	548.38
476.596	547.38
476.814	552.38
477.033	584.38
477.252	566.38
477.471	574.38
477.69	565.38
477.908	573.38
478.127	582.38
478.346	590.38
478.564	590.38
478.783	602.38
479.002	618.38
479.22	632.38
479.439	635.38
479.658	662.38
479.876	662.38
480.095	653.38
480.313	676.38
480.532	666.38
480.751	669.38
480.969	690.38
481.188	772.38
481.406	812.38
481.624	732.38
481.843	684.38
482.061	655.38
482.28	650.38
482.498	655.38
482.717	638.38
482.935	654.38
483.153	647.38
483.372	672.38
483.59	648.38
483.808	652.38
484.027	646.38
484.245	674.38
484.463	664.38
484.681	678.38
484.9	673.38
485.118	652.38
485.336	663.38
485.554	672.38
485.772	656.38
485.99	655.38
486.209	688.38
486.427	672.38
486.645	678.38
486.863	715.38
487.081	710.38
487.299	712.38
487.517	726.38
487.735	673.38
487.953	684.38
488.171	684.38
488.389	710.38
488.607	716.38
488.825	708.38
489.043	701.38
489.261	697.38
489.479	689.38
489.696	737.38
489.914	734.38
490.132	696.38
490.35	732.38
490.568	730.38
490.786	752.38
491.003	781.38
491.221	784.38
491.439	803.38
491.657	772.38
491.874	781.38
492.092	807.38
492.31	824.38
492.527	837.38
492.745	841.38
492.963	830.38
493.18	849.38
493.398	817.38
493.615	874.38
493.833	848.38
494.05	865.38
494.268	873.38
494.485	842.38
494.703	836.38
494.92	843.38
495.138	844.38
495.355	842.38
495.573	837.38
495.79	834.38
496.008	858.38
496.225	854.38
496.442	828.38
496.66	826.38
496.877	858.38
497.094	857.38
497.312	863.38
497.529	858.38
497.746	885.38
497.963	858.38
498.181	888.38
498.398	920.38
498.615	902.38
498.832	926.38
499.049	898.38
499.267	940.38
499.484	927.38
499.701	964.38
499.918	956.38
500.135	1008.38
500.352	1020.38
500.569	1009.38
500.786	1028.38
501.003	1038.38
501.22	1037.38
501.437	1016.38
501.654	1024.38
501.871	1011.38
502.088	997.38
502.305	974.38
502.522	957.38
502.739	911.38
502.956	880.38
503.172	847.38
503.389	890.38
503.606	885.38
503.823	870.38
504.04	847.38
504.256	824.38
504.473	834.38
504.69	825.38
504.907	810.38
505.123	817.38
505.34	822.38
505.557	813.38
505.773	840.38
505.99	824.38
506.207	808.38
506.423	823.38
506.64	812.38
506.856	785.38
507.073	812.38
507.289	785.38
507.506	801.38
507.722	809.38
507.939	832.38
508.155	818.38
508.372	781.38
508.588	786.38
508.805	802.38
509.021	778.38
509.238	802.38
509.454	826.38
509.67	785.38
509.887	780.38
510.103	777.38
510.319	756.38
510.536	920.38
510.752	1491.38
510.968	1247.38
511.184	811.38
511.401	761.38
511.617	792.38
511.833	773.38
512.049	735.38
512.265	746.38
512.481	735.38
512.698	720.38
512.914	731.38
513.13	759.38
513.346	748.38
513.562	720.38
513.778	742.38
513.994	764.38
514.21	794.38
514.426	802.38
514.642	861.38
514.858	892.38
515.074	945.38
515.29	1132.38
515.506	1709.38
515.721	1393.38
515.937	910.38
516.153	831.38
516.369	798.38
516.585	791.38
516.801	782.38
517.016	745.38
517.232	745.38
517.448	732.38
517.664	721.38
517.879	734.38
518.095	739.38
518.311	732.38
518.527	739.38
518.742	746.38
518.958	715.38
519.173	730.38
519.389	732.38
519.605	727.38
519.82	734.38
520.036	736.38
520.251	809.38
520.467	822.38
520.682	838.38
520.898	821.38
521.113	878.38
521.329	934.38
521.544	1048.38
521.76	1320.38
521.975	2233.38
522.19	2193.38
522.406	1193.38
522.621	873.38
522.836	800.38
523.052	774.38
523.267	749.38
523.482	720.38
523.698	708.38
523.913	696.38
524.128	694.38
524.343	664.38
524.559	653.38
524.774	656.38
524.989	620.38
525.204	651.38
525.419	644.38
525.634	648.38
525.849	615.38
526.064	636.38
526.28	630.38
526.495	579.38
526.71	584.38
526.925	593.38
527.14	607.38
527.355	575.38
527.57	581.38
527.785	573.38
527.999	590.38
528.214	597.38
528.429	594.38
528.644	575.38
528.859	579.38
529.074	606.38
529.289	625.38
529.503	734.38
529.718	734.38
529.933	655.38
530.148	646.38
530.363	623.38
530.577	598.38
530.792	572.38
531.007	567.38
531.221	567.38
531.436	587.38
531.651	562.38
531.865	551.38
532.08	574.38
532.295	566.38
532.509	557.38
532.724	577.38
532.938	562.38
533.153	584.38
533.367	555.38
533.582	564.38
533.796	576.38
534.011	530.38
534.225	529.38
534.44	564.38
534.654	561.38
534.868	564.38
535.083	558.38
535.297	562.38
535.511	573.38
535.726	582.38
535.94	586.38
536.154	564.38
536.369	560.38
536.583	534.38
536.797	555.38
537.011	540.38
537.225	551.38
537.44	512.38
537.654	525.38
537.868	526.38
538.082	519.38
538.296	546.38
538.51	531.38
538.724	536.38
538.938	534.38
539.153	523.38
539.367	547.38
539.581	555.38
539.795	532.38
540.009	529.38
540.222	538.38
540.436	544.38
540.65	557.38
540.864	539.38
541.078	581.38
541.292	553.38
541.506	558.38
541.72	528.38
541.934	548.38
542.147	552.38
542.361	534.38
542.575	510.38
542.789	523.38
543.002	521.38
543.216	536.38
543.43	539.38
543.644	578.38
543.857	531.38
544.071	540.38
544.285	541.38
544.498	535.38
544.712	505.38
544.925	525.38
545.139	522.38
545.352	535.38
545.566	524.38
545.779	512.38
545.993	511.38
546.206	524.38
546.42	511.38
546.633	498.38
546.847	498.38
547.06	516.38
547.274	529.38
547.487	491.38
547.7	504.38
547.914	506.38
548.127	486.38
548.34	522.38
548.554	522.38
548.767	497.38
548.98	478.38
549.193	490.38
549.407	506.38
549.62	497.38
549.833	503.38
550.046	501.38
550.259	505.38
550.473	465.38
550.686	480.38
550.899	474.38
551.112	475.38
551.325	500.38
551.538	492.38
551.751	503.38
551.964	485.38
552.177	491.38
552.39	504.38
552.603	488.38
552.816	486.38
553.029	488.38
553.242	503.38
553.455	522.38
553.667	516.38
553.88	520.38
554.093	520.38
554.306	500.38
554.519	493.38
554.732	502.38
554.944	492.38
555.157	451.38
555.37	490.38
555.583	491.38
555.795	488.38
556.008	467.38
556.221	460.38
556.433	469.38
556.646	456.38
556.859	464.38
557.071	448.38
557.284	446.38
557.496	470.38
557.709	455.38
557.921	457.38
558.134	440.38
558.346	436.38
558.559	453.38
558.771	451.38
558.984	456.38
559.196	446.38
559.409	452.38
559.621	429.38
559.833	436.38
560.046	442.38
560.258	441.38
560.47	448.38
560.683	442.38
560.895	449.38
561.107	447.38
561.32	445.38
561.532	441.38
561.744	442.38
561.956	454.38
562.168	454.38
562.381	453.38
562.593	436.38
562.805	438.38
563.017	431.38
563.229	458.38
563.441	458.38
563.653	429.38
563.865	450.38
564.077	440.38
564.289	439.38
564.501	438.38
564.713	461.38
564.925	491.38
565.137	488.38
565.349	461.38
565.561	470.38
565.773	465.38
565.985	473.38
566.197	469.38
566.408	471.38
566.62	481.38
566.832	511.38
567.044	504.38
567.255	497.38
567.467	495.38
567.679	506.38
567.891	500.38
568.102	512.38
568.314	507.38
568.526	489.38
568.737	470.38
568.949	475.38
569.161	432.38
569.372	446.38
569.584	446.38
569.795	448.38
570.007	423.38
570.218	495.38
570.43	487.38
570.641	429.38
570.853	417.38
571.064	418.38
571.276	426.38
571.487	413.38
571.698	424.38
571.91	412.38
572.121	396.38
572.333	404.38
572.544	390.38
572.755	386.38
572.966	402.38
573.178	388.38
573.389	403.38
573.6	380.38
573.811	358.38
574.023	382.38
574.234	385.38
574.445	389.38
574.656	370.38
574.867	369.38
575.078	397.38
575.289	375.38
575.501	395.38
575.712	394.38
575.923	391.38
576.134	382.38
576.345	367.38
576.556	356.38
576.767	358.38
576.978	379.38
577.188	376.38
577.399	365.38
577.61	356.38
577.821	354.38
578.032	370.38
578.243	431.38
578.454	722.38
578.665	510.38
578.875	393.38
579.086	367.38
579.297	353.38
579.508	359.38
579.718	341.38
579.929	342.38
580.14	347.38
580.35	357.38
580.561	351.38
580.772	353.38
580.982	342.38
581.193	333.38
581.403	359.38
581.614	343.38
581.825	336.38
582.035	355.38
582.246	342.38
582.456	336.38
582.667	344.38
582.877	351.38
583.087	366.38
583.298	341.38
583.508	344.38
583.719	325.38
583.929	352.38
584.139	318.38
584.35	327.38
584.56	348.38
584.77	331.38
584.981	339.38
585.191	345.38
585.401	317.38
585.611	327.38
585.821	337.38
586.032	346.38
586.242	341.38
586.452	338.38
586.662	344.38
586.872	316.38
587.082	332.38
587.292	332.38
587.502	325.38
587.713	341.38
587.923	345.38
588.133	315.38
588.343	320.38
588.553	348.38
588.762	346.38
588.972	341.38
589.182	339.38
589.392	335.38
589.602	329.38
589.812	328.38
590.022	332.38
590.232	342.38
590.441	318.38
590.651	314.38
590.861	324.38
591.071	328.38
591.281	310.38
591.49	323.38
591.7	325.38
591.91	333.38
592.119	333.38
592.329	330.38
592.539	344.38
592.748	340.38
592.958	313.38
593.167	340.38
593.377	328.38
593.587	339.38
593.796	349.38
594.006	351.38
594.215	310.38
594.424	336.38
594.634	329.38
594.843	330.38
595.053	318.38
595.262	323.38
595.472	318.38
595.681	300.38
595.89	332.38
596.1	309.38
596.309	312.38
596.518	331.38
596.727	328.38
596.937	326.38
597.146	296.38
597.355	325.38
597.564	314.38
597.774	297.38
597.983	289.38
598.192	301.38
598.401	284.38
598.61	301.38
598.819	284.38
599.028	310.38
599.237	291.38
599.446	294.38
599.655	289.38
599.864	301.38
600.073	287.38
600.282	277.38
600.491	297.38
600.7	310.38
600.909	283.38
601.118	271.38
601.327	272.38
601.536	308.38
601.745	280.38
601.953	282.38
602.162	295.38
602.371	303.38
602.58	281.38
602.789	293.38
602.997	294.38
603.206	287.38
603.415	275.38
603.623	275.38
603.832	286.38
604.041	288.38
604.249	290.38
604.458	282.38
604.666	269.38
604.875	273.38
605.084	251.38
605.292	290.38
605.501	288.38
605.709	285.38
605.918	264.38
606.126	282.38
606.334	290.38
606.543	272.38
606.751	285.38
606.96	294.38
607.168	293.38
607.376	279.38
607.585	273.38
607.793	283.38
608.001	284.38
608.21	288.38
608.418	286.38
608.626	286.38
608.834	263.38
609.043	268.38
609.251	272.38
609.459	282.38
609.667	274.38
609.875	267.38
610.083	279.38
610.291	264.38
610.499	249.38
610.707	270.38
610.916	271.38
611.124	270.38
611.332	287.38
611.54	275.38
611.748	279.38
611.955	274.38
612.163	260.38
612.371	270.38
612.579	264.38
612.787	250.38
612.995	268.38
613.203	255.38
613.411	275.38
613.618	262.38
613.826	268.38
614.034	269.38
614.242	272.38
614.449	262.38
614.657	258.38
614.865	275.38
615.072	274.38
615.28	263.38
615.488	265.38
615.695	261.38
615.903	275.38
616.111	244.38
616.318	250.38
616.526	267.38
616.733	269.38
616.941	256.38
617.148	289.38
617.356	258.38
617.563	245.38
617.771	263.38
617.978	248.38
618.185	262.38
618.393	239.38
618.6	259.38
618.807	261.38
619.015	266.38
619.222	264.38
619.429	262.38
619.637	256.38
619.844	248.38
620.051	261.38
620.258	262.38
620.466	224.38
620.673	239.38
620.88	248.38
621.087	237.38
621.294	248.38
621.501	235.38
621.708	238.38
621.915	254.38
622.122	252.38
622.329	245.38
622.536	254.38
622.743	246.38
622.95	251.38
623.157	241.38
623.364	244.38
623.571	244.38
623.778	219.38
623.985	234.38
624.192	236.38
624.399	240.38
624.606	243.38
624.812	229.38
625.019	229.38
625.226	247.38
625.433	237.38
625.639	237.38
625.846	251.38
626.053	224.38
626.259	231.38
626.466	238.38
626.673	230.38
626.879	205.38
627.086	229.38
627.293	228.38
627.499	229.38
627.706	236.38
627.912	225.38
628.119	241.38
628.325	231.38
628.532	231.38
628.738	228.38
628.945	229.38
629.151	227.38
629.357	220.38
629.564	227.38
629.77	221.38
629.976	214.38
630.183	222.38
630.389	212.38
630.595	211.38
630.802	218.38
631.008	216.38
631.214	217.38
631.42	201.38
631.627	212.38
631.833	222.38
632.039	208.38
632.245	200.38
632.451	220.38
632.657	214.38
632.863	221.38
633.069	219.38
633.275	201.38
633.481	196.38
633.688	187.38
633.893	192.38
634.099	208.38
634.305	182.38
634.511	204.38
634.717	190.38
634.923	202.38
635.129	193.38
635.335	184.38
635.541	201.38
635.747	199.38
635.952	197.38
636.158	207.38
636.364	193.38
636.57	204.38
636.775	206.38
636.981	204.38
637.187	199.38
637.392	195.38
637.598	195.38
637.804	206.38
638.009	204.38
638.215	200.38
638.421	202.38
638.626	188.38
638.832	202.38
639.037	184.38
639.243	188.38
639.448	185.38
639.654	188.38
639.859	197.38
640.065	188.38
640.27	201.38
640.475	188.38
640.681	168.38
640.886	189.38
641.091	198.38
641.297	181.38
641.502	175.38
641.707	185.38
641.913	183.38
642.118	189.38
642.323	171.38
642.528	190.38
642.733	189.38
642.939	192.38
643.144	169.38
643.349	170.38
643.554	181.38
643.759	180.38
643.964	160.38
644.169	180.38
644.374	166.38
644.579	180.38
644.784	193.38
644.989	183.38
645.194	166.38
645.399	184.38
645.604	176.38
645.809	179.38
646.014	168.38
646.219	173.38
646.423	180.38
646.628	182.38
646.833	176.38
647.038	194.38
647.243	183.38
647.447	186.38
647.652	168.38
647.857	170.38
648.062	187.38
648.266	196.38
648.471	206.38
648.676	182.38
648.88	189.38
649.085	186.38
649.289	188.38
649.494	193.38
649.698	202.38
649.903	188.38
650.107	192.38
650.312	177.38
650.516	172.38
650.721	171.38
650.925	174.38
651.13	160.38
651.334	152.38
651.539	162.38
651.743	154.38
651.947	168.38
652.152	153.38
652.356	168.38
652.56	145.38
652.764	157.38
652.969	135.38
653.173	143.38
653.377	134.38
653.581	132.38
653.785	159.38
653.99	142.38
654.194	145.38
654.398	146.38
654.602	141.38
654.806	144.38
655.01	145.38
655.214	123.38
655.418	140.38
655.622	145.38
655.826	129.38
656.03	145.38
656.234	140.38
656.438	161.38
656.642	136.38
656.846	132.38
657.049	137.38
657.253	119.38
657.457	133.38
657.661	118.38
657.865	113.38
658.068	103.38
658.272	110.38
658.476	112.38
658.68	113.38
658.883	90.38
659.087	108.38
659.291	110.38
659.494	107.38
659.698	117.38
659.901	104.38
660.105	92.38
660.309	110.38
660.512	101.38
660.716	112.38
660.919	88.38
661.123	90.38
661.326	80.38
661.53	103.38
661.733	96.38
661.936	86.38
662.14	82.38
662.343	91.38
662.546	89.38
662.75	92.38
662.953	89.38
663.156	95.38
663.36	89.38
663.563	105.38
663.766	87.38
663.969	89.38
664.173	93.38
664.376	92.38
664.579	89.38
664.782	73.38
664.985	68.38
665.188	85.38
665.391	84.38
665.594	89.38
665.797	83.38
666	77.38
666.203	84.38
666.406	95.38
666.609	87.38
666.812	85.38
667.015	86.38
667.218	87.38
667.421	93.38
667.624	91.38
667.827	94.38
668.03	86.38
668.232	91.38
668.435	96.38
668.638	81.38
668.841	87.38
669.043	87.38
669.246	86.38
669.449	90.38
669.651	86.38
669.854	82.38
670.057	88.38
670.259	87.38
670.462	97.38
670.665	76.38
670.867	73.38
671.07	89.38
671.272	90.38
671.475	74.38
671.677	94.38
671.88	86.38
672.082	85.38
672.284	92.38
672.487	92.38
672.689	89.38
672.892	81.38
