Data from 1970.PennyLincolnUp.Lamp.En5.5.200Scan.071719.P1._HRD10591_15-14-47-842.txt Node
Date: Thu Jul 18 15:14:47 EDT 2019
User: cochatt
Spectrometer: HR+D1059
Trigger mode: 1
Integration Time (sec): 1.000000E-1
Scans to average: 1
Electric dark correction enabled: true
Nonlinearity correction enabled: false
Boxcar width: 0
XAxis mode: Wavelengths
Number of Pixels in Spectrum: 2048
>>>>>Begin Spectral Data<<<<<
223.165	-9.12
223.4	-9.12
223.635	-9.12
223.869	-17.12
224.104	-28.12
224.338	-17.12
224.573	-14.12
224.808	-4.12
225.042	8.88
225.277	-11.12
225.511	1.88
225.746	3.88
225.98	0.88
226.215	4.88
226.449	6.88
226.683	12.88
226.918	14.88
227.152	45.88
227.387	38.88
227.621	40.88
227.856	28.88
228.09	43.88
228.324	53.88
228.559	66.88
228.793	69.88
229.027	110.88
229.262	102.88
229.496	137.88
229.73	138.88
229.964	172.88
230.199	158.88
230.433	120.88
230.667	139.88
230.901	122.88
231.136	131.88
231.37	118.88
231.604	124.88
231.838	105.88
232.072	107.88
232.306	121.88
232.541	125.88
232.775	116.88
233.009	108.88
233.243	122.88
233.477	119.88
233.711	132.88
233.945	122.88
234.179	114.88
234.413	125.88
234.647	123.88
234.881	122.88
235.115	116.88
235.349	103.88
235.583	124.88
235.817	134.88
236.051	130.88
236.285	136.88
236.519	144.88
236.753	141.88
236.987	155.88
237.221	199.88
237.455	254.88
237.689	210.88
237.922	145.88
238.156	140.88
238.39	123.88
238.624	132.88
238.858	130.88
239.091	131.88
239.325	128.88
239.559	124.88
239.793	129.88
240.027	142.88
240.26	141.88
240.494	176.88
240.728	161.88
240.961	172.88
241.195	149.88
241.429	144.88
241.662	142.88
241.896	146.88
242.13	138.88
242.363	141.88
242.597	145.88
242.83	135.88
243.064	148.88
243.298	142.88
243.531	152.88
243.765	138.88
243.998	143.88
244.232	149.88
244.465	146.88
244.699	139.88
244.932	147.88
245.166	136.88
245.399	157.88
245.633	158.88
245.866	146.88
246.099	162.88
246.333	172.88
246.566	166.88
246.8	150.88
247.033	173.88
247.266	160.88
247.5	173.88
247.733	180.88
247.966	180.88
248.2	198.88
248.433	192.88
248.666	192.88
248.899	200.88
249.133	213.88
249.366	225.88
249.599	214.88
249.832	197.88
250.066	183.88
250.299	184.88
250.532	201.88
250.765	227.88
250.998	240.88
251.231	252.88
251.465	228.88
251.698	228.88
251.931	216.88
252.164	221.88
252.397	222.88
252.63	204.88
252.863	230.88
253.096	231.88
253.329	249.88
253.562	247.88
253.795	243.88
254.028	229.88
254.261	242.88
254.494	241.88
254.727	266.88
254.96	301.88
255.193	304.88
255.426	276.88
255.659	240.88
255.892	256.88
256.124	252.88
256.357	270.88
256.59	252.88
256.823	244.88
257.056	220.88
257.289	228.88
257.521	237.88
257.754	232.88
257.987	220.88
258.22	222.88
258.452	219.88
258.685	219.88
258.918	237.88
259.151	236.88
259.383	233.88
259.616	234.88
259.849	223.88
260.081	245.88
260.314	275.88
260.547	266.88
260.779	249.88
261.012	234.88
261.244	229.88
261.477	240.88
261.71	251.88
261.942	261.88
262.175	258.88
262.407	249.88
262.64	220.88
262.872	235.88
263.105	226.88
263.337	218.88
263.57	209.88
263.802	223.88
264.035	218.88
264.267	226.88
264.499	216.88
264.732	212.88
264.964	200.88
265.197	215.88
265.429	222.88
265.661	216.88
265.894	218.88
266.126	203.88
266.358	219.88
266.591	226.88
266.823	213.88
267.055	246.88
267.287	245.88
267.52	215.88
267.752	219.88
267.984	223.88
268.216	223.88
268.448	235.88
268.681	233.88
268.913	245.88
269.145	253.88
269.377	296.88
269.609	282.88
269.841	294.88
270.073	292.88
270.306	297.88
270.538	308.88
270.77	335.88
271.002	307.88
271.234	309.88
271.466	330.88
271.698	333.88
271.93	346.88
272.162	338.88
272.394	339.88
272.626	319.88
272.858	310.88
273.09	304.88
273.322	302.88
273.553	278.88
273.785	300.88
274.017	268.88
274.249	273.88
274.481	260.88
274.713	270.88
274.945	274.88
275.176	266.88
275.408	277.88
275.64	261.88
275.872	251.88
276.104	256.88
276.335	266.88
276.567	271.88
276.799	292.88
277.031	325.88
277.262	333.88
277.494	334.88
277.726	316.88
277.957	312.88
278.189	276.88
278.421	299.88
278.652	278.88
278.884	265.88
279.115	282.88
279.347	264.88
279.579	264.88
279.81	277.88
280.042	249.88
280.273	274.88
280.505	279.88
280.736	267.88
280.968	243.88
281.199	259.88
281.431	266.88
281.662	273.88
281.894	276.88
282.125	274.88
282.356	282.88
282.588	304.88
282.819	318.88
283.051	276.88
283.282	247.88
283.513	267.88
283.745	271.88
283.976	271.88
284.207	265.88
284.439	259.88
284.67	277.88
284.901	285.88
285.132	278.88
285.364	282.88
285.595	274.88
285.826	266.88
286.057	289.88
286.288	276.88
286.52	284.88
286.751	290.88
286.982	263.88
287.213	265.88
287.444	272.88
287.675	281.88
287.906	281.88
288.138	288.88
288.369	284.88
288.6	304.88
288.831	305.88
289.062	299.88
289.293	298.88
289.524	280.88
289.755	270.88
289.986	260.88
290.217	280.88
290.448	284.88
290.679	288.88
290.91	288.88
291.141	282.88
291.371	283.88
291.602	297.88
291.833	270.88
292.064	301.88
292.295	299.88
292.526	261.88
292.757	256.88
292.987	291.88
293.218	283.88
293.449	282.88
293.68	281.88
293.91	285.88
294.141	284.88
294.372	271.88
294.603	288.88
294.833	301.88
295.064	293.88
295.295	287.88
295.525	281.88
295.756	297.88
295.987	294.88
296.217	321.88
296.448	328.88
296.679	299.88
296.909	284.88
297.14	291.88
297.37	281.88
297.601	307.88
297.831	300.88
298.062	290.88
298.292	295.88
298.523	276.88
298.753	281.88
298.984	299.88
299.214	298.88
299.445	283.88
299.675	294.88
299.905	328.88
300.136	308.88
300.366	298.88
300.597	289.88
300.827	296.88
301.057	312.88
301.288	329.88
301.518	298.88
301.748	312.88
301.979	306.88
302.209	318.88
302.439	332.88
302.669	309.88
302.9	326.88
303.13	320.88
303.36	312.88
303.59	323.88
303.82	333.88
304.051	317.88
304.281	337.88
304.511	308.88
304.741	317.88
304.971	309.88
305.201	305.88
305.431	315.88
305.661	299.88
305.891	316.88
306.121	301.88
306.352	331.88
306.582	331.88
306.812	331.88
307.042	323.88
307.272	308.88
307.502	323.88
307.731	331.88
307.961	332.88
308.191	338.88
308.421	305.88
308.651	330.88
308.881	333.88
309.111	328.88
309.341	324.88
309.571	347.88
309.8	381.88
310.03	352.88
310.26	360.88
310.49	360.88
310.72	383.88
310.949	398.88
311.179	387.88
311.409	374.88
311.639	359.88
311.868	370.88
312.098	401.88
312.328	390.88
312.557	398.88
312.787	417.88
313.017	417.88
313.246	374.88
313.476	404.88
313.706	370.88
313.935	388.88
314.165	405.88
314.394	399.88
314.624	404.88
314.853	406.88
315.083	380.88
315.312	375.88
315.542	378.88
315.771	396.88
316.001	369.88
316.23	369.88
316.46	364.88
316.689	374.88
316.919	368.88
317.148	397.88
317.377	388.88
317.607	380.88
317.836	387.88
318.065	389.88
318.295	348.88
318.524	373.88
318.753	383.88
318.983	375.88
319.212	374.88
319.441	380.88
319.67	406.88
319.9	384.88
320.129	364.88
320.358	371.88
320.587	388.88
320.816	368.88
321.046	402.88
321.275	381.88
321.504	414.88
321.733	410.88
321.962	394.88
322.191	422.88
322.42	436.88
322.649	464.88
322.878	488.88
323.108	472.88
323.337	529.88
323.566	522.88
323.795	556.88
324.024	609.88
324.253	757.88
324.482	1084.88
324.71	1645.88
324.939	2350.88
325.168	2044.88
325.397	1080.88
325.626	766.88
325.855	595.88
326.084	539.88
326.313	526.88
326.542	537.88
326.77	606.88
326.999	677.88
327.228	946.88
327.457	1465.88
327.686	1758.88
327.914	1221.88
328.143	820.88
328.372	700.88
328.6	669.88
328.829	613.88
329.058	617.88
329.287	665.88
329.515	604.88
329.744	571.88
329.972	535.88
330.201	569.88
330.43	626.88
330.658	638.88
330.887	683.88
331.115	655.88
331.344	570.88
331.572	522.88
331.801	519.88
332.03	516.88
332.258	504.88
332.486	461.88
332.715	452.88
332.943	461.88
333.172	462.88
333.4	463.88
333.629	471.88
333.857	489.88
334.085	522.88
334.314	502.88
334.542	541.88
334.771	570.88
334.999	512.88
335.227	489.88
335.455	460.88
335.684	466.88
335.912	445.88
336.14	454.88
336.369	455.88
336.597	458.88
336.825	451.88
337.053	449.88
337.281	433.88
337.51	423.88
337.738	457.88
337.966	438.88
338.194	458.88
338.422	443.88
338.65	454.88
338.878	421.88
339.106	439.88
339.334	449.88
339.562	415.88
339.79	424.88
340.018	437.88
340.246	436.88
340.474	457.88
340.702	436.88
340.93	426.88
341.158	420.88
341.386	422.88
341.614	433.88
341.842	433.88
342.07	436.88
342.298	439.88
342.526	427.88
342.754	402.88
342.981	392.88
343.209	408.88
343.437	432.88
343.665	434.88
343.893	422.88
344.12	426.88
344.348	441.88
344.576	418.88
344.804	424.88
345.031	456.88
345.259	449.88
345.487	429.88
345.714	460.88
345.942	424.88
346.17	422.88
346.397	425.88
346.625	430.88
346.853	424.88
347.08	412.88
347.308	431.88
347.535	433.88
347.763	434.88
347.99	449.88
348.218	454.88
348.445	461.88
348.673	421.88
348.9	412.88
349.128	416.88
349.355	410.88
349.583	413.88
349.81	401.88
350.037	409.88
350.265	411.88
350.492	405.88
350.72	421.88
350.947	429.88
351.174	426.88
351.402	447.88
351.629	432.88
351.856	432.88
352.083	436.88
352.311	430.88
352.538	449.88
352.765	450.88
352.992	441.88
353.22	434.88
353.447	442.88
353.674	410.88
353.901	412.88
354.128	392.88
354.355	417.88
354.583	407.88
354.81	384.88
355.037	422.88
355.264	388.88
355.491	373.88
355.718	383.88
355.945	381.88
356.172	396.88
356.399	404.88
356.626	396.88
356.853	390.88
357.08	415.88
357.307	399.88
357.534	409.88
357.761	393.88
357.988	393.88
358.215	396.88
358.441	415.88
358.668	416.88
358.895	422.88
359.122	406.88
359.349	401.88
359.576	451.88
359.802	460.88
360.029	510.88
360.256	502.88
360.483	475.88
360.709	449.88
360.936	452.88
361.163	424.88
361.39	422.88
361.616	457.88
361.843	438.88
362.07	437.88
362.296	430.88
362.523	436.88
362.749	427.88
362.976	410.88
363.203	421.88
363.429	421.88
363.656	428.88
363.882	412.88
364.109	383.88
364.335	410.88
364.562	409.88
364.788	415.88
365.015	416.88
365.241	428.88
365.468	437.88
365.694	423.88
365.92	420.88
366.147	429.88
366.373	409.88
366.599	412.88
366.826	433.88
367.052	416.88
367.278	410.88
367.505	411.88
367.731	427.88
367.957	416.88
368.184	444.88
368.41	419.88
368.636	452.88
368.862	455.88
369.089	430.88
369.315	418.88
369.541	413.88
369.767	417.88
369.993	424.88
370.219	421.88
370.445	393.88
370.672	404.88
370.898	416.88
371.124	393.88
371.35	392.88
371.576	393.88
371.802	419.88
372.028	397.88
372.254	412.88
372.48	424.88
372.706	405.88
372.932	417.88
373.158	429.88
373.384	411.88
373.61	415.88
373.835	413.88
374.061	392.88
374.287	421.88
374.513	405.88
374.739	405.88
374.965	411.88
375.191	423.88
375.416	436.88
375.642	417.88
375.868	406.88
376.094	414.88
376.319	419.88
376.545	413.88
376.771	403.88
376.997	404.88
377.222	391.88
377.448	407.88
377.674	412.88
377.899	404.88
378.125	390.88
378.35	386.88
378.576	392.88
378.802	442.88
379.027	411.88
379.253	397.88
379.478	413.88
379.704	410.88
379.929	441.88
380.155	400.88
380.38	406.88
380.606	406.88
380.831	419.88
381.057	426.88
381.282	417.88
381.507	412.88
381.733	419.88
381.958	420.88
382.184	430.88
382.409	424.88
382.634	421.88
382.86	439.88
383.085	424.88
383.31	437.88
383.535	426.88
383.761	414.88
383.986	424.88
384.211	422.88
384.436	418.88
384.662	432.88
384.887	438.88
385.112	427.88
385.337	436.88
385.562	450.88
385.787	436.88
386.013	432.88
386.238	465.88
386.463	463.88
386.688	444.88
386.913	429.88
387.138	438.88
387.363	442.88
387.588	462.88
387.813	458.88
388.038	445.88
388.263	453.88
388.488	458.88
388.713	448.88
388.938	440.88
389.163	444.88
389.387	443.88
389.612	444.88
389.837	442.88
390.062	444.88
390.287	432.88
390.512	451.88
390.736	434.88
390.961	443.88
391.186	429.88
391.411	446.88
391.636	462.88
391.86	452.88
392.085	453.88
392.31	465.88
392.534	440.88
392.759	444.88
392.984	444.88
393.208	450.88
393.433	460.88
393.658	456.88
393.882	435.88
394.107	444.88
394.331	432.88
394.556	445.88
394.78	430.88
395.005	438.88
395.229	443.88
395.454	475.88
395.678	479.88
395.903	475.88
396.127	472.88
396.352	501.88
396.576	474.88
396.801	436.88
397.025	473.88
397.249	473.88
397.474	467.88
397.698	481.88
397.922	492.88
398.147	505.88
398.371	512.88
398.595	505.88
398.82	479.88
399.044	511.88
399.268	497.88
399.492	542.88
399.717	576.88
399.941	566.88
400.165	640.88
400.389	616.88
400.613	566.88
400.837	542.88
401.062	499.88
401.286	516.88
401.51	521.88
401.734	516.88
401.958	504.88
402.182	513.88
402.406	534.88
402.63	532.88
402.854	514.88
403.078	522.88
403.302	509.88
403.526	531.88
403.75	536.88
403.974	527.88
404.198	536.88
404.422	532.88
404.645	561.88
404.869	551.88
405.093	578.88
405.317	628.88
405.541	653.88
405.765	594.88
405.988	582.88
406.212	595.88
406.436	610.88
406.66	614.88
406.883	590.88
407.107	608.88
407.331	662.88
407.555	700.88
407.778	715.88
408.002	658.88
408.226	598.88
408.449	595.88
408.673	590.88
408.896	648.88
409.12	678.88
409.344	625.88
409.567	565.88
409.791	554.88
410.014	548.88
410.238	539.88
410.461	562.88
410.685	544.88
410.908	577.88
411.132	600.88
411.355	646.88
411.578	598.88
411.802	564.88
412.025	549.88
412.249	550.88
412.472	582.88
412.695	613.88
412.919	635.88
413.142	584.88
413.365	546.88
413.589	557.88
413.812	499.88
414.035	518.88
414.258	518.88
414.482	516.88
414.705	507.88
414.928	510.88
415.151	506.88
415.374	502.88
415.597	518.88
415.821	504.88
416.044	503.88
416.267	522.88
416.49	494.88
416.713	513.88
416.936	497.88
417.159	524.88
417.382	509.88
417.605	520.88
417.828	537.88
418.051	553.88
418.274	562.88
418.497	519.88
418.72	524.88
418.943	501.88
419.166	503.88
419.389	566.88
419.611	572.88
419.834	557.88
420.057	547.88
420.28	537.88
420.503	561.88
420.726	549.88
420.948	583.88
421.171	634.88
421.394	619.88
421.617	574.88
421.839	563.88
422.062	554.88
422.285	572.88
422.507	629.88
422.73	685.88
422.953	681.88
423.175	596.88
423.398	576.88
423.621	568.88
423.843	595.88
424.066	615.88
424.288	590.88
424.511	605.88
424.733	678.88
424.956	736.88
425.178	739.88
425.401	737.88
425.623	747.88
425.846	648.88
426.068	618.88
426.291	623.88
426.513	594.88
426.735	607.88
426.958	657.88
427.18	751.88
427.402	845.88
427.625	953.88
427.847	887.88
428.069	760.88
428.292	704.88
428.514	635.88
428.736	600.88
428.958	605.88
429.181	569.88
429.403	543.88
429.625	576.88
429.847	615.88
430.069	678.88
430.292	678.88
430.514	588.88
430.736	565.88
430.958	540.88
431.18	538.88
431.402	542.88
431.624	515.88
431.846	493.88
432.068	512.88
432.29	532.88
432.512	522.88
432.734	546.88
432.956	543.88
433.178	554.88
433.4	535.88
433.622	540.88
433.844	522.88
434.066	521.88
434.287	532.88
434.509	518.88
434.731	531.88
434.953	536.88
435.175	545.88
435.397	590.88
435.618	605.88
435.84	655.88
436.062	733.88
436.284	821.88
436.505	700.88
436.727	638.88
436.949	597.88
437.17	570.88
437.392	564.88
437.614	592.88
437.835	614.88
438.057	740.88
438.278	824.88
438.5	832.88
438.721	882.88
438.943	873.88
439.165	703.88
439.386	638.88
439.608	638.88
439.829	635.88
440.05	654.88
440.272	689.88
440.493	685.88
440.715	596.88
440.936	564.88
441.158	575.88
441.379	547.88
441.6	577.88
441.822	602.88
442.043	659.88
442.264	726.88
442.486	793.88
442.707	676.88
442.928	646.88
443.149	621.88
443.371	644.88
443.592	685.88
443.813	807.88
444.034	881.88
444.255	718.88
444.476	638.88
444.698	624.88
444.919	628.88
445.14	700.88
445.361	670.88
445.582	676.88
445.803	715.88
446.024	846.88
446.245	843.88
446.466	776.88
446.687	660.88
446.908	613.88
447.129	578.88
447.35	574.88
447.571	567.88
447.792	562.88
448.013	590.88
448.234	618.88
448.455	654.88
448.675	770.88
448.896	886.88
449.117	768.88
449.338	716.88
449.559	830.88
449.779	934.88
450	758.88
450.221	634.88
450.442	561.88
450.662	562.88
450.883	585.88
451.104	608.88
451.324	585.88
451.545	552.88
451.766	538.88
451.986	513.88
452.207	505.88
452.428	514.88
452.648	520.88
452.869	521.88
453.089	511.88
453.31	536.88
453.53	513.88
453.751	528.88
453.971	511.88
454.192	548.88
454.412	517.88
454.633	490.88
454.853	508.88
455.073	512.88
455.294	535.88
455.514	636.88
455.734	583.88
455.955	496.88
456.175	489.88
456.395	469.88
456.616	475.88
456.836	496.88
457.056	459.88
457.276	451.88
457.497	446.88
457.717	466.88
457.937	486.88
458.157	467.88
458.377	496.88
458.598	526.88
458.818	583.88
459.038	666.88
459.258	683.88
459.478	595.88
459.698	532.88
459.918	537.88
460.138	536.88
460.358	515.88
460.578	525.88
460.798	516.88
461.018	546.88
461.238	512.88
461.458	523.88
461.678	512.88
461.898	511.88
462.118	525.88
462.338	541.88
462.558	525.88
462.777	524.88
462.997	522.88
463.217	549.88
463.437	553.88
463.657	564.88
463.876	553.88
464.096	547.88
464.316	545.88
464.536	555.88
464.755	536.88
464.975	558.88
465.195	625.88
465.414	693.88
465.634	633.88
465.854	579.88
466.073	541.88
466.293	529.88
466.512	550.88
466.732	502.88
466.951	505.88
467.171	529.88
467.391	521.88
467.61	549.88
467.829	537.88
468.049	542.88
468.268	526.88
468.488	515.88
468.707	532.88
468.927	510.88
469.146	498.88
469.365	521.88
469.585	518.88
469.804	513.88
470.023	517.88
470.243	511.88
470.462	520.88
470.681	569.88
470.901	547.88
471.12	536.88
471.339	538.88
471.558	515.88
471.777	541.88
471.997	520.88
472.216	545.88
472.435	579.88
472.654	562.88
472.873	524.88
473.092	507.88
473.311	530.88
473.53	537.88
473.749	536.88
473.968	602.88
474.187	703.88
474.406	726.88
474.625	621.88
474.844	548.88
475.063	514.88
475.282	532.88
475.501	542.88
475.72	544.88
475.939	535.88
476.158	547.88
476.377	560.88
476.596	551.88
476.814	546.88
477.033	570.88
477.252	542.88
477.471	561.88
477.69	579.88
477.908	571.88
478.127	563.88
478.346	556.88
478.564	553.88
478.783	588.88
479.002	590.88
479.22	587.88
479.439	621.88
479.658	629.88
479.876	628.88
480.095	647.88
480.313	679.88
480.532	670.88
480.751	646.88
480.969	637.88
481.188	709.88
481.406	806.88
481.624	712.88
481.843	662.88
482.061	658.88
482.28	644.88
482.498	633.88
482.717	630.88
482.935	620.88
483.153	636.88
483.372	611.88
483.59	646.88
483.808	640.88
484.027	625.88
484.245	657.88
484.463	651.88
484.681	655.88
484.9	634.88
485.118	628.88
485.336	632.88
485.554	640.88
485.772	658.88
485.99	651.88
486.209	631.88
486.427	668.88
486.645	662.88
486.863	705.88
487.081	712.88
487.299	713.88
487.517	655.88
487.735	699.88
487.953	687.88
488.171	683.88
488.389	668.88
488.607	672.88
488.825	681.88
489.043	668.88
489.261	693.88
489.479	685.88
489.696	694.88
489.914	702.88
490.132	717.88
490.35	708.88
490.568	730.88
490.786	728.88
491.003	749.88
491.221	769.88
491.439	759.88
491.657	797.88
491.874	805.88
492.092	788.88
492.31	796.88
492.527	808.88
492.745	811.88
492.963	801.88
493.18	823.88
493.398	808.88
493.615	839.88
493.833	832.88
494.05	809.88
494.268	829.88
494.485	846.88
494.703	826.88
494.92	839.88
495.138	844.88
495.355	833.88
495.573	813.88
495.79	824.88
496.008	823.88
496.225	848.88
496.442	830.88
496.66	816.88
496.877	832.88
497.094	850.88
497.312	818.88
497.529	839.88
497.746	872.88
497.963	840.88
498.181	850.88
498.398	882.88
498.615	889.88
498.832	881.88
499.049	862.88
499.267	907.88
499.484	911.88
499.701	947.88
499.918	946.88
500.135	989.88
500.352	985.88
500.569	1012.88
500.786	1030.88
501.003	1013.88
501.22	975.88
501.437	991.88
501.654	995.88
501.871	977.88
502.088	950.88
502.305	923.88
502.522	888.88
502.739	911.88
502.956	875.88
503.172	880.88
503.389	841.88
503.606	833.88
503.823	842.88
504.04	822.88
504.256	837.88
504.473	827.88
504.69	835.88
504.907	810.88
505.123	800.88
505.34	821.88
505.557	783.88
505.773	815.88
505.99	799.88
506.207	787.88
506.423	793.88
506.64	791.88
506.856	799.88
507.073	786.88
507.289	774.88
507.506	769.88
507.722	792.88
507.939	837.88
508.155	785.88
508.372	765.88
508.588	758.88
508.805	763.88
509.021	760.88
509.238	772.88
509.454	765.88
509.67	776.88
509.887	757.88
510.103	782.88
510.319	776.88
510.536	909.88
510.752	1434.88
510.968	1196.88
511.184	813.88
511.401	772.88
511.617	787.88
511.833	744.88
512.049	741.88
512.265	725.88
512.481	720.88
512.698	712.88
512.914	705.88
513.13	720.88
513.346	692.88
513.562	716.88
513.778	718.88
513.994	723.88
514.21	738.88
514.426	776.88
514.642	830.88
514.858	843.88
515.074	916.88
515.29	1096.88
515.506	1593.88
515.721	1336.88
515.937	901.88
516.153	822.88
516.369	783.88
516.585	741.88
516.801	701.88
517.016	746.88
517.232	738.88
517.448	723.88
517.664	714.88
517.879	735.88
518.095	725.88
518.311	742.88
518.527	694.88
518.742	723.88
518.958	704.88
519.173	707.88
519.389	714.88
519.605	714.88
519.82	716.88
520.036	737.88
520.251	780.88
520.467	798.88
520.682	794.88
520.898	799.88
521.113	845.88
521.329	873.88
521.544	1026.88
521.76	1276.88
521.975	2140.88
522.19	2102.88
522.406	1159.88
522.621	880.88
522.836	774.88
523.052	730.88
523.267	708.88
523.482	679.88
523.698	679.88
523.913	676.88
524.128	703.88
524.343	661.88
524.559	629.88
524.774	609.88
524.989	606.88
525.204	637.88
525.419	627.88
525.634	608.88
525.849	612.88
526.064	617.88
526.28	606.88
526.495	603.88
526.71	610.88
526.925	592.88
527.14	545.88
527.355	584.88
527.57	604.88
527.785	581.88
527.999	559.88
528.214	584.88
528.429	571.88
528.644	573.88
528.859	584.88
529.074	582.88
529.289	628.88
529.503	704.88
529.718	676.88
529.933	630.88
530.148	602.88
530.363	608.88
530.577	580.88
530.792	562.88
531.007	561.88
531.221	572.88
531.436	550.88
531.651	579.88
531.865	549.88
532.08	544.88
532.295	549.88
532.509	540.88
532.724	539.88
532.938	538.88
533.153	544.88
533.367	523.88
533.582	543.88
533.796	536.88
534.011	522.88
534.225	532.88
534.44	540.88
534.654	513.88
534.868	534.88
535.083	552.88
535.297	531.88
535.511	544.88
535.726	568.88
535.94	557.88
536.154	568.88
536.369	550.88
536.583	540.88
536.797	531.88
537.011	511.88
537.225	517.88
537.44	513.88
537.654	538.88
537.868	513.88
538.082	533.88
538.296	530.88
538.51	538.88
538.724	519.88
538.938	530.88
539.153	549.88
539.367	537.88
539.581	522.88
539.795	530.88
540.009	528.88
540.222	517.88
540.436	526.88
540.65	546.88
540.864	531.88
541.078	537.88
541.292	538.88
541.506	527.88
541.72	529.88
541.934	518.88
542.147	536.88
542.361	533.88
542.575	521.88
542.789	512.88
543.002	523.88
543.216	524.88
543.43	526.88
543.644	501.88
543.857	510.88
544.071	517.88
544.285	526.88
544.498	515.88
544.712	540.88
544.925	510.88
545.139	525.88
545.352	497.88
545.566	491.88
545.779	503.88
545.993	491.88
546.206	520.88
546.42	500.88
546.633	512.88
546.847	501.88
547.06	475.88
547.274	500.88
547.487	498.88
547.7	484.88
547.914	486.88
548.127	499.88
548.34	489.88
548.554	488.88
548.767	502.88
548.98	491.88
549.193	481.88
549.407	488.88
549.62	478.88
549.833	504.88
550.046	473.88
550.259	468.88
550.473	478.88
550.686	471.88
550.899	500.88
551.112	456.88
551.325	478.88
551.538	475.88
551.751	485.88
551.964	477.88
552.177	465.88
552.39	497.88
552.603	495.88
552.816	494.88
553.029	482.88
553.242	493.88
553.455	486.88
553.667	509.88
553.88	496.88
554.093	492.88
554.306	464.88
554.519	477.88
554.732	465.88
554.944	474.88
555.157	454.88
555.37	451.88
555.583	447.88
555.795	467.88
556.008	458.88
556.221	463.88
556.433	466.88
556.646	444.88
556.859	450.88
557.071	438.88
557.284	433.88
557.496	459.88
557.709	409.88
557.921	449.88
558.134	433.88
558.346	444.88
558.559	448.88
558.771	448.88
558.984	438.88
559.196	430.88
559.409	434.88
559.621	431.88
559.833	422.88
560.046	430.88
560.258	405.88
560.47	435.88
560.683	419.88
560.895	416.88
561.107	435.88
561.32	438.88
561.532	446.88
561.744	429.88
561.956	420.88
562.168	455.88
562.381	432.88
562.593	461.88
562.805	460.88
563.017	450.88
563.229	430.88
563.441	443.88
563.653	430.88
563.865	417.88
564.077	425.88
564.289	440.88
564.501	444.88
564.713	426.88
564.925	435.88
565.137	470.88
565.349	442.88
565.561	449.88
565.773	474.88
565.985	484.88
566.197	478.88
566.408	470.88
566.62	472.88
566.832	472.88
567.044	502.88
567.255	478.88
567.467	488.88
567.679	505.88
567.891	506.88
568.102	478.88
568.314	482.88
568.526	472.88
568.737	482.88
568.949	444.88
569.161	430.88
569.372	444.88
569.584	441.88
569.795	438.88
570.007	430.88
570.218	485.88
570.43	465.88
570.641	429.88
570.853	424.88
571.064	399.88
571.276	410.88
571.487	425.88
571.698	404.88
571.91	385.88
572.121	403.88
572.333	389.88
572.544	384.88
572.755	385.88
572.966	371.88
573.178	378.88
573.389	382.88
573.6	387.88
573.811	386.88
574.023	368.88
574.234	371.88
574.445	381.88
574.656	384.88
574.867	374.88
575.078	368.88
575.289	366.88
575.501	384.88
575.712	380.88
575.923	342.88
576.134	354.88
576.345	381.88
576.556	378.88
576.767	390.88
576.978	375.88
577.188	356.88
577.399	359.88
577.61	356.88
577.821	351.88
578.032	363.88
578.243	390.88
578.454	690.88
578.665	504.88
578.875	355.88
579.086	352.88
579.297	345.88
579.508	347.88
579.718	357.88
579.929	338.88
580.14	365.88
580.35	319.88
580.561	352.88
580.772	350.88
580.982	338.88
581.193	343.88
581.403	351.88
581.614	335.88
581.825	341.88
582.035	365.88
582.246	323.88
582.456	343.88
582.667	329.88
582.877	347.88
583.087	342.88
583.298	334.88
583.508	340.88
583.719	334.88
583.929	331.88
584.139	335.88
584.35	332.88
584.56	338.88
584.77	335.88
584.981	321.88
585.191	319.88
585.401	314.88
585.611	348.88
585.821	324.88
586.032	319.88
586.242	319.88
586.452	340.88
586.662	316.88
586.872	313.88
587.082	311.88
587.292	329.88
587.502	319.88
587.713	305.88
587.923	315.88
588.133	315.88
588.343	300.88
588.553	302.88
588.762	317.88
588.972	308.88
589.182	309.88
589.392	322.88
589.602	352.88
589.812	322.88
590.022	299.88
590.232	318.88
590.441	302.88
590.651	313.88
590.861	319.88
591.071	314.88
591.281	310.88
591.49	326.88
591.7	317.88
591.91	312.88
592.119	322.88
592.329	335.88
592.539	325.88
592.748	320.88
592.958	314.88
593.167	322.88
593.377	323.88
593.587	316.88
593.796	326.88
594.006	321.88
594.215	299.88
594.424	316.88
594.634	316.88
594.843	317.88
595.053	323.88
595.262	300.88
595.472	313.88
595.681	302.88
595.89	310.88
596.1	311.88
596.309	289.88
596.518	311.88
596.727	323.88
596.937	328.88
597.146	301.88
597.355	287.88
597.564	299.88
597.774	290.88
597.983	296.88
598.192	281.88
598.401	290.88
598.61	299.88
598.819	291.88
599.028	289.88
599.237	291.88
599.446	299.88
599.655	298.88
599.864	291.88
600.073	284.88
600.282	278.88
600.491	276.88
600.7	257.88
600.909	283.88
601.118	280.88
601.327	267.88
601.536	288.88
601.745	286.88
601.953	277.88
602.162	273.88
602.371	273.88
602.58	252.88
602.789	285.88
602.997	271.88
603.206	292.88
603.415	258.88
603.623	282.88
603.832	290.88
604.041	277.88
604.249	266.88
604.458	269.88
604.666	274.88
604.875	280.88
605.084	256.88
605.292	262.88
605.501	269.88
605.709	291.88
605.918	279.88
606.126	254.88
606.334	272.88
606.543	269.88
606.751	267.88
606.96	280.88
607.168	269.88
607.376	268.88
607.585	290.88
607.793	254.88
608.001	262.88
608.21	273.88
608.418	277.88
608.626	257.88
608.834	271.88
609.043	273.88
609.251	270.88
609.459	268.88
609.667	265.88
609.875	262.88
610.083	284.88
610.291	277.88
610.499	245.88
610.707	257.88
610.916	277.88
611.124	272.88
611.332	278.88
611.54	277.88
611.748	280.88
611.955	278.88
612.163	268.88
612.371	276.88
612.579	281.88
612.787	279.88
612.995	262.88
613.203	268.88
613.411	267.88
613.618	276.88
613.826	252.88
614.034	252.88
614.242	273.88
614.449	269.88
614.657	272.88
614.865	232.88
615.072	242.88
615.28	230.88
615.488	253.88
615.695	249.88
615.903	247.88
616.111	258.88
616.318	243.88
616.526	256.88
616.733	256.88
616.941	249.88
617.148	257.88
617.356	274.88
617.563	276.88
617.771	257.88
617.978	252.88
618.185	255.88
618.393	260.88
618.6	246.88
618.807	257.88
619.015	260.88
619.222	246.88
619.429	249.88
619.637	252.88
619.844	237.88
620.051	240.88
620.258	240.88
620.466	241.88
620.673	252.88
620.88	246.88
621.087	230.88
621.294	259.88
621.501	244.88
621.708	244.88
621.915	242.88
622.122	238.88
622.329	243.88
622.536	252.88
622.743	246.88
622.95	241.88
623.157	240.88
623.364	237.88
623.571	250.88
623.778	240.88
623.985	230.88
624.192	224.88
624.399	234.88
624.606	233.88
624.812	224.88
625.019	237.88
625.226	238.88
625.433	232.88
625.639	207.88
625.846	233.88
626.053	228.88
626.259	208.88
626.466	215.88
626.673	218.88
626.879	206.88
627.086	233.88
627.293	208.88
627.499	207.88
627.706	225.88
627.912	218.88
628.119	221.88
628.325	238.88
628.532	191.88
628.738	202.88
628.945	212.88
629.151	202.88
629.357	212.88
629.564	226.88
629.77	222.88
629.976	216.88
630.183	205.88
630.389	209.88
630.595	202.88
630.802	216.88
631.008	208.88
631.214	212.88
631.42	210.88
631.627	218.88
631.833	213.88
632.039	211.88
632.245	211.88
632.451	196.88
632.657	204.88
632.863	209.88
633.069	204.88
633.275	193.88
633.481	195.88
633.688	205.88
633.893	208.88
634.099	208.88
634.305	209.88
634.511	192.88
634.717	190.88
634.923	187.88
635.129	170.88
635.335	181.88
635.541	192.88
635.747	192.88
635.952	203.88
636.158	195.88
636.364	204.88
636.57	214.88
636.775	199.88
636.981	191.88
637.187	198.88
637.392	199.88
637.598	209.88
637.804	200.88
638.009	198.88
638.215	201.88
638.421	182.88
638.626	173.88
638.832	200.88
639.037	198.88
639.243	187.88
639.448	185.88
639.654	190.88
639.859	182.88
640.065	184.88
640.27	197.88
640.475	191.88
640.681	180.88
640.886	192.88
641.091	178.88
641.297	194.88
641.502	173.88
641.707	184.88
641.913	184.88
642.118	182.88
642.323	185.88
642.528	165.88
642.733	172.88
642.939	180.88
643.144	189.88
643.349	173.88
643.554	171.88
643.759	183.88
643.964	166.88
644.169	179.88
644.374	189.88
644.579	171.88
644.784	182.88
644.989	190.88
645.194	165.88
645.399	151.88
645.604	181.88
645.809	182.88
646.014	172.88
646.219	173.88
646.423	190.88
646.628	170.88
646.833	179.88
647.038	170.88
647.243	195.88
647.447	169.88
647.652	157.88
647.857	173.88
648.062	177.88
648.266	178.88
648.471	181.88
648.676	191.88
648.88	172.88
649.085	181.88
649.289	184.88
649.494	184.88
649.698	190.88
649.903	196.88
650.107	168.88
650.312	187.88
650.516	170.88
650.721	158.88
650.925	174.88
651.13	169.88
651.334	156.88
651.539	148.88
651.743	161.88
651.947	146.88
652.152	150.88
652.356	147.88
652.56	155.88
652.764	142.88
652.969	137.88
653.173	143.88
653.377	137.88
653.581	142.88
653.785	141.88
653.99	139.88
654.194	147.88
654.398	148.88
654.602	128.88
654.806	138.88
655.01	150.88
655.214	140.88
655.418	119.88
655.622	124.88
655.826	133.88
656.03	142.88
656.234	131.88
656.438	140.88
656.642	136.88
656.846	131.88
657.049	133.88
657.253	133.88
657.457	130.88
657.661	117.88
657.865	114.88
658.068	111.88
658.272	100.88
658.476	109.88
658.68	114.88
658.883	108.88
659.087	108.88
659.291	101.88
659.494	103.88
659.698	87.88
659.901	95.88
660.105	106.88
660.309	100.88
660.512	92.88
660.716	94.88
660.919	92.88
661.123	84.88
661.326	101.88
661.53	97.88
661.733	91.88
661.936	94.88
662.14	86.88
662.343	75.88
662.546	79.88
662.75	73.88
662.953	88.88
663.156	72.88
663.36	96.88
663.563	82.88
663.766	90.88
663.969	78.88
664.173	99.88
664.376	72.88
664.579	80.88
664.782	91.88
664.985	81.88
665.188	88.88
665.391	83.88
665.594	83.88
665.797	65.88
666	91.88
666.203	88.88
666.406	83.88
666.609	98.88
666.812	90.88
667.015	66.88
667.218	89.88
667.421	80.88
667.624	78.88
667.827	78.88
668.03	76.88
668.232	84.88
668.435	85.88
668.638	93.88
668.841	88.88
669.043	84.88
669.246	85.88
669.449	78.88
669.651	81.88
669.854	86.88
670.057	87.88
670.259	73.88
670.462	74.88
670.665	86.88
670.867	87.88
671.07	84.88
671.272	92.88
671.475	90.88
671.677	76.88
671.88	76.88
672.082	81.88
672.284	89.88
672.487	74.88
672.689	92.88
672.892	72.88
