Data from 1970.PennyLincolnUp.Lamp.En5.5.200Scan.071719.P1._HRD10591_15-14-22-842.txt Node
Date: Thu Jul 18 15:14:22 EDT 2019
User: cochatt
Spectrometer: HR+D1059
Trigger mode: 1
Integration Time (sec): 1.000000E-1
Scans to average: 1
Electric dark correction enabled: true
Nonlinearity correction enabled: false
Boxcar width: 0
XAxis mode: Wavelengths
Number of Pixels in Spectrum: 2048
>>>>>Begin Spectral Data<<<<<
223.165	-20.25
223.4	-20.25
223.635	-20.25
223.869	-14.25
224.104	-9.25
224.338	-1.25
224.573	-18.25
224.808	7.75
225.042	-16.25
225.277	-15.25
225.511	-3.25
225.746	-1.25
225.98	-0.25
226.215	5.75
226.449	25.75
226.683	13.75
226.918	22.75
227.152	23.75
227.387	26.75
227.621	42.75
227.856	42.75
228.09	53.75
228.324	29.75
228.559	61.75
228.793	76.75
229.027	110.75
229.262	117.75
229.496	124.75
229.73	139.75
229.964	170.75
230.199	132.75
230.433	118.75
230.667	119.75
230.901	111.75
231.136	109.75
231.37	127.75
231.604	132.75
231.838	109.75
232.072	122.75
232.306	108.75
232.541	107.75
232.775	116.75
233.009	121.75
233.243	111.75
233.477	114.75
233.711	130.75
233.945	101.75
234.179	117.75
234.413	126.75
234.647	111.75
234.881	123.75
235.115	129.75
235.349	128.75
235.583	118.75
235.817	128.75
236.051	131.75
236.285	121.75
236.519	131.75
236.753	140.75
236.987	170.75
237.221	201.75
237.455	269.75
237.689	205.75
237.922	163.75
238.156	147.75
238.39	129.75
238.624	123.75
238.858	127.75
239.091	143.75
239.325	116.75
239.559	125.75
239.793	137.75
240.027	129.75
240.26	136.75
240.494	160.75
240.728	155.75
240.961	157.75
241.195	154.75
241.429	130.75
241.662	145.75
241.896	141.75
242.13	141.75
242.363	145.75
242.597	136.75
242.83	156.75
243.064	147.75
243.298	151.75
243.531	154.75
243.765	140.75
243.998	160.75
244.232	153.75
244.465	149.75
244.699	153.75
244.932	153.75
245.166	163.75
245.399	141.75
245.633	169.75
245.866	153.75
246.099	164.75
246.333	164.75
246.566	161.75
246.8	172.75
247.033	173.75
247.266	174.75
247.5	169.75
247.733	192.75
247.966	188.75
248.2	187.75
248.433	192.75
248.666	194.75
248.899	199.75
249.133	207.75
249.366	238.75
249.599	220.75
249.832	197.75
250.066	210.75
250.299	193.75
250.532	220.75
250.765	220.75
250.998	248.75
251.231	251.75
251.465	244.75
251.698	235.75
251.931	225.75
252.164	206.75
252.397	215.75
252.63	209.75
252.863	217.75
253.096	229.75
253.329	240.75
253.562	254.75
253.795	233.75
254.028	224.75
254.261	240.75
254.494	249.75
254.727	279.75
254.96	296.75
255.193	321.75
255.426	285.75
255.659	258.75
255.892	259.75
256.124	241.75
256.357	242.75
256.59	250.75
256.823	242.75
257.056	231.75
257.289	224.75
257.521	232.75
257.754	235.75
257.987	206.75
258.22	224.75
258.452	219.75
258.685	219.75
258.918	211.75
259.151	223.75
259.383	232.75
259.616	229.75
259.849	233.75
260.081	253.75
260.314	255.75
260.547	271.75
260.779	244.75
261.012	241.75
261.244	257.75
261.477	224.75
261.71	232.75
261.942	243.75
262.175	241.75
262.407	242.75
262.64	241.75
262.872	207.75
263.105	217.75
263.337	219.75
263.57	235.75
263.802	232.75
264.035	193.75
264.267	209.75
264.499	227.75
264.732	211.75
264.964	209.75
265.197	222.75
265.429	222.75
265.661	216.75
265.894	244.75
266.126	227.75
266.358	209.75
266.591	215.75
266.823	208.75
267.055	228.75
267.287	225.75
267.52	235.75
267.752	233.75
267.984	228.75
268.216	227.75
268.448	248.75
268.681	235.75
268.913	241.75
269.145	264.75
269.377	279.75
269.609	288.75
269.841	283.75
270.073	287.75
270.306	308.75
270.538	321.75
270.77	320.75
271.002	308.75
271.234	303.75
271.466	317.75
271.698	334.75
271.93	335.75
272.162	316.75
272.394	345.75
272.626	317.75
272.858	311.75
273.09	307.75
273.322	289.75
273.553	267.75
273.785	291.75
274.017	263.75
274.249	262.75
274.481	264.75
274.713	286.75
274.945	256.75
275.176	272.75
275.408	280.75
275.64	281.75
275.872	266.75
276.104	266.75
276.335	275.75
276.567	281.75
276.799	301.75
277.031	329.75
277.262	323.75
277.494	329.75
277.726	320.75
277.957	292.75
278.189	286.75
278.421	274.75
278.652	270.75
278.884	283.75
279.115	269.75
279.347	268.75
279.579	253.75
279.81	268.75
280.042	268.75
280.273	274.75
280.505	256.75
280.736	259.75
280.968	280.75
281.199	265.75
281.431	250.75
281.662	263.75
281.894	271.75
282.125	287.75
282.356	287.75
282.588	298.75
282.819	291.75
283.051	268.75
283.282	258.75
283.513	283.75
283.745	278.75
283.976	263.75
284.207	259.75
284.439	283.75
284.67	293.75
284.901	289.75
285.132	271.75
285.364	268.75
285.595	278.75
285.826	256.75
286.057	266.75
286.288	274.75
286.52	260.75
286.751	276.75
286.982	290.75
287.213	274.75
287.444	303.75
287.675	300.75
287.906	281.75
288.138	292.75
288.369	321.75
288.6	301.75
288.831	291.75
289.062	297.75
289.293	278.75
289.524	288.75
289.755	275.75
289.986	283.75
290.217	277.75
290.448	294.75
290.679	274.75
290.91	280.75
291.141	289.75
291.371	291.75
291.602	284.75
291.833	268.75
292.064	247.75
292.295	284.75
292.526	298.75
292.757	300.75
292.987	288.75
293.218	288.75
293.449	275.75
293.68	289.75
293.91	276.75
294.141	288.75
294.372	273.75
294.603	296.75
294.833	280.75
295.064	278.75
295.295	267.75
295.525	265.75
295.756	308.75
295.987	285.75
296.217	324.75
296.448	334.75
296.679	316.75
296.909	308.75
297.14	277.75
297.37	280.75
297.601	284.75
297.831	271.75
298.062	290.75
298.292	283.75
298.523	295.75
298.753	305.75
298.984	306.75
299.214	285.75
299.445	303.75
299.675	313.75
299.905	306.75
300.136	319.75
300.366	303.75
300.597	303.75
300.827	317.75
301.057	317.75
301.288	290.75
301.518	313.75
301.748	307.75
301.979	324.75
302.209	330.75
302.439	314.75
302.669	316.75
302.9	325.75
303.13	327.75
303.36	328.75
303.59	323.75
303.82	340.75
304.051	317.75
304.281	333.75
304.511	309.75
304.741	325.75
304.971	317.75
305.201	317.75
305.431	313.75
305.661	338.75
305.891	337.75
306.121	332.75
306.352	324.75
306.582	322.75
306.812	316.75
307.042	316.75
307.272	338.75
307.502	310.75
307.731	327.75
307.961	311.75
308.191	328.75
308.421	342.75
308.651	321.75
308.881	343.75
309.111	345.75
309.341	323.75
309.571	367.75
309.8	372.75
310.03	379.75
310.26	389.75
310.49	382.75
310.72	377.75
310.949	395.75
311.179	436.75
311.409	394.75
311.639	363.75
311.868	391.75
312.098	388.75
312.328	391.75
312.557	389.75
312.787	448.75
313.017	423.75
313.246	408.75
313.476	381.75
313.706	392.75
313.935	382.75
314.165	388.75
314.394	430.75
314.624	412.75
314.853	395.75
315.083	369.75
315.312	390.75
315.542	378.75
315.771	368.75
316.001	355.75
316.23	375.75
316.46	361.75
316.689	375.75
316.919	385.75
317.148	383.75
317.377	392.75
317.607	388.75
317.836	394.75
318.065	383.75
318.295	377.75
318.524	395.75
318.753	360.75
318.983	371.75
319.212	385.75
319.441	396.75
319.67	397.75
319.9	404.75
320.129	391.75
320.358	391.75
320.587	376.75
320.816	411.75
321.046	397.75
321.275	426.75
321.504	392.75
321.733	403.75
321.962	433.75
322.191	432.75
322.42	432.75
322.649	466.75
322.878	460.75
323.108	500.75
323.337	517.75
323.566	540.75
323.795	583.75
324.024	621.75
324.253	773.75
324.482	1092.75
324.71	1692.75
324.939	2351.75
325.168	2028.75
325.397	1111.75
325.626	754.75
325.855	611.75
326.084	571.75
326.313	522.75
326.542	556.75
326.77	594.75
326.999	711.75
327.228	985.75
327.457	1502.75
327.686	1801.75
327.914	1217.75
328.143	807.75
328.372	699.75
328.6	655.75
328.829	609.75
329.058	623.75
329.287	667.75
329.515	580.75
329.744	585.75
329.972	557.75
330.201	580.75
330.43	607.75
330.658	660.75
330.887	668.75
331.115	648.75
331.344	567.75
331.572	521.75
331.801	496.75
332.03	531.75
332.258	496.75
332.486	486.75
332.715	460.75
332.943	465.75
333.172	465.75
333.4	450.75
333.629	473.75
333.857	482.75
334.085	502.75
334.314	535.75
334.542	531.75
334.771	581.75
334.999	525.75
335.227	485.75
335.455	460.75
335.684	456.75
335.912	445.75
336.14	444.75
336.369	456.75
336.597	478.75
336.825	470.75
337.053	422.75
337.281	451.75
337.51	465.75
337.738	456.75
337.966	443.75
338.194	446.75
338.422	460.75
338.65	436.75
338.878	438.75
339.106	424.75
339.334	444.75
339.562	431.75
339.79	436.75
340.018	440.75
340.246	443.75
340.474	434.75
340.702	433.75
340.93	442.75
341.158	448.75
341.386	430.75
341.614	447.75
341.842	414.75
342.07	418.75
342.298	439.75
342.526	417.75
342.754	428.75
342.981	413.75
343.209	426.75
343.437	409.75
343.665	435.75
343.893	439.75
344.12	437.75
344.348	438.75
344.576	438.75
344.804	445.75
345.031	469.75
345.259	471.75
345.487	448.75
345.714	452.75
345.942	447.75
346.17	429.75
346.397	414.75
346.625	421.75
346.853	433.75
347.08	444.75
347.308	431.75
347.535	445.75
347.763	431.75
347.99	465.75
348.218	442.75
348.445	460.75
348.673	451.75
348.9	442.75
349.128	411.75
349.355	382.75
349.583	412.75
349.81	415.75
350.037	404.75
350.265	426.75
350.492	429.75
350.72	436.75
350.947	423.75
351.174	428.75
351.402	440.75
351.629	441.75
351.856	448.75
352.083	436.75
352.311	461.75
352.538	455.75
352.765	455.75
352.992	460.75
353.22	432.75
353.447	437.75
353.674	424.75
353.901	418.75
354.128	422.75
354.355	401.75
354.583	396.75
354.81	401.75
355.037	386.75
355.264	398.75
355.491	384.75
355.718	400.75
355.945	393.75
356.172	397.75
356.399	396.75
356.626	398.75
356.853	411.75
357.08	394.75
357.307	398.75
357.534	405.75
357.761	380.75
357.988	397.75
358.215	394.75
358.441	403.75
358.668	415.75
358.895	387.75
359.122	397.75
359.349	423.75
359.576	415.75
359.802	465.75
360.029	502.75
360.256	500.75
360.483	476.75
360.709	447.75
360.936	455.75
361.163	434.75
361.39	461.75
361.616	457.75
361.843	444.75
362.07	446.75
362.296	443.75
362.523	456.75
362.749	446.75
362.976	441.75
363.203	423.75
363.429	411.75
363.656	429.75
363.882	423.75
364.109	417.75
364.335	409.75
364.562	409.75
364.788	416.75
365.015	420.75
365.241	434.75
365.468	415.75
365.694	436.75
365.92	448.75
366.147	436.75
366.373	424.75
366.599	420.75
366.826	422.75
367.052	406.75
367.278	416.75
367.505	426.75
367.731	433.75
367.957	413.75
368.184	415.75
368.41	418.75
368.636	447.75
368.862	445.75
369.089	418.75
369.315	413.75
369.541	420.75
369.767	430.75
369.993	434.75
370.219	402.75
370.445	404.75
370.672	415.75
370.898	415.75
371.124	415.75
371.35	400.75
371.576	400.75
371.802	404.75
372.028	382.75
372.254	419.75
372.48	402.75
372.706	398.75
372.932	428.75
373.158	395.75
373.384	410.75
373.61	427.75
373.835	404.75
374.061	407.75
374.287	415.75
374.513	432.75
374.739	406.75
374.965	428.75
375.191	414.75
375.416	426.75
375.642	410.75
375.868	423.75
376.094	419.75
376.319	420.75
376.545	408.75
376.771	403.75
376.997	433.75
377.222	431.75
377.448	420.75
377.674	414.75
377.899	420.75
378.125	396.75
378.35	407.75
378.576	412.75
378.802	424.75
379.027	420.75
379.253	420.75
379.478	427.75
379.704	405.75
379.929	417.75
380.155	412.75
380.38	431.75
380.606	427.75
380.831	419.75
381.057	435.75
381.282	415.75
381.507	426.75
381.733	438.75
381.958	419.75
382.184	436.75
382.409	421.75
382.634	437.75
382.86	430.75
383.085	414.75
383.31	422.75
383.535	442.75
383.761	425.75
383.986	428.75
384.211	422.75
384.436	436.75
384.662	441.75
384.887	442.75
385.112	428.75
385.337	439.75
385.562	457.75
385.787	439.75
386.013	464.75
386.238	457.75
386.463	476.75
386.688	452.75
386.913	466.75
387.138	443.75
387.363	453.75
387.588	435.75
387.813	439.75
388.038	461.75
388.263	474.75
388.488	464.75
388.713	451.75
388.938	445.75
389.163	468.75
389.387	432.75
389.612	440.75
389.837	426.75
390.062	451.75
390.287	450.75
390.512	451.75
390.736	439.75
390.961	460.75
391.186	450.75
391.411	443.75
391.636	473.75
391.86	465.75
392.085	441.75
392.31	464.75
392.534	461.75
392.759	476.75
392.984	450.75
393.208	463.75
393.433	463.75
393.658	467.75
393.882	462.75
394.107	461.75
394.331	465.75
394.556	449.75
394.78	461.75
395.005	464.75
395.229	452.75
395.454	453.75
395.678	466.75
395.903	467.75
396.127	528.75
396.352	489.75
396.576	477.75
396.801	483.75
397.025	486.75
397.249	486.75
397.474	489.75
397.698	506.75
397.922	492.75
398.147	512.75
398.371	519.75
398.595	487.75
398.82	507.75
399.044	537.75
399.268	528.75
399.492	542.75
399.717	562.75
399.941	580.75
400.165	637.75
400.389	634.75
400.613	579.75
400.837	542.75
401.062	560.75
401.286	525.75
401.51	523.75
401.734	519.75
401.958	520.75
402.182	543.75
402.406	537.75
402.63	541.75
402.854	528.75
403.078	536.75
403.302	521.75
403.526	516.75
403.75	533.75
403.974	528.75
404.198	533.75
404.422	551.75
404.645	567.75
404.869	554.75
405.093	586.75
405.317	640.75
405.541	651.75
405.765	612.75
405.988	589.75
406.212	593.75
406.436	603.75
406.66	628.75
406.883	597.75
407.107	617.75
407.331	660.75
407.555	713.75
407.778	728.75
408.002	659.75
408.226	615.75
408.449	606.75
408.673	624.75
408.896	628.75
409.12	684.75
409.344	655.75
409.567	587.75
409.791	597.75
410.014	552.75
410.238	553.75
410.461	579.75
410.685	574.75
410.908	573.75
411.132	625.75
411.355	641.75
411.578	613.75
411.802	570.75
412.025	537.75
412.249	576.75
412.472	590.75
412.695	609.75
412.919	625.75
413.142	570.75
413.365	549.75
413.589	539.75
413.812	529.75
414.035	527.75
414.258	539.75
414.482	530.75
414.705	512.75
414.928	515.75
415.151	516.75
415.374	541.75
415.597	524.75
415.821	531.75
416.044	519.75
416.267	517.75
416.49	540.75
416.713	530.75
416.936	520.75
417.159	527.75
417.382	513.75
417.605	549.75
417.828	539.75
418.051	572.75
418.274	545.75
418.497	539.75
418.72	531.75
418.943	510.75
419.166	540.75
419.389	567.75
419.611	546.75
419.834	574.75
420.057	559.75
420.28	561.75
420.503	567.75
420.726	539.75
420.948	584.75
421.171	597.75
421.394	635.75
421.617	593.75
421.839	539.75
422.062	582.75
422.285	570.75
422.507	640.75
422.73	713.75
422.953	690.75
423.175	617.75
423.398	585.75
423.621	563.75
423.843	604.75
424.066	617.75
424.288	609.75
424.511	619.75
424.733	684.75
424.956	752.75
425.178	751.75
425.401	727.75
425.623	758.75
425.846	679.75
426.068	617.75
426.291	589.75
426.513	623.75
426.735	620.75
426.958	693.75
427.18	780.75
427.402	888.75
427.625	955.75
427.847	869.75
428.069	745.75
428.292	703.75
428.514	618.75
428.736	593.75
428.958	617.75
429.181	574.75
429.403	569.75
429.625	585.75
429.847	620.75
430.069	727.75
430.292	662.75
430.514	607.75
430.736	583.75
430.958	565.75
431.18	529.75
431.402	532.75
431.624	529.75
431.846	535.75
432.068	532.75
432.29	540.75
432.512	523.75
432.734	540.75
432.956	579.75
433.178	547.75
433.4	561.75
433.622	553.75
433.844	519.75
434.066	524.75
434.287	518.75
434.509	531.75
434.731	541.75
434.953	571.75
435.175	575.75
435.397	599.75
435.618	602.75
435.84	684.75
436.062	752.75
436.284	823.75
436.505	705.75
436.727	616.75
436.949	608.75
437.17	599.75
437.392	560.75
437.614	605.75
437.835	637.75
438.057	756.75
438.278	860.75
438.5	844.75
438.721	903.75
438.943	874.75
439.165	707.75
439.386	642.75
439.608	635.75
439.829	647.75
440.05	646.75
440.272	713.75
440.493	702.75
440.715	620.75
440.936	588.75
441.158	588.75
441.379	566.75
441.6	601.75
441.822	597.75
442.043	635.75
442.264	791.75
442.486	806.75
442.707	687.75
442.928	643.75
443.149	646.75
443.371	643.75
443.592	725.75
443.813	787.75
444.034	832.75
444.255	725.75
444.476	633.75
444.698	597.75
444.919	619.75
445.14	738.75
445.361	683.75
445.582	657.75
445.803	736.75
446.024	825.75
446.245	831.75
446.466	771.75
446.687	659.75
446.908	629.75
447.129	590.75
447.35	592.75
447.571	588.75
447.792	561.75
448.013	562.75
448.234	614.75
448.455	663.75
448.675	759.75
448.896	872.75
449.117	758.75
449.338	742.75
449.559	836.75
449.779	953.75
450	767.75
450.221	647.75
450.442	607.75
450.662	572.75
450.883	567.75
451.104	605.75
451.324	593.75
451.545	553.75
451.766	539.75
451.986	519.75
452.207	517.75
452.428	519.75
452.648	497.75
452.869	536.75
453.089	524.75
453.31	563.75
453.53	542.75
453.751	512.75
453.971	548.75
454.192	553.75
454.412	520.75
454.633	524.75
454.853	498.75
455.073	513.75
455.294	541.75
455.514	631.75
455.734	624.75
455.955	523.75
456.175	482.75
456.395	482.75
456.616	469.75
456.836	491.75
457.056	453.75
457.276	461.75
457.497	476.75
457.717	485.75
457.937	484.75
458.157	470.75
458.377	504.75
458.598	526.75
458.818	615.75
459.038	697.75
459.258	707.75
459.478	623.75
459.698	550.75
459.918	548.75
460.138	515.75
460.358	535.75
460.578	522.75
460.798	519.75
461.018	537.75
461.238	503.75
461.458	507.75
461.678	539.75
461.898	538.75
462.118	529.75
462.338	545.75
462.558	552.75
462.777	549.75
462.997	537.75
463.217	543.75
463.437	564.75
463.657	548.75
463.876	547.75
464.096	569.75
464.316	548.75
464.536	568.75
464.755	571.75
464.975	583.75
465.195	626.75
465.414	741.75
465.634	648.75
465.854	595.75
466.073	564.75
466.293	554.75
466.512	552.75
466.732	527.75
466.951	535.75
467.171	531.75
467.391	532.75
467.61	535.75
467.829	571.75
468.049	545.75
468.268	556.75
468.488	504.75
468.707	528.75
468.927	505.75
469.146	492.75
469.365	504.75
469.585	510.75
469.804	537.75
470.023	518.75
470.243	538.75
470.462	514.75
470.681	557.75
470.901	559.75
471.12	539.75
471.339	531.75
471.558	522.75
471.777	535.75
471.997	516.75
472.216	529.75
472.435	582.75
472.654	583.75
472.873	537.75
473.092	524.75
473.311	545.75
473.53	531.75
473.749	538.75
473.968	575.75
474.187	727.75
474.406	733.75
474.625	613.75
474.844	555.75
475.063	558.75
475.282	540.75
475.501	527.75
475.72	556.75
475.939	541.75
476.158	551.75
476.377	560.75
476.596	531.75
476.814	562.75
477.033	581.75
477.252	553.75
477.471	565.75
477.69	584.75
477.908	560.75
478.127	585.75
478.346	596.75
478.564	594.75
478.783	583.75
479.002	600.75
479.22	628.75
479.439	623.75
479.658	637.75
479.876	649.75
480.095	639.75
480.313	701.75
480.532	684.75
480.751	653.75
480.969	657.75
481.188	729.75
481.406	806.75
481.624	711.75
481.843	692.75
482.061	647.75
482.28	623.75
482.498	648.75
482.717	630.75
482.935	644.75
483.153	635.75
483.372	631.75
483.59	631.75
483.808	622.75
484.027	645.75
484.245	629.75
484.463	637.75
484.681	657.75
484.9	645.75
485.118	673.75
485.336	659.75
485.554	643.75
485.772	675.75
485.99	683.75
486.209	645.75
486.427	637.75
486.645	707.75
486.863	705.75
487.081	696.75
487.299	716.75
487.517	671.75
487.735	697.75
487.953	713.75
488.171	705.75
488.389	688.75
488.607	695.75
488.825	692.75
489.043	718.75
489.261	688.75
489.479	708.75
489.696	703.75
489.914	704.75
490.132	722.75
490.35	719.75
490.568	733.75
490.786	775.75
491.003	746.75
491.221	763.75
491.439	765.75
491.657	780.75
491.874	811.75
492.092	825.75
492.31	817.75
492.527	799.75
492.745	811.75
492.963	841.75
493.18	842.75
493.398	836.75
493.615	855.75
493.833	841.75
494.05	816.75
494.268	815.75
494.485	823.75
494.703	845.75
494.92	857.75
495.138	836.75
495.355	830.75
495.573	822.75
495.79	826.75
496.008	841.75
496.225	797.75
496.442	838.75
496.66	837.75
496.877	825.75
497.094	827.75
497.312	857.75
497.529	835.75
497.746	872.75
497.963	855.75
498.181	883.75
498.398	889.75
498.615	899.75
498.832	881.75
499.049	917.75
499.267	933.75
499.484	961.75
499.701	951.75
499.918	944.75
500.135	1022.75
500.352	1035.75
500.569	1068.75
500.786	1037.75
501.003	1026.75
501.22	1011.75
501.437	1020.75
501.654	1010.75
501.871	999.75
502.088	974.75
502.305	958.75
502.522	893.75
502.739	887.75
502.956	869.75
503.172	867.75
503.389	868.75
503.606	844.75
503.823	861.75
504.04	849.75
504.256	833.75
504.473	826.75
504.69	811.75
504.907	828.75
505.123	835.75
505.34	815.75
505.557	778.75
505.773	816.75
505.99	793.75
506.207	803.75
506.423	785.75
506.64	812.75
506.856	790.75
507.073	784.75
507.289	796.75
507.506	796.75
507.722	808.75
507.939	843.75
508.155	812.75
508.372	768.75
508.588	770.75
508.805	771.75
509.021	793.75
509.238	787.75
509.454	802.75
509.67	793.75
509.887	794.75
510.103	792.75
510.319	792.75
510.536	916.75
510.752	1497.75
510.968	1222.75
511.184	809.75
511.401	781.75
511.617	768.75
511.833	745.75
512.049	743.75
512.265	743.75
512.481	749.75
512.698	728.75
512.914	725.75
513.13	727.75
513.346	717.75
513.562	705.75
513.778	719.75
513.994	749.75
514.21	768.75
514.426	787.75
514.642	821.75
514.858	863.75
515.074	920.75
515.29	1140.75
515.506	1676.75
515.721	1372.75
515.937	917.75
516.153	829.75
516.369	789.75
516.585	760.75
516.801	747.75
517.016	737.75
517.232	753.75
517.448	742.75
517.664	747.75
517.879	739.75
518.095	730.75
518.311	728.75
518.527	727.75
518.742	723.75
518.958	754.75
519.173	713.75
519.389	732.75
519.605	704.75
519.82	721.75
520.036	742.75
520.251	773.75
520.467	825.75
520.682	811.75
520.898	825.75
521.113	847.75
521.329	938.75
521.544	1065.75
521.76	1309.75
521.975	2223.75
522.19	2145.75
522.406	1192.75
522.621	876.75
522.836	779.75
523.052	744.75
523.267	737.75
523.482	699.75
523.698	653.75
523.913	697.75
524.128	673.75
524.343	647.75
524.559	639.75
524.774	605.75
524.989	658.75
525.204	646.75
525.419	638.75
525.634	614.75
525.849	606.75
526.064	630.75
526.28	615.75
526.495	580.75
526.71	585.75
526.925	597.75
527.14	568.75
527.355	583.75
527.57	588.75
527.785	585.75
527.999	556.75
528.214	559.75
528.429	586.75
528.644	575.75
528.859	591.75
529.074	593.75
529.289	636.75
529.503	755.75
529.718	694.75
529.933	644.75
530.148	604.75
530.363	583.75
530.577	597.75
530.792	584.75
531.007	585.75
531.221	592.75
531.436	573.75
531.651	574.75
531.865	579.75
532.08	563.75
532.295	544.75
532.509	553.75
532.724	553.75
532.938	563.75
533.153	542.75
533.367	551.75
533.582	556.75
533.796	526.75
534.011	545.75
534.225	520.75
534.44	535.75
534.654	545.75
534.868	540.75
535.083	525.75
535.297	544.75
535.511	539.75
535.726	565.75
535.94	577.75
536.154	561.75
536.369	535.75
536.583	539.75
536.797	548.75
537.011	522.75
537.225	532.75
537.44	508.75
537.654	554.75
537.868	522.75
538.082	532.75
538.296	547.75
538.51	531.75
538.724	531.75
538.938	518.75
539.153	539.75
539.367	550.75
539.581	556.75
539.795	523.75
540.009	532.75
540.222	525.75
540.436	507.75
540.65	534.75
540.864	541.75
541.078	536.75
541.292	538.75
541.506	566.75
541.72	537.75
541.934	531.75
542.147	549.75
542.361	529.75
542.575	522.75
542.789	527.75
543.002	511.75
543.216	537.75
543.43	540.75
543.644	535.75
543.857	532.75
544.071	521.75
544.285	563.75
544.498	515.75
544.712	515.75
544.925	530.75
545.139	513.75
545.352	509.75
545.566	498.75
545.779	512.75
545.993	519.75
546.206	517.75
546.42	507.75
546.633	515.75
546.847	510.75
547.06	483.75
547.274	505.75
547.487	510.75
547.7	501.75
547.914	514.75
548.127	490.75
548.34	501.75
548.554	486.75
548.767	489.75
548.98	502.75
549.193	469.75
549.407	507.75
549.62	484.75
549.833	511.75
550.046	488.75
550.259	513.75
550.473	472.75
550.686	508.75
550.899	488.75
551.112	483.75
551.325	470.75
551.538	491.75
551.751	477.75
551.964	475.75
552.177	481.75
552.39	462.75
552.603	498.75
552.816	485.75
553.029	489.75
553.242	496.75
553.455	497.75
553.667	474.75
553.88	504.75
554.093	517.75
554.306	507.75
554.519	505.75
554.732	489.75
554.944	478.75
555.157	481.75
555.37	468.75
555.583	475.75
555.795	455.75
556.008	458.75
556.221	463.75
556.433	461.75
556.646	467.75
556.859	449.75
557.071	449.75
557.284	442.75
557.496	453.75
557.709	455.75
557.921	440.75
558.134	445.75
558.346	455.75
558.559	437.75
558.771	456.75
558.984	447.75
559.196	420.75
559.409	457.75
559.621	450.75
559.833	450.75
560.046	448.75
560.258	443.75
560.47	430.75
560.683	442.75
560.895	433.75
561.107	423.75
561.32	443.75
561.532	444.75
561.744	447.75
561.956	432.75
562.168	429.75
562.381	443.75
562.593	428.75
562.805	459.75
563.017	434.75
563.229	432.75
563.441	438.75
563.653	411.75
563.865	435.75
564.077	450.75
564.289	455.75
564.501	437.75
564.713	442.75
564.925	448.75
565.137	463.75
565.349	463.75
565.561	464.75
565.773	440.75
565.985	475.75
566.197	467.75
566.408	483.75
566.62	492.75
566.832	496.75
567.044	486.75
567.255	511.75
567.467	531.75
567.679	518.75
567.891	513.75
568.102	484.75
568.314	497.75
568.526	490.75
568.737	475.75
568.949	477.75
569.161	466.75
569.372	462.75
569.584	438.75
569.795	455.75
570.007	456.75
570.218	497.75
570.43	485.75
570.641	431.75
570.853	422.75
571.064	390.75
571.276	418.75
571.487	403.75
571.698	407.75
571.91	408.75
572.121	410.75
572.333	397.75
572.544	385.75
572.755	399.75
572.966	394.75
573.178	394.75
573.389	392.75
573.6	374.75
573.811	387.75
574.023	375.75
574.234	393.75
574.445	373.75
574.656	401.75
574.867	381.75
575.078	365.75
575.289	394.75
575.501	364.75
575.712	360.75
575.923	368.75
576.134	359.75
576.345	359.75
576.556	342.75
576.767	348.75
576.978	345.75
577.188	351.75
577.399	353.75
577.61	365.75
577.821	373.75
578.032	370.75
578.243	409.75
578.454	700.75
578.665	519.75
578.875	365.75
579.086	338.75
579.297	351.75
579.508	360.75
579.718	355.75
579.929	337.75
580.14	333.75
580.35	349.75
580.561	341.75
580.772	348.75
580.982	337.75
581.193	317.75
581.403	350.75
581.614	333.75
581.825	355.75
582.035	330.75
582.246	343.75
582.456	330.75
582.667	328.75
582.877	317.75
583.087	345.75
583.298	333.75
583.508	331.75
583.719	332.75
583.929	345.75
584.139	336.75
584.35	344.75
584.56	330.75
584.77	339.75
584.981	332.75
585.191	330.75
585.401	321.75
585.611	320.75
585.821	314.75
586.032	353.75
586.242	332.75
586.452	340.75
586.662	322.75
586.872	312.75
587.082	323.75
587.292	320.75
587.502	337.75
587.713	313.75
587.923	319.75
588.133	307.75
588.343	327.75
588.553	315.75
588.762	318.75
588.972	333.75
589.182	333.75
589.392	319.75
589.602	311.75
589.812	327.75
590.022	322.75
590.232	347.75
590.441	321.75
590.651	326.75
590.861	316.75
591.071	321.75
591.281	324.75
591.49	329.75
591.7	315.75
591.91	325.75
592.119	324.75
592.329	317.75
592.539	331.75
592.748	311.75
592.958	333.75
593.167	306.75
593.377	339.75
593.587	333.75
593.796	324.75
594.006	325.75
594.215	331.75
594.424	328.75
594.634	320.75
594.843	322.75
595.053	325.75
595.262	322.75
595.472	331.75
595.681	304.75
595.89	300.75
596.1	316.75
596.309	320.75
596.518	305.75
596.727	327.75
596.937	312.75
597.146	294.75
597.355	296.75
597.564	296.75
597.774	304.75
597.983	326.75
598.192	290.75
598.401	301.75
598.61	288.75
598.819	303.75
599.028	300.75
599.237	294.75
599.446	269.75
599.655	280.75
599.864	293.75
600.073	277.75
600.282	287.75
600.491	277.75
600.7	291.75
600.909	271.75
601.118	287.75
601.327	283.75
601.536	283.75
601.745	305.75
601.953	277.75
602.162	282.75
602.371	273.75
602.58	292.75
602.789	304.75
602.997	284.75
603.206	271.75
603.415	284.75
603.623	292.75
603.832	255.75
604.041	259.75
604.249	260.75
604.458	260.75
604.666	281.75
604.875	268.75
605.084	283.75
605.292	276.75
605.501	264.75
605.709	263.75
605.918	266.75
606.126	279.75
606.334	276.75
606.543	285.75
606.751	270.75
606.96	269.75
607.168	283.75
607.376	279.75
607.585	270.75
607.793	272.75
608.001	266.75
608.21	257.75
608.418	253.75
608.626	259.75
608.834	265.75
609.043	280.75
609.251	267.75
609.459	265.75
609.667	277.75
609.875	271.75
610.083	255.75
610.291	259.75
610.499	264.75
610.707	279.75
610.916	279.75
611.124	257.75
611.332	269.75
611.54	275.75
611.748	281.75
611.955	259.75
612.163	284.75
612.371	265.75
612.579	274.75
612.787	261.75
612.995	263.75
613.203	263.75
613.411	263.75
613.618	285.75
613.826	275.75
614.034	263.75
614.242	247.75
614.449	265.75
614.657	248.75
614.865	253.75
615.072	259.75
615.28	257.75
615.488	259.75
615.695	269.75
615.903	256.75
616.111	273.75
616.318	251.75
616.526	255.75
616.733	286.75
616.941	256.75
617.148	240.75
617.356	250.75
617.563	254.75
617.771	267.75
617.978	257.75
618.185	251.75
618.393	252.75
618.6	259.75
618.807	243.75
619.015	271.75
619.222	255.75
619.429	248.75
619.637	259.75
619.844	267.75
620.051	259.75
620.258	239.75
620.466	244.75
620.673	235.75
620.88	233.75
621.087	221.75
621.294	242.75
621.501	237.75
621.708	236.75
621.915	250.75
622.122	244.75
622.329	245.75
622.536	235.75
622.743	233.75
622.95	247.75
623.157	247.75
623.364	231.75
623.571	247.75
623.778	241.75
623.985	242.75
624.192	235.75
624.399	221.75
624.606	231.75
624.812	230.75
625.019	232.75
625.226	224.75
625.433	226.75
625.639	226.75
625.846	218.75
626.053	223.75
626.259	231.75
626.466	233.75
626.673	233.75
626.879	225.75
627.086	231.75
627.293	219.75
627.499	226.75
627.706	229.75
627.912	219.75
628.119	221.75
628.325	220.75
628.532	220.75
628.738	208.75
628.945	214.75
629.151	216.75
629.357	223.75
629.564	200.75
629.77	213.75
629.976	209.75
630.183	221.75
630.389	201.75
630.595	193.75
630.802	220.75
631.008	206.75
631.214	212.75
631.42	192.75
631.627	208.75
631.833	200.75
632.039	211.75
632.245	212.75
632.451	198.75
632.657	199.75
632.863	185.75
633.069	215.75
633.275	194.75
633.481	227.75
633.688	217.75
633.893	228.75
634.099	189.75
634.305	207.75
634.511	206.75
634.717	193.75
634.923	194.75
635.129	188.75
635.335	186.75
635.541	205.75
635.747	214.75
635.952	184.75
636.158	188.75
636.364	210.75
636.57	190.75
636.775	204.75
636.981	201.75
637.187	194.75
637.392	201.75
637.598	200.75
637.804	202.75
638.009	199.75
638.215	198.75
638.421	196.75
638.626	192.75
638.832	185.75
639.037	184.75
639.243	189.75
639.448	183.75
639.654	198.75
639.859	179.75
640.065	194.75
640.27	186.75
640.475	175.75
640.681	177.75
640.886	183.75
641.091	175.75
641.297	199.75
641.502	196.75
641.707	191.75
641.913	191.75
642.118	197.75
642.323	179.75
642.528	186.75
642.733	178.75
642.939	190.75
643.144	194.75
643.349	164.75
643.554	179.75
643.759	180.75
643.964	180.75
644.169	177.75
644.374	177.75
644.579	178.75
644.784	167.75
644.989	163.75
645.194	182.75
645.399	181.75
645.604	166.75
645.809	164.75
646.014	169.75
646.219	191.75
646.423	178.75
646.628	167.75
646.833	157.75
647.038	166.75
647.243	174.75
647.447	160.75
647.652	179.75
647.857	183.75
648.062	172.75
648.266	178.75
648.471	176.75
648.676	177.75
648.88	181.75
649.085	187.75
649.289	181.75
649.494	184.75
649.698	202.75
649.903	200.75
650.107	176.75
650.312	167.75
650.516	159.75
650.721	156.75
650.925	149.75
651.13	140.75
651.334	148.75
651.539	153.75
651.743	154.75
651.947	147.75
652.152	158.75
652.356	139.75
652.56	153.75
652.764	153.75
652.969	132.75
653.173	145.75
653.377	139.75
653.581	137.75
653.785	133.75
653.99	140.75
654.194	152.75
654.398	154.75
654.602	159.75
654.806	146.75
655.01	148.75
655.214	138.75
655.418	142.75
655.622	132.75
655.826	144.75
656.03	143.75
656.234	142.75
656.438	117.75
656.642	135.75
656.846	135.75
657.049	120.75
657.253	131.75
657.457	133.75
657.661	122.75
657.865	119.75
658.068	116.75
658.272	116.75
658.476	101.75
658.68	118.75
658.883	95.75
659.087	113.75
659.291	93.75
659.494	94.75
659.698	105.75
659.901	102.75
660.105	106.75
660.309	78.75
660.512	102.75
660.716	99.75
660.919	92.75
661.123	79.75
661.326	99.75
661.53	81.75
661.733	79.75
661.936	98.75
662.14	86.75
662.343	78.75
662.546	89.75
662.75	77.75
662.953	85.75
663.156	77.75
663.36	78.75
663.563	78.75
663.766	80.75
663.969	70.75
664.173	82.75
664.376	77.75
664.579	77.75
664.782	87.75
664.985	81.75
665.188	81.75
665.391	72.75
665.594	77.75
665.797	80.75
666	78.75
666.203	88.75
666.406	74.75
666.609	79.75
666.812	77.75
667.015	83.75
667.218	87.75
667.421	77.75
667.624	85.75
667.827	69.75
668.03	84.75
668.232	74.75
668.435	76.75
668.638	75.75
668.841	82.75
669.043	82.75
669.246	77.75
669.449	99.75
669.651	82.75
669.854	86.75
670.057	92.75
670.259	81.75
670.462	78.75
670.665	78.75
670.867	83.75
671.07	69.75
671.272	89.75
671.475	81.75
671.677	90.75
671.88	94.75
672.082	70.75
672.284	89.75
672.487	83.75
672.689	64.75
672.892	65.75
