Data from 1970.PennyLincolnUp.Lamp.En5.5.200Scan.071719.P1._HRD10591_15-13-49-842.txt Node
Date: Thu Jul 18 15:13:49 EDT 2019
User: cochatt
Spectrometer: HR+D1059
Trigger mode: 1
Integration Time (sec): 1.000000E-1
Scans to average: 1
Electric dark correction enabled: true
Nonlinearity correction enabled: false
Boxcar width: 0
XAxis mode: Wavelengths
Number of Pixels in Spectrum: 2048
>>>>>Begin Spectral Data<<<<<
223.165	-7.19
223.4	-7.19
223.635	-7.19
223.869	-17.19
224.104	-18.19
224.338	-14.19
224.573	-10.19
224.808	-27.19
225.042	-6.19
225.277	1.81
225.511	-10.19
225.746	15.81
225.98	-0.19
226.215	12.81
226.449	11.81
226.683	23.81
226.918	21.81
227.152	22.81
227.387	32.81
227.621	24.81
227.856	43.81
228.09	41.81
228.324	46.81
228.559	52.81
228.793	66.81
229.027	100.81
229.262	119.81
229.496	123.81
229.73	140.81
229.964	167.81
230.199	142.81
230.433	123.81
230.667	125.81
230.901	119.81
231.136	118.81
231.37	122.81
231.604	110.81
231.838	120.81
232.072	113.81
232.306	113.81
232.541	118.81
232.775	121.81
233.009	118.81
233.243	130.81
233.477	115.81
233.711	117.81
233.945	120.81
234.179	102.81
234.413	106.81
234.647	116.81
234.881	121.81
235.115	111.81
235.349	123.81
235.583	133.81
235.817	125.81
236.051	119.81
236.285	128.81
236.519	137.81
236.753	138.81
236.987	139.81
237.221	187.81
237.455	246.81
237.689	197.81
237.922	161.81
238.156	137.81
238.39	128.81
238.624	126.81
238.858	117.81
239.091	130.81
239.325	129.81
239.559	136.81
239.793	147.81
240.027	147.81
240.26	152.81
240.494	161.81
240.728	157.81
240.961	163.81
241.195	150.81
241.429	152.81
241.662	133.81
241.896	156.81
242.13	142.81
242.363	141.81
242.597	143.81
242.83	134.81
243.064	142.81
243.298	135.81
243.531	138.81
243.765	147.81
243.998	145.81
244.232	142.81
244.465	145.81
244.699	154.81
244.932	163.81
245.166	158.81
245.399	139.81
245.633	141.81
245.866	145.81
246.099	156.81
246.333	161.81
246.566	171.81
246.8	163.81
247.033	163.81
247.266	165.81
247.5	166.81
247.733	161.81
247.966	171.81
248.2	183.81
248.433	181.81
248.666	212.81
248.899	190.81
249.133	220.81
249.366	236.81
249.599	205.81
249.832	201.81
250.066	198.81
250.299	194.81
250.532	197.81
250.765	207.81
250.998	233.81
251.231	233.81
251.465	228.81
251.698	217.81
251.931	226.81
252.164	231.81
252.397	204.81
252.63	209.81
252.863	209.81
253.096	225.81
253.329	245.81
253.562	236.81
253.795	236.81
254.028	228.81
254.261	233.81
254.494	236.81
254.727	261.81
254.96	300.81
255.193	283.81
255.426	277.81
255.659	250.81
255.892	269.81
256.124	242.81
256.357	262.81
256.59	242.81
256.823	232.81
257.056	233.81
257.289	223.81
257.521	226.81
257.754	228.81
257.987	215.81
258.22	231.81
258.452	235.81
258.685	232.81
258.918	218.81
259.151	215.81
259.383	238.81
259.616	224.81
259.849	238.81
260.081	236.81
260.314	246.81
260.547	269.81
260.779	266.81
261.012	254.81
261.244	217.81
261.477	254.81
261.71	221.81
261.942	217.81
262.175	241.81
262.407	220.81
262.64	229.81
262.872	228.81
263.105	220.81
263.337	205.81
263.57	216.81
263.802	215.81
264.035	229.81
264.267	220.81
264.499	190.81
264.732	199.81
264.964	217.81
265.197	215.81
265.429	197.81
265.661	199.81
265.894	218.81
266.126	206.81
266.358	205.81
266.591	233.81
266.823	229.81
267.055	229.81
267.287	246.81
267.52	227.81
267.752	222.81
267.984	229.81
268.216	212.81
268.448	229.81
268.681	239.81
268.913	247.81
269.145	261.81
269.377	264.81
269.609	281.81
269.841	268.81
270.073	265.81
270.306	315.81
270.538	307.81
270.77	300.81
271.002	311.81
271.234	283.81
271.466	290.81
271.698	319.81
271.93	327.81
272.162	318.81
272.394	306.81
272.626	314.81
272.858	293.81
273.09	297.81
273.322	265.81
273.553	278.81
273.785	277.81
274.017	258.81
274.249	266.81
274.481	268.81
274.713	251.81
274.945	245.81
275.176	246.81
275.408	251.81
275.64	277.81
275.872	271.81
276.104	266.81
276.335	265.81
276.567	275.81
276.799	288.81
277.031	299.81
277.262	299.81
277.494	329.81
277.726	299.81
277.957	289.81
278.189	278.81
278.421	279.81
278.652	269.81
278.884	276.81
279.115	263.81
279.347	251.81
279.579	260.81
279.81	267.81
280.042	273.81
280.273	243.81
280.505	253.81
280.736	263.81
280.968	253.81
281.199	247.81
281.431	248.81
281.662	249.81
281.894	254.81
282.125	257.81
282.356	268.81
282.588	308.81
282.819	289.81
283.051	279.81
283.282	262.81
283.513	275.81
283.745	279.81
283.976	279.81
284.207	249.81
284.439	251.81
284.67	266.81
284.901	242.81
285.132	280.81
285.364	266.81
285.595	285.81
285.826	281.81
286.057	257.81
286.288	270.81
286.52	261.81
286.751	285.81
286.982	259.81
287.213	254.81
287.444	286.81
287.675	272.81
287.906	270.81
288.138	293.81
288.369	286.81
288.6	278.81
288.831	274.81
289.062	277.81
289.293	271.81
289.524	283.81
289.755	270.81
289.986	262.81
290.217	286.81
290.448	268.81
290.679	263.81
290.91	277.81
291.141	281.81
291.371	282.81
291.602	269.81
291.833	276.81
292.064	263.81
292.295	270.81
292.526	272.81
292.757	259.81
292.987	288.81
293.218	276.81
293.449	284.81
293.68	278.81
293.91	283.81
294.141	268.81
294.372	267.81
294.603	276.81
294.833	277.81
295.064	279.81
295.295	290.81
295.525	283.81
295.756	281.81
295.987	280.81
296.217	299.81
296.448	323.81
296.679	302.81
296.909	291.81
297.14	284.81
297.37	296.81
297.601	274.81
297.831	266.81
298.062	277.81
298.292	291.81
298.523	301.81
298.753	295.81
298.984	285.81
299.214	305.81
299.445	281.81
299.675	287.81
299.905	284.81
300.136	302.81
300.366	304.81
300.597	285.81
300.827	302.81
301.057	311.81
301.288	324.81
301.518	310.81
301.748	291.81
301.979	325.81
302.209	285.81
302.439	319.81
302.669	298.81
302.9	292.81
303.13	297.81
303.36	323.81
303.59	297.81
303.82	343.81
304.051	328.81
304.281	319.81
304.511	327.81
304.741	305.81
304.971	311.81
305.201	307.81
305.431	325.81
305.661	305.81
305.891	315.81
306.121	320.81
306.352	318.81
306.582	329.81
306.812	324.81
307.042	313.81
307.272	307.81
307.502	325.81
307.731	332.81
307.961	307.81
308.191	325.81
308.421	348.81
308.651	328.81
308.881	314.81
309.111	339.81
309.341	341.81
309.571	349.81
309.8	343.81
310.03	338.81
310.26	383.81
310.49	345.81
310.72	375.81
310.949	383.81
311.179	403.81
311.409	391.81
311.639	364.81
311.868	354.81
312.098	357.81
312.328	383.81
312.557	389.81
312.787	407.81
313.017	411.81
313.246	373.81
313.476	359.81
313.706	372.81
313.935	371.81
314.165	398.81
314.394	407.81
314.624	392.81
314.853	395.81
315.083	374.81
315.312	357.81
315.542	365.81
315.771	349.81
316.001	361.81
316.23	358.81
316.46	357.81
316.689	354.81
316.919	349.81
317.148	382.81
317.377	377.81
317.607	381.81
317.836	371.81
318.065	379.81
318.295	364.81
318.524	361.81
318.753	369.81
318.983	373.81
319.212	349.81
319.441	377.81
319.67	373.81
319.9	370.81
320.129	375.81
320.358	381.81
320.587	378.81
320.816	371.81
321.046	376.81
321.275	382.81
321.504	383.81
321.733	399.81
321.962	409.81
322.191	413.81
322.42	412.81
322.649	442.81
322.878	453.81
323.108	464.81
323.337	490.81
323.566	513.81
323.795	526.81
324.024	587.81
324.253	678.81
324.482	993.81
324.71	1519.81
324.939	2192.81
325.168	1905.81
325.397	978.81
325.626	691.81
325.855	552.81
326.084	529.81
326.313	527.81
326.542	533.81
326.77	554.81
326.999	629.81
327.228	888.81
327.457	1337.81
327.686	1646.81
327.914	1103.81
328.143	727.81
328.372	647.81
328.6	606.81
328.829	551.81
329.058	580.81
329.287	595.81
329.515	550.81
329.744	519.81
329.972	515.81
330.201	537.81
330.43	558.81
330.658	592.81
330.887	630.81
331.115	609.81
331.344	539.81
331.572	502.81
331.801	494.81
332.03	495.81
332.258	473.81
332.486	461.81
332.715	414.81
332.943	435.81
333.172	447.81
333.4	469.81
333.629	467.81
333.857	469.81
334.085	463.81
334.314	493.81
334.542	509.81
334.771	547.81
334.999	493.81
335.227	463.81
335.455	442.81
335.684	449.81
335.912	435.81
336.14	449.81
336.369	422.81
336.597	426.81
336.825	432.81
337.053	428.81
337.281	417.81
337.51	409.81
337.738	431.81
337.966	413.81
338.194	438.81
338.422	447.81
338.65	426.81
338.878	417.81
339.106	405.81
339.334	434.81
339.562	441.81
339.79	428.81
340.018	428.81
340.246	420.81
340.474	422.81
340.702	427.81
340.93	423.81
341.158	419.81
341.386	417.81
341.614	427.81
341.842	426.81
342.07	424.81
342.298	407.81
342.526	423.81
342.754	405.81
342.981	394.81
343.209	405.81
343.437	411.81
343.665	408.81
343.893	421.81
344.12	400.81
344.348	429.81
344.576	428.81
344.804	440.81
345.031	428.81
345.259	439.81
345.487	434.81
345.714	422.81
345.942	454.81
346.17	410.81
346.397	417.81
346.625	410.81
346.853	412.81
347.08	417.81
347.308	399.81
347.535	439.81
347.763	434.81
347.99	428.81
348.218	412.81
348.445	455.81
348.673	432.81
348.9	418.81
349.128	412.81
349.355	395.81
349.583	411.81
349.81	427.81
350.037	394.81
350.265	399.81
350.492	426.81
350.72	411.81
350.947	403.81
351.174	422.81
351.402	425.81
351.629	430.81
351.856	433.81
352.083	415.81
352.311	437.81
352.538	449.81
352.765	439.81
352.992	430.81
353.22	431.81
353.447	428.81
353.674	414.81
353.901	431.81
354.128	389.81
354.355	383.81
354.583	386.81
354.81	382.81
355.037	380.81
355.264	381.81
355.491	391.81
355.718	396.81
355.945	393.81
356.172	391.81
356.399	389.81
356.626	393.81
356.853	393.81
357.08	393.81
357.307	385.81
357.534	392.81
357.761	403.81
357.988	403.81
358.215	398.81
358.441	385.81
358.668	399.81
358.895	385.81
359.122	389.81
359.349	415.81
359.576	420.81
359.802	426.81
360.029	479.81
360.256	484.81
360.483	474.81
360.709	422.81
360.936	435.81
361.163	400.81
361.39	437.81
361.616	429.81
361.843	425.81
362.07	413.81
362.296	430.81
362.523	430.81
362.749	415.81
362.976	423.81
363.203	425.81
363.429	430.81
363.656	407.81
363.882	389.81
364.109	417.81
364.335	416.81
364.562	410.81
364.788	406.81
365.015	426.81
365.241	424.81
365.468	419.81
365.694	411.81
365.92	422.81
366.147	412.81
366.373	395.81
366.599	409.81
366.826	428.81
367.052	387.81
367.278	421.81
367.505	419.81
367.731	416.81
367.957	420.81
368.184	413.81
368.41	420.81
368.636	417.81
368.862	443.81
369.089	428.81
369.315	414.81
369.541	406.81
369.767	404.81
369.993	405.81
370.219	406.81
370.445	418.81
370.672	412.81
370.898	403.81
371.124	410.81
371.35	398.81
371.576	389.81
371.802	427.81
372.028	413.81
372.254	396.81
372.48	392.81
372.706	427.81
372.932	405.81
373.158	414.81
373.384	388.81
373.61	404.81
373.835	422.81
374.061	433.81
374.287	418.81
374.513	423.81
374.739	405.81
374.965	399.81
375.191	412.81
375.416	411.81
375.642	413.81
375.868	425.81
376.094	411.81
376.319	406.81
376.545	417.81
376.771	412.81
376.997	410.81
377.222	417.81
377.448	407.81
377.674	405.81
377.899	414.81
378.125	420.81
378.35	410.81
378.576	409.81
378.802	399.81
379.027	414.81
379.253	422.81
379.478	400.81
379.704	396.81
379.929	413.81
380.155	419.81
380.38	415.81
380.606	426.81
380.831	412.81
381.057	424.81
381.282	434.81
381.507	420.81
381.733	412.81
381.958	410.81
382.184	437.81
382.409	419.81
382.634	429.81
382.86	429.81
383.085	452.81
383.31	415.81
383.535	423.81
383.761	433.81
383.986	451.81
384.211	445.81
384.436	433.81
384.662	432.81
384.887	426.81
385.112	430.81
385.337	440.81
385.562	438.81
385.787	441.81
386.013	451.81
386.238	461.81
386.463	455.81
386.688	460.81
386.913	450.81
387.138	458.81
387.363	440.81
387.588	463.81
387.813	428.81
388.038	448.81
388.263	442.81
388.488	438.81
388.713	429.81
388.938	461.81
389.163	457.81
389.387	431.81
389.612	443.81
389.837	456.81
390.062	459.81
390.287	462.81
390.512	443.81
390.736	433.81
390.961	436.81
391.186	431.81
391.411	451.81
391.636	453.81
391.86	445.81
392.085	477.81
392.31	458.81
392.534	467.81
392.759	460.81
392.984	459.81
393.208	463.81
393.433	464.81
393.658	463.81
393.882	453.81
394.107	454.81
394.331	469.81
394.556	440.81
394.78	451.81
395.005	456.81
395.229	464.81
395.454	460.81
395.678	471.81
395.903	467.81
396.127	493.81
396.352	493.81
396.576	470.81
396.801	475.81
397.025	493.81
397.249	482.81
397.474	481.81
397.698	470.81
397.922	513.81
398.147	485.81
398.371	516.81
398.595	497.81
398.82	485.81
399.044	554.81
399.268	523.81
399.492	528.81
399.717	589.81
399.941	590.81
400.165	634.81
400.389	633.81
400.613	596.81
400.837	561.81
401.062	510.81
401.286	501.81
401.51	505.81
401.734	498.81
401.958	500.81
402.182	507.81
402.406	547.81
402.63	543.81
402.854	525.81
403.078	524.81
403.302	521.81
403.526	535.81
403.75	527.81
403.974	523.81
404.198	530.81
404.422	524.81
404.645	535.81
404.869	547.81
405.093	576.81
405.317	609.81
405.541	640.81
405.765	599.81
405.988	566.81
406.212	559.81
406.436	586.81
406.66	627.81
406.883	577.81
407.107	599.81
407.331	637.81
407.555	678.81
407.778	695.81
408.002	644.81
408.226	596.81
408.449	582.81
408.673	583.81
408.896	632.81
409.12	639.81
409.344	639.81
409.567	564.81
409.791	543.81
410.014	545.81
410.238	552.81
410.461	550.81
410.685	567.81
410.908	558.81
411.132	602.81
411.355	637.81
411.578	631.81
411.802	551.81
412.025	552.81
412.249	556.81
412.472	552.81
412.695	600.81
412.919	607.81
413.142	559.81
413.365	552.81
413.589	540.81
413.812	537.81
414.035	498.81
414.258	495.81
414.482	525.81
414.705	524.81
414.928	501.81
415.151	518.81
415.374	514.81
415.597	518.81
415.821	533.81
416.044	523.81
416.267	509.81
416.49	505.81
416.713	532.81
416.936	497.81
417.159	515.81
417.382	517.81
417.605	529.81
417.828	546.81
418.051	547.81
418.274	533.81
418.497	521.81
418.72	536.81
418.943	520.81
419.166	539.81
419.389	551.81
419.611	534.81
419.834	542.81
420.057	543.81
420.28	551.81
420.503	538.81
420.726	538.81
420.948	595.81
421.171	612.81
421.394	616.81
421.617	558.81
421.839	557.81
422.062	559.81
422.285	564.81
422.507	630.81
422.73	699.81
422.953	686.81
423.175	581.81
423.398	573.81
423.621	561.81
423.843	599.81
424.066	582.81
424.288	584.81
424.511	617.81
424.733	679.81
424.956	725.81
425.178	731.81
425.401	687.81
425.623	744.81
425.846	650.81
426.068	606.81
426.291	593.81
426.513	585.81
426.735	607.81
426.958	657.81
427.18	714.81
427.402	843.81
427.625	909.81
427.847	843.81
428.069	758.81
428.292	651.81
428.514	614.81
428.736	579.81
428.958	575.81
429.181	563.81
429.403	545.81
429.625	576.81
429.847	591.81
430.069	662.81
430.292	653.81
430.514	602.81
430.736	569.81
430.958	563.81
431.18	543.81
431.402	510.81
431.624	524.81
431.846	519.81
432.068	495.81
432.29	533.81
432.512	529.81
432.734	522.81
432.956	525.81
433.178	525.81
433.4	531.81
433.622	514.81
433.844	515.81
434.066	498.81
434.287	540.81
434.509	525.81
434.731	530.81
434.953	533.81
435.175	565.81
435.397	574.81
435.618	590.81
435.84	636.81
436.062	741.81
436.284	778.81
436.505	683.81
436.727	620.81
436.949	592.81
437.17	555.81
437.392	580.81
437.614	597.81
437.835	598.81
438.057	708.81
438.278	833.81
438.5	816.81
438.721	889.81
438.943	844.81
439.165	686.81
439.386	623.81
439.608	619.81
439.829	602.81
440.05	630.81
440.272	682.81
440.493	642.81
440.715	625.81
440.936	561.81
441.158	564.81
441.379	559.81
441.6	585.81
441.822	589.81
442.043	655.81
442.264	724.81
442.486	773.81
442.707	667.81
442.928	634.81
443.149	634.81
443.371	646.81
443.592	678.81
443.813	773.81
444.034	846.81
444.255	698.81
444.476	629.81
444.698	609.81
444.919	598.81
445.14	717.81
445.361	661.81
445.582	639.81
445.803	711.81
446.024	805.81
446.245	801.81
446.466	738.81
446.687	660.81
446.908	589.81
447.129	559.81
447.35	591.81
447.571	564.81
447.792	582.81
448.013	569.81
448.234	577.81
448.455	629.81
448.675	768.81
448.896	845.81
449.117	755.81
449.338	692.81
449.559	810.81
449.779	893.81
450	726.81
450.221	633.81
450.442	568.81
450.662	565.81
450.883	542.81
451.104	584.81
451.324	565.81
451.545	526.81
451.766	514.81
451.986	505.81
452.207	489.81
452.428	488.81
452.648	487.81
452.869	505.81
453.089	504.81
453.31	514.81
453.53	520.81
453.751	486.81
453.971	487.81
454.192	525.81
454.412	516.81
454.633	502.81
454.853	511.81
455.073	489.81
455.294	526.81
455.514	587.81
455.734	595.81
455.955	517.81
456.175	493.81
456.395	489.81
456.616	458.81
456.836	469.81
457.056	461.81
457.276	454.81
457.497	471.81
457.717	461.81
457.937	467.81
458.157	507.81
458.377	491.81
458.598	508.81
458.818	582.81
459.038	670.81
459.258	645.81
459.478	582.81
459.698	555.81
459.918	520.81
460.138	538.81
460.358	513.81
460.578	519.81
460.798	519.81
461.018	544.81
461.238	500.81
461.458	512.81
461.678	520.81
461.898	502.81
462.118	521.81
462.338	531.81
462.558	533.81
462.777	545.81
462.997	557.81
463.217	539.81
463.437	559.81
463.657	557.81
463.876	533.81
464.096	547.81
464.316	547.81
464.536	540.81
464.755	549.81
464.975	597.81
465.195	623.81
465.414	675.81
465.634	597.81
465.854	575.81
466.073	553.81
466.293	524.81
466.512	518.81
466.732	512.81
466.951	521.81
467.171	515.81
467.391	509.81
467.61	519.81
467.829	523.81
468.049	542.81
468.268	518.81
468.488	478.81
468.707	512.81
468.927	503.81
469.146	499.81
469.365	497.81
469.585	483.81
469.804	509.81
470.023	517.81
470.243	521.81
470.462	530.81
470.681	545.81
470.901	530.81
471.12	525.81
471.339	535.81
471.558	513.81
471.777	539.81
471.997	478.81
472.216	513.81
472.435	561.81
472.654	562.81
472.873	516.81
473.092	524.81
473.311	516.81
473.53	521.81
473.749	539.81
473.968	588.81
474.187	678.81
474.406	691.81
474.625	603.81
474.844	555.81
475.063	545.81
475.282	527.81
475.501	517.81
475.72	538.81
475.939	531.81
476.158	537.81
476.377	551.81
476.596	533.81
476.814	565.81
477.033	561.81
477.252	569.81
477.471	569.81
477.69	602.81
477.908	560.81
478.127	550.81
478.346	585.81
478.564	571.81
478.783	583.81
479.002	588.81
479.22	592.81
479.439	591.81
479.658	622.81
479.876	636.81
480.095	629.81
480.313	653.81
480.532	649.81
480.751	619.81
480.969	645.81
481.188	713.81
481.406	750.81
481.624	674.81
481.843	637.81
482.061	643.81
482.28	618.81
482.498	633.81
482.717	614.81
482.935	631.81
483.153	631.81
483.372	629.81
483.59	641.81
483.808	599.81
484.027	612.81
484.245	630.81
484.463	625.81
484.681	643.81
484.9	639.81
485.118	650.81
485.336	645.81
485.554	648.81
485.772	651.81
485.99	633.81
486.209	649.81
486.427	651.81
486.645	646.81
486.863	688.81
487.081	677.81
487.299	681.81
487.517	656.81
487.735	677.81
487.953	697.81
488.171	677.81
488.389	665.81
488.607	698.81
488.825	675.81
489.043	671.81
489.261	708.81
489.479	678.81
489.696	697.81
489.914	711.81
490.132	706.81
490.35	712.81
490.568	717.81
490.786	723.81
491.003	723.81
491.221	755.81
491.439	775.81
491.657	769.81
491.874	783.81
492.092	781.81
492.31	787.81
492.527	786.81
492.745	778.81
492.963	798.81
493.18	791.81
493.398	812.81
493.615	822.81
493.833	802.81
494.05	827.81
494.268	789.81
494.485	821.81
494.703	819.81
494.92	813.81
495.138	807.81
495.355	806.81
495.573	794.81
495.79	806.81
496.008	830.81
496.225	825.81
496.442	818.81
496.66	808.81
496.877	839.81
497.094	826.81
497.312	815.81
497.529	837.81
497.746	855.81
497.963	851.81
498.181	875.81
498.398	873.81
498.615	869.81
498.832	865.81
499.049	889.81
499.267	912.81
499.484	940.81
499.701	936.81
499.918	971.81
500.135	991.81
500.352	1000.81
500.569	1006.81
500.786	1062.81
501.003	1041.81
501.22	1028.81
501.437	994.81
501.654	980.81
501.871	1004.81
502.088	936.81
502.305	914.81
502.522	882.81
502.739	872.81
502.956	845.81
503.172	850.81
503.389	823.81
503.606	851.81
503.823	843.81
504.04	859.81
504.256	833.81
504.473	807.81
504.69	802.81
504.907	798.81
505.123	789.81
505.34	799.81
505.557	799.81
505.773	778.81
505.99	801.81
506.207	763.81
506.423	766.81
506.64	764.81
506.856	759.81
507.073	734.81
507.289	756.81
507.506	750.81
507.722	782.81
507.939	794.81
508.155	781.81
508.372	761.81
508.588	733.81
508.805	731.81
509.021	735.81
509.238	749.81
509.454	743.81
509.67	769.81
509.887	732.81
510.103	735.81
510.319	771.81
510.536	869.81
510.752	1413.81
510.968	1166.81
511.184	778.81
511.401	728.81
511.617	725.81
511.833	704.81
512.049	717.81
512.265	710.81
512.481	706.81
512.698	706.81
512.914	702.81
513.13	698.81
513.346	738.81
513.562	694.81
513.778	706.81
513.994	709.81
514.21	752.81
514.426	734.81
514.642	802.81
514.858	825.81
515.074	845.81
515.29	1051.81
515.506	1545.81
515.721	1300.81
515.937	856.81
516.153	785.81
516.369	769.81
516.585	721.81
516.801	712.81
517.016	714.81
517.232	719.81
517.448	730.81
517.664	700.81
517.879	716.81
518.095	701.81
518.311	710.81
518.527	706.81
518.742	714.81
518.958	695.81
519.173	691.81
519.389	737.81
519.605	696.81
519.82	714.81
520.036	714.81
520.251	730.81
520.467	775.81
520.682	765.81
520.898	783.81
521.113	805.81
521.329	841.81
521.544	932.81
521.76	1233.81
521.975	2009.81
522.19	1928.81
522.406	1084.81
522.621	833.81
522.836	739.81
523.052	716.81
523.267	691.81
523.482	645.81
523.698	637.81
523.913	649.81
524.128	665.81
524.343	635.81
524.559	626.81
524.774	641.81
524.989	611.81
525.204	647.81
525.419	607.81
525.634	590.81
525.849	593.81
526.064	588.81
526.28	585.81
526.495	599.81
526.71	579.81
526.925	563.81
527.14	566.81
527.355	577.81
527.57	555.81
527.785	576.81
527.999	567.81
528.214	586.81
528.429	556.81
528.644	574.81
528.859	586.81
529.074	579.81
529.289	586.81
529.503	711.81
529.718	701.81
529.933	613.81
530.148	597.81
530.363	570.81
530.577	565.81
530.792	582.81
531.007	573.81
531.221	554.81
531.436	571.81
531.651	557.81
531.865	566.81
532.08	542.81
532.295	546.81
532.509	568.81
532.724	533.81
532.938	538.81
533.153	531.81
533.367	553.81
533.582	541.81
533.796	526.81
534.011	534.81
534.225	546.81
534.44	539.81
534.654	518.81
534.868	535.81
535.083	540.81
535.297	540.81
535.511	540.81
535.726	550.81
535.94	548.81
536.154	555.81
536.369	544.81
536.583	529.81
536.797	522.81
537.011	514.81
537.225	515.81
537.44	511.81
537.654	513.81
537.868	505.81
538.082	520.81
538.296	524.81
538.51	518.81
538.724	531.81
538.938	517.81
539.153	509.81
539.367	522.81
539.581	541.81
539.795	538.81
540.009	511.81
540.222	494.81
540.436	517.81
540.65	490.81
540.864	509.81
541.078	539.81
541.292	525.81
541.506	516.81
541.72	508.81
541.934	530.81
542.147	526.81
542.361	515.81
542.575	500.81
542.789	520.81
543.002	503.81
543.216	518.81
543.43	530.81
543.644	503.81
543.857	531.81
544.071	493.81
544.285	525.81
544.498	521.81
544.712	503.81
544.925	519.81
545.139	493.81
545.352	506.81
545.566	525.81
545.779	523.81
545.993	501.81
546.206	507.81
546.42	514.81
546.633	497.81
546.847	510.81
547.06	473.81
547.274	497.81
547.487	485.81
547.7	500.81
547.914	493.81
548.127	515.81
548.34	506.81
548.554	504.81
548.767	496.81
548.98	485.81
549.193	503.81
549.407	486.81
549.62	491.81
549.833	492.81
550.046	505.81
550.259	474.81
550.473	471.81
550.686	491.81
550.899	470.81
551.112	466.81
551.325	466.81
551.538	460.81
551.751	463.81
551.964	487.81
552.177	477.81
552.39	474.81
552.603	477.81
552.816	488.81
553.029	478.81
553.242	489.81
553.455	478.81
553.667	499.81
553.88	499.81
554.093	488.81
554.306	503.81
554.519	507.81
554.732	476.81
554.944	470.81
555.157	498.81
555.37	454.81
555.583	465.81
555.795	470.81
556.008	459.81
556.221	448.81
556.433	435.81
556.646	460.81
556.859	447.81
557.071	445.81
557.284	420.81
557.496	430.81
557.709	468.81
557.921	451.81
558.134	445.81
558.346	470.81
558.559	442.81
558.771	446.81
558.984	438.81
559.196	469.81
559.409	440.81
559.621	437.81
559.833	440.81
560.046	437.81
560.258	428.81
560.47	425.81
560.683	427.81
560.895	412.81
561.107	428.81
561.32	430.81
561.532	437.81
561.744	441.81
561.956	429.81
562.168	436.81
562.381	429.81
562.593	431.81
562.805	443.81
563.017	446.81
563.229	425.81
563.441	430.81
563.653	443.81
563.865	439.81
564.077	456.81
564.289	419.81
564.501	444.81
564.713	455.81
564.925	444.81
565.137	453.81
565.349	446.81
565.561	463.81
565.773	444.81
565.985	474.81
566.197	486.81
566.408	470.81
566.62	505.81
566.832	490.81
567.044	484.81
567.255	487.81
567.467	518.81
567.679	499.81
567.891	520.81
568.102	514.81
568.314	497.81
568.526	471.81
568.737	501.81
568.949	467.81
569.161	457.81
569.372	453.81
569.584	434.81
569.795	430.81
570.007	443.81
570.218	485.81
570.43	481.81
570.641	421.81
570.853	403.81
571.064	413.81
571.276	411.81
571.487	418.81
571.698	402.81
571.91	419.81
572.121	397.81
572.333	399.81
572.544	392.81
572.755	390.81
572.966	400.81
573.178	377.81
573.389	387.81
573.6	379.81
573.811	395.81
574.023	384.81
574.234	367.81
574.445	379.81
574.656	391.81
574.867	385.81
575.078	375.81
575.289	386.81
575.501	373.81
575.712	364.81
575.923	359.81
576.134	380.81
576.345	367.81
576.556	350.81
576.767	362.81
576.978	365.81
577.188	368.81
577.399	367.81
577.61	365.81
577.821	366.81
578.032	352.81
578.243	401.81
578.454	645.81
578.665	469.81
578.875	374.81
579.086	359.81
579.297	349.81
579.508	362.81
579.718	365.81
579.929	358.81
580.14	340.81
580.35	356.81
580.561	329.81
580.772	339.81
580.982	324.81
581.193	342.81
581.403	335.81
581.614	346.81
581.825	350.81
582.035	335.81
582.246	327.81
582.456	310.81
582.667	350.81
582.877	346.81
583.087	334.81
583.298	329.81
583.508	324.81
583.719	338.81
583.929	334.81
584.139	350.81
584.35	334.81
584.56	338.81
584.77	334.81
584.981	311.81
585.191	330.81
585.401	341.81
585.611	340.81
585.821	320.81
586.032	341.81
586.242	336.81
586.452	332.81
586.662	323.81
586.872	315.81
587.082	315.81
587.292	325.81
587.502	313.81
587.713	333.81
587.923	322.81
588.133	322.81
588.343	317.81
588.553	327.81
588.762	342.81
588.972	315.81
589.182	321.81
589.392	341.81
589.602	340.81
589.812	310.81
590.022	324.81
590.232	336.81
590.441	323.81
590.651	326.81
590.861	309.81
591.071	325.81
591.281	341.81
591.49	316.81
591.7	340.81
591.91	318.81
592.119	317.81
592.329	301.81
592.539	349.81
592.748	357.81
592.958	334.81
593.167	317.81
593.377	320.81
593.587	325.81
593.796	332.81
594.006	312.81
594.215	328.81
594.424	332.81
594.634	337.81
594.843	331.81
595.053	345.81
595.262	310.81
595.472	331.81
595.681	334.81
595.89	298.81
596.1	318.81
596.309	310.81
596.518	302.81
596.727	310.81
596.937	288.81
597.146	285.81
597.355	302.81
597.564	296.81
597.774	289.81
597.983	301.81
598.192	296.81
598.401	289.81
598.61	291.81
598.819	283.81
599.028	286.81
599.237	283.81
599.446	292.81
599.655	275.81
599.864	293.81
600.073	293.81
600.282	281.81
600.491	285.81
600.7	301.81
600.909	273.81
601.118	274.81
601.327	274.81
601.536	285.81
601.745	298.81
601.953	268.81
602.162	289.81
602.371	267.81
602.58	264.81
602.789	277.81
602.997	280.81
603.206	268.81
603.415	276.81
603.623	286.81
603.832	296.81
604.041	286.81
604.249	274.81
604.458	271.81
604.666	264.81
604.875	241.81
605.084	275.81
605.292	265.81
605.501	261.81
605.709	269.81
605.918	272.81
606.126	279.81
606.334	282.81
606.543	294.81
606.751	279.81
606.96	276.81
607.168	261.81
607.376	277.81
607.585	266.81
607.793	280.81
608.001	261.81
608.21	291.81
608.418	273.81
608.626	269.81
608.834	271.81
609.043	275.81
609.251	269.81
609.459	269.81
609.667	270.81
609.875	277.81
610.083	269.81
610.291	281.81
610.499	260.81
610.707	261.81
610.916	262.81
611.124	276.81
611.332	283.81
611.54	267.81
611.748	259.81
611.955	283.81
612.163	265.81
612.371	260.81
612.579	252.81
612.787	280.81
612.995	266.81
613.203	277.81
613.411	261.81
613.618	236.81
613.826	249.81
614.034	257.81
614.242	235.81
614.449	273.81
614.657	255.81
614.865	257.81
615.072	258.81
615.28	265.81
615.488	235.81
615.695	259.81
615.903	256.81
616.111	251.81
616.318	237.81
616.526	253.81
616.733	272.81
616.941	261.81
617.148	242.81
617.356	246.81
617.563	254.81
617.771	261.81
617.978	241.81
618.185	251.81
618.393	256.81
618.6	263.81
618.807	232.81
619.015	247.81
619.222	267.81
619.429	253.81
619.637	261.81
619.844	260.81
620.051	254.81
620.258	249.81
620.466	249.81
620.673	232.81
620.88	238.81
621.087	230.81
621.294	246.81
621.501	243.81
621.708	236.81
621.915	241.81
622.122	259.81
622.329	232.81
622.536	257.81
622.743	251.81
622.95	248.81
623.157	239.81
623.364	232.81
623.571	227.81
623.778	233.81
623.985	230.81
624.192	245.81
624.399	250.81
624.606	232.81
624.812	223.81
625.019	225.81
625.226	239.81
625.433	223.81
625.639	229.81
625.846	232.81
626.053	221.81
626.259	222.81
626.466	213.81
626.673	207.81
626.879	203.81
627.086	234.81
627.293	233.81
627.499	217.81
627.706	225.81
627.912	232.81
628.119	212.81
628.325	229.81
628.532	220.81
628.738	227.81
628.945	200.81
629.151	210.81
629.357	226.81
629.564	221.81
629.77	207.81
629.976	203.81
630.183	213.81
630.389	209.81
630.595	211.81
630.802	211.81
631.008	210.81
631.214	222.81
631.42	213.81
631.627	230.81
631.833	201.81
632.039	211.81
632.245	207.81
632.451	194.81
632.657	204.81
632.863	209.81
633.069	198.81
633.275	191.81
633.481	199.81
633.688	198.81
633.893	211.81
634.099	199.81
634.305	213.81
634.511	197.81
634.717	185.81
634.923	206.81
635.129	209.81
635.335	214.81
635.541	206.81
635.747	171.81
635.952	197.81
636.158	211.81
636.364	199.81
636.57	217.81
636.775	191.81
636.981	200.81
637.187	213.81
637.392	197.81
637.598	183.81
637.804	191.81
638.009	194.81
638.215	192.81
638.421	198.81
638.626	193.81
638.832	187.81
639.037	199.81
639.243	173.81
639.448	189.81
639.654	189.81
639.859	181.81
640.065	189.81
640.27	184.81
640.475	186.81
640.681	182.81
640.886	189.81
641.091	196.81
641.297	185.81
641.502	192.81
641.707	186.81
641.913	188.81
642.118	185.81
642.323	174.81
642.528	183.81
642.733	181.81
642.939	183.81
643.144	196.81
643.349	179.81
643.554	175.81
643.759	181.81
643.964	172.81
644.169	176.81
644.374	169.81
644.579	164.81
644.784	182.81
644.989	174.81
645.194	159.81
645.399	187.81
645.604	169.81
645.809	183.81
646.014	176.81
646.219	172.81
646.423	185.81
646.628	174.81
646.833	170.81
647.038	173.81
647.243	193.81
647.447	185.81
647.652	169.81
647.857	178.81
648.062	181.81
648.266	174.81
648.471	182.81
648.676	177.81
648.88	175.81
649.085	173.81
649.289	185.81
649.494	165.81
649.698	191.81
649.903	189.81
650.107	190.81
650.312	166.81
650.516	177.81
650.721	163.81
650.925	163.81
651.13	172.81
651.334	172.81
651.539	167.81
651.743	162.81
651.947	161.81
652.152	162.81
652.356	149.81
652.56	145.81
652.764	151.81
652.969	155.81
653.173	157.81
653.377	149.81
653.581	141.81
653.785	152.81
653.99	142.81
654.194	152.81
654.398	136.81
654.602	155.81
654.806	149.81
655.01	142.81
655.214	145.81
655.418	142.81
655.622	134.81
655.826	149.81
656.03	137.81
656.234	125.81
656.438	123.81
656.642	126.81
656.846	134.81
657.049	124.81
657.253	120.81
657.457	131.81
657.661	125.81
657.865	115.81
658.068	118.81
658.272	117.81
658.476	109.81
658.68	108.81
658.883	108.81
659.087	117.81
659.291	103.81
659.494	94.81
659.698	83.81
659.901	91.81
660.105	102.81
660.309	110.81
660.512	91.81
660.716	89.81
660.919	98.81
661.123	100.81
661.326	91.81
661.53	107.81
661.733	94.81
661.936	107.81
662.14	95.81
662.343	73.81
662.546	88.81
662.75	88.81
662.953	82.81
663.156	97.81
663.36	80.81
663.563	91.81
663.766	95.81
663.969	78.81
664.173	84.81
664.376	73.81
664.579	86.81
664.782	73.81
664.985	84.81
665.188	86.81
665.391	93.81
665.594	99.81
665.797	96.81
666	93.81
666.203	89.81
666.406	84.81
666.609	86.81
666.812	84.81
667.015	82.81
667.218	93.81
667.421	87.81
667.624	80.81
667.827	79.81
668.03	88.81
668.232	80.81
668.435	87.81
668.638	86.81
668.841	71.81
669.043	97.81
669.246	105.81
669.449	79.81
669.651	76.81
669.854	78.81
670.057	85.81
670.259	86.81
670.462	106.81
670.665	82.81
670.867	89.81
671.07	68.81
671.272	84.81
671.475	87.81
671.677	75.81
671.88	84.81
672.082	76.81
672.284	84.81
672.487	79.81
672.689	69.81
672.892	71.81
