Data from 1970.PennyLincolnUp.Lamp.En5.5.200Scan.071719.P1._HRD10591_15-15-23-841.txt Node
Date: Thu Jul 18 15:15:23 EDT 2019
User: cochatt
Spectrometer: HR+D1059
Trigger mode: 1
Integration Time (sec): 1.000000E-1
Scans to average: 1
Electric dark correction enabled: true
Nonlinearity correction enabled: false
Boxcar width: 0
XAxis mode: Wavelengths
Number of Pixels in Spectrum: 2048
>>>>>Begin Spectral Data<<<<<
223.165	-14.25
223.4	-14.25
223.635	-14.25
223.869	-29.25
224.104	-15.25
224.338	-8.25
224.573	-10.25
224.808	-21.25
225.042	-17.25
225.277	0.75
225.511	0.75
225.746	4.75
225.98	17.75
226.215	12.75
226.449	5.75
226.683	16.75
226.918	21.75
227.152	34.75
227.387	34.75
227.621	39.75
227.856	29.75
228.09	41.75
228.324	50.75
228.559	38.75
228.793	76.75
229.027	110.75
229.262	101.75
229.496	130.75
229.73	136.75
229.964	165.75
230.199	132.75
230.433	126.75
230.667	128.75
230.901	121.75
231.136	117.75
231.37	122.75
231.604	121.75
231.838	119.75
232.072	118.75
232.306	110.75
232.541	120.75
232.775	120.75
233.009	117.75
233.243	105.75
233.477	113.75
233.711	114.75
233.945	123.75
234.179	123.75
234.413	115.75
234.647	120.75
234.881	118.75
235.115	125.75
235.349	118.75
235.583	120.75
235.817	123.75
236.051	119.75
236.285	141.75
236.519	135.75
236.753	159.75
236.987	150.75
237.221	187.75
237.455	240.75
237.689	204.75
237.922	162.75
238.156	142.75
238.39	138.75
238.624	126.75
238.858	121.75
239.091	138.75
239.325	108.75
239.559	131.75
239.793	134.75
240.027	134.75
240.26	153.75
240.494	166.75
240.728	146.75
240.961	146.75
241.195	142.75
241.429	142.75
241.662	161.75
241.896	150.75
242.13	142.75
242.363	130.75
242.597	131.75
242.83	121.75
243.064	140.75
243.298	129.75
243.531	148.75
243.765	132.75
243.998	136.75
244.232	143.75
244.465	152.75
244.699	137.75
244.932	135.75
245.166	160.75
245.399	143.75
245.633	143.75
245.866	148.75
246.099	149.75
246.333	142.75
246.566	152.75
246.8	155.75
247.033	165.75
247.266	156.75
247.5	152.75
247.733	167.75
247.966	162.75
248.2	182.75
248.433	189.75
248.666	182.75
248.899	179.75
249.133	197.75
249.366	218.75
249.599	200.75
249.832	193.75
250.066	180.75
250.299	183.75
250.532	185.75
250.765	225.75
250.998	235.75
251.231	255.75
251.465	238.75
251.698	227.75
251.931	208.75
252.164	212.75
252.397	198.75
252.63	200.75
252.863	212.75
253.096	212.75
253.329	232.75
253.562	237.75
253.795	236.75
254.028	224.75
254.261	236.75
254.494	257.75
254.727	260.75
254.96	285.75
255.193	284.75
255.426	244.75
255.659	255.75
255.892	258.75
256.124	237.75
256.357	248.75
256.59	240.75
256.823	220.75
257.056	208.75
257.289	224.75
257.521	221.75
257.754	230.75
257.987	223.75
258.22	224.75
258.452	222.75
258.685	217.75
258.918	213.75
259.151	225.75
259.383	221.75
259.616	227.75
259.849	231.75
260.081	241.75
260.314	275.75
260.547	266.75
260.779	267.75
261.012	245.75
261.244	237.75
261.477	218.75
261.71	223.75
261.942	232.75
262.175	252.75
262.407	246.75
262.64	220.75
262.872	217.75
263.105	201.75
263.337	214.75
263.57	205.75
263.802	204.75
264.035	199.75
264.267	205.75
264.499	216.75
264.732	204.75
264.964	199.75
265.197	201.75
265.429	223.75
265.661	211.75
265.894	214.75
266.126	207.75
266.358	219.75
266.591	206.75
266.823	216.75
267.055	212.75
267.287	207.75
267.52	218.75
267.752	204.75
267.984	219.75
268.216	220.75
268.448	209.75
268.681	227.75
268.913	248.75
269.145	249.75
269.377	278.75
269.609	281.75
269.841	266.75
270.073	271.75
270.306	307.75
270.538	322.75
270.77	297.75
271.002	292.75
271.234	289.75
271.466	313.75
271.698	310.75
271.93	318.75
272.162	334.75
272.394	308.75
272.626	288.75
272.858	294.75
273.09	270.75
273.322	270.75
273.553	262.75
273.785	258.75
274.017	264.75
274.249	261.75
274.481	261.75
274.713	244.75
274.945	279.75
275.176	245.75
275.408	260.75
275.64	234.75
275.872	259.75
276.104	265.75
276.335	248.75
276.567	256.75
276.799	282.75
277.031	288.75
277.262	312.75
277.494	320.75
277.726	296.75
277.957	278.75
278.189	279.75
278.421	247.75
278.652	258.75
278.884	247.75
279.115	250.75
279.347	245.75
279.579	260.75
279.81	251.75
280.042	260.75
280.273	240.75
280.505	246.75
280.736	244.75
280.968	230.75
281.199	248.75
281.431	251.75
281.662	264.75
281.894	247.75
282.125	241.75
282.356	273.75
282.588	280.75
282.819	286.75
283.051	276.75
283.282	251.75
283.513	240.75
283.745	259.75
283.976	242.75
284.207	246.75
284.439	268.75
284.67	246.75
284.901	258.75
285.132	249.75
285.364	245.75
285.595	244.75
285.826	255.75
286.057	260.75
286.288	262.75
286.52	248.75
286.751	244.75
286.982	260.75
287.213	254.75
287.444	266.75
287.675	263.75
287.906	278.75
288.138	254.75
288.369	265.75
288.6	274.75
288.831	270.75
289.062	269.75
289.293	263.75
289.524	271.75
289.755	262.75
289.986	262.75
290.217	256.75
290.448	264.75
290.679	249.75
290.91	260.75
291.141	250.75
291.371	261.75
291.602	246.75
291.833	254.75
292.064	241.75
292.295	244.75
292.526	249.75
292.757	274.75
292.987	268.75
293.218	259.75
293.449	272.75
293.68	267.75
293.91	252.75
294.141	249.75
294.372	246.75
294.603	247.75
294.833	242.75
295.064	278.75
295.295	268.75
295.525	249.75
295.756	280.75
295.987	246.75
296.217	289.75
296.448	294.75
296.679	280.75
296.909	267.75
297.14	268.75
297.37	265.75
297.601	278.75
297.831	241.75
298.062	264.75
298.292	265.75
298.523	266.75
298.753	268.75
298.984	256.75
299.214	265.75
299.445	288.75
299.675	274.75
299.905	284.75
300.136	276.75
300.366	268.75
300.597	275.75
300.827	278.75
301.057	288.75
301.288	305.75
301.518	292.75
301.748	288.75
301.979	285.75
302.209	273.75
302.439	291.75
302.669	276.75
302.9	296.75
303.13	289.75
303.36	302.75
303.59	284.75
303.82	309.75
304.051	300.75
304.281	283.75
304.511	284.75
304.741	297.75
304.971	306.75
305.201	279.75
305.431	288.75
305.661	293.75
305.891	303.75
306.121	299.75
306.352	310.75
306.582	310.75
306.812	300.75
307.042	284.75
307.272	294.75
307.502	283.75
307.731	306.75
307.961	290.75
308.191	290.75
308.421	293.75
308.651	326.75
308.881	314.75
309.111	327.75
309.341	317.75
309.571	329.75
309.8	330.75
310.03	342.75
310.26	346.75
310.49	354.75
310.72	356.75
310.949	371.75
311.179	380.75
311.409	353.75
311.639	351.75
311.868	349.75
312.098	336.75
312.328	354.75
312.557	362.75
312.787	375.75
313.017	370.75
313.246	372.75
313.476	352.75
313.706	345.75
313.935	351.75
314.165	372.75
314.394	364.75
314.624	371.75
314.853	348.75
315.083	354.75
315.312	342.75
315.542	333.75
315.771	328.75
316.001	325.75
316.23	352.75
316.46	346.75
316.689	364.75
316.919	348.75
317.148	359.75
317.377	356.75
317.607	364.75
317.836	352.75
318.065	357.75
318.295	345.75
318.524	342.75
318.753	325.75
318.983	325.75
319.212	341.75
319.441	352.75
319.67	365.75
319.9	342.75
320.129	343.75
320.358	338.75
320.587	334.75
320.816	354.75
321.046	381.75
321.275	372.75
321.504	385.75
321.733	372.75
321.962	388.75
322.191	401.75
322.42	411.75
322.649	429.75
322.878	452.75
323.108	464.75
323.337	484.75
323.566	512.75
323.795	546.75
324.024	600.75
324.253	730.75
324.482	1061.75
324.71	1613.75
324.939	2304.75
325.168	1962.75
325.397	1072.75
325.626	702.75
325.855	601.75
326.084	536.75
326.313	521.75
326.542	506.75
326.77	572.75
326.999	705.75
327.228	947.75
327.457	1437.75
327.686	1728.75
327.914	1193.75
328.143	776.75
328.372	694.75
328.6	610.75
328.829	601.75
329.058	587.75
329.287	614.75
329.515	561.75
329.744	496.75
329.972	498.75
330.201	544.75
330.43	604.75
330.658	631.75
330.887	647.75
331.115	613.75
331.344	535.75
331.572	491.75
331.801	481.75
332.03	472.75
332.258	458.75
332.486	435.75
332.715	426.75
332.943	398.75
333.172	429.75
333.4	455.75
333.629	410.75
333.857	453.75
334.085	472.75
334.314	473.75
334.542	520.75
334.771	537.75
334.999	496.75
335.227	448.75
335.455	436.75
335.684	415.75
335.912	404.75
336.14	414.75
336.369	396.75
336.597	406.75
336.825	400.75
337.053	414.75
337.281	406.75
337.51	377.75
337.738	399.75
337.966	401.75
338.194	386.75
338.422	417.75
338.65	418.75
338.878	377.75
339.106	396.75
339.334	380.75
339.562	371.75
339.79	382.75
340.018	400.75
340.246	394.75
340.474	393.75
340.702	394.75
340.93	393.75
341.158	402.75
341.386	386.75
341.614	402.75
341.842	409.75
342.07	385.75
342.298	395.75
342.526	384.75
342.754	384.75
342.981	373.75
343.209	372.75
343.437	374.75
343.665	369.75
343.893	383.75
344.12	393.75
344.348	381.75
344.576	398.75
344.804	389.75
345.031	410.75
345.259	428.75
345.487	405.75
345.714	410.75
345.942	394.75
346.17	402.75
346.397	378.75
346.625	376.75
346.853	385.75
347.08	389.75
347.308	393.75
347.535	440.75
347.763	407.75
347.99	417.75
348.218	412.75
348.445	419.75
348.673	400.75
348.9	398.75
349.128	371.75
349.355	370.75
349.583	373.75
349.81	372.75
350.037	372.75
350.265	384.75
350.492	362.75
350.72	368.75
350.947	390.75
351.174	393.75
351.402	405.75
351.629	417.75
351.856	399.75
352.083	409.75
352.311	416.75
352.538	416.75
352.765	428.75
352.992	428.75
353.22	419.75
353.447	382.75
353.674	389.75
353.901	364.75
354.128	372.75
354.355	359.75
354.583	362.75
354.81	364.75
355.037	367.75
355.264	339.75
355.491	339.75
355.718	362.75
355.945	347.75
356.172	346.75
356.399	352.75
356.626	349.75
356.853	350.75
357.08	342.75
357.307	347.75
357.534	354.75
357.761	355.75
357.988	357.75
358.215	369.75
358.441	354.75
358.668	350.75
358.895	364.75
359.122	372.75
359.349	380.75
359.576	401.75
359.802	426.75
360.029	472.75
360.256	463.75
360.483	462.75
360.709	419.75
360.936	416.75
361.163	396.75
361.39	408.75
361.616	400.75
361.843	408.75
362.07	397.75
362.296	405.75
362.523	391.75
362.749	413.75
362.976	379.75
363.203	367.75
363.429	378.75
363.656	391.75
363.882	379.75
364.109	392.75
364.335	369.75
364.562	380.75
364.788	380.75
365.015	380.75
365.241	389.75
365.468	388.75
365.694	381.75
365.92	392.75
366.147	396.75
366.373	368.75
366.599	378.75
366.826	363.75
367.052	358.75
367.278	372.75
367.505	356.75
367.731	384.75
367.957	379.75
368.184	370.75
368.41	372.75
368.636	402.75
368.862	396.75
369.089	384.75
369.315	388.75
369.541	358.75
369.767	378.75
369.993	357.75
370.219	380.75
370.445	384.75
370.672	368.75
370.898	378.75
371.124	348.75
371.35	367.75
371.576	375.75
371.802	349.75
372.028	372.75
372.254	353.75
372.48	352.75
372.706	368.75
372.932	377.75
373.158	373.75
373.384	366.75
373.61	375.75
373.835	380.75
374.061	369.75
374.287	376.75
374.513	374.75
374.739	374.75
374.965	372.75
375.191	368.75
375.416	361.75
375.642	380.75
375.868	393.75
376.094	363.75
376.319	386.75
376.545	372.75
376.771	359.75
376.997	340.75
377.222	362.75
377.448	347.75
377.674	365.75
377.899	345.75
378.125	356.75
378.35	349.75
378.576	365.75
378.802	363.75
379.027	370.75
379.253	353.75
379.478	352.75
379.704	371.75
379.929	374.75
380.155	362.75
380.38	376.75
380.606	361.75
380.831	374.75
381.057	362.75
381.282	370.75
381.507	387.75
381.733	378.75
381.958	370.75
382.184	374.75
382.409	380.75
382.634	366.75
382.86	364.75
383.085	371.75
383.31	386.75
383.535	375.75
383.761	377.75
383.986	383.75
384.211	380.75
384.436	370.75
384.662	385.75
384.887	388.75
385.112	390.75
385.337	380.75
385.562	388.75
385.787	382.75
386.013	398.75
386.238	398.75
386.463	407.75
386.688	402.75
386.913	398.75
387.138	389.75
387.363	394.75
387.588	395.75
387.813	389.75
388.038	391.75
388.263	397.75
388.488	412.75
388.713	384.75
388.938	415.75
389.163	417.75
389.387	384.75
389.612	382.75
389.837	398.75
390.062	402.75
390.287	394.75
390.512	391.75
390.736	365.75
390.961	389.75
391.186	412.75
391.411	390.75
391.636	387.75
391.86	384.75
392.085	405.75
392.31	404.75
392.534	414.75
392.759	385.75
392.984	404.75
393.208	388.75
393.433	396.75
393.658	402.75
393.882	381.75
394.107	399.75
394.331	390.75
394.556	400.75
394.78	410.75
395.005	395.75
395.229	381.75
395.454	396.75
395.678	411.75
395.903	430.75
396.127	424.75
396.352	446.75
396.576	420.75
396.801	420.75
397.025	413.75
397.249	422.75
397.474	416.75
397.698	413.75
397.922	422.75
398.147	439.75
398.371	454.75
398.595	426.75
398.82	444.75
399.044	454.75
399.268	429.75
399.492	474.75
399.717	480.75
399.941	508.75
400.165	527.75
400.389	557.75
400.613	507.75
400.837	473.75
401.062	451.75
401.286	442.75
401.51	433.75
401.734	429.75
401.958	454.75
402.182	446.75
402.406	477.75
402.63	483.75
402.854	443.75
403.078	468.75
403.302	436.75
403.526	488.75
403.75	475.75
403.974	445.75
404.198	474.75
404.422	470.75
404.645	487.75
404.869	474.75
405.093	504.75
405.317	547.75
405.541	562.75
405.765	528.75
405.988	489.75
406.212	499.75
406.436	552.75
406.66	575.75
406.883	511.75
407.107	528.75
407.331	575.75
407.555	599.75
407.778	635.75
408.002	570.75
408.226	536.75
408.449	524.75
408.673	524.75
408.896	551.75
409.12	578.75
409.344	545.75
409.567	512.75
409.791	496.75
410.014	473.75
410.238	472.75
410.461	470.75
410.685	490.75
410.908	509.75
411.132	519.75
411.355	552.75
411.578	543.75
411.802	500.75
412.025	465.75
412.249	479.75
412.472	518.75
412.695	562.75
412.919	553.75
413.142	499.75
413.365	458.75
413.589	462.75
413.812	462.75
414.035	450.75
414.258	453.75
414.482	420.75
414.705	440.75
414.928	444.75
415.151	453.75
415.374	427.75
415.597	446.75
415.821	449.75
416.044	449.75
416.267	463.75
416.49	460.75
416.713	445.75
416.936	456.75
417.159	454.75
417.382	467.75
417.605	473.75
417.828	465.75
418.051	462.75
418.274	471.75
418.497	451.75
418.72	434.75
418.943	463.75
419.166	470.75
419.389	502.75
419.611	493.75
419.834	485.75
420.057	469.75
420.28	488.75
420.503	494.75
420.726	502.75
420.948	512.75
421.171	547.75
421.394	588.75
421.617	539.75
421.839	507.75
422.062	491.75
422.285	516.75
422.507	562.75
422.73	610.75
422.953	608.75
423.175	518.75
423.398	517.75
423.621	516.75
423.843	520.75
424.066	538.75
424.288	536.75
424.511	544.75
424.733	602.75
424.956	652.75
425.178	664.75
425.401	683.75
425.623	645.75
425.846	566.75
426.068	531.75
426.291	540.75
426.513	527.75
426.735	549.75
426.958	606.75
427.18	651.75
427.402	778.75
427.625	876.75
427.847	807.75
428.069	696.75
428.292	621.75
428.514	552.75
428.736	520.75
428.958	523.75
429.181	529.75
429.403	522.75
429.625	509.75
429.847	564.75
430.069	597.75
430.292	605.75
430.514	536.75
430.736	516.75
430.958	493.75
431.18	488.75
431.402	490.75
431.624	467.75
431.846	455.75
432.068	462.75
432.29	469.75
432.512	452.75
432.734	481.75
432.956	479.75
433.178	500.75
433.4	506.75
433.622	468.75
433.844	485.75
434.066	457.75
434.287	476.75
434.509	450.75
434.731	463.75
434.953	480.75
435.175	500.75
435.397	543.75
435.618	548.75
435.84	570.75
436.062	667.75
436.284	714.75
436.505	615.75
436.727	580.75
436.949	528.75
437.17	497.75
437.392	522.75
437.614	530.75
437.835	576.75
438.057	676.75
438.278	790.75
438.5	743.75
438.721	797.75
438.943	796.75
439.165	634.75
439.386	600.75
439.608	581.75
439.829	573.75
440.05	577.75
440.272	617.75
440.493	618.75
440.715	552.75
440.936	520.75
441.158	507.75
441.379	497.75
441.6	525.75
441.822	549.75
442.043	587.75
442.264	672.75
442.486	680.75
442.707	605.75
442.928	544.75
443.149	552.75
443.371	585.75
443.592	648.75
443.813	697.75
444.034	762.75
444.255	632.75
444.476	570.75
444.698	544.75
444.919	538.75
445.14	656.75
445.361	585.75
445.582	593.75
445.803	648.75
446.024	764.75
446.245	755.75
446.466	689.75
446.687	588.75
446.908	582.75
447.129	512.75
447.35	517.75
447.571	510.75
447.792	513.75
448.013	522.75
448.234	549.75
448.455	586.75
448.675	724.75
448.896	754.75
449.117	684.75
449.338	668.75
449.559	756.75
449.779	796.75
450	677.75
450.221	578.75
450.442	522.75
450.662	508.75
450.883	530.75
451.104	538.75
451.324	519.75
451.545	499.75
451.766	487.75
451.986	481.75
452.207	473.75
452.428	452.75
452.648	451.75
452.869	445.75
453.089	474.75
453.31	488.75
453.53	466.75
453.751	443.75
453.971	467.75
454.192	491.75
454.412	479.75
454.633	465.75
454.853	477.75
455.073	475.75
455.294	497.75
455.514	566.75
455.734	548.75
455.955	495.75
456.175	442.75
456.395	411.75
456.616	420.75
456.836	422.75
457.056	420.75
457.276	413.75
457.497	426.75
457.717	417.75
457.937	444.75
458.157	442.75
458.377	421.75
458.598	474.75
458.818	524.75
459.038	628.75
459.258	624.75
459.478	517.75
459.698	461.75
459.918	468.75
460.138	475.75
460.358	448.75
460.578	467.75
460.798	461.75
461.018	471.75
461.238	434.75
461.458	454.75
461.678	465.75
461.898	455.75
462.118	459.75
462.338	448.75
462.558	464.75
462.777	439.75
462.997	470.75
463.217	461.75
463.437	475.75
463.657	476.75
463.876	466.75
464.096	479.75
464.316	464.75
464.536	476.75
464.755	483.75
464.975	503.75
465.195	560.75
465.414	639.75
465.634	586.75
465.854	525.75
466.073	508.75
466.293	480.75
466.512	450.75
466.732	456.75
466.951	459.75
467.171	456.75
467.391	459.75
467.61	492.75
467.829	474.75
468.049	488.75
468.268	468.75
468.488	472.75
468.707	462.75
468.927	441.75
469.146	457.75
469.365	457.75
469.585	458.75
469.804	456.75
470.023	455.75
470.243	473.75
470.462	513.75
470.681	480.75
470.901	492.75
471.12	493.75
471.339	492.75
471.558	488.75
471.777	484.75
471.997	441.75
472.216	478.75
472.435	546.75
472.654	526.75
472.873	484.75
473.092	470.75
473.311	466.75
473.53	474.75
473.749	490.75
473.968	541.75
474.187	646.75
474.406	681.75
474.625	541.75
474.844	500.75
475.063	470.75
475.282	475.75
475.501	477.75
475.72	486.75
475.939	480.75
476.158	500.75
476.377	488.75
476.596	468.75
476.814	487.75
477.033	517.75
477.252	512.75
477.471	503.75
477.69	530.75
477.908	520.75
478.127	489.75
478.346	521.75
478.564	519.75
478.783	531.75
479.002	531.75
479.22	525.75
479.439	536.75
479.658	579.75
479.876	579.75
480.095	580.75
480.313	600.75
480.532	582.75
480.751	574.75
480.969	593.75
481.188	684.75
481.406	688.75
481.624	640.75
481.843	590.75
482.061	586.75
482.28	567.75
482.498	548.75
482.717	555.75
482.935	552.75
483.153	590.75
483.372	552.75
483.59	575.75
483.808	534.75
484.027	568.75
484.245	556.75
484.463	565.75
484.681	589.75
484.9	585.75
485.118	593.75
485.336	583.75
485.554	576.75
485.772	594.75
485.99	591.75
486.209	588.75
486.427	598.75
486.645	615.75
486.863	603.75
487.081	631.75
487.299	606.75
487.517	629.75
487.735	604.75
487.953	628.75
488.171	615.75
488.389	620.75
488.607	632.75
488.825	612.75
489.043	638.75
489.261	632.75
489.479	604.75
489.696	650.75
489.914	629.75
490.132	630.75
490.35	652.75
490.568	662.75
490.786	650.75
491.003	656.75
491.221	668.75
491.439	721.75
491.657	713.75
491.874	730.75
492.092	739.75
492.31	740.75
492.527	744.75
492.745	743.75
492.963	739.75
493.18	731.75
493.398	744.75
493.615	750.75
493.833	732.75
494.05	716.75
494.268	723.75
494.485	730.75
494.703	708.75
494.92	738.75
495.138	748.75
495.355	750.75
495.573	765.75
495.79	776.75
496.008	759.75
496.225	762.75
496.442	749.75
496.66	737.75
496.877	760.75
497.094	755.75
497.312	758.75
497.529	770.75
497.746	753.75
497.963	744.75
498.181	789.75
498.398	793.75
498.615	772.75
498.832	785.75
499.049	780.75
499.267	772.75
499.484	788.75
499.701	801.75
499.918	793.75
500.135	868.75
500.352	882.75
500.569	896.75
500.786	894.75
501.003	880.75
501.22	856.75
501.437	868.75
501.654	869.75
501.871	861.75
502.088	849.75
502.305	810.75
502.522	786.75
502.739	808.75
502.956	764.75
503.172	749.75
503.389	738.75
503.606	747.75
503.823	778.75
504.04	737.75
504.256	738.75
504.473	719.75
504.69	735.75
504.907	749.75
505.123	713.75
505.34	720.75
505.557	701.75
505.773	726.75
505.99	730.75
506.207	716.75
506.423	708.75
506.64	713.75
506.856	718.75
507.073	714.75
507.289	722.75
507.506	688.75
507.722	741.75
507.939	755.75
508.155	722.75
508.372	718.75
508.588	678.75
508.805	705.75
509.021	715.75
509.238	692.75
509.454	733.75
509.67	703.75
509.887	676.75
510.103	706.75
510.319	722.75
510.536	852.75
510.752	1388.75
510.968	1151.75
511.184	752.75
511.401	689.75
511.617	702.75
511.833	686.75
512.049	662.75
512.265	660.75
512.481	648.75
512.698	664.75
512.914	636.75
513.13	666.75
513.346	654.75
513.562	681.75
513.778	672.75
513.994	691.75
514.21	690.75
514.426	713.75
514.642	774.75
514.858	826.75
515.074	874.75
515.29	1031.75
515.506	1563.75
515.721	1298.75
515.937	858.75
516.153	750.75
516.369	716.75
516.585	701.75
516.801	700.75
517.016	660.75
517.232	667.75
517.448	649.75
517.664	675.75
517.879	653.75
518.095	639.75
518.311	647.75
518.527	643.75
518.742	650.75
518.958	654.75
519.173	642.75
519.389	646.75
519.605	635.75
519.82	650.75
520.036	676.75
520.251	723.75
520.467	739.75
520.682	752.75
520.898	767.75
521.113	787.75
521.329	837.75
521.544	1002.75
521.76	1260.75
521.975	2136.75
522.19	2116.75
522.406	1118.75
522.621	836.75
522.836	724.75
523.052	690.75
523.267	665.75
523.482	650.75
523.698	634.75
523.913	616.75
524.128	621.75
524.343	604.75
524.559	589.75
524.774	576.75
524.989	580.75
525.204	583.75
525.419	586.75
525.634	581.75
525.849	570.75
526.064	540.75
526.28	550.75
526.495	531.75
526.71	533.75
526.925	553.75
527.14	535.75
527.355	533.75
527.57	528.75
527.785	507.75
527.999	529.75
528.214	518.75
528.429	532.75
528.644	516.75
528.859	523.75
529.074	521.75
529.289	549.75
529.503	667.75
529.718	642.75
529.933	581.75
530.148	541.75
530.363	521.75
530.577	535.75
530.792	531.75
531.007	511.75
531.221	520.75
531.436	514.75
531.651	491.75
531.865	512.75
532.08	493.75
532.295	485.75
532.509	492.75
532.724	481.75
532.938	485.75
533.153	482.75
533.367	499.75
533.582	508.75
533.796	485.75
534.011	469.75
534.225	485.75
534.44	475.75
534.654	476.75
534.868	474.75
535.083	466.75
535.297	467.75
535.511	482.75
535.726	491.75
535.94	500.75
536.154	504.75
536.369	489.75
536.583	473.75
536.797	484.75
537.011	491.75
537.225	484.75
537.44	462.75
537.654	472.75
537.868	459.75
538.082	457.75
538.296	456.75
538.51	485.75
538.724	464.75
538.938	470.75
539.153	509.75
539.367	504.75
539.581	474.75
539.795	484.75
540.009	468.75
540.222	456.75
540.436	484.75
540.65	466.75
540.864	496.75
541.078	482.75
541.292	484.75
541.506	489.75
541.72	477.75
541.934	469.75
542.147	492.75
542.361	461.75
542.575	453.75
542.789	445.75
543.002	453.75
543.216	477.75
543.43	480.75
543.644	462.75
543.857	478.75
544.071	474.75
544.285	473.75
544.498	471.75
544.712	472.75
544.925	453.75
545.139	466.75
545.352	450.75
545.566	444.75
545.779	450.75
545.993	456.75
546.206	455.75
546.42	453.75
546.633	456.75
546.847	454.75
547.06	441.75
547.274	446.75
547.487	442.75
547.7	441.75
547.914	443.75
548.127	454.75
548.34	444.75
548.554	441.75
548.767	448.75
548.98	440.75
549.193	430.75
549.407	450.75
549.62	454.75
549.833	452.75
550.046	453.75
550.259	426.75
550.473	433.75
550.686	443.75
550.899	442.75
551.112	428.75
551.325	430.75
551.538	443.75
551.751	426.75
551.964	426.75
552.177	414.75
552.39	417.75
552.603	435.75
552.816	413.75
553.029	440.75
553.242	424.75
553.455	424.75
553.667	451.75
553.88	456.75
554.093	453.75
554.306	446.75
554.519	456.75
554.732	438.75
554.944	419.75
555.157	425.75
555.37	420.75
555.583	397.75
555.795	416.75
556.008	414.75
556.221	405.75
556.433	389.75
556.646	409.75
556.859	410.75
557.071	429.75
557.284	394.75
557.496	408.75
557.709	412.75
557.921	402.75
558.134	396.75
558.346	408.75
558.559	402.75
558.771	376.75
558.984	372.75
559.196	405.75
559.409	394.75
559.621	380.75
559.833	382.75
560.046	384.75
560.258	388.75
560.47	402.75
560.683	392.75
560.895	375.75
561.107	384.75
561.32	398.75
561.532	390.75
561.744	387.75
561.956	385.75
562.168	395.75
562.381	398.75
562.593	388.75
562.805	397.75
563.017	385.75
563.229	371.75
563.441	383.75
563.653	396.75
563.865	389.75
564.077	379.75
564.289	388.75
564.501	392.75
564.713	397.75
564.925	401.75
565.137	427.75
565.349	411.75
565.561	385.75
565.773	397.75
565.985	410.75
566.197	388.75
566.408	425.75
566.62	428.75
566.832	440.75
567.044	432.75
567.255	422.75
567.467	423.75
567.679	420.75
567.891	422.75
568.102	426.75
568.314	416.75
568.526	404.75
568.737	394.75
568.949	397.75
569.161	406.75
569.372	392.75
569.584	382.75
569.795	382.75
570.007	379.75
570.218	433.75
570.43	427.75
570.641	386.75
570.853	360.75
571.064	346.75
571.276	375.75
571.487	359.75
571.698	372.75
571.91	362.75
572.121	358.75
572.333	340.75
572.544	349.75
572.755	335.75
572.966	338.75
573.178	349.75
573.389	345.75
573.6	340.75
573.811	331.75
574.023	351.75
574.234	314.75
574.445	335.75
574.656	338.75
574.867	333.75
575.078	342.75
575.289	345.75
575.501	327.75
575.712	315.75
575.923	323.75
576.134	321.75
576.345	323.75
576.556	326.75
576.767	331.75
576.978	320.75
577.188	322.75
577.399	327.75
577.61	327.75
577.821	316.75
578.032	325.75
578.243	373.75
578.454	632.75
578.665	474.75
578.875	341.75
579.086	323.75
579.297	329.75
579.508	303.75
579.718	309.75
579.929	292.75
580.14	320.75
580.35	287.75
580.561	310.75
580.772	295.75
580.982	293.75
581.193	307.75
581.403	292.75
581.614	311.75
581.825	302.75
582.035	311.75
582.246	314.75
582.456	288.75
582.667	301.75
582.877	294.75
583.087	303.75
583.298	304.75
583.508	309.75
583.719	317.75
583.929	305.75
584.139	313.75
584.35	294.75
584.56	291.75
584.77	291.75
584.981	305.75
585.191	313.75
585.401	291.75
585.611	299.75
585.821	302.75
586.032	298.75
586.242	280.75
586.452	277.75
586.662	284.75
586.872	284.75
587.082	284.75
587.292	291.75
587.502	279.75
587.713	280.75
587.923	300.75
588.133	314.75
588.343	276.75
588.553	292.75
588.762	290.75
588.972	305.75
589.182	280.75
589.392	304.75
589.602	295.75
589.812	308.75
590.022	282.75
590.232	280.75
590.441	278.75
590.651	287.75
590.861	310.75
591.071	296.75
591.281	264.75
591.49	281.75
591.7	276.75
591.91	286.75
592.119	288.75
592.329	278.75
592.539	291.75
592.748	300.75
592.958	294.75
593.167	269.75
593.377	282.75
593.587	288.75
593.796	284.75
594.006	286.75
594.215	289.75
594.424	283.75
594.634	278.75
594.843	280.75
595.053	294.75
595.262	289.75
595.472	268.75
595.681	285.75
595.89	271.75
596.1	288.75
596.309	270.75
596.518	273.75
596.727	280.75
596.937	249.75
597.146	258.75
597.355	269.75
597.564	254.75
597.774	262.75
597.983	285.75
598.192	261.75
598.401	266.75
598.61	268.75
598.819	281.75
599.028	260.75
599.237	262.75
599.446	275.75
599.655	246.75
599.864	258.75
600.073	253.75
600.282	268.75
600.491	263.75
600.7	260.75
600.909	252.75
601.118	246.75
601.327	243.75
601.536	258.75
601.745	264.75
601.953	274.75
602.162	258.75
602.371	261.75
602.58	256.75
602.789	231.75
602.997	258.75
603.206	249.75
603.415	248.75
603.623	254.75
603.832	252.75
604.041	259.75
604.249	251.75
604.458	250.75
604.666	256.75
604.875	244.75
605.084	247.75
605.292	237.75
605.501	241.75
605.709	241.75
605.918	245.75
606.126	235.75
606.334	245.75
606.543	243.75
606.751	245.75
606.96	233.75
607.168	238.75
607.376	242.75
607.585	235.75
607.793	229.75
608.001	247.75
608.21	265.75
608.418	247.75
608.626	241.75
608.834	254.75
609.043	245.75
609.251	250.75
609.459	234.75
609.667	247.75
609.875	242.75
610.083	230.75
610.291	229.75
610.499	240.75
610.707	234.75
610.916	244.75
611.124	263.75
611.332	236.75
611.54	246.75
611.748	253.75
611.955	232.75
612.163	250.75
612.371	240.75
612.579	245.75
612.787	223.75
612.995	238.75
613.203	249.75
613.411	240.75
613.618	232.75
613.826	227.75
614.034	224.75
614.242	240.75
614.449	235.75
614.657	211.75
614.865	242.75
615.072	229.75
615.28	237.75
615.488	240.75
615.695	210.75
615.903	266.75
616.111	225.75
616.318	256.75
616.526	212.75
616.733	234.75
616.941	238.75
617.148	241.75
617.356	231.75
617.563	226.75
617.771	238.75
617.978	230.75
618.185	236.75
618.393	228.75
618.6	220.75
618.807	220.75
619.015	225.75
619.222	230.75
619.429	221.75
619.637	236.75
619.844	234.75
620.051	209.75
620.258	229.75
620.466	235.75
620.673	229.75
620.88	213.75
621.087	217.75
621.294	230.75
621.501	230.75
621.708	220.75
621.915	218.75
622.122	214.75
622.329	217.75
622.536	226.75
622.743	219.75
622.95	221.75
623.157	218.75
623.364	215.75
623.571	209.75
623.778	212.75
623.985	210.75
624.192	210.75
624.399	211.75
624.606	227.75
624.812	190.75
625.019	216.75
625.226	210.75
625.433	219.75
625.639	219.75
625.846	199.75
626.053	197.75
626.259	208.75
626.466	209.75
626.673	196.75
626.879	196.75
627.086	203.75
627.293	212.75
627.499	204.75
627.706	211.75
627.912	223.75
628.119	205.75
628.325	221.75
628.532	212.75
628.738	194.75
628.945	202.75
629.151	201.75
629.357	210.75
629.564	198.75
629.77	190.75
629.976	180.75
630.183	198.75
630.389	188.75
630.595	205.75
630.802	201.75
631.008	201.75
631.214	187.75
631.42	191.75
631.627	200.75
631.833	166.75
632.039	203.75
632.245	198.75
632.451	188.75
632.657	184.75
632.863	192.75
633.069	184.75
633.275	186.75
633.481	185.75
633.688	176.75
633.893	188.75
634.099	203.75
634.305	179.75
634.511	194.75
634.717	176.75
634.923	182.75
635.129	189.75
635.335	182.75
635.541	181.75
635.747	165.75
635.952	181.75
636.158	189.75
636.364	188.75
636.57	197.75
636.775	190.75
636.981	181.75
637.187	182.75
637.392	178.75
637.598	188.75
637.804	168.75
638.009	165.75
638.215	171.75
638.421	170.75
638.626	166.75
638.832	161.75
639.037	176.75
639.243	176.75
639.448	187.75
639.654	186.75
639.859	169.75
640.065	166.75
640.27	178.75
640.475	177.75
640.681	177.75
640.886	178.75
641.091	165.75
641.297	185.75
641.502	190.75
641.707	172.75
641.913	176.75
642.118	163.75
642.323	168.75
642.528	180.75
642.733	157.75
642.939	170.75
643.144	184.75
643.349	169.75
643.554	164.75
643.759	158.75
643.964	155.75
644.169	165.75
644.374	156.75
644.579	158.75
644.784	164.75
644.989	160.75
645.194	170.75
645.399	172.75
645.604	167.75
645.809	158.75
646.014	165.75
646.219	165.75
646.423	165.75
646.628	168.75
646.833	160.75
647.038	153.75
647.243	173.75
647.447	183.75
647.652	171.75
647.857	164.75
648.062	172.75
648.266	173.75
648.471	162.75
648.676	182.75
648.88	162.75
649.085	164.75
649.289	157.75
649.494	157.75
649.698	182.75
649.903	186.75
650.107	184.75
650.312	160.75
650.516	139.75
650.721	150.75
650.925	157.75
651.13	146.75
651.334	141.75
651.539	164.75
651.743	143.75
651.947	137.75
652.152	156.75
652.356	123.75
652.56	141.75
652.764	147.75
652.969	122.75
653.173	126.75
653.377	128.75
653.581	132.75
653.785	140.75
653.99	146.75
654.194	140.75
654.398	146.75
654.602	125.75
654.806	137.75
655.01	154.75
655.214	141.75
655.418	134.75
655.622	136.75
655.826	132.75
656.03	126.75
656.234	120.75
656.438	120.75
656.642	123.75
656.846	132.75
657.049	121.75
657.253	109.75
657.457	110.75
657.661	109.75
657.865	108.75
658.068	123.75
658.272	118.75
658.476	111.75
658.68	93.75
658.883	109.75
659.087	102.75
659.291	105.75
659.494	88.75
659.698	105.75
659.901	92.75
660.105	90.75
660.309	91.75
660.512	87.75
660.716	89.75
660.919	105.75
661.123	94.75
661.326	102.75
661.53	94.75
661.733	98.75
661.936	85.75
662.14	99.75
662.343	85.75
662.546	79.75
662.75	91.75
662.953	86.75
663.156	85.75
663.36	68.75
663.563	76.75
663.766	92.75
663.969	90.75
664.173	72.75
664.376	91.75
664.579	82.75
664.782	86.75
664.985	71.75
665.188	84.75
665.391	78.75
665.594	82.75
665.797	77.75
666	91.75
666.203	75.75
666.406	71.75
666.609	78.75
666.812	82.75
667.015	76.75
667.218	84.75
667.421	87.75
667.624	80.75
667.827	79.75
668.03	84.75
668.232	81.75
668.435	91.75
668.638	87.75
668.841	85.75
669.043	73.75
669.246	85.75
669.449	83.75
669.651	89.75
669.854	81.75
670.057	79.75
670.259	76.75
670.462	73.75
670.665	81.75
670.867	89.75
671.07	91.75
671.272	84.75
671.475	70.75
671.677	78.75
671.88	86.75
672.082	80.75
672.284	85.75
672.487	83.75
672.689	78.75
672.892	82.75
