Data from 1970.PennyLincolnUp.Lamp.En5.5.200Scan.071719.P1._HRD10591_15-15-16-841.txt Node
Date: Thu Jul 18 15:15:16 EDT 2019
User: cochatt
Spectrometer: HR+D1059
Trigger mode: 1
Integration Time (sec): 1.000000E-1
Scans to average: 1
Electric dark correction enabled: true
Nonlinearity correction enabled: false
Boxcar width: 0
XAxis mode: Wavelengths
Number of Pixels in Spectrum: 2048
>>>>>Begin Spectral Data<<<<<
223.165	-16.31
223.4	-16.31
223.635	-16.31
223.869	-1.31
224.104	-28.31
224.338	-10.31
224.573	-4.31
224.808	-17.31
225.042	-9.31
225.277	2.69
225.511	-22.31
225.746	3.69
225.98	-1.31
226.215	4.69
226.449	26.69
226.683	16.69
226.918	24.69
227.152	31.69
227.387	31.69
227.621	29.69
227.856	42.69
228.09	53.69
228.324	44.69
228.559	68.69
228.793	71.69
229.027	102.69
229.262	128.69
229.496	136.69
229.73	155.69
229.964	182.69
230.199	138.69
230.433	132.69
230.667	119.69
230.901	126.69
231.136	140.69
231.37	118.69
231.604	129.69
231.838	123.69
232.072	108.69
232.306	127.69
232.541	120.69
232.775	111.69
233.009	114.69
233.243	130.69
233.477	128.69
233.711	124.69
233.945	126.69
234.179	121.69
234.413	132.69
234.647	121.69
234.881	109.69
235.115	120.69
235.349	134.69
235.583	123.69
235.817	130.69
236.051	132.69
236.285	138.69
236.519	132.69
236.753	149.69
236.987	153.69
237.221	205.69
237.455	253.69
237.689	222.69
237.922	159.69
238.156	145.69
238.39	132.69
238.624	140.69
238.858	134.69
239.091	126.69
239.325	114.69
239.559	116.69
239.793	132.69
240.027	144.69
240.26	145.69
240.494	184.69
240.728	172.69
240.961	151.69
241.195	155.69
241.429	149.69
241.662	151.69
241.896	155.69
242.13	140.69
242.363	153.69
242.597	126.69
242.83	152.69
243.064	150.69
243.298	155.69
243.531	148.69
243.765	133.69
243.998	138.69
244.232	134.69
244.465	154.69
244.699	162.69
244.932	170.69
245.166	167.69
245.399	171.69
245.633	140.69
245.866	165.69
246.099	152.69
246.333	155.69
246.566	159.69
246.8	160.69
247.033	168.69
247.266	173.69
247.5	173.69
247.733	196.69
247.966	186.69
248.2	190.69
248.433	194.69
248.666	186.69
248.899	200.69
249.133	220.69
249.366	226.69
249.599	228.69
249.832	211.69
250.066	200.69
250.299	194.69
250.532	220.69
250.765	213.69
250.998	275.69
251.231	248.69
251.465	249.69
251.698	234.69
251.931	220.69
252.164	223.69
252.397	236.69
252.63	243.69
252.863	238.69
253.096	231.69
253.329	252.69
253.562	257.69
253.795	270.69
254.028	236.69
254.261	256.69
254.494	244.69
254.727	265.69
254.96	332.69
255.193	294.69
255.426	290.69
255.659	273.69
255.892	248.69
256.124	280.69
256.357	253.69
256.59	256.69
256.823	242.69
257.056	244.69
257.289	237.69
257.521	246.69
257.754	238.69
257.987	228.69
258.22	238.69
258.452	228.69
258.685	218.69
258.918	243.69
259.151	246.69
259.383	222.69
259.616	232.69
259.849	251.69
260.081	242.69
260.314	277.69
260.547	286.69
260.779	275.69
261.012	250.69
261.244	245.69
261.477	251.69
261.71	232.69
261.942	246.69
262.175	238.69
262.407	247.69
262.64	244.69
262.872	251.69
263.105	245.69
263.337	225.69
263.57	231.69
263.802	222.69
264.035	208.69
264.267	223.69
264.499	225.69
264.732	223.69
264.964	233.69
265.197	236.69
265.429	224.69
265.661	211.69
265.894	220.69
266.126	220.69
266.358	226.69
266.591	231.69
266.823	231.69
267.055	228.69
267.287	252.69
267.52	244.69
267.752	260.69
267.984	246.69
268.216	253.69
268.448	262.69
268.681	239.69
268.913	247.69
269.145	279.69
269.377	302.69
269.609	291.69
269.841	277.69
270.073	302.69
270.306	299.69
270.538	335.69
270.77	345.69
271.002	314.69
271.234	302.69
271.466	323.69
271.698	342.69
271.93	340.69
272.162	348.69
272.394	326.69
272.626	340.69
272.858	306.69
273.09	290.69
273.322	315.69
273.553	274.69
273.785	269.69
274.017	293.69
274.249	279.69
274.481	266.69
274.713	272.69
274.945	287.69
275.176	299.69
275.408	301.69
275.64	265.69
275.872	286.69
276.104	269.69
276.335	291.69
276.567	295.69
276.799	290.69
277.031	333.69
277.262	344.69
277.494	354.69
277.726	330.69
277.957	303.69
278.189	296.69
278.421	279.69
278.652	298.69
278.884	285.69
279.115	273.69
279.347	282.69
279.579	264.69
279.81	274.69
280.042	276.69
280.273	269.69
280.505	283.69
280.736	286.69
280.968	281.69
281.199	270.69
281.431	284.69
281.662	280.69
281.894	290.69
282.125	293.69
282.356	298.69
282.588	318.69
282.819	309.69
283.051	278.69
283.282	274.69
283.513	273.69
283.745	289.69
283.976	294.69
284.207	292.69
284.439	275.69
284.67	274.69
284.901	281.69
285.132	277.69
285.364	281.69
285.595	272.69
285.826	276.69
286.057	278.69
286.288	277.69
286.52	288.69
286.751	284.69
286.982	287.69
287.213	287.69
287.444	284.69
287.675	295.69
287.906	281.69
288.138	305.69
288.369	307.69
288.6	320.69
288.831	304.69
289.062	288.69
289.293	297.69
289.524	269.69
289.755	291.69
289.986	303.69
290.217	290.69
290.448	282.69
290.679	291.69
290.91	299.69
291.141	267.69
291.371	281.69
291.602	280.69
291.833	282.69
292.064	292.69
292.295	285.69
292.526	299.69
292.757	314.69
292.987	293.69
293.218	296.69
293.449	287.69
293.68	290.69
293.91	291.69
294.141	292.69
294.372	279.69
294.603	301.69
294.833	306.69
295.064	295.69
295.295	294.69
295.525	298.69
295.756	287.69
295.987	308.69
296.217	342.69
296.448	348.69
296.679	302.69
296.909	288.69
297.14	310.69
297.37	303.69
297.601	275.69
297.831	299.69
298.062	300.69
298.292	309.69
298.523	304.69
298.753	299.69
298.984	309.69
299.214	301.69
299.445	304.69
299.675	304.69
299.905	317.69
300.136	301.69
300.366	292.69
300.597	292.69
300.827	305.69
301.057	320.69
301.288	347.69
301.518	334.69
301.748	331.69
301.979	332.69
302.209	327.69
302.439	342.69
302.669	330.69
302.9	336.69
303.13	324.69
303.36	336.69
303.59	335.69
303.82	323.69
304.051	316.69
304.281	333.69
304.511	339.69
304.741	318.69
304.971	326.69
305.201	330.69
305.431	345.69
305.661	346.69
305.891	330.69
306.121	328.69
306.352	332.69
306.582	339.69
306.812	316.69
307.042	343.69
307.272	324.69
307.502	329.69
307.731	341.69
307.961	350.69
308.191	342.69
308.421	318.69
308.651	353.69
308.881	334.69
309.111	350.69
309.341	375.69
309.571	345.69
309.8	353.69
310.03	360.69
310.26	367.69
310.49	398.69
310.72	404.69
310.949	418.69
311.179	437.69
311.409	406.69
311.639	402.69
311.868	405.69
312.098	407.69
312.328	394.69
312.557	417.69
312.787	431.69
313.017	409.69
313.246	393.69
313.476	398.69
313.706	386.69
313.935	377.69
314.165	415.69
314.394	418.69
314.624	417.69
314.853	413.69
315.083	411.69
315.312	378.69
315.542	382.69
315.771	388.69
316.001	377.69
316.23	399.69
316.46	378.69
316.689	409.69
316.919	398.69
317.148	392.69
317.377	399.69
317.607	408.69
317.836	376.69
318.065	390.69
318.295	377.69
318.524	391.69
318.753	378.69
318.983	398.69
319.212	384.69
319.441	399.69
319.67	398.69
319.9	393.69
320.129	401.69
320.358	410.69
320.587	402.69
320.816	418.69
321.046	412.69
321.275	411.69
321.504	417.69
321.733	421.69
321.962	420.69
322.191	461.69
322.42	449.69
322.649	473.69
322.878	480.69
323.108	487.69
323.337	519.69
323.566	543.69
323.795	585.69
324.024	660.69
324.253	776.69
324.482	1132.69
324.71	1693.69
324.939	2396.69
325.168	2095.69
325.397	1142.69
325.626	758.69
325.855	626.69
326.084	566.69
326.313	552.69
326.542	585.69
326.77	619.69
326.999	744.69
327.228	1030.69
327.457	1508.69
327.686	1877.69
327.914	1282.69
328.143	830.69
328.372	696.69
328.6	662.69
328.829	630.69
329.058	668.69
329.287	670.69
329.515	631.69
329.744	587.69
329.972	566.69
330.201	590.69
330.43	643.69
330.658	674.69
330.887	686.69
331.115	676.69
331.344	588.69
331.572	528.69
331.801	542.69
332.03	547.69
332.258	513.69
332.486	451.69
332.715	460.69
332.943	465.69
333.172	478.69
333.4	490.69
333.629	464.69
333.857	509.69
334.085	514.69
334.314	536.69
334.542	581.69
334.771	587.69
334.999	532.69
335.227	517.69
335.455	494.69
335.684	479.69
335.912	474.69
336.14	458.69
336.369	457.69
336.597	486.69
336.825	471.69
337.053	449.69
337.281	429.69
337.51	442.69
337.738	444.69
337.966	466.69
338.194	489.69
338.422	475.69
338.65	448.69
338.878	421.69
339.106	416.69
339.334	436.69
339.562	438.69
339.79	436.69
340.018	446.69
340.246	441.69
340.474	443.69
340.702	434.69
340.93	437.69
341.158	442.69
341.386	451.69
341.614	445.69
341.842	469.69
342.07	436.69
342.298	435.69
342.526	445.69
342.754	446.69
342.981	425.69
343.209	430.69
343.437	437.69
343.665	432.69
343.893	449.69
344.12	444.69
344.348	469.69
344.576	434.69
344.804	434.69
345.031	457.69
345.259	479.69
345.487	475.69
345.714	445.69
345.942	437.69
346.17	453.69
346.397	450.69
346.625	443.69
346.853	426.69
347.08	414.69
347.308	452.69
347.535	463.69
347.763	463.69
347.99	455.69
348.218	462.69
348.445	468.69
348.673	462.69
348.9	439.69
349.128	441.69
349.355	434.69
349.583	435.69
349.81	438.69
350.037	429.69
350.265	451.69
350.492	437.69
350.72	446.69
350.947	416.69
351.174	456.69
351.402	473.69
351.629	452.69
351.856	427.69
352.083	455.69
352.311	467.69
352.538	469.69
352.765	447.69
352.992	469.69
353.22	458.69
353.447	466.69
353.674	435.69
353.901	427.69
354.128	414.69
354.355	398.69
354.583	413.69
354.81	412.69
355.037	424.69
355.264	410.69
355.491	377.69
355.718	408.69
355.945	430.69
356.172	403.69
356.399	411.69
356.626	407.69
356.853	416.69
357.08	411.69
357.307	427.69
357.534	416.69
357.761	420.69
357.988	428.69
358.215	403.69
358.441	437.69
358.668	397.69
358.895	423.69
359.122	435.69
359.349	437.69
359.576	451.69
359.802	472.69
360.029	480.69
360.256	527.69
360.483	522.69
360.709	461.69
360.936	449.69
361.163	445.69
361.39	449.69
361.616	450.69
361.843	459.69
362.07	463.69
362.296	448.69
362.523	445.69
362.749	471.69
362.976	426.69
363.203	434.69
363.429	427.69
363.656	431.69
363.882	428.69
364.109	438.69
364.335	418.69
364.562	424.69
364.788	426.69
365.015	410.69
365.241	422.69
365.468	428.69
365.694	435.69
365.92	463.69
366.147	434.69
366.373	436.69
366.599	413.69
366.826	429.69
367.052	411.69
367.278	418.69
367.505	429.69
367.731	431.69
367.957	427.69
368.184	413.69
368.41	439.69
368.636	446.69
368.862	446.69
369.089	425.69
369.315	444.69
369.541	437.69
369.767	458.69
369.993	445.69
370.219	411.69
370.445	428.69
370.672	422.69
370.898	425.69
371.124	439.69
371.35	441.69
371.576	418.69
371.802	440.69
372.028	414.69
372.254	405.69
372.48	414.69
372.706	419.69
372.932	420.69
373.158	433.69
373.384	436.69
373.61	436.69
373.835	419.69
374.061	427.69
374.287	439.69
374.513	431.69
374.739	449.69
374.965	441.69
375.191	437.69
375.416	413.69
375.642	416.69
375.868	454.69
376.094	418.69
376.319	437.69
376.545	413.69
376.771	420.69
376.997	414.69
377.222	428.69
377.448	417.69
377.674	419.69
377.899	417.69
378.125	413.69
378.35	420.69
378.576	409.69
378.802	415.69
379.027	443.69
379.253	440.69
379.478	415.69
379.704	438.69
379.929	416.69
380.155	449.69
380.38	426.69
380.606	411.69
380.831	441.69
381.057	455.69
381.282	429.69
381.507	430.69
381.733	439.69
381.958	427.69
382.184	415.69
382.409	439.69
382.634	439.69
382.86	443.69
383.085	426.69
383.31	434.69
383.535	427.69
383.761	450.69
383.986	433.69
384.211	448.69
384.436	455.69
384.662	443.69
384.887	459.69
385.112	441.69
385.337	447.69
385.562	459.69
385.787	466.69
386.013	468.69
386.238	480.69
386.463	464.69
386.688	452.69
386.913	452.69
387.138	446.69
387.363	454.69
387.588	462.69
387.813	454.69
388.038	464.69
388.263	448.69
388.488	453.69
388.713	461.69
388.938	455.69
389.163	473.69
389.387	474.69
389.612	421.69
389.837	436.69
390.062	450.69
390.287	471.69
390.512	463.69
390.736	445.69
390.961	457.69
391.186	453.69
391.411	474.69
391.636	426.69
391.86	475.69
392.085	484.69
392.31	486.69
392.534	462.69
392.759	460.69
392.984	485.69
393.208	475.69
393.433	493.69
393.658	464.69
393.882	460.69
394.107	468.69
394.331	460.69
394.556	453.69
394.78	459.69
395.005	482.69
395.229	456.69
395.454	458.69
395.678	478.69
395.903	514.69
396.127	514.69
396.352	495.69
396.576	475.69
396.801	482.69
397.025	499.69
397.249	491.69
397.474	506.69
397.698	501.69
397.922	513.69
398.147	508.69
398.371	537.69
398.595	536.69
398.82	532.69
399.044	529.69
399.268	534.69
399.492	554.69
399.717	580.69
399.941	615.69
400.165	627.69
400.389	643.69
400.613	585.69
400.837	566.69
401.062	529.69
401.286	528.69
401.51	518.69
401.734	505.69
401.958	516.69
402.182	539.69
402.406	550.69
402.63	537.69
402.854	550.69
403.078	547.69
403.302	545.69
403.526	558.69
403.75	568.69
403.974	552.69
404.198	551.69
404.422	561.69
404.645	588.69
404.869	576.69
405.093	575.69
405.317	660.69
405.541	672.69
405.765	638.69
405.988	590.69
406.212	615.69
406.436	634.69
406.66	648.69
406.883	632.69
407.107	666.69
407.331	715.69
407.555	726.69
407.778	752.69
408.002	673.69
408.226	610.69
408.449	593.69
408.673	610.69
408.896	637.69
409.12	700.69
409.344	651.69
409.567	588.69
409.791	539.69
410.014	569.69
410.238	527.69
410.461	559.69
410.685	567.69
410.908	569.69
411.132	631.69
411.355	651.69
411.578	610.69
411.802	576.69
412.025	570.69
412.249	560.69
412.472	587.69
412.695	631.69
412.919	618.69
413.142	558.69
413.365	560.69
413.589	574.69
413.812	555.69
414.035	517.69
414.258	520.69
414.482	520.69
414.705	520.69
414.928	522.69
415.151	533.69
415.374	538.69
415.597	535.69
415.821	538.69
416.044	526.69
416.267	543.69
416.49	533.69
416.713	542.69
416.936	552.69
417.159	533.69
417.382	534.69
417.605	548.69
417.828	589.69
418.051	564.69
418.274	550.69
418.497	542.69
418.72	525.69
418.943	524.69
419.166	558.69
419.389	594.69
419.611	563.69
419.834	568.69
420.057	557.69
420.28	589.69
420.503	592.69
420.726	573.69
420.948	573.69
421.171	638.69
421.394	669.69
421.617	602.69
421.839	571.69
422.062	584.69
422.285	591.69
422.507	666.69
422.73	712.69
422.953	711.69
423.175	625.69
423.398	597.69
423.621	576.69
423.843	620.69
424.066	618.69
424.288	607.69
424.511	645.69
424.733	712.69
424.956	791.69
425.178	754.69
425.401	759.69
425.623	782.69
425.846	669.69
426.068	653.69
426.291	631.69
426.513	590.69
426.735	644.69
426.958	663.69
427.18	772.69
427.402	872.69
427.625	961.69
427.847	902.69
428.069	795.69
428.292	711.69
428.514	640.69
428.736	607.69
428.958	587.69
429.181	587.69
429.403	576.69
429.625	574.69
429.847	632.69
430.069	696.69
430.292	732.69
430.514	617.69
430.736	579.69
430.958	582.69
431.18	569.69
431.402	557.69
431.624	558.69
431.846	538.69
432.068	533.69
432.29	554.69
432.512	549.69
432.734	568.69
432.956	564.69
433.178	557.69
433.4	565.69
433.622	562.69
433.844	532.69
434.066	529.69
434.287	540.69
434.509	528.69
434.731	555.69
434.953	578.69
435.175	566.69
435.397	632.69
435.618	628.69
435.84	663.69
436.062	783.69
436.284	815.69
436.505	725.69
436.727	639.69
436.949	610.69
437.17	577.69
437.392	577.69
437.614	618.69
437.835	639.69
438.057	745.69
438.278	845.69
438.5	875.69
438.721	921.69
438.943	884.69
439.165	727.69
439.386	672.69
439.608	652.69
439.829	646.69
440.05	698.69
440.272	710.69
440.493	674.69
440.715	633.69
440.936	607.69
441.158	621.69
441.379	571.69
441.6	606.69
441.822	608.69
442.043	676.69
442.264	751.69
442.486	809.69
442.707	702.69
442.928	656.69
443.149	659.69
443.371	687.69
443.592	694.69
443.813	799.69
444.034	893.69
444.255	734.69
444.476	656.69
444.698	627.69
444.919	633.69
445.14	726.69
445.361	693.69
445.582	690.69
445.803	742.69
446.024	846.69
446.245	847.69
446.466	777.69
446.687	684.69
446.908	629.69
447.129	593.69
447.35	611.69
447.571	596.69
447.792	590.69
448.013	600.69
448.234	615.69
448.455	676.69
448.675	814.69
448.896	921.69
449.117	782.69
449.338	734.69
449.559	842.69
449.779	939.69
450	790.69
450.221	654.69
450.442	594.69
450.662	601.69
450.883	588.69
451.104	624.69
451.324	602.69
451.545	569.69
451.766	532.69
451.986	501.69
452.207	511.69
452.428	516.69
452.648	529.69
452.869	521.69
453.089	539.69
453.31	573.69
453.53	528.69
453.751	506.69
453.971	534.69
454.192	536.69
454.412	551.69
454.633	530.69
454.853	536.69
455.073	538.69
455.294	557.69
455.514	628.69
455.734	615.69
455.955	543.69
456.175	521.69
456.395	514.69
456.616	510.69
456.836	498.69
457.056	487.69
457.276	483.69
457.497	496.69
457.717	493.69
457.937	501.69
458.157	521.69
458.377	522.69
458.598	534.69
458.818	604.69
459.038	712.69
459.258	703.69
459.478	603.69
459.698	543.69
459.918	537.69
460.138	526.69
460.358	530.69
460.578	540.69
460.798	558.69
461.018	557.69
461.238	562.69
461.458	547.69
461.678	548.69
461.898	578.69
462.118	562.69
462.338	538.69
462.558	562.69
462.777	555.69
462.997	534.69
463.217	557.69
463.437	583.69
463.657	560.69
463.876	554.69
464.096	574.69
464.316	554.69
464.536	580.69
464.755	586.69
464.975	560.69
465.195	637.69
465.414	714.69
465.634	672.69
465.854	604.69
466.073	574.69
466.293	548.69
466.512	534.69
466.732	533.69
466.951	527.69
467.171	551.69
467.391	535.69
467.61	544.69
467.829	526.69
468.049	551.69
468.268	543.69
468.488	537.69
468.707	507.69
468.927	529.69
469.146	486.69
469.365	525.69
469.585	503.69
469.804	502.69
470.023	555.69
470.243	538.69
470.462	540.69
470.681	575.69
470.901	584.69
471.12	523.69
471.339	565.69
471.558	550.69
471.777	565.69
471.997	540.69
472.216	546.69
472.435	600.69
472.654	581.69
472.873	568.69
473.092	534.69
473.311	561.69
473.53	568.69
473.749	572.69
473.968	606.69
474.187	708.69
474.406	746.69
474.625	615.69
474.844	570.69
475.063	555.69
475.282	540.69
475.501	555.69
475.72	552.69
475.939	569.69
476.158	557.69
476.377	564.69
476.596	576.69
476.814	573.69
477.033	596.69
477.252	573.69
477.471	574.69
477.69	588.69
477.908	586.69
478.127	600.69
478.346	601.69
478.564	579.69
478.783	581.69
479.002	623.69
479.22	614.69
479.439	642.69
479.658	679.69
479.876	649.69
480.095	662.69
480.313	707.69
480.532	687.69
480.751	669.69
480.969	664.69
481.188	762.69
481.406	812.69
481.624	703.69
481.843	662.69
482.061	660.69
482.28	650.69
482.498	657.69
482.717	652.69
482.935	632.69
483.153	639.69
483.372	669.69
483.59	639.69
483.808	655.69
484.027	683.69
484.245	634.69
484.463	662.69
484.681	675.69
484.9	664.69
485.118	674.69
485.336	654.69
485.554	671.69
485.772	689.69
485.99	646.69
486.209	677.69
486.427	688.69
486.645	699.69
486.863	735.69
487.081	737.69
487.299	719.69
487.517	708.69
487.735	716.69
487.953	700.69
488.171	712.69
488.389	715.69
488.607	710.69
488.825	702.69
489.043	731.69
489.261	737.69
489.479	720.69
489.696	748.69
489.914	699.69
490.132	722.69
490.35	747.69
490.568	735.69
490.786	740.69
491.003	781.69
491.221	814.69
491.439	796.69
491.657	821.69
491.874	815.69
492.092	824.69
492.31	820.69
492.527	834.69
492.745	822.69
492.963	848.69
493.18	857.69
493.398	850.69
493.615	851.69
493.833	867.69
494.05	884.69
494.268	840.69
494.485	861.69
494.703	863.69
494.92	838.69
495.138	873.69
495.355	866.69
495.573	855.69
495.79	866.69
496.008	852.69
496.225	871.69
496.442	862.69
496.66	861.69
496.877	862.69
497.094	859.69
497.312	859.69
497.529	871.69
497.746	904.69
497.963	879.69
498.181	901.69
498.398	907.69
498.615	892.69
498.832	928.69
499.049	895.69
499.267	938.69
499.484	983.69
499.701	979.69
499.918	986.69
500.135	1021.69
500.352	1022.69
500.569	1079.69
500.786	1070.69
501.003	1082.69
501.22	1052.69
501.437	1026.69
501.654	1031.69
501.871	1037.69
502.088	998.69
502.305	951.69
502.522	950.69
502.739	909.69
502.956	914.69
503.172	901.69
503.389	870.69
503.606	896.69
503.823	861.69
504.04	860.69
504.256	869.69
504.473	820.69
504.69	874.69
504.907	828.69
505.123	853.69
505.34	790.69
505.557	838.69
505.773	853.69
505.99	838.69
506.207	825.69
506.423	824.69
506.64	838.69
506.856	835.69
507.073	801.69
507.289	792.69
507.506	817.69
507.722	807.69
507.939	863.69
508.155	847.69
508.372	781.69
508.588	776.69
508.805	792.69
509.021	788.69
509.238	775.69
509.454	805.69
509.67	784.69
509.887	799.69
510.103	784.69
510.319	805.69
510.536	898.69
510.752	1517.69
510.968	1269.69
511.184	828.69
511.401	764.69
511.617	775.69
511.833	740.69
512.049	748.69
512.265	718.69
512.481	732.69
512.698	734.69
512.914	706.69
513.13	754.69
513.346	744.69
513.562	724.69
513.778	740.69
513.994	754.69
514.21	772.69
514.426	778.69
514.642	854.69
514.858	867.69
515.074	924.69
515.29	1106.69
515.506	1666.69
515.721	1362.69
515.937	910.69
516.153	830.69
516.369	790.69
516.585	790.69
516.801	772.69
517.016	749.69
517.232	754.69
517.448	749.69
517.664	740.69
517.879	744.69
518.095	762.69
518.311	746.69
518.527	741.69
518.742	746.69
518.958	725.69
519.173	738.69
519.389	761.69
519.605	764.69
519.82	752.69
520.036	760.69
520.251	791.69
520.467	814.69
520.682	826.69
520.898	836.69
521.113	894.69
521.329	943.69
521.544	1030.69
521.76	1350.69
521.975	2201.69
522.19	2182.69
522.406	1203.69
522.621	866.69
522.836	806.69
523.052	747.69
523.267	719.69
523.482	703.69
523.698	697.69
523.913	689.69
524.128	712.69
524.343	676.69
524.559	671.69
524.774	651.69
524.989	653.69
525.204	652.69
525.419	655.69
525.634	657.69
525.849	644.69
526.064	626.69
526.28	632.69
526.495	610.69
526.71	615.69
526.925	618.69
527.14	591.69
527.355	606.69
527.57	590.69
527.785	602.69
527.999	602.69
528.214	603.69
528.429	618.69
528.644	599.69
528.859	600.69
529.074	599.69
529.289	633.69
529.503	740.69
529.718	716.69
529.933	639.69
530.148	622.69
530.363	626.69
530.577	599.69
530.792	570.69
531.007	580.69
531.221	581.69
531.436	599.69
531.651	592.69
531.865	570.69
532.08	574.69
532.295	583.69
532.509	574.69
532.724	568.69
532.938	575.69
533.153	564.69
533.367	564.69
533.582	579.69
533.796	557.69
534.011	564.69
534.225	553.69
534.44	532.69
534.654	550.69
534.868	530.69
535.083	548.69
535.297	548.69
535.511	568.69
535.726	580.69
535.94	581.69
536.154	539.69
536.369	546.69
536.583	535.69
536.797	547.69
537.011	543.69
537.225	547.69
537.44	538.69
537.654	535.69
537.868	528.69
538.082	521.69
538.296	538.69
538.51	543.69
538.724	557.69
538.938	553.69
539.153	549.69
539.367	554.69
539.581	533.69
539.795	544.69
540.009	532.69
540.222	533.69
540.436	558.69
540.65	543.69
540.864	542.69
541.078	545.69
541.292	542.69
541.506	565.69
541.72	534.69
541.934	548.69
542.147	546.69
542.361	551.69
542.575	526.69
542.789	529.69
543.002	531.69
543.216	558.69
543.43	546.69
543.644	538.69
543.857	560.69
544.071	532.69
544.285	538.69
544.498	531.69
544.712	539.69
544.925	544.69
545.139	542.69
545.352	533.69
545.566	530.69
545.779	509.69
545.993	538.69
546.206	541.69
546.42	538.69
546.633	514.69
546.847	505.69
547.06	508.69
547.274	518.69
547.487	515.69
547.7	498.69
547.914	500.69
548.127	508.69
548.34	516.69
548.554	511.69
548.767	518.69
548.98	495.69
549.193	521.69
549.407	531.69
549.62	494.69
549.833	489.69
550.046	519.69
550.259	510.69
550.473	485.69
550.686	482.69
550.899	509.69
551.112	477.69
551.325	509.69
551.538	480.69
551.751	483.69
551.964	495.69
552.177	477.69
552.39	485.69
552.603	491.69
552.816	498.69
553.029	507.69
553.242	506.69
553.455	519.69
553.667	528.69
553.88	536.69
554.093	513.69
554.306	507.69
554.519	494.69
554.732	514.69
554.944	509.69
555.157	491.69
555.37	486.69
555.583	496.69
555.795	511.69
556.008	462.69
556.221	471.69
556.433	461.69
556.646	470.69
556.859	467.69
557.071	461.69
557.284	455.69
557.496	473.69
557.709	450.69
557.921	440.69
558.134	434.69
558.346	442.69
558.559	446.69
558.771	460.69
558.984	454.69
559.196	442.69
559.409	469.69
559.621	450.69
559.833	447.69
560.046	456.69
560.258	440.69
560.47	444.69
560.683	450.69
560.895	453.69
561.107	435.69
561.32	456.69
561.532	460.69
561.744	458.69
561.956	458.69
562.168	443.69
562.381	441.69
562.593	440.69
562.805	449.69
563.017	461.69
563.229	469.69
563.441	461.69
563.653	440.69
563.865	450.69
564.077	429.69
564.289	460.69
564.501	450.69
564.713	472.69
564.925	471.69
565.137	467.69
565.349	479.69
565.561	463.69
565.773	470.69
565.985	482.69
566.197	471.69
566.408	468.69
566.62	513.69
566.832	494.69
567.044	502.69
567.255	503.69
567.467	527.69
567.679	501.69
567.891	519.69
568.102	503.69
568.314	526.69
568.526	493.69
568.737	479.69
568.949	463.69
569.161	452.69
569.372	446.69
569.584	435.69
569.795	451.69
570.007	458.69
570.218	517.69
570.43	491.69
570.641	449.69
570.853	436.69
571.064	439.69
571.276	442.69
571.487	432.69
571.698	402.69
571.91	412.69
572.121	430.69
572.333	413.69
572.544	406.69
572.755	379.69
572.966	401.69
573.178	387.69
573.389	407.69
573.6	425.69
573.811	380.69
574.023	392.69
574.234	390.69
574.445	394.69
574.656	417.69
574.867	373.69
575.078	384.69
575.289	386.69
575.501	386.69
575.712	381.69
575.923	387.69
576.134	379.69
576.345	392.69
576.556	387.69
576.767	375.69
576.978	389.69
577.188	363.69
577.399	361.69
577.61	359.69
577.821	378.69
578.032	380.69
578.243	426.69
578.454	679.69
578.665	518.69
578.875	386.69
579.086	379.69
579.297	365.69
579.508	370.69
579.718	338.69
579.929	361.69
580.14	372.69
580.35	346.69
580.561	348.69
580.772	357.69
580.982	346.69
581.193	351.69
581.403	340.69
581.614	356.69
581.825	343.69
582.035	335.69
582.246	345.69
582.456	358.69
582.667	371.69
582.877	344.69
583.087	359.69
583.298	351.69
583.508	339.69
583.719	358.69
583.929	327.69
584.139	324.69
584.35	331.69
584.56	345.69
584.77	325.69
584.981	334.69
585.191	340.69
585.401	327.69
585.611	350.69
585.821	339.69
586.032	351.69
586.242	338.69
586.452	335.69
586.662	335.69
586.872	337.69
587.082	330.69
587.292	330.69
587.502	322.69
587.713	334.69
587.923	326.69
588.133	328.69
588.343	339.69
588.553	334.69
588.762	312.69
588.972	312.69
589.182	318.69
589.392	327.69
589.602	320.69
589.812	328.69
590.022	327.69
590.232	323.69
590.441	339.69
590.651	346.69
590.861	312.69
591.071	318.69
591.281	326.69
591.49	329.69
591.7	325.69
591.91	340.69
592.119	334.69
592.329	320.69
592.539	351.69
592.748	330.69
592.958	340.69
593.167	337.69
593.377	342.69
593.587	319.69
593.796	348.69
594.006	338.69
594.215	324.69
594.424	342.69
594.634	329.69
594.843	330.69
595.053	356.69
595.262	330.69
595.472	315.69
595.681	322.69
595.89	311.69
596.1	314.69
596.309	331.69
596.518	321.69
596.727	323.69
596.937	298.69
597.146	318.69
597.355	322.69
597.564	308.69
597.774	302.69
597.983	297.69
598.192	303.69
598.401	288.69
598.61	318.69
598.819	299.69
599.028	310.69
599.237	290.69
599.446	296.69
599.655	307.69
599.864	270.69
600.073	298.69
600.282	294.69
600.491	287.69
600.7	295.69
600.909	288.69
601.118	318.69
601.327	284.69
601.536	293.69
601.745	296.69
601.953	286.69
602.162	259.69
602.371	289.69
602.58	282.69
602.789	290.69
602.997	281.69
603.206	296.69
603.415	293.69
603.623	272.69
603.832	291.69
604.041	287.69
604.249	288.69
604.458	280.69
604.666	274.69
604.875	296.69
605.084	282.69
605.292	267.69
605.501	282.69
605.709	283.69
605.918	282.69
606.126	280.69
606.334	271.69
606.543	292.69
606.751	283.69
606.96	283.69
607.168	266.69
607.376	277.69
607.585	269.69
607.793	293.69
608.001	286.69
608.21	279.69
608.418	284.69
608.626	249.69
608.834	276.69
609.043	282.69
609.251	288.69
609.459	283.69
609.667	291.69
609.875	262.69
610.083	270.69
610.291	269.69
610.499	272.69
610.707	279.69
610.916	274.69
611.124	281.69
611.332	272.69
611.54	275.69
611.748	276.69
611.955	274.69
612.163	275.69
612.371	273.69
612.579	265.69
612.787	275.69
612.995	276.69
613.203	267.69
613.411	254.69
613.618	276.69
613.826	283.69
614.034	262.69
614.242	282.69
614.449	258.69
614.657	263.69
614.865	266.69
615.072	272.69
615.28	255.69
615.488	242.69
615.695	259.69
615.903	252.69
616.111	273.69
616.318	272.69
616.526	262.69
616.733	239.69
616.941	242.69
617.148	254.69
617.356	254.69
617.563	277.69
617.771	273.69
617.978	266.69
618.185	264.69
618.393	243.69
618.6	268.69
618.807	262.69
619.015	250.69
619.222	248.69
619.429	266.69
619.637	274.69
619.844	264.69
620.051	263.69
620.258	248.69
620.466	252.69
620.673	233.69
620.88	255.69
621.087	253.69
621.294	260.69
621.501	254.69
621.708	262.69
621.915	246.69
622.122	252.69
622.329	258.69
622.536	255.69
622.743	252.69
622.95	254.69
623.157	231.69
623.364	227.69
623.571	234.69
623.778	235.69
623.985	246.69
624.192	230.69
624.399	242.69
624.606	240.69
624.812	220.69
625.019	233.69
625.226	246.69
625.433	236.69
625.639	233.69
625.846	217.69
626.053	229.69
626.259	231.69
626.466	236.69
626.673	226.69
626.879	229.69
627.086	228.69
627.293	214.69
627.499	232.69
627.706	224.69
627.912	240.69
628.119	228.69
628.325	230.69
628.532	243.69
628.738	232.69
628.945	219.69
629.151	222.69
629.357	218.69
629.564	216.69
629.77	222.69
629.976	236.69
630.183	212.69
630.389	212.69
630.595	213.69
630.802	223.69
631.008	214.69
631.214	215.69
631.42	214.69
631.627	208.69
631.833	208.69
632.039	200.69
632.245	211.69
632.451	203.69
632.657	205.69
632.863	228.69
633.069	207.69
633.275	198.69
633.481	207.69
633.688	197.69
633.893	214.69
634.099	203.69
634.305	196.69
634.511	205.69
634.717	204.69
634.923	182.69
635.129	199.69
635.335	184.69
635.541	214.69
635.747	194.69
635.952	196.69
636.158	202.69
636.364	212.69
636.57	221.69
636.775	210.69
636.981	201.69
637.187	202.69
637.392	210.69
637.598	194.69
637.804	199.69
638.009	194.69
638.215	179.69
638.421	172.69
638.626	190.69
638.832	198.69
639.037	191.69
639.243	202.69
639.448	168.69
639.654	189.69
639.859	184.69
640.065	190.69
640.27	186.69
640.475	184.69
640.681	201.69
640.886	204.69
641.091	204.69
641.297	179.69
641.502	189.69
641.707	198.69
641.913	179.69
642.118	190.69
642.323	170.69
642.528	178.69
642.733	188.69
642.939	196.69
643.144	182.69
643.349	194.69
643.554	181.69
643.759	189.69
643.964	162.69
644.169	171.69
644.374	177.69
644.579	182.69
644.784	172.69
644.989	178.69
645.194	208.69
645.399	182.69
645.604	172.69
645.809	183.69
646.014	186.69
646.219	180.69
646.423	179.69
646.628	171.69
646.833	159.69
647.038	179.69
647.243	175.69
647.447	185.69
647.652	189.69
647.857	179.69
648.062	183.69
648.266	185.69
648.471	186.69
648.676	175.69
648.88	178.69
649.085	186.69
649.289	171.69
649.494	198.69
649.698	190.69
649.903	195.69
650.107	182.69
650.312	184.69
650.516	178.69
650.721	171.69
650.925	170.69
651.13	180.69
651.334	162.69
651.539	154.69
651.743	158.69
651.947	165.69
652.152	159.69
652.356	164.69
652.56	163.69
652.764	158.69
652.969	159.69
653.173	151.69
653.377	139.69
653.581	134.69
653.785	142.69
653.99	144.69
654.194	154.69
654.398	144.69
654.602	151.69
654.806	164.69
655.01	155.69
655.214	153.69
655.418	132.69
655.622	136.69
655.826	141.69
656.03	139.69
656.234	150.69
656.438	125.69
656.642	131.69
656.846	156.69
657.049	134.69
657.253	131.69
657.457	137.69
657.661	126.69
657.865	121.69
658.068	116.69
658.272	116.69
658.476	110.69
658.68	108.69
658.883	114.69
659.087	110.69
659.291	92.69
659.494	96.69
659.698	96.69
659.901	108.69
660.105	97.69
660.309	95.69
660.512	98.69
660.716	110.69
660.919	98.69
661.123	105.69
661.326	92.69
661.53	96.69
661.733	84.69
661.936	88.69
662.14	85.69
662.343	84.69
662.546	85.69
662.75	92.69
662.953	96.69
663.156	92.69
663.36	76.69
663.563	89.69
663.766	95.69
663.969	88.69
664.173	80.69
664.376	86.69
664.579	84.69
664.782	82.69
664.985	91.69
665.188	79.69
665.391	94.69
665.594	85.69
665.797	86.69
666	93.69
666.203	86.69
666.406	75.69
666.609	86.69
666.812	82.69
667.015	87.69
667.218	82.69
667.421	98.69
667.624	91.69
667.827	78.69
668.03	76.69
668.232	72.69
668.435	76.69
668.638	66.69
668.841	82.69
669.043	88.69
669.246	80.69
669.449	77.69
669.651	88.69
669.854	83.69
670.057	93.69
670.259	70.69
670.462	76.69
670.665	91.69
670.867	91.69
671.07	74.69
671.272	84.69
671.475	92.69
671.677	81.69
671.88	78.69
672.082	83.69
672.284	102.69
672.487	82.69
672.689	91.69
672.892	92.69
