Data from 1970.PennyLincolnUp.Lamp.En5.5.200Scan.071719.P1._HRD10591_15-15-18-841.txt Node
Date: Thu Jul 18 15:15:18 EDT 2019
User: cochatt
Spectrometer: HR+D1059
Trigger mode: 1
Integration Time (sec): 1.000000E-1
Scans to average: 1
Electric dark correction enabled: true
Nonlinearity correction enabled: false
Boxcar width: 0
XAxis mode: Wavelengths
Number of Pixels in Spectrum: 2048
>>>>>Begin Spectral Data<<<<<
223.165	-6.31
223.4	-6.31
223.635	-6.31
223.869	-16.31
224.104	-21.31
224.338	-18.31
224.573	-19.31
224.808	2.69
225.042	-5.31
225.277	-10.31
225.511	-6.31
225.746	-4.31
225.98	13.69
226.215	17.69
226.449	-1.31
226.683	17.69
226.918	21.69
227.152	35.69
227.387	19.69
227.621	40.69
227.856	44.69
228.09	39.69
228.324	38.69
228.559	58.69
228.793	95.69
229.027	118.69
229.262	128.69
229.496	137.69
229.73	175.69
229.964	188.69
230.199	144.69
230.433	115.69
230.667	123.69
230.901	125.69
231.136	119.69
231.37	116.69
231.604	129.69
231.838	136.69
232.072	122.69
232.306	127.69
232.541	112.69
232.775	117.69
233.009	121.69
233.243	113.69
233.477	116.69
233.711	118.69
233.945	124.69
234.179	124.69
234.413	124.69
234.647	118.69
234.881	121.69
235.115	118.69
235.349	133.69
235.583	130.69
235.817	115.69
236.051	131.69
236.285	140.69
236.519	130.69
236.753	140.69
236.987	161.69
237.221	232.69
237.455	276.69
237.689	231.69
237.922	173.69
238.156	145.69
238.39	152.69
238.624	137.69
238.858	120.69
239.091	140.69
239.325	133.69
239.559	146.69
239.793	140.69
240.027	160.69
240.26	151.69
240.494	177.69
240.728	168.69
240.961	168.69
241.195	164.69
241.429	165.69
241.662	158.69
241.896	156.69
242.13	156.69
242.363	152.69
242.597	146.69
242.83	161.69
243.064	162.69
243.298	143.69
243.531	149.69
243.765	152.69
243.998	144.69
244.232	154.69
244.465	147.69
244.699	169.69
244.932	171.69
245.166	164.69
245.399	157.69
245.633	175.69
245.866	165.69
246.099	174.69
246.333	176.69
246.566	174.69
246.8	159.69
247.033	163.69
247.266	182.69
247.5	192.69
247.733	169.69
247.966	189.69
248.2	194.69
248.433	188.69
248.666	202.69
248.899	178.69
249.133	205.69
249.366	239.69
249.599	208.69
249.832	213.69
250.066	206.69
250.299	229.69
250.532	216.69
250.765	232.69
250.998	268.69
251.231	272.69
251.465	238.69
251.698	236.69
251.931	224.69
252.164	227.69
252.397	213.69
252.63	215.69
252.863	249.69
253.096	242.69
253.329	260.69
253.562	266.69
253.795	249.69
254.028	244.69
254.261	234.69
254.494	251.69
254.727	296.69
254.96	318.69
255.193	329.69
255.426	309.69
255.659	291.69
255.892	251.69
256.124	260.69
256.357	265.69
256.59	264.69
256.823	245.69
257.056	230.69
257.289	234.69
257.521	224.69
257.754	246.69
257.987	231.69
258.22	230.69
258.452	239.69
258.685	240.69
258.918	227.69
259.151	238.69
259.383	255.69
259.616	248.69
259.849	240.69
260.081	260.69
260.314	285.69
260.547	294.69
260.779	265.69
261.012	259.69
261.244	264.69
261.477	256.69
261.71	253.69
261.942	250.69
262.175	245.69
262.407	263.69
262.64	223.69
262.872	221.69
263.105	235.69
263.337	246.69
263.57	233.69
263.802	224.69
264.035	236.69
264.267	220.69
264.499	241.69
264.732	233.69
264.964	242.69
265.197	219.69
265.429	231.69
265.661	214.69
265.894	232.69
266.126	225.69
266.358	253.69
266.591	236.69
266.823	239.69
267.055	264.69
267.287	236.69
267.52	233.69
267.752	240.69
267.984	233.69
268.216	246.69
268.448	267.69
268.681	247.69
268.913	270.69
269.145	284.69
269.377	304.69
269.609	286.69
269.841	285.69
270.073	296.69
270.306	302.69
270.538	339.69
270.77	353.69
271.002	336.69
271.234	333.69
271.466	333.69
271.698	345.69
271.93	350.69
272.162	343.69
272.394	354.69
272.626	330.69
272.858	315.69
273.09	302.69
273.322	301.69
273.553	283.69
273.785	279.69
274.017	283.69
274.249	282.69
274.481	281.69
274.713	278.69
274.945	281.69
275.176	279.69
275.408	283.69
275.64	284.69
275.872	281.69
276.104	299.69
276.335	294.69
276.567	299.69
276.799	288.69
277.031	352.69
277.262	359.69
277.494	347.69
277.726	325.69
277.957	327.69
278.189	299.69
278.421	283.69
278.652	283.69
278.884	310.69
279.115	286.69
279.347	280.69
279.579	280.69
279.81	281.69
280.042	272.69
280.273	295.69
280.505	281.69
280.736	284.69
280.968	278.69
281.199	266.69
281.431	271.69
281.662	260.69
281.894	276.69
282.125	282.69
282.356	289.69
282.588	315.69
282.819	328.69
283.051	292.69
283.282	279.69
283.513	283.69
283.745	308.69
283.976	282.69
284.207	280.69
284.439	296.69
284.67	307.69
284.901	280.69
285.132	296.69
285.364	275.69
285.595	296.69
285.826	288.69
286.057	272.69
286.288	276.69
286.52	299.69
286.751	278.69
286.982	278.69
287.213	300.69
287.444	308.69
287.675	285.69
287.906	298.69
288.138	318.69
288.369	312.69
288.6	302.69
288.831	318.69
289.062	309.69
289.293	295.69
289.524	288.69
289.755	299.69
289.986	277.69
290.217	297.69
290.448	285.69
290.679	312.69
290.91	294.69
291.141	282.69
291.371	290.69
291.602	297.69
291.833	288.69
292.064	285.69
292.295	298.69
292.526	295.69
292.757	291.69
292.987	292.69
293.218	296.69
293.449	282.69
293.68	291.69
293.91	298.69
294.141	292.69
294.372	298.69
294.603	295.69
294.833	308.69
295.064	294.69
295.295	314.69
295.525	325.69
295.756	300.69
295.987	313.69
296.217	344.69
296.448	353.69
296.679	314.69
296.909	299.69
297.14	306.69
297.37	304.69
297.601	294.69
297.831	316.69
298.062	307.69
298.292	325.69
298.523	302.69
298.753	313.69
298.984	321.69
299.214	312.69
299.445	308.69
299.675	300.69
299.905	318.69
300.136	323.69
300.366	313.69
300.597	325.69
300.827	316.69
301.057	338.69
301.288	346.69
301.518	322.69
301.748	312.69
301.979	333.69
302.209	336.69
302.439	336.69
302.669	332.69
302.9	325.69
303.13	311.69
303.36	338.69
303.59	343.69
303.82	346.69
304.051	345.69
304.281	309.69
304.511	312.69
304.741	340.69
304.971	314.69
305.201	343.69
305.431	327.69
305.661	335.69
305.891	324.69
306.121	326.69
306.352	338.69
306.582	335.69
306.812	346.69
307.042	328.69
307.272	344.69
307.502	354.69
307.731	335.69
307.961	341.69
308.191	354.69
308.421	334.69
308.651	367.69
308.881	355.69
309.111	353.69
309.341	348.69
309.571	370.69
309.8	382.69
310.03	380.69
310.26	411.69
310.49	400.69
310.72	384.69
310.949	417.69
311.179	430.69
311.409	414.69
311.639	418.69
311.868	397.69
312.098	396.69
312.328	401.69
312.557	431.69
312.787	416.69
313.017	416.69
313.246	423.69
313.476	401.69
313.706	395.69
313.935	398.69
314.165	418.69
314.394	427.69
314.624	400.69
314.853	388.69
315.083	394.69
315.312	405.69
315.542	378.69
315.771	393.69
316.001	389.69
316.23	387.69
316.46	388.69
316.689	382.69
316.919	377.69
317.148	425.69
317.377	399.69
317.607	380.69
317.836	411.69
318.065	401.69
318.295	402.69
318.524	385.69
318.753	389.69
318.983	396.69
319.212	400.69
319.441	399.69
319.67	424.69
319.9	402.69
320.129	389.69
320.358	398.69
320.587	401.69
320.816	424.69
321.046	436.69
321.275	412.69
321.504	402.69
321.733	440.69
321.962	424.69
322.191	420.69
322.42	469.69
322.649	486.69
322.878	490.69
323.108	504.69
323.337	522.69
323.566	578.69
323.795	616.69
324.024	662.69
324.253	798.69
324.482	1149.69
324.71	1785.69
324.939	2562.69
325.168	2213.69
325.397	1162.69
325.626	779.69
325.855	637.69
326.084	574.69
326.313	561.69
326.542	570.69
326.77	624.69
326.999	740.69
327.228	1034.69
327.457	1556.69
327.686	1880.69
327.914	1294.69
328.143	861.69
328.372	757.69
328.6	695.69
328.829	644.69
329.058	651.69
329.287	668.69
329.515	613.69
329.744	582.69
329.972	557.69
330.201	603.69
330.43	658.69
330.658	696.69
330.887	716.69
331.115	672.69
331.344	590.69
331.572	545.69
331.801	548.69
332.03	533.69
332.258	508.69
332.486	502.69
332.715	452.69
332.943	477.69
333.172	484.69
333.4	469.69
333.629	503.69
333.857	500.69
334.085	517.69
334.314	533.69
334.542	577.69
334.771	606.69
334.999	550.69
335.227	519.69
335.455	478.69
335.684	498.69
335.912	474.69
336.14	473.69
336.369	472.69
336.597	482.69
336.825	487.69
337.053	470.69
337.281	465.69
337.51	470.69
337.738	447.69
337.966	436.69
338.194	451.69
338.422	457.69
338.65	470.69
338.878	462.69
339.106	454.69
339.334	463.69
339.562	449.69
339.79	436.69
340.018	444.69
340.246	448.69
340.474	465.69
340.702	461.69
340.93	465.69
341.158	446.69
341.386	455.69
341.614	456.69
341.842	473.69
342.07	438.69
342.298	447.69
342.526	466.69
342.754	427.69
342.981	428.69
343.209	431.69
343.437	454.69
343.665	451.69
343.893	431.69
344.12	452.69
344.348	454.69
344.576	462.69
344.804	445.69
345.031	466.69
345.259	496.69
345.487	475.69
345.714	472.69
345.942	442.69
346.17	458.69
346.397	441.69
346.625	452.69
346.853	449.69
347.08	437.69
347.308	439.69
347.535	475.69
347.763	467.69
347.99	445.69
348.218	479.69
348.445	478.69
348.673	476.69
348.9	465.69
349.128	444.69
349.355	444.69
349.583	416.69
349.81	436.69
350.037	436.69
350.265	449.69
350.492	432.69
350.72	449.69
350.947	456.69
351.174	469.69
351.402	462.69
351.629	468.69
351.856	481.69
352.083	478.69
352.311	458.69
352.538	469.69
352.765	465.69
352.992	465.69
353.22	447.69
353.447	429.69
353.674	452.69
353.901	426.69
354.128	432.69
354.355	424.69
354.583	422.69
354.81	419.69
355.037	424.69
355.264	402.69
355.491	406.69
355.718	409.69
355.945	394.69
356.172	409.69
356.399	413.69
356.626	413.69
356.853	438.69
357.08	388.69
357.307	404.69
357.534	419.69
357.761	390.69
357.988	434.69
358.215	423.69
358.441	401.69
358.668	408.69
358.895	425.69
359.122	431.69
359.349	447.69
359.576	458.69
359.802	474.69
360.029	518.69
360.256	532.69
360.483	518.69
360.709	454.69
360.936	461.69
361.163	467.69
361.39	460.69
361.616	458.69
361.843	441.69
362.07	460.69
362.296	470.69
362.523	453.69
362.749	448.69
362.976	441.69
363.203	437.69
363.429	443.69
363.656	448.69
363.882	437.69
364.109	449.69
364.335	452.69
364.562	440.69
364.788	418.69
365.015	436.69
365.241	440.69
365.468	449.69
365.694	457.69
365.92	451.69
366.147	440.69
366.373	431.69
366.599	425.69
366.826	423.69
367.052	446.69
367.278	427.69
367.505	428.69
367.731	421.69
367.957	434.69
368.184	432.69
368.41	455.69
368.636	462.69
368.862	465.69
369.089	452.69
369.315	423.69
369.541	438.69
369.767	416.69
369.993	424.69
370.219	438.69
370.445	445.69
370.672	440.69
370.898	431.69
371.124	427.69
371.35	437.69
371.576	434.69
371.802	436.69
372.028	428.69
372.254	430.69
372.48	414.69
372.706	398.69
372.932	428.69
373.158	406.69
373.384	431.69
373.61	434.69
373.835	429.69
374.061	436.69
374.287	418.69
374.513	436.69
374.739	451.69
374.965	435.69
375.191	437.69
375.416	431.69
375.642	448.69
375.868	438.69
376.094	432.69
376.319	425.69
376.545	418.69
376.771	441.69
376.997	433.69
377.222	420.69
377.448	413.69
377.674	429.69
377.899	424.69
378.125	412.69
378.35	435.69
378.576	408.69
378.802	428.69
379.027	441.69
379.253	452.69
379.478	433.69
379.704	440.69
379.929	420.69
380.155	453.69
380.38	438.69
380.606	429.69
380.831	424.69
381.057	437.69
381.282	439.69
381.507	438.69
381.733	440.69
381.958	440.69
382.184	436.69
382.409	421.69
382.634	453.69
382.86	434.69
383.085	428.69
383.31	441.69
383.535	438.69
383.761	448.69
383.986	458.69
384.211	461.69
384.436	436.69
384.662	438.69
384.887	442.69
385.112	458.69
385.337	483.69
385.562	457.69
385.787	460.69
386.013	475.69
386.238	480.69
386.463	481.69
386.688	466.69
386.913	455.69
387.138	466.69
387.363	478.69
387.588	453.69
387.813	473.69
388.038	468.69
388.263	473.69
388.488	465.69
388.713	484.69
388.938	465.69
389.163	457.69
389.387	464.69
389.612	462.69
389.837	472.69
390.062	448.69
390.287	474.69
390.512	457.69
390.736	459.69
390.961	455.69
391.186	475.69
391.411	472.69
391.636	465.69
391.86	470.69
392.085	485.69
392.31	447.69
392.534	461.69
392.759	469.69
392.984	465.69
393.208	466.69
393.433	493.69
393.658	462.69
393.882	459.69
394.107	465.69
394.331	460.69
394.556	472.69
394.78	464.69
395.005	460.69
395.229	474.69
395.454	472.69
395.678	489.69
395.903	493.69
396.127	505.69
396.352	525.69
396.576	487.69
396.801	477.69
397.025	503.69
397.249	490.69
397.474	495.69
397.698	496.69
397.922	523.69
398.147	520.69
398.371	539.69
398.595	535.69
398.82	519.69
399.044	533.69
399.268	531.69
399.492	546.69
399.717	605.69
399.941	612.69
400.165	617.69
400.389	661.69
400.613	600.69
400.837	578.69
401.062	574.69
401.286	548.69
401.51	520.69
401.734	543.69
401.958	543.69
402.182	562.69
402.406	562.69
402.63	584.69
402.854	534.69
403.078	536.69
403.302	559.69
403.526	546.69
403.75	550.69
403.974	558.69
404.198	542.69
404.422	581.69
404.645	550.69
404.869	573.69
405.093	630.69
405.317	661.69
405.541	687.69
405.765	615.69
405.988	599.69
406.212	586.69
406.436	634.69
406.66	662.69
406.883	625.69
407.107	648.69
407.331	689.69
407.555	752.69
407.778	758.69
408.002	681.69
408.226	638.69
408.449	639.69
408.673	633.69
408.896	653.69
409.12	693.69
409.344	672.69
409.567	600.69
409.791	576.69
410.014	556.69
410.238	566.69
410.461	549.69
410.685	566.69
410.908	576.69
411.132	646.69
411.355	670.69
411.578	652.69
411.802	565.69
412.025	568.69
412.249	555.69
412.472	605.69
412.695	669.69
412.919	652.69
413.142	596.69
413.365	557.69
413.589	576.69
413.812	551.69
414.035	533.69
414.258	544.69
414.482	538.69
414.705	533.69
414.928	528.69
415.151	528.69
415.374	533.69
415.597	546.69
415.821	534.69
416.044	561.69
416.267	542.69
416.49	565.69
416.713	538.69
416.936	526.69
417.159	540.69
417.382	554.69
417.605	568.69
417.828	568.69
418.051	572.69
418.274	552.69
418.497	562.69
418.72	539.69
418.943	533.69
419.166	560.69
419.389	575.69
419.611	590.69
419.834	582.69
420.057	576.69
420.28	581.69
420.503	561.69
420.726	582.69
420.948	595.69
421.171	639.69
421.394	650.69
421.617	608.69
421.839	604.69
422.062	583.69
422.285	604.69
422.507	650.69
422.73	730.69
422.953	724.69
423.175	628.69
423.398	592.69
423.621	612.69
423.843	616.69
424.066	641.69
424.288	642.69
424.511	641.69
424.733	709.69
424.956	793.69
425.178	766.69
425.401	762.69
425.623	782.69
425.846	668.69
426.068	644.69
426.291	632.69
426.513	647.69
426.735	629.69
426.958	692.69
427.18	775.69
427.402	922.69
427.625	998.69
427.847	932.69
428.069	781.69
428.292	714.69
428.514	658.69
428.736	640.69
428.958	631.69
429.181	598.69
429.403	601.69
429.625	600.69
429.847	634.69
430.069	718.69
430.292	728.69
430.514	625.69
430.736	571.69
430.958	581.69
431.18	562.69
431.402	555.69
431.624	548.69
431.846	552.69
432.068	541.69
432.29	550.69
432.512	553.69
432.734	567.69
432.956	569.69
433.178	546.69
433.4	563.69
433.622	558.69
433.844	545.69
434.066	561.69
434.287	548.69
434.509	547.69
434.731	560.69
434.953	561.69
435.175	598.69
435.397	628.69
435.618	640.69
435.84	681.69
436.062	782.69
436.284	880.69
436.505	751.69
436.727	639.69
436.949	617.69
437.17	588.69
437.392	594.69
437.614	616.69
437.835	652.69
438.057	775.69
438.278	868.69
438.5	873.69
438.721	928.69
438.943	896.69
439.165	740.69
439.386	687.69
439.608	680.69
439.829	652.69
440.05	684.69
440.272	734.69
440.493	712.69
440.715	663.69
440.936	607.69
441.158	614.69
441.379	597.69
441.6	595.69
441.822	646.69
442.043	709.69
442.264	784.69
442.486	807.69
442.707	683.69
442.928	650.69
443.149	658.69
443.371	696.69
443.592	732.69
443.813	824.69
444.034	924.69
444.255	748.69
444.476	640.69
444.698	640.69
444.919	624.69
445.14	721.69
445.361	684.69
445.582	668.69
445.803	749.69
446.024	876.69
446.245	887.69
446.466	817.69
446.687	696.69
446.908	650.69
447.129	638.69
447.35	598.69
447.571	616.69
447.792	597.69
448.013	607.69
448.234	625.69
448.455	690.69
448.675	812.69
448.896	913.69
449.117	810.69
449.338	753.69
449.559	864.69
449.779	948.69
450	784.69
450.221	622.69
450.442	623.69
450.662	598.69
450.883	587.69
451.104	621.69
451.324	613.69
451.545	580.69
451.766	570.69
451.986	544.69
452.207	539.69
452.428	537.69
452.648	531.69
452.869	557.69
453.089	545.69
453.31	560.69
453.53	543.69
453.751	543.69
453.971	538.69
454.192	579.69
454.412	556.69
454.633	538.69
454.853	521.69
455.073	525.69
455.294	564.69
455.514	652.69
455.734	615.69
455.955	542.69
456.175	536.69
456.395	506.69
456.616	484.69
456.836	501.69
457.056	484.69
457.276	488.69
457.497	494.69
457.717	488.69
457.937	510.69
458.157	506.69
458.377	524.69
458.598	526.69
458.818	590.69
459.038	720.69
459.258	730.69
459.478	603.69
459.698	540.69
459.918	564.69
460.138	549.69
460.358	559.69
460.578	547.69
460.798	536.69
461.018	554.69
461.238	570.69
461.458	534.69
461.678	550.69
461.898	551.69
462.118	525.69
462.338	532.69
462.558	566.69
462.777	542.69
462.997	556.69
463.217	579.69
463.437	584.69
463.657	593.69
463.876	566.69
464.096	568.69
464.316	568.69
464.536	583.69
464.755	575.69
464.975	606.69
465.195	631.69
465.414	742.69
465.634	650.69
465.854	590.69
466.073	582.69
466.293	537.69
466.512	535.69
466.732	541.69
466.951	552.69
467.171	555.69
467.391	557.69
467.61	562.69
467.829	566.69
468.049	569.69
468.268	547.69
468.488	536.69
468.707	537.69
468.927	525.69
469.146	529.69
469.365	521.69
469.585	526.69
469.804	551.69
470.023	564.69
470.243	542.69
470.462	559.69
470.681	578.69
470.901	563.69
471.12	555.69
471.339	559.69
471.558	570.69
471.777	555.69
471.997	542.69
472.216	530.69
472.435	598.69
472.654	573.69
472.873	544.69
473.092	531.69
473.311	529.69
473.53	561.69
473.749	586.69
473.968	602.69
474.187	725.69
474.406	770.69
474.625	644.69
474.844	572.69
475.063	562.69
475.282	574.69
475.501	557.69
475.72	553.69
475.939	567.69
476.158	567.69
476.377	587.69
476.596	576.69
476.814	573.69
477.033	583.69
477.252	603.69
477.471	592.69
477.69	584.69
477.908	595.69
478.127	617.69
478.346	578.69
478.564	609.69
478.783	590.69
479.002	617.69
479.22	596.69
479.439	606.69
479.658	634.69
479.876	676.69
480.095	664.69
480.313	705.69
480.532	697.69
480.751	698.69
480.969	685.69
481.188	781.69
481.406	835.69
481.624	720.69
481.843	717.69
482.061	694.69
482.28	664.69
482.498	659.69
482.717	638.69
482.935	646.69
483.153	660.69
483.372	662.69
483.59	681.69
483.808	648.69
484.027	659.69
484.245	656.69
484.463	660.69
484.681	692.69
484.9	651.69
485.118	650.69
485.336	687.69
485.554	676.69
485.772	664.69
485.99	665.69
486.209	688.69
486.427	664.69
486.645	700.69
486.863	717.69
487.081	723.69
487.299	703.69
487.517	714.69
487.735	711.69
487.953	733.69
488.171	719.69
488.389	717.69
488.607	700.69
488.825	705.69
489.043	733.69
489.261	716.69
489.479	741.69
489.696	738.69
489.914	737.69
490.132	729.69
490.35	740.69
490.568	761.69
490.786	750.69
491.003	778.69
491.221	791.69
491.439	826.69
491.657	814.69
491.874	857.69
492.092	833.69
492.31	845.69
492.527	855.69
492.745	858.69
492.963	853.69
493.18	817.69
493.398	847.69
493.615	871.69
493.833	827.69
494.05	847.69
494.268	863.69
494.485	855.69
494.703	884.69
494.92	874.69
495.138	846.69
495.355	868.69
495.573	867.69
495.79	862.69
496.008	866.69
496.225	868.69
496.442	869.69
496.66	863.69
496.877	862.69
497.094	870.69
497.312	858.69
497.529	861.69
497.746	884.69
497.963	894.69
498.181	893.69
498.398	906.69
498.615	927.69
498.832	926.69
499.049	937.69
499.267	921.69
499.484	944.69
499.701	998.69
499.918	1005.69
500.135	1030.69
500.352	1043.69
500.569	1050.69
500.786	1049.69
501.003	1061.69
501.22	1050.69
501.437	1042.69
501.654	1024.69
501.871	1026.69
502.088	1003.69
502.305	950.69
502.522	937.69
502.739	934.69
502.956	922.69
503.172	874.69
503.389	899.69
503.606	886.69
503.823	897.69
504.04	891.69
504.256	863.69
504.473	832.69
504.69	860.69
504.907	848.69
505.123	817.69
505.34	824.69
505.557	832.69
505.773	820.69
505.99	835.69
506.207	812.69
506.423	834.69
506.64	788.69
506.856	816.69
507.073	784.69
507.289	806.69
507.506	811.69
507.722	816.69
507.939	867.69
508.155	828.69
508.372	816.69
508.588	805.69
508.805	793.69
509.021	783.69
509.238	809.69
509.454	806.69
509.67	811.69
509.887	803.69
510.103	783.69
510.319	824.69
510.536	932.69
510.752	1574.69
510.968	1281.69
511.184	862.69
511.401	787.69
511.617	800.69
511.833	769.69
512.049	765.69
512.265	758.69
512.481	745.69
512.698	748.69
512.914	741.69
513.13	761.69
513.346	740.69
513.562	745.69
513.778	751.69
513.994	772.69
514.21	824.69
514.426	829.69
514.642	866.69
514.858	894.69
515.074	966.69
515.29	1188.69
515.506	1702.69
515.721	1407.69
515.937	956.69
516.153	855.69
516.369	784.69
516.585	798.69
516.801	761.69
517.016	758.69
517.232	748.69
517.448	717.69
517.664	737.69
517.879	730.69
518.095	757.69
518.311	751.69
518.527	718.69
518.742	757.69
518.958	738.69
519.173	756.69
519.389	760.69
519.605	734.69
519.82	786.69
520.036	792.69
520.251	823.69
520.467	842.69
520.682	858.69
520.898	836.69
521.113	882.69
521.329	935.69
521.544	1054.69
521.76	1374.69
521.975	2308.69
522.19	2190.69
522.406	1199.69
522.621	855.69
522.836	812.69
523.052	768.69
523.267	756.69
523.482	708.69
523.698	700.69
523.913	694.69
524.128	712.69
524.343	667.69
524.559	666.69
524.774	661.69
524.989	670.69
525.204	655.69
525.419	660.69
525.634	637.69
525.849	620.69
526.064	639.69
526.28	621.69
526.495	622.69
526.71	602.69
526.925	613.69
527.14	619.69
527.355	608.69
527.57	598.69
527.785	602.69
527.999	603.69
528.214	594.69
528.429	593.69
528.644	598.69
528.859	617.69
529.074	621.69
529.289	633.69
529.503	738.69
529.718	733.69
529.933	645.69
530.148	635.69
530.363	625.69
530.577	614.69
530.792	584.69
531.007	598.69
531.221	584.69
531.436	585.69
531.651	569.69
531.865	584.69
532.08	565.69
532.295	570.69
532.509	581.69
532.724	572.69
532.938	564.69
533.153	554.69
533.367	569.69
533.582	582.69
533.796	563.69
534.011	572.69
534.225	556.69
534.44	572.69
534.654	559.69
534.868	557.69
535.083	549.69
535.297	565.69
535.511	572.69
535.726	602.69
535.94	588.69
536.154	551.69
536.369	556.69
536.583	566.69
536.797	530.69
537.011	550.69
537.225	542.69
537.44	534.69
537.654	555.69
537.868	536.69
538.082	520.69
538.296	557.69
538.51	548.69
538.724	565.69
538.938	552.69
539.153	540.69
539.367	578.69
539.581	569.69
539.795	546.69
540.009	555.69
540.222	539.69
540.436	540.69
540.65	534.69
540.864	548.69
541.078	579.69
541.292	550.69
541.506	554.69
541.72	541.69
541.934	556.69
542.147	548.69
542.361	558.69
542.575	517.69
542.789	550.69
543.002	543.69
543.216	536.69
543.43	545.69
543.644	530.69
543.857	520.69
544.071	537.69
544.285	520.69
544.498	529.69
544.712	528.69
544.925	561.69
545.139	552.69
545.352	522.69
545.566	551.69
545.779	535.69
545.993	529.69
546.206	530.69
546.42	529.69
546.633	503.69
546.847	544.69
547.06	508.69
547.274	513.69
547.487	493.69
547.7	506.69
547.914	502.69
548.127	508.69
548.34	487.69
548.554	530.69
548.767	504.69
548.98	514.69
549.193	511.69
549.407	504.69
549.62	497.69
549.833	502.69
550.046	501.69
550.259	513.69
550.473	506.69
550.686	509.69
550.899	487.69
551.112	512.69
551.325	486.69
551.538	506.69
551.751	481.69
551.964	493.69
552.177	483.69
552.39	482.69
552.603	480.69
552.816	492.69
553.029	497.69
553.242	520.69
553.455	501.69
553.667	524.69
553.88	537.69
554.093	517.69
554.306	510.69
554.519	510.69
554.732	510.69
554.944	500.69
555.157	486.69
555.37	496.69
555.583	491.69
555.795	496.69
556.008	467.69
556.221	456.69
556.433	459.69
556.646	467.69
556.859	467.69
557.071	479.69
557.284	471.69
557.496	452.69
557.709	447.69
557.921	470.69
558.134	441.69
558.346	462.69
558.559	466.69
558.771	463.69
558.984	436.69
559.196	443.69
559.409	430.69
559.621	432.69
559.833	462.69
560.046	449.69
560.258	454.69
560.47	440.69
560.683	437.69
560.895	441.69
561.107	451.69
561.32	445.69
561.532	446.69
561.744	450.69
561.956	454.69
562.168	442.69
562.381	435.69
562.593	454.69
562.805	452.69
563.017	430.69
563.229	463.69
563.441	468.69
563.653	444.69
563.865	478.69
564.077	479.69
564.289	448.69
564.501	438.69
564.713	443.69
564.925	455.69
565.137	468.69
565.349	477.69
565.561	479.69
565.773	454.69
565.985	496.69
566.197	487.69
566.408	497.69
566.62	490.69
566.832	510.69
567.044	506.69
567.255	504.69
567.467	506.69
567.679	513.69
567.891	533.69
568.102	523.69
568.314	495.69
568.526	490.69
568.737	467.69
568.949	466.69
569.161	459.69
569.372	458.69
569.584	457.69
569.795	444.69
570.007	454.69
570.218	542.69
570.43	501.69
570.641	455.69
570.853	459.69
571.064	436.69
571.276	434.69
571.487	415.69
571.698	414.69
571.91	424.69
572.121	408.69
572.333	416.69
572.544	424.69
572.755	405.69
572.966	384.69
573.178	410.69
573.389	398.69
573.6	399.69
573.811	401.69
574.023	406.69
574.234	392.69
574.445	384.69
574.656	387.69
574.867	388.69
575.078	392.69
575.289	373.69
575.501	385.69
575.712	396.69
575.923	378.69
576.134	385.69
576.345	394.69
576.556	369.69
576.767	365.69
576.978	381.69
577.188	384.69
577.399	371.69
577.61	380.69
577.821	364.69
578.032	353.69
578.243	435.69
578.454	719.69
578.665	536.69
578.875	396.69
579.086	370.69
579.297	380.69
579.508	368.69
579.718	361.69
579.929	376.69
580.14	354.69
580.35	366.69
580.561	350.69
580.772	364.69
580.982	362.69
581.193	341.69
581.403	340.69
581.614	335.69
581.825	342.69
582.035	354.69
582.246	346.69
582.456	345.69
582.667	361.69
582.877	349.69
583.087	320.69
583.298	348.69
583.508	333.69
583.719	341.69
583.929	348.69
584.139	350.69
584.35	344.69
584.56	349.69
584.77	336.69
584.981	336.69
585.191	349.69
585.401	351.69
585.611	332.69
585.821	339.69
586.032	342.69
586.242	320.69
586.452	322.69
586.662	351.69
586.872	350.69
587.082	347.69
587.292	322.69
587.502	341.69
587.713	328.69
587.923	329.69
588.133	333.69
588.343	334.69
588.553	317.69
588.762	330.69
588.972	335.69
589.182	324.69
589.392	322.69
589.602	333.69
589.812	334.69
590.022	350.69
590.232	327.69
590.441	319.69
590.651	327.69
590.861	337.69
591.071	330.69
591.281	334.69
591.49	340.69
591.7	337.69
591.91	333.69
592.119	328.69
592.329	328.69
592.539	352.69
592.748	328.69
592.958	339.69
593.167	324.69
593.377	336.69
593.587	342.69
593.796	345.69
594.006	340.69
594.215	332.69
594.424	341.69
594.634	312.69
594.843	334.69
595.053	361.69
595.262	350.69
595.472	328.69
595.681	322.69
595.89	298.69
596.1	334.69
596.309	311.69
596.518	311.69
596.727	319.69
596.937	340.69
597.146	312.69
597.355	305.69
597.564	327.69
597.774	319.69
597.983	298.69
598.192	304.69
598.401	309.69
598.61	311.69
598.819	292.69
599.028	294.69
599.237	304.69
599.446	304.69
599.655	288.69
599.864	287.69
600.073	292.69
600.282	301.69
600.491	295.69
600.7	296.69
600.909	294.69
601.118	311.69
601.327	298.69
601.536	308.69
601.745	303.69
601.953	297.69
602.162	285.69
602.371	312.69
602.58	294.69
602.789	281.69
602.997	287.69
603.206	299.69
603.415	270.69
603.623	268.69
603.832	294.69
604.041	304.69
604.249	296.69
604.458	280.69
604.666	286.69
604.875	293.69
605.084	296.69
605.292	287.69
605.501	279.69
605.709	273.69
605.918	270.69
606.126	284.69
606.334	253.69
606.543	289.69
606.751	270.69
606.96	272.69
607.168	267.69
607.376	263.69
607.585	282.69
607.793	282.69
608.001	269.69
608.21	293.69
608.418	270.69
608.626	283.69
608.834	282.69
609.043	290.69
609.251	266.69
609.459	275.69
609.667	284.69
609.875	284.69
610.083	263.69
610.291	280.69
610.499	282.69
610.707	273.69
610.916	281.69
611.124	288.69
611.332	289.69
611.54	289.69
611.748	288.69
611.955	292.69
612.163	273.69
612.371	272.69
612.579	272.69
612.787	278.69
612.995	262.69
613.203	265.69
613.411	261.69
613.618	277.69
613.826	272.69
614.034	270.69
614.242	254.69
614.449	274.69
614.657	280.69
614.865	254.69
615.072	275.69
615.28	274.69
615.488	267.69
615.695	266.69
615.903	268.69
616.111	268.69
616.318	272.69
616.526	281.69
616.733	269.69
616.941	269.69
617.148	282.69
617.356	264.69
617.563	271.69
617.771	276.69
617.978	244.69
618.185	266.69
618.393	272.69
618.6	257.69
618.807	266.69
619.015	273.69
619.222	268.69
619.429	270.69
619.637	248.69
619.844	264.69
620.051	268.69
620.258	249.69
620.466	262.69
620.673	238.69
620.88	242.69
621.087	257.69
621.294	249.69
621.501	249.69
621.708	263.69
621.915	248.69
622.122	245.69
622.329	277.69
622.536	244.69
622.743	251.69
622.95	237.69
623.157	250.69
623.364	256.69
623.571	256.69
623.778	249.69
623.985	258.69
624.192	248.69
624.399	254.69
624.606	264.69
624.812	241.69
625.019	239.69
625.226	237.69
625.433	249.69
625.639	240.69
625.846	229.69
626.053	224.69
626.259	221.69
626.466	231.69
626.673	206.69
626.879	235.69
627.086	243.69
627.293	246.69
627.499	229.69
627.706	214.69
627.912	224.69
628.119	220.69
628.325	234.69
628.532	233.69
628.738	221.69
628.945	236.69
629.151	216.69
629.357	224.69
629.564	230.69
629.77	215.69
629.976	221.69
630.183	233.69
630.389	222.69
630.595	223.69
630.802	216.69
631.008	215.69
631.214	212.69
631.42	216.69
631.627	231.69
631.833	218.69
632.039	244.69
632.245	207.69
632.451	211.69
632.657	222.69
632.863	232.69
633.069	212.69
633.275	212.69
633.481	216.69
633.688	220.69
633.893	214.69
634.099	205.69
634.305	216.69
634.511	203.69
634.717	222.69
634.923	200.69
635.129	184.69
635.335	207.69
635.541	201.69
635.747	192.69
635.952	190.69
636.158	203.69
636.364	218.69
636.57	209.69
636.775	223.69
636.981	213.69
637.187	198.69
637.392	193.69
637.598	176.69
637.804	209.69
638.009	200.69
638.215	213.69
638.421	206.69
638.626	193.69
638.832	175.69
639.037	196.69
639.243	188.69
639.448	204.69
639.654	202.69
639.859	188.69
640.065	196.69
640.27	211.69
640.475	200.69
640.681	197.69
640.886	198.69
641.091	188.69
641.297	204.69
641.502	194.69
641.707	191.69
641.913	201.69
642.118	195.69
642.323	196.69
642.528	188.69
642.733	173.69
642.939	182.69
643.144	177.69
643.349	162.69
643.554	176.69
643.759	184.69
643.964	198.69
644.169	182.69
644.374	165.69
644.579	185.69
644.784	187.69
644.989	174.69
645.194	193.69
645.399	176.69
645.604	183.69
645.809	180.69
646.014	174.69
646.219	188.69
646.423	186.69
646.628	178.69
646.833	174.69
647.038	183.69
647.243	163.69
647.447	194.69
647.652	200.69
647.857	198.69
648.062	188.69
648.266	168.69
648.471	190.69
648.676	197.69
648.88	186.69
649.085	175.69
649.289	184.69
649.494	190.69
649.698	202.69
649.903	193.69
650.107	185.69
650.312	189.69
650.516	172.69
650.721	171.69
650.925	170.69
651.13	171.69
651.334	170.69
651.539	167.69
651.743	156.69
651.947	171.69
652.152	164.69
652.356	164.69
652.56	143.69
652.764	161.69
652.969	155.69
653.173	148.69
653.377	153.69
653.581	167.69
653.785	154.69
653.99	151.69
654.194	143.69
654.398	158.69
654.602	142.69
654.806	132.69
655.01	143.69
655.214	156.69
655.418	153.69
655.622	140.69
655.826	143.69
656.03	140.69
656.234	144.69
656.438	138.69
656.642	155.69
656.846	130.69
657.049	133.69
657.253	133.69
657.457	136.69
657.661	128.69
657.865	131.69
658.068	122.69
658.272	123.69
658.476	116.69
658.68	94.69
658.883	115.69
659.087	120.69
659.291	107.69
659.494	99.69
659.698	123.69
659.901	110.69
660.105	107.69
660.309	106.69
660.512	115.69
660.716	102.69
660.919	98.69
661.123	107.69
661.326	101.69
661.53	95.69
661.733	91.69
661.936	88.69
662.14	92.69
662.343	102.69
662.546	81.69
662.75	86.69
662.953	92.69
663.156	81.69
663.36	90.69
663.563	91.69
663.766	90.69
663.969	81.69
664.173	81.69
664.376	84.69
664.579	96.69
664.782	80.69
664.985	94.69
665.188	82.69
665.391	90.69
665.594	79.69
665.797	77.69
666	91.69
666.203	89.69
666.406	81.69
666.609	92.69
666.812	89.69
667.015	95.69
667.218	77.69
667.421	84.69
667.624	93.69
667.827	73.69
668.03	66.69
668.232	78.69
668.435	86.69
668.638	87.69
668.841	74.69
669.043	88.69
669.246	80.69
669.449	95.69
669.651	88.69
669.854	90.69
670.057	96.69
670.259	97.69
670.462	90.69
670.665	87.69
670.867	97.69
671.07	98.69
671.272	87.69
671.475	81.69
671.677	87.69
671.88	75.69
672.082	82.69
672.284	86.69
672.487	102.69
672.689	84.69
672.892	89.69
