Data from 1970.PennyLincolnUp.Lamp.En5.5.200Scan.071719.P1._HRD10591_15-13-40-842.txt Node
Date: Thu Jul 18 15:13:40 EDT 2019
User: cochatt
Spectrometer: HR+D1059
Trigger mode: 1
Integration Time (sec): 1.000000E-1
Scans to average: 1
Electric dark correction enabled: true
Nonlinearity correction enabled: false
Boxcar width: 0
XAxis mode: Wavelengths
Number of Pixels in Spectrum: 2048
>>>>>Begin Spectral Data<<<<<
223.165	-8.25
223.4	-8.25
223.635	-8.25
223.869	-15.25
224.104	-22.25
224.338	-25.25
224.573	-12.25
224.808	-1.25
225.042	-8.25
225.277	-14.25
225.511	-4.25
225.746	-0.25
225.98	-5.25
226.215	20.75
226.449	28.75
226.683	18.75
226.918	29.75
227.152	18.75
227.387	39.75
227.621	36.75
227.856	46.75
228.09	39.75
228.324	65.75
228.559	67.75
228.793	63.75
229.027	99.75
229.262	112.75
229.496	121.75
229.73	132.75
229.964	160.75
230.199	139.75
230.433	129.75
230.667	121.75
230.901	121.75
231.136	115.75
231.37	112.75
231.604	118.75
231.838	113.75
232.072	112.75
232.306	116.75
232.541	119.75
232.775	108.75
233.009	126.75
233.243	122.75
233.477	112.75
233.711	102.75
233.945	123.75
234.179	135.75
234.413	127.75
234.647	123.75
234.881	139.75
235.115	127.75
235.349	119.75
235.583	111.75
235.817	129.75
236.051	131.75
236.285	131.75
236.519	137.75
236.753	143.75
236.987	144.75
237.221	191.75
237.455	243.75
237.689	186.75
237.922	151.75
238.156	146.75
238.39	144.75
238.624	139.75
238.858	115.75
239.091	131.75
239.325	121.75
239.559	127.75
239.793	130.75
240.027	146.75
240.26	156.75
240.494	161.75
240.728	137.75
240.961	151.75
241.195	137.75
241.429	161.75
241.662	148.75
241.896	135.75
242.13	136.75
242.363	140.75
242.597	140.75
242.83	143.75
243.064	133.75
243.298	141.75
243.531	140.75
243.765	153.75
243.998	146.75
244.232	146.75
244.465	147.75
244.699	143.75
244.932	138.75
245.166	146.75
245.399	160.75
245.633	147.75
245.866	147.75
246.099	150.75
246.333	170.75
246.566	175.75
246.8	165.75
247.033	163.75
247.266	149.75
247.5	169.75
247.733	185.75
247.966	186.75
248.2	187.75
248.433	194.75
248.666	192.75
248.899	181.75
249.133	213.75
249.366	224.75
249.599	227.75
249.832	197.75
250.066	180.75
250.299	191.75
250.532	207.75
250.765	216.75
250.998	239.75
251.231	247.75
251.465	232.75
251.698	223.75
251.931	212.75
252.164	205.75
252.397	220.75
252.63	205.75
252.863	205.75
253.096	227.75
253.329	255.75
253.562	233.75
253.795	239.75
254.028	247.75
254.261	236.75
254.494	223.75
254.727	269.75
254.96	313.75
255.193	293.75
255.426	263.75
255.659	243.75
255.892	244.75
256.124	266.75
256.357	253.75
256.59	225.75
256.823	206.75
257.056	225.75
257.289	211.75
257.521	215.75
257.754	236.75
257.987	210.75
258.22	227.75
258.452	217.75
258.685	230.75
258.918	203.75
259.151	219.75
259.383	217.75
259.616	236.75
259.849	226.75
260.081	240.75
260.314	248.75
260.547	270.75
260.779	267.75
261.012	236.75
261.244	239.75
261.477	251.75
261.71	238.75
261.942	225.75
262.175	253.75
262.407	241.75
262.64	217.75
262.872	207.75
263.105	220.75
263.337	215.75
263.57	225.75
263.802	223.75
264.035	214.75
264.267	224.75
264.499	200.75
264.732	226.75
264.964	222.75
265.197	200.75
265.429	214.75
265.661	229.75
265.894	208.75
266.126	217.75
266.358	210.75
266.591	236.75
266.823	230.75
267.055	223.75
267.287	229.75
267.52	217.75
267.752	213.75
267.984	232.75
268.216	221.75
268.448	221.75
268.681	233.75
268.913	249.75
269.145	254.75
269.377	270.75
269.609	284.75
269.841	270.75
270.073	258.75
270.306	283.75
270.538	315.75
270.77	311.75
271.002	313.75
271.234	282.75
271.466	303.75
271.698	315.75
271.93	315.75
272.162	331.75
272.394	297.75
272.626	292.75
272.858	293.75
273.09	275.75
273.322	269.75
273.553	264.75
273.785	237.75
274.017	260.75
274.249	255.75
274.481	279.75
274.713	268.75
274.945	244.75
275.176	259.75
275.408	244.75
275.64	263.75
275.872	251.75
276.104	253.75
276.335	261.75
276.567	243.75
276.799	271.75
277.031	288.75
277.262	299.75
277.494	302.75
277.726	295.75
277.957	282.75
278.189	274.75
278.421	257.75
278.652	275.75
278.884	249.75
279.115	259.75
279.347	259.75
279.579	257.75
279.81	258.75
280.042	267.75
280.273	250.75
280.505	256.75
280.736	270.75
280.968	233.75
281.199	267.75
281.431	264.75
281.662	265.75
281.894	249.75
282.125	257.75
282.356	275.75
282.588	296.75
282.819	274.75
283.051	269.75
283.282	238.75
283.513	255.75
283.745	261.75
283.976	277.75
284.207	259.75
284.439	267.75
284.67	258.75
284.901	242.75
285.132	234.75
285.364	268.75
285.595	268.75
285.826	236.75
286.057	258.75
286.288	262.75
286.52	264.75
286.751	247.75
286.982	270.75
287.213	269.75
287.444	277.75
287.675	268.75
287.906	272.75
288.138	265.75
288.369	279.75
288.6	275.75
288.831	273.75
289.062	284.75
289.293	280.75
289.524	296.75
289.755	273.75
289.986	258.75
290.217	257.75
290.448	251.75
290.679	276.75
290.91	274.75
291.141	264.75
291.371	248.75
291.602	258.75
291.833	264.75
292.064	269.75
292.295	266.75
292.526	269.75
292.757	261.75
292.987	272.75
293.218	265.75
293.449	267.75
293.68	262.75
293.91	267.75
294.141	266.75
294.372	270.75
294.603	253.75
294.833	264.75
295.064	270.75
295.295	295.75
295.525	255.75
295.756	267.75
295.987	279.75
296.217	291.75
296.448	300.75
296.679	285.75
296.909	294.75
297.14	282.75
297.37	274.75
297.601	272.75
297.831	265.75
298.062	245.75
298.292	283.75
298.523	282.75
298.753	273.75
298.984	282.75
299.214	289.75
299.445	272.75
299.675	297.75
299.905	279.75
300.136	267.75
300.366	283.75
300.597	276.75
300.827	280.75
301.057	283.75
301.288	309.75
301.518	295.75
301.748	291.75
301.979	299.75
302.209	300.75
302.439	292.75
302.669	297.75
302.9	290.75
303.13	309.75
303.36	312.75
303.59	315.75
303.82	316.75
304.051	305.75
304.281	312.75
304.511	290.75
304.741	289.75
304.971	298.75
305.201	293.75
305.431	292.75
305.661	305.75
305.891	284.75
306.121	289.75
306.352	307.75
306.582	314.75
306.812	301.75
307.042	309.75
307.272	290.75
307.502	285.75
307.731	308.75
307.961	305.75
308.191	296.75
308.421	296.75
308.651	300.75
308.881	326.75
309.111	313.75
309.341	341.75
309.571	326.75
309.8	330.75
310.03	316.75
310.26	337.75
310.49	354.75
310.72	356.75
310.949	362.75
311.179	362.75
311.409	347.75
311.639	340.75
311.868	361.75
312.098	353.75
312.328	361.75
312.557	362.75
312.787	380.75
313.017	388.75
313.246	365.75
313.476	337.75
313.706	347.75
313.935	349.75
314.165	348.75
314.394	365.75
314.624	370.75
314.853	371.75
315.083	345.75
315.312	349.75
315.542	343.75
315.771	343.75
316.001	340.75
316.23	340.75
316.46	350.75
316.689	344.75
316.919	358.75
317.148	377.75
317.377	371.75
317.607	352.75
317.836	366.75
318.065	335.75
318.295	355.75
318.524	360.75
318.753	355.75
318.983	351.75
319.212	354.75
319.441	350.75
319.67	358.75
319.9	358.75
320.129	360.75
320.358	340.75
320.587	359.75
320.816	364.75
321.046	358.75
321.275	364.75
321.504	385.75
321.733	379.75
321.962	375.75
322.191	366.75
322.42	395.75
322.649	402.75
322.878	437.75
323.108	424.75
323.337	447.75
323.566	477.75
323.795	513.75
324.024	580.75
324.253	675.75
324.482	937.75
324.71	1413.75
324.939	2001.75
325.168	1781.75
325.397	987.75
325.626	658.75
325.855	539.75
326.084	497.75
326.313	462.75
326.542	487.75
326.77	507.75
326.999	625.75
327.228	827.75
327.457	1282.75
327.686	1513.75
327.914	1055.75
328.143	728.75
328.372	642.75
328.6	585.75
328.829	557.75
329.058	571.75
329.287	571.75
329.515	536.75
329.744	495.75
329.972	487.75
330.201	513.75
330.43	543.75
330.658	565.75
330.887	581.75
331.115	572.75
331.344	492.75
331.572	461.75
331.801	458.75
332.03	460.75
332.258	415.75
332.486	429.75
332.715	421.75
332.943	411.75
333.172	419.75
333.4	420.75
333.629	432.75
333.857	435.75
334.085	457.75
334.314	468.75
334.542	494.75
334.771	496.75
334.999	462.75
335.227	441.75
335.455	428.75
335.684	446.75
335.912	402.75
336.14	421.75
336.369	422.75
336.597	418.75
336.825	428.75
337.053	433.75
337.281	408.75
337.51	400.75
337.738	414.75
337.966	419.75
338.194	420.75
338.422	415.75
338.65	409.75
338.878	419.75
339.106	404.75
339.334	409.75
339.562	377.75
339.79	397.75
340.018	401.75
340.246	405.75
340.474	403.75
340.702	397.75
340.93	401.75
341.158	398.75
341.386	397.75
341.614	433.75
341.842	413.75
342.07	401.75
342.298	389.75
342.526	391.75
342.754	402.75
342.981	395.75
343.209	383.75
343.437	377.75
343.665	404.75
343.893	388.75
344.12	395.75
344.348	427.75
344.576	404.75
344.804	397.75
345.031	413.75
345.259	428.75
345.487	403.75
345.714	414.75
345.942	383.75
346.17	397.75
346.397	395.75
346.625	382.75
346.853	387.75
347.08	378.75
347.308	398.75
347.535	394.75
347.763	422.75
347.99	425.75
348.218	403.75
348.445	421.75
348.673	406.75
348.9	398.75
349.128	387.75
349.355	391.75
349.583	383.75
349.81	381.75
350.037	389.75
350.265	386.75
350.492	384.75
350.72	395.75
350.947	399.75
351.174	411.75
351.402	413.75
351.629	406.75
351.856	397.75
352.083	385.75
352.311	413.75
352.538	414.75
352.765	411.75
352.992	396.75
353.22	393.75
353.447	405.75
353.674	413.75
353.901	396.75
354.128	370.75
354.355	377.75
354.583	380.75
354.81	377.75
355.037	363.75
355.264	364.75
355.491	377.75
355.718	389.75
355.945	348.75
356.172	349.75
356.399	371.75
356.626	373.75
356.853	366.75
357.08	367.75
357.307	368.75
357.534	394.75
357.761	368.75
357.988	375.75
358.215	367.75
358.441	387.75
358.668	377.75
358.895	371.75
359.122	367.75
359.349	401.75
359.576	413.75
359.802	443.75
360.029	467.75
360.256	461.75
360.483	479.75
360.709	396.75
360.936	393.75
361.163	402.75
361.39	410.75
361.616	395.75
361.843	415.75
362.07	393.75
362.296	420.75
362.523	393.75
362.749	406.75
362.976	401.75
363.203	409.75
363.429	396.75
363.656	388.75
363.882	371.75
364.109	383.75
364.335	379.75
364.562	397.75
364.788	391.75
365.015	409.75
365.241	401.75
365.468	403.75
365.694	409.75
365.92	393.75
366.147	377.75
366.373	403.75
366.599	364.75
366.826	395.75
367.052	392.75
367.278	391.75
367.505	386.75
367.731	404.75
367.957	389.75
368.184	397.75
368.41	406.75
368.636	401.75
368.862	416.75
369.089	402.75
369.315	386.75
369.541	411.75
369.767	379.75
369.993	391.75
370.219	413.75
370.445	392.75
370.672	365.75
370.898	377.75
371.124	383.75
371.35	389.75
371.576	376.75
371.802	383.75
372.028	386.75
372.254	386.75
372.48	389.75
372.706	376.75
372.932	397.75
373.158	387.75
373.384	378.75
373.61	388.75
373.835	370.75
374.061	384.75
374.287	390.75
374.513	382.75
374.739	396.75
374.965	386.75
375.191	393.75
375.416	411.75
375.642	380.75
375.868	379.75
376.094	397.75
376.319	387.75
376.545	401.75
376.771	386.75
376.997	392.75
377.222	360.75
377.448	395.75
377.674	395.75
377.899	388.75
378.125	387.75
378.35	400.75
378.576	387.75
378.802	382.75
379.027	388.75
379.253	385.75
379.478	399.75
379.704	388.75
379.929	387.75
380.155	388.75
380.38	381.75
380.606	392.75
380.831	393.75
381.057	403.75
381.282	400.75
381.507	385.75
381.733	394.75
381.958	387.75
382.184	382.75
382.409	413.75
382.634	394.75
382.86	409.75
383.085	399.75
383.31	422.75
383.535	408.75
383.761	401.75
383.986	408.75
384.211	393.75
384.436	411.75
384.662	415.75
384.887	403.75
385.112	427.75
385.337	396.75
385.562	403.75
385.787	410.75
386.013	431.75
386.238	428.75
386.463	445.75
386.688	432.75
386.913	421.75
387.138	431.75
387.363	413.75
387.588	406.75
387.813	426.75
388.038	412.75
388.263	425.75
388.488	424.75
388.713	414.75
388.938	434.75
389.163	411.75
389.387	425.75
389.612	421.75
389.837	426.75
390.062	432.75
390.287	403.75
390.512	419.75
390.736	403.75
390.961	423.75
391.186	419.75
391.411	431.75
391.636	424.75
391.86	433.75
392.085	425.75
392.31	428.75
392.534	431.75
392.759	425.75
392.984	449.75
393.208	427.75
393.433	448.75
393.658	433.75
393.882	412.75
394.107	431.75
394.331	429.75
394.556	407.75
394.78	430.75
395.005	447.75
395.229	420.75
395.454	431.75
395.678	435.75
395.903	456.75
396.127	505.75
396.352	468.75
396.576	445.75
396.801	428.75
397.025	451.75
397.249	445.75
397.474	458.75
397.698	463.75
397.922	452.75
398.147	461.75
398.371	498.75
398.595	455.75
398.82	463.75
399.044	483.75
399.268	470.75
399.492	509.75
399.717	512.75
399.941	538.75
400.165	556.75
400.389	572.75
400.613	527.75
400.837	521.75
401.062	513.75
401.286	480.75
401.51	468.75
401.734	473.75
401.958	482.75
402.182	476.75
402.406	497.75
402.63	501.75
402.854	503.75
403.078	512.75
403.302	516.75
403.526	485.75
403.75	508.75
403.974	489.75
404.198	521.75
404.422	513.75
404.645	508.75
404.869	530.75
405.093	548.75
405.317	571.75
405.541	594.75
405.765	581.75
405.988	523.75
406.212	510.75
406.436	580.75
406.66	565.75
406.883	532.75
407.107	556.75
407.331	602.75
407.555	658.75
407.778	651.75
408.002	624.75
408.226	561.75
408.449	554.75
408.673	550.75
408.896	566.75
409.12	601.75
409.344	575.75
409.567	552.75
409.791	523.75
410.014	519.75
410.238	506.75
410.461	509.75
410.685	518.75
410.908	525.75
411.132	570.75
411.355	592.75
411.578	567.75
411.802	539.75
412.025	506.75
412.249	527.75
412.472	529.75
412.695	575.75
412.919	554.75
413.142	532.75
413.365	518.75
413.589	472.75
413.812	492.75
414.035	480.75
414.258	486.75
414.482	477.75
414.705	476.75
414.928	480.75
415.151	489.75
415.374	484.75
415.597	481.75
415.821	464.75
416.044	473.75
416.267	497.75
416.49	473.75
416.713	475.75
416.936	489.75
417.159	474.75
417.382	499.75
417.605	493.75
417.828	495.75
418.051	532.75
418.274	500.75
418.497	483.75
418.72	484.75
418.943	489.75
419.166	472.75
419.389	510.75
419.611	523.75
419.834	516.75
420.057	508.75
420.28	518.75
420.503	511.75
420.726	510.75
420.948	532.75
421.171	579.75
421.394	603.75
421.617	562.75
421.839	519.75
422.062	501.75
422.285	541.75
422.507	571.75
422.73	684.75
422.953	651.75
423.175	592.75
423.398	541.75
423.621	539.75
423.843	554.75
424.066	574.75
424.288	550.75
424.511	578.75
424.733	631.75
424.956	690.75
425.178	663.75
425.401	673.75
425.623	697.75
425.846	612.75
426.068	573.75
426.291	550.75
426.513	547.75
426.735	576.75
426.958	606.75
427.18	683.75
427.402	828.75
427.625	861.75
427.847	794.75
428.069	683.75
428.292	627.75
428.514	587.75
428.736	546.75
428.958	561.75
429.181	511.75
429.403	523.75
429.625	532.75
429.847	601.75
430.069	633.75
430.292	626.75
430.514	562.75
430.736	528.75
430.958	522.75
431.18	524.75
431.402	483.75
431.624	488.75
431.846	500.75
432.068	478.75
432.29	493.75
432.512	500.75
432.734	492.75
432.956	481.75
433.178	512.75
433.4	525.75
433.622	482.75
433.844	497.75
434.066	494.75
434.287	484.75
434.509	493.75
434.731	505.75
434.953	523.75
435.175	528.75
435.397	533.75
435.618	578.75
435.84	626.75
436.062	684.75
436.284	745.75
436.505	641.75
436.727	580.75
436.949	555.75
437.17	533.75
437.392	528.75
437.614	559.75
437.835	569.75
438.057	698.75
438.278	786.75
438.5	795.75
438.721	824.75
438.943	770.75
439.165	661.75
439.386	615.75
439.608	612.75
439.829	587.75
440.05	603.75
440.272	660.75
440.493	617.75
440.715	569.75
440.936	545.75
441.158	548.75
441.379	538.75
441.6	544.75
441.822	566.75
442.043	587.75
442.264	675.75
442.486	738.75
442.707	636.75
442.928	596.75
443.149	603.75
443.371	603.75
443.592	660.75
443.813	721.75
444.034	791.75
444.255	660.75
444.476	577.75
444.698	583.75
444.919	591.75
445.14	699.75
445.361	634.75
445.582	612.75
445.803	656.75
446.024	736.75
446.245	768.75
446.466	675.75
446.687	591.75
446.908	571.75
447.129	553.75
447.35	529.75
447.571	523.75
447.792	543.75
448.013	540.75
448.234	549.75
448.455	593.75
448.675	723.75
448.896	802.75
449.117	702.75
449.338	661.75
449.559	760.75
449.779	851.75
450	709.75
450.221	576.75
450.442	563.75
450.662	512.75
450.883	521.75
451.104	545.75
451.324	542.75
451.545	504.75
451.766	483.75
451.986	485.75
452.207	462.75
452.428	476.75
452.648	469.75
452.869	477.75
453.089	483.75
453.31	496.75
453.53	497.75
453.751	482.75
453.971	479.75
454.192	483.75
454.412	484.75
454.633	477.75
454.853	481.75
455.073	455.75
455.294	509.75
455.514	555.75
455.734	578.75
455.955	468.75
456.175	453.75
456.395	456.75
456.616	455.75
456.836	452.75
457.056	447.75
457.276	412.75
457.497	455.75
457.717	445.75
457.937	449.75
458.157	461.75
458.377	466.75
458.598	470.75
458.818	546.75
459.038	611.75
459.258	635.75
459.478	549.75
459.698	487.75
459.918	498.75
460.138	505.75
460.358	509.75
460.578	489.75
460.798	515.75
461.018	489.75
461.238	483.75
461.458	473.75
461.678	476.75
461.898	485.75
462.118	479.75
462.338	485.75
462.558	500.75
462.777	505.75
462.997	505.75
463.217	526.75
463.437	509.75
463.657	510.75
463.876	519.75
464.096	511.75
464.316	532.75
464.536	555.75
464.755	530.75
464.975	533.75
465.195	564.75
465.414	655.75
465.634	588.75
465.854	553.75
466.073	501.75
466.293	488.75
466.512	467.75
466.732	501.75
466.951	490.75
467.171	478.75
467.391	486.75
467.61	499.75
467.829	498.75
468.049	489.75
468.268	470.75
468.488	492.75
468.707	470.75
468.927	498.75
469.146	470.75
469.365	472.75
469.585	460.75
469.804	487.75
470.023	500.75
470.243	493.75
470.462	497.75
470.681	511.75
470.901	489.75
471.12	485.75
471.339	480.75
471.558	489.75
471.777	503.75
471.997	494.75
472.216	489.75
472.435	530.75
472.654	519.75
472.873	485.75
473.092	495.75
473.311	495.75
473.53	466.75
473.749	507.75
473.968	529.75
474.187	650.75
474.406	659.75
474.625	559.75
474.844	516.75
475.063	517.75
475.282	511.75
475.501	482.75
475.72	505.75
475.939	499.75
476.158	482.75
476.377	528.75
476.596	498.75
476.814	550.75
477.033	523.75
477.252	509.75
477.471	499.75
477.69	543.75
477.908	535.75
478.127	517.75
478.346	548.75
478.564	545.75
478.783	539.75
479.002	540.75
479.22	558.75
479.439	567.75
479.658	609.75
479.876	605.75
480.095	602.75
480.313	618.75
480.532	627.75
480.751	596.75
480.969	611.75
481.188	647.75
481.406	739.75
481.624	664.75
481.843	620.75
482.061	606.75
482.28	597.75
482.498	587.75
482.717	585.75
482.935	561.75
483.153	560.75
483.372	596.75
483.59	595.75
483.808	589.75
484.027	582.75
484.245	589.75
484.463	596.75
484.681	601.75
484.9	597.75
485.118	585.75
485.336	595.75
485.554	600.75
485.772	608.75
485.99	616.75
486.209	621.75
486.427	595.75
486.645	619.75
486.863	643.75
487.081	662.75
487.299	629.75
487.517	635.75
487.735	657.75
487.953	619.75
488.171	652.75
488.389	649.75
488.607	627.75
488.825	653.75
489.043	651.75
489.261	658.75
489.479	662.75
489.696	648.75
489.914	652.75
490.132	648.75
490.35	654.75
490.568	688.75
490.786	728.75
491.003	687.75
491.221	703.75
491.439	715.75
491.657	733.75
491.874	738.75
492.092	744.75
492.31	730.75
492.527	727.75
492.745	761.75
492.963	750.75
493.18	762.75
493.398	761.75
493.615	763.75
493.833	765.75
494.05	755.75
494.268	767.75
494.485	741.75
494.703	783.75
494.92	755.75
495.138	784.75
495.355	785.75
495.573	777.75
495.79	755.75
496.008	790.75
496.225	757.75
496.442	777.75
496.66	790.75
496.877	763.75
497.094	796.75
497.312	787.75
497.529	803.75
497.746	786.75
497.963	812.75
498.181	799.75
498.398	807.75
498.615	850.75
498.832	845.75
499.049	810.75
499.267	842.75
499.484	880.75
499.701	888.75
499.918	878.75
500.135	915.75
500.352	943.75
500.569	971.75
500.786	951.75
501.003	943.75
501.22	939.75
501.437	957.75
501.654	905.75
501.871	910.75
502.088	911.75
502.305	881.75
502.522	840.75
502.739	859.75
502.956	795.75
503.172	784.75
503.389	777.75
503.606	782.75
503.823	775.75
504.04	779.75
504.256	747.75
504.473	777.75
504.69	765.75
504.907	773.75
505.123	743.75
505.34	729.75
505.557	763.75
505.773	744.75
505.99	745.75
506.207	746.75
506.423	748.75
506.64	705.75
506.856	733.75
507.073	724.75
507.289	733.75
507.506	734.75
507.722	729.75
507.939	760.75
508.155	731.75
508.372	709.75
508.588	700.75
508.805	705.75
509.021	711.75
509.238	697.75
509.454	700.75
509.67	716.75
509.887	698.75
510.103	711.75
510.319	715.75
510.536	816.75
510.752	1333.75
510.968	1089.75
511.184	723.75
511.401	688.75
511.617	701.75
511.833	670.75
512.049	659.75
512.265	667.75
512.481	689.75
512.698	678.75
512.914	659.75
513.13	665.75
513.346	653.75
513.562	659.75
513.778	657.75
513.994	674.75
514.21	680.75
514.426	741.75
514.642	749.75
514.858	783.75
515.074	825.75
515.29	979.75
515.506	1486.75
515.721	1209.75
515.937	843.75
516.153	756.75
516.369	730.75
516.585	675.75
516.801	685.75
517.016	701.75
517.232	661.75
517.448	664.75
517.664	667.75
517.879	682.75
518.095	654.75
518.311	668.75
518.527	676.75
518.742	668.75
518.958	656.75
519.173	659.75
519.389	625.75
519.605	658.75
519.82	655.75
520.036	680.75
520.251	701.75
520.467	721.75
520.682	715.75
520.898	745.75
521.113	782.75
521.329	821.75
521.544	925.75
521.76	1163.75
521.975	1934.75
522.19	1863.75
522.406	1043.75
522.621	823.75
522.836	691.75
523.052	683.75
523.267	660.75
523.482	602.75
523.698	622.75
523.913	621.75
524.128	613.75
524.343	599.75
524.559	587.75
524.774	570.75
524.989	575.75
525.204	607.75
525.419	611.75
525.634	570.75
525.849	547.75
526.064	552.75
526.28	543.75
526.495	540.75
526.71	555.75
526.925	551.75
527.14	536.75
527.355	526.75
527.57	537.75
527.785	547.75
527.999	563.75
528.214	545.75
528.429	549.75
528.644	538.75
528.859	562.75
529.074	560.75
529.289	591.75
529.503	667.75
529.718	659.75
529.933	577.75
530.148	553.75
530.363	558.75
530.577	548.75
530.792	538.75
531.007	532.75
531.221	503.75
531.436	532.75
531.651	538.75
531.865	517.75
532.08	519.75
532.295	516.75
532.509	521.75
532.724	498.75
532.938	502.75
533.153	527.75
533.367	505.75
533.582	510.75
533.796	535.75
534.011	504.75
534.225	493.75
534.44	495.75
534.654	497.75
534.868	514.75
535.083	522.75
535.297	499.75
535.511	487.75
535.726	525.75
535.94	500.75
536.154	513.75
536.369	520.75
536.583	511.75
536.797	498.75
537.011	500.75
537.225	480.75
537.44	509.75
537.654	490.75
537.868	495.75
538.082	496.75
538.296	485.75
538.51	500.75
538.724	507.75
538.938	480.75
539.153	506.75
539.367	503.75
539.581	491.75
539.795	484.75
540.009	491.75
540.222	489.75
540.436	483.75
540.65	474.75
540.864	494.75
541.078	500.75
541.292	486.75
541.506	514.75
541.72	501.75
541.934	503.75
542.147	497.75
542.361	479.75
542.575	506.75
542.789	492.75
543.002	493.75
543.216	482.75
543.43	489.75
543.644	493.75
543.857	491.75
544.071	490.75
544.285	488.75
544.498	473.75
544.712	503.75
544.925	496.75
545.139	476.75
545.352	489.75
545.566	480.75
545.779	482.75
545.993	461.75
546.206	480.75
546.42	497.75
546.633	483.75
546.847	472.75
547.06	453.75
547.274	479.75
547.487	475.75
547.7	465.75
547.914	479.75
548.127	474.75
548.34	454.75
548.554	477.75
548.767	483.75
548.98	469.75
549.193	458.75
549.407	453.75
549.62	473.75
549.833	454.75
550.046	471.75
550.259	481.75
550.473	464.75
550.686	460.75
550.899	443.75
551.112	445.75
551.325	454.75
551.538	492.75
551.751	431.75
551.964	447.75
552.177	445.75
552.39	433.75
552.603	455.75
552.816	439.75
553.029	444.75
553.242	445.75
553.455	458.75
553.667	473.75
553.88	511.75
554.093	469.75
554.306	471.75
554.519	489.75
554.732	476.75
554.944	467.75
555.157	471.75
555.37	464.75
555.583	431.75
555.795	454.75
556.008	443.75
556.221	466.75
556.433	427.75
556.646	443.75
556.859	426.75
557.071	415.75
557.284	440.75
557.496	435.75
557.709	435.75
557.921	411.75
558.134	424.75
558.346	436.75
558.559	419.75
558.771	421.75
558.984	435.75
559.196	425.75
559.409	408.75
559.621	421.75
559.833	412.75
560.046	413.75
560.258	406.75
560.47	387.75
560.683	409.75
560.895	425.75
561.107	404.75
561.32	403.75
561.532	428.75
561.744	405.75
561.956	399.75
562.168	406.75
562.381	401.75
562.593	409.75
562.805	417.75
563.017	406.75
563.229	399.75
563.441	393.75
563.653	424.75
563.865	418.75
564.077	411.75
564.289	423.75
564.501	423.75
564.713	432.75
564.925	435.75
565.137	419.75
565.349	451.75
565.561	436.75
565.773	443.75
565.985	442.75
566.197	443.75
566.408	464.75
566.62	471.75
566.832	484.75
567.044	488.75
567.255	468.75
567.467	494.75
567.679	478.75
567.891	456.75
568.102	473.75
568.314	463.75
568.526	465.75
568.737	455.75
568.949	437.75
569.161	430.75
569.372	404.75
569.584	428.75
569.795	425.75
570.007	410.75
570.218	430.75
570.43	467.75
570.641	386.75
570.853	387.75
571.064	390.75
571.276	389.75
571.487	404.75
571.698	393.75
571.91	390.75
572.121	386.75
572.333	385.75
572.544	376.75
572.755	369.75
572.966	377.75
573.178	363.75
573.389	366.75
573.6	349.75
573.811	361.75
574.023	353.75
574.234	354.75
574.445	348.75
574.656	356.75
574.867	356.75
575.078	369.75
575.289	357.75
575.501	363.75
575.712	350.75
575.923	348.75
576.134	339.75
576.345	340.75
576.556	345.75
576.767	345.75
576.978	334.75
577.188	341.75
577.399	327.75
577.61	339.75
577.821	340.75
578.032	345.75
578.243	381.75
578.454	638.75
578.665	476.75
578.875	358.75
579.086	341.75
579.297	355.75
579.508	340.75
579.718	330.75
579.929	320.75
580.14	319.75
580.35	320.75
580.561	329.75
580.772	328.75
580.982	320.75
581.193	329.75
581.403	331.75
581.614	334.75
581.825	323.75
582.035	320.75
582.246	323.75
582.456	333.75
582.667	325.75
582.877	319.75
583.087	327.75
583.298	328.75
583.508	337.75
583.719	327.75
583.929	321.75
584.139	311.75
584.35	313.75
584.56	328.75
584.77	304.75
584.981	318.75
585.191	320.75
585.401	316.75
585.611	322.75
585.821	323.75
586.032	311.75
586.242	311.75
586.452	311.75
586.662	306.75
586.872	296.75
587.082	300.75
587.292	315.75
587.502	321.75
587.713	318.75
587.923	322.75
588.133	299.75
588.343	323.75
588.553	299.75
588.762	313.75
588.972	298.75
589.182	326.75
589.392	317.75
589.602	325.75
589.812	319.75
590.022	307.75
590.232	306.75
590.441	304.75
590.651	309.75
590.861	313.75
591.071	289.75
591.281	313.75
591.49	308.75
591.7	301.75
591.91	311.75
592.119	315.75
592.329	306.75
592.539	304.75
592.748	320.75
592.958	300.75
593.167	304.75
593.377	309.75
593.587	325.75
593.796	320.75
594.006	297.75
594.215	297.75
594.424	319.75
594.634	299.75
594.843	303.75
595.053	304.75
595.262	303.75
595.472	294.75
595.681	306.75
595.89	285.75
596.1	276.75
596.309	306.75
596.518	300.75
596.727	283.75
596.937	288.75
597.146	278.75
597.355	275.75
597.564	280.75
597.774	279.75
597.983	285.75
598.192	298.75
598.401	277.75
598.61	273.75
598.819	266.75
599.028	273.75
599.237	275.75
599.446	275.75
599.655	276.75
599.864	271.75
600.073	258.75
600.282	286.75
600.491	267.75
600.7	269.75
600.909	272.75
601.118	284.75
601.327	265.75
601.536	281.75
601.745	258.75
601.953	269.75
602.162	275.75
602.371	279.75
602.58	277.75
602.789	275.75
602.997	269.75
603.206	262.75
603.415	263.75
603.623	248.75
603.832	263.75
604.041	267.75
604.249	268.75
604.458	256.75
604.666	254.75
604.875	263.75
605.084	250.75
605.292	249.75
605.501	252.75
605.709	272.75
605.918	264.75
606.126	255.75
606.334	269.75
606.543	263.75
606.751	269.75
606.96	280.75
607.168	269.75
607.376	256.75
607.585	268.75
607.793	253.75
608.001	266.75
608.21	249.75
608.418	250.75
608.626	266.75
608.834	268.75
609.043	256.75
609.251	276.75
609.459	259.75
609.667	264.75
609.875	256.75
610.083	249.75
610.291	270.75
610.499	262.75
610.707	265.75
610.916	247.75
611.124	273.75
611.332	275.75
611.54	261.75
611.748	275.75
611.955	255.75
612.163	257.75
612.371	253.75
612.579	259.75
612.787	252.75
612.995	259.75
613.203	263.75
613.411	256.75
613.618	258.75
613.826	234.75
614.034	251.75
614.242	242.75
614.449	256.75
614.657	251.75
614.865	237.75
615.072	252.75
615.28	247.75
615.488	250.75
615.695	269.75
615.903	264.75
616.111	262.75
616.318	248.75
616.526	255.75
616.733	254.75
616.941	247.75
617.148	256.75
617.356	253.75
617.563	247.75
617.771	249.75
617.978	248.75
618.185	236.75
618.393	263.75
618.6	247.75
618.807	251.75
619.015	258.75
619.222	230.75
619.429	251.75
619.637	240.75
619.844	209.75
620.051	236.75
620.258	233.75
620.466	233.75
620.673	218.75
620.88	238.75
621.087	237.75
621.294	240.75
621.501	240.75
621.708	232.75
621.915	240.75
622.122	231.75
622.329	235.75
622.536	226.75
622.743	220.75
622.95	229.75
623.157	252.75
623.364	211.75
623.571	221.75
623.778	230.75
623.985	223.75
624.192	226.75
624.399	235.75
624.606	241.75
624.812	233.75
625.019	226.75
625.226	242.75
625.433	228.75
625.639	224.75
625.846	226.75
626.053	236.75
626.259	211.75
626.466	221.75
626.673	221.75
626.879	213.75
627.086	211.75
627.293	198.75
627.499	219.75
627.706	224.75
627.912	211.75
628.119	219.75
628.325	228.75
628.532	222.75
628.738	211.75
628.945	216.75
629.151	221.75
629.357	211.75
629.564	213.75
629.77	213.75
629.976	205.75
630.183	201.75
630.389	219.75
630.595	205.75
630.802	222.75
631.008	202.75
631.214	203.75
631.42	194.75
631.627	209.75
631.833	193.75
632.039	203.75
632.245	206.75
632.451	201.75
632.657	209.75
632.863	207.75
633.069	209.75
633.275	212.75
633.481	202.75
633.688	184.75
633.893	195.75
634.099	209.75
634.305	203.75
634.511	194.75
634.717	179.75
634.923	188.75
635.129	209.75
635.335	203.75
635.541	195.75
635.747	178.75
635.952	180.75
636.158	202.75
636.364	187.75
636.57	212.75
636.775	193.75
636.981	198.75
637.187	178.75
637.392	188.75
637.598	198.75
637.804	187.75
638.009	208.75
638.215	197.75
638.421	176.75
638.626	186.75
638.832	174.75
639.037	204.75
639.243	219.75
639.448	194.75
639.654	193.75
639.859	187.75
640.065	190.75
640.27	188.75
640.475	198.75
640.681	176.75
640.886	180.75
641.091	192.75
641.297	187.75
641.502	186.75
641.707	176.75
641.913	189.75
642.118	200.75
642.323	179.75
642.528	161.75
642.733	180.75
642.939	189.75
643.144	188.75
643.349	171.75
643.554	178.75
643.759	171.75
643.964	171.75
644.169	185.75
644.374	176.75
644.579	178.75
644.784	180.75
644.989	172.75
645.194	175.75
645.399	170.75
645.604	171.75
645.809	187.75
646.014	170.75
646.219	171.75
646.423	169.75
646.628	176.75
646.833	189.75
647.038	158.75
647.243	171.75
647.447	174.75
647.652	192.75
647.857	185.75
648.062	179.75
648.266	167.75
648.471	175.75
648.676	187.75
648.88	191.75
649.085	189.75
649.289	173.75
649.494	166.75
649.698	189.75
649.903	195.75
650.107	177.75
650.312	183.75
650.516	173.75
650.721	168.75
650.925	156.75
651.13	172.75
651.334	141.75
651.539	151.75
651.743	157.75
651.947	158.75
652.152	157.75
652.356	155.75
652.56	155.75
652.764	158.75
652.969	145.75
653.173	154.75
653.377	155.75
653.581	147.75
653.785	156.75
653.99	147.75
654.194	134.75
654.398	155.75
654.602	147.75
654.806	149.75
655.01	151.75
655.214	151.75
655.418	144.75
655.622	138.75
655.826	123.75
656.03	124.75
656.234	132.75
656.438	137.75
656.642	135.75
656.846	141.75
657.049	127.75
657.253	139.75
657.457	126.75
657.661	131.75
657.865	128.75
658.068	113.75
658.272	111.75
658.476	112.75
658.68	119.75
658.883	105.75
659.087	105.75
659.291	113.75
659.494	102.75
659.698	88.75
659.901	108.75
660.105	105.75
660.309	98.75
660.512	98.75
660.716	101.75
660.919	95.75
661.123	94.75
661.326	93.75
661.53	96.75
661.733	81.75
661.936	88.75
662.14	86.75
662.343	88.75
662.546	88.75
662.75	100.75
662.953	100.75
663.156	91.75
663.36	87.75
663.563	89.75
663.766	78.75
663.969	85.75
664.173	83.75
664.376	88.75
664.579	92.75
664.782	88.75
664.985	98.75
665.188	93.75
665.391	95.75
665.594	92.75
665.797	90.75
666	92.75
666.203	87.75
666.406	80.75
666.609	83.75
666.812	96.75
667.015	85.75
667.218	89.75
667.421	84.75
667.624	88.75
667.827	89.75
668.03	103.75
668.232	89.75
668.435	95.75
668.638	95.75
668.841	94.75
669.043	88.75
669.246	75.75
669.449	76.75
669.651	94.75
669.854	96.75
670.057	81.75
670.259	82.75
670.462	94.75
670.665	100.75
670.867	88.75
671.07	88.75
671.272	88.75
671.475	82.75
671.677	97.75
671.88	90.75
672.082	92.75
672.284	91.75
672.487	90.75
672.689	91.75
672.892	83.75
