Data from 1970.PennyLincolnUp.Lamp.En5.5.200Scan.071719.P1._HRD10591_15-15-05-841.txt Node
Date: Thu Jul 18 15:15:05 EDT 2019
User: cochatt
Spectrometer: HR+D1059
Trigger mode: 1
Integration Time (sec): 1.000000E-1
Scans to average: 1
Electric dark correction enabled: true
Nonlinearity correction enabled: false
Boxcar width: 0
XAxis mode: Wavelengths
Number of Pixels in Spectrum: 2048
>>>>>Begin Spectral Data<<<<<
223.165	-5.25
223.4	-5.25
223.635	-5.25
223.869	-12.25
224.104	-17.25
224.338	-11.25
224.573	-17.25
224.808	-19.25
225.042	-2.25
225.277	-3.25
225.511	4.75
225.746	5.75
225.98	7.75
226.215	-6.25
226.449	15.75
226.683	12.75
226.918	21.75
227.152	25.75
227.387	24.75
227.621	37.75
227.856	52.75
228.09	43.75
228.324	57.75
228.559	56.75
228.793	57.75
229.027	118.75
229.262	115.75
229.496	133.75
229.73	144.75
229.964	185.75
230.199	139.75
230.433	125.75
230.667	134.75
230.901	107.75
231.136	113.75
231.37	118.75
231.604	115.75
231.838	117.75
232.072	131.75
232.306	131.75
232.541	130.75
232.775	104.75
233.009	114.75
233.243	124.75
233.477	121.75
233.711	121.75
233.945	127.75
234.179	137.75
234.413	123.75
234.647	137.75
234.881	111.75
235.115	123.75
235.349	115.75
235.583	129.75
235.817	115.75
236.051	127.75
236.285	141.75
236.519	131.75
236.753	154.75
236.987	162.75
237.221	198.75
237.455	257.75
237.689	215.75
237.922	154.75
238.156	151.75
238.39	135.75
238.624	138.75
238.858	131.75
239.091	131.75
239.325	132.75
239.559	134.75
239.793	149.75
240.027	147.75
240.26	154.75
240.494	164.75
240.728	165.75
240.961	173.75
241.195	157.75
241.429	151.75
241.662	148.75
241.896	137.75
242.13	125.75
242.363	154.75
242.597	155.75
242.83	141.75
243.064	161.75
243.298	146.75
243.531	141.75
243.765	169.75
243.998	159.75
244.232	161.75
244.465	159.75
244.699	171.75
244.932	146.75
245.166	153.75
245.399	164.75
245.633	155.75
245.866	150.75
246.099	172.75
246.333	160.75
246.566	167.75
246.8	156.75
247.033	164.75
247.266	164.75
247.5	164.75
247.733	186.75
247.966	174.75
248.2	177.75
248.433	204.75
248.666	190.75
248.899	191.75
249.133	223.75
249.366	231.75
249.599	235.75
249.832	220.75
250.066	211.75
250.299	210.75
250.532	213.75
250.765	222.75
250.998	259.75
251.231	268.75
251.465	250.75
251.698	235.75
251.931	210.75
252.164	212.75
252.397	212.75
252.63	227.75
252.863	229.75
253.096	238.75
253.329	261.75
253.562	248.75
253.795	244.75
254.028	236.75
254.261	266.75
254.494	255.75
254.727	273.75
254.96	323.75
255.193	319.75
255.426	289.75
255.659	269.75
255.892	264.75
256.124	264.75
256.357	271.75
256.59	259.75
256.823	241.75
257.056	247.75
257.289	223.75
257.521	217.75
257.754	223.75
257.987	219.75
258.22	219.75
258.452	230.75
258.685	223.75
258.918	242.75
259.151	261.75
259.383	251.75
259.616	241.75
259.849	238.75
260.081	265.75
260.314	276.75
260.547	291.75
260.779	276.75
261.012	272.75
261.244	252.75
261.477	245.75
261.71	230.75
261.942	263.75
262.175	275.75
262.407	256.75
262.64	235.75
262.872	218.75
263.105	242.75
263.337	259.75
263.57	215.75
263.802	241.75
264.035	239.75
264.267	216.75
264.499	216.75
264.732	230.75
264.964	226.75
265.197	226.75
265.429	222.75
265.661	215.75
265.894	210.75
266.126	203.75
266.358	227.75
266.591	230.75
266.823	244.75
267.055	247.75
267.287	251.75
267.52	232.75
267.752	234.75
267.984	242.75
268.216	248.75
268.448	255.75
268.681	234.75
268.913	263.75
269.145	296.75
269.377	292.75
269.609	289.75
269.841	310.75
270.073	289.75
270.306	315.75
270.538	344.75
270.77	350.75
271.002	323.75
271.234	328.75
271.466	314.75
271.698	344.75
271.93	358.75
272.162	335.75
272.394	340.75
272.626	338.75
272.858	311.75
273.09	309.75
273.322	282.75
273.553	294.75
273.785	289.75
274.017	276.75
274.249	289.75
274.481	273.75
274.713	292.75
274.945	282.75
275.176	290.75
275.408	271.75
275.64	269.75
275.872	272.75
276.104	289.75
276.335	296.75
276.567	293.75
276.799	305.75
277.031	341.75
277.262	328.75
277.494	328.75
277.726	311.75
277.957	310.75
278.189	299.75
278.421	297.75
278.652	293.75
278.884	293.75
279.115	305.75
279.347	273.75
279.579	262.75
279.81	285.75
280.042	280.75
280.273	278.75
280.505	260.75
280.736	267.75
280.968	271.75
281.199	276.75
281.431	284.75
281.662	263.75
281.894	277.75
282.125	283.75
282.356	296.75
282.588	320.75
282.819	326.75
283.051	299.75
283.282	279.75
283.513	285.75
283.745	269.75
283.976	291.75
284.207	305.75
284.439	287.75
284.67	281.75
284.901	269.75
285.132	278.75
285.364	292.75
285.595	274.75
285.826	273.75
286.057	284.75
286.288	279.75
286.52	283.75
286.751	270.75
286.982	272.75
287.213	287.75
287.444	303.75
287.675	285.75
287.906	298.75
288.138	318.75
288.369	302.75
288.6	317.75
288.831	289.75
289.062	311.75
289.293	309.75
289.524	295.75
289.755	314.75
289.986	293.75
290.217	269.75
290.448	290.75
290.679	286.75
290.91	290.75
291.141	301.75
291.371	293.75
291.602	304.75
291.833	286.75
292.064	282.75
292.295	314.75
292.526	297.75
292.757	294.75
292.987	284.75
293.218	298.75
293.449	303.75
293.68	292.75
293.91	296.75
294.141	284.75
294.372	289.75
294.603	296.75
294.833	298.75
295.064	306.75
295.295	305.75
295.525	278.75
295.756	290.75
295.987	317.75
296.217	338.75
296.448	358.75
296.679	312.75
296.909	294.75
297.14	296.75
297.37	301.75
297.601	295.75
297.831	292.75
298.062	305.75
298.292	319.75
298.523	308.75
298.753	321.75
298.984	300.75
299.214	321.75
299.445	298.75
299.675	312.75
299.905	331.75
300.136	327.75
300.366	318.75
300.597	308.75
300.827	333.75
301.057	312.75
301.288	329.75
301.518	325.75
301.748	323.75
301.979	319.75
302.209	317.75
302.439	330.75
302.669	323.75
302.9	330.75
303.13	318.75
303.36	342.75
303.59	337.75
303.82	327.75
304.051	348.75
304.281	332.75
304.511	326.75
304.741	336.75
304.971	315.75
305.201	322.75
305.431	322.75
305.661	349.75
305.891	321.75
306.121	325.75
306.352	323.75
306.582	346.75
306.812	319.75
307.042	328.75
307.272	337.75
307.502	357.75
307.731	359.75
307.961	332.75
308.191	334.75
308.421	333.75
308.651	330.75
308.881	347.75
309.111	357.75
309.341	338.75
309.571	342.75
309.8	382.75
310.03	387.75
310.26	402.75
310.49	379.75
310.72	417.75
310.949	408.75
311.179	422.75
311.409	407.75
311.639	386.75
311.868	388.75
312.098	395.75
312.328	405.75
312.557	419.75
312.787	438.75
313.017	431.75
313.246	416.75
313.476	393.75
313.706	392.75
313.935	392.75
314.165	390.75
314.394	431.75
314.624	389.75
314.853	423.75
315.083	379.75
315.312	392.75
315.542	393.75
315.771	381.75
316.001	379.75
316.23	386.75
316.46	374.75
316.689	405.75
316.919	401.75
317.148	402.75
317.377	423.75
317.607	414.75
317.836	396.75
318.065	410.75
318.295	377.75
318.524	395.75
318.753	374.75
318.983	376.75
319.212	399.75
319.441	398.75
319.67	425.75
319.9	419.75
320.129	414.75
320.358	406.75
320.587	398.75
320.816	425.75
321.046	434.75
321.275	401.75
321.504	414.75
321.733	461.75
321.962	437.75
322.191	443.75
322.42	469.75
322.649	487.75
322.878	498.75
323.108	492.75
323.337	527.75
323.566	565.75
323.795	597.75
324.024	661.75
324.253	808.75
324.482	1125.75
324.71	1788.75
324.939	2538.75
325.168	2185.75
325.397	1145.75
325.626	768.75
325.855	611.75
326.084	586.75
326.313	564.75
326.542	567.75
326.77	590.75
326.999	717.75
327.228	1013.75
327.457	1604.75
327.686	1875.75
327.914	1318.75
328.143	851.75
328.372	747.75
328.6	703.75
328.829	678.75
329.058	654.75
329.287	660.75
329.515	636.75
329.744	586.75
329.972	559.75
330.201	582.75
330.43	660.75
330.658	681.75
330.887	689.75
331.115	672.75
331.344	570.75
331.572	540.75
331.801	534.75
332.03	526.75
332.258	513.75
332.486	481.75
332.715	481.75
332.943	462.75
333.172	487.75
333.4	487.75
333.629	485.75
333.857	511.75
334.085	509.75
334.314	525.75
334.542	566.75
334.771	606.75
334.999	534.75
335.227	510.75
335.455	482.75
335.684	469.75
335.912	484.75
336.14	448.75
336.369	448.75
336.597	470.75
336.825	476.75
337.053	463.75
337.281	477.75
337.51	447.75
337.738	439.75
337.966	454.75
338.194	468.75
338.422	472.75
338.65	473.75
338.878	469.75
339.106	443.75
339.334	461.75
339.562	444.75
339.79	427.75
340.018	451.75
340.246	423.75
340.474	462.75
340.702	481.75
340.93	445.75
341.158	471.75
341.386	434.75
341.614	453.75
341.842	457.75
342.07	458.75
342.298	435.75
342.526	455.75
342.754	425.75
342.981	430.75
343.209	420.75
343.437	444.75
343.665	426.75
343.893	435.75
344.12	455.75
344.348	439.75
344.576	453.75
344.804	453.75
345.031	467.75
345.259	472.75
345.487	455.75
345.714	467.75
345.942	441.75
346.17	446.75
346.397	453.75
346.625	445.75
346.853	471.75
347.08	437.75
347.308	461.75
347.535	452.75
347.763	468.75
347.99	452.75
348.218	437.75
348.445	451.75
348.673	472.75
348.9	451.75
349.128	456.75
349.355	425.75
349.583	428.75
349.81	421.75
350.037	422.75
350.265	437.75
350.492	451.75
350.72	423.75
350.947	447.75
351.174	439.75
351.402	452.75
351.629	459.75
351.856	456.75
352.083	444.75
352.311	475.75
352.538	455.75
352.765	483.75
352.992	451.75
353.22	461.75
353.447	448.75
353.674	443.75
353.901	403.75
354.128	415.75
354.355	412.75
354.583	409.75
354.81	421.75
355.037	400.75
355.264	413.75
355.491	417.75
355.718	397.75
355.945	380.75
356.172	413.75
356.399	389.75
356.626	417.75
356.853	427.75
357.08	407.75
357.307	409.75
357.534	423.75
357.761	398.75
357.988	435.75
358.215	415.75
358.441	407.75
358.668	407.75
358.895	412.75
359.122	423.75
359.349	427.75
359.576	469.75
359.802	475.75
360.029	522.75
360.256	534.75
360.483	511.75
360.709	461.75
360.936	450.75
361.163	468.75
361.39	460.75
361.616	475.75
361.843	438.75
362.07	450.75
362.296	445.75
362.523	461.75
362.749	435.75
362.976	471.75
363.203	449.75
363.429	427.75
363.656	442.75
363.882	449.75
364.109	430.75
364.335	418.75
364.562	427.75
364.788	438.75
365.015	423.75
365.241	439.75
365.468	450.75
365.694	430.75
365.92	442.75
366.147	428.75
366.373	427.75
366.599	430.75
366.826	427.75
367.052	425.75
367.278	428.75
367.505	430.75
367.731	418.75
367.957	430.75
368.184	428.75
368.41	415.75
368.636	451.75
368.862	445.75
369.089	445.75
369.315	438.75
369.541	434.75
369.767	444.75
369.993	444.75
370.219	419.75
370.445	429.75
370.672	404.75
370.898	440.75
371.124	418.75
371.35	427.75
371.576	434.75
371.802	441.75
372.028	421.75
372.254	423.75
372.48	401.75
372.706	415.75
372.932	423.75
373.158	405.75
373.384	419.75
373.61	421.75
373.835	441.75
374.061	417.75
374.287	433.75
374.513	416.75
374.739	415.75
374.965	417.75
375.191	414.75
375.416	428.75
375.642	412.75
375.868	430.75
376.094	430.75
376.319	438.75
376.545	431.75
376.771	429.75
376.997	437.75
377.222	430.75
377.448	431.75
377.674	431.75
377.899	424.75
378.125	419.75
378.35	430.75
378.576	423.75
378.802	419.75
379.027	430.75
379.253	426.75
379.478	405.75
379.704	439.75
379.929	437.75
380.155	421.75
380.38	417.75
380.606	442.75
380.831	418.75
381.057	422.75
381.282	421.75
381.507	428.75
381.733	420.75
381.958	413.75
382.184	423.75
382.409	449.75
382.634	423.75
382.86	449.75
383.085	439.75
383.31	437.75
383.535	457.75
383.761	441.75
383.986	445.75
384.211	436.75
384.436	437.75
384.662	465.75
384.887	458.75
385.112	451.75
385.337	463.75
385.562	453.75
385.787	452.75
386.013	471.75
386.238	471.75
386.463	475.75
386.688	460.75
386.913	469.75
387.138	468.75
387.363	458.75
387.588	450.75
387.813	460.75
388.038	448.75
388.263	455.75
388.488	455.75
388.713	461.75
388.938	465.75
389.163	467.75
389.387	454.75
389.612	453.75
389.837	436.75
390.062	461.75
390.287	456.75
390.512	450.75
390.736	470.75
390.961	456.75
391.186	446.75
391.411	482.75
391.636	477.75
391.86	468.75
392.085	442.75
392.31	456.75
392.534	501.75
392.759	461.75
392.984	482.75
393.208	475.75
393.433	479.75
393.658	500.75
393.882	466.75
394.107	471.75
394.331	482.75
394.556	467.75
394.78	447.75
395.005	470.75
395.229	474.75
395.454	471.75
395.678	475.75
395.903	482.75
396.127	514.75
396.352	520.75
396.576	483.75
396.801	468.75
397.025	465.75
397.249	476.75
397.474	505.75
397.698	477.75
397.922	508.75
398.147	523.75
398.371	542.75
398.595	517.75
398.82	511.75
399.044	510.75
399.268	533.75
399.492	568.75
399.717	579.75
399.941	606.75
400.165	629.75
400.389	649.75
400.613	579.75
400.837	549.75
401.062	544.75
401.286	538.75
401.51	524.75
401.734	535.75
401.958	543.75
402.182	551.75
402.406	561.75
402.63	561.75
402.854	549.75
403.078	540.75
403.302	564.75
403.526	551.75
403.75	541.75
403.974	531.75
404.198	520.75
404.422	560.75
404.645	555.75
404.869	575.75
405.093	617.75
405.317	621.75
405.541	677.75
405.765	643.75
405.988	605.75
406.212	590.75
406.436	596.75
406.66	629.75
406.883	603.75
407.107	629.75
407.331	661.75
407.555	748.75
407.778	733.75
408.002	671.75
408.226	622.75
408.449	606.75
408.673	605.75
408.896	632.75
409.12	700.75
409.344	645.75
409.567	599.75
409.791	594.75
410.014	562.75
410.238	542.75
410.461	550.75
410.685	586.75
410.908	586.75
411.132	625.75
411.355	677.75
411.578	645.75
411.802	583.75
412.025	583.75
412.249	561.75
412.472	615.75
412.695	636.75
412.919	610.75
413.142	597.75
413.365	569.75
413.589	565.75
413.812	558.75
414.035	553.75
414.258	521.75
414.482	539.75
414.705	540.75
414.928	542.75
415.151	522.75
415.374	536.75
415.597	546.75
415.821	536.75
416.044	554.75
416.267	535.75
416.49	537.75
416.713	521.75
416.936	526.75
417.159	527.75
417.382	557.75
417.605	546.75
417.828	576.75
418.051	575.75
418.274	575.75
418.497	539.75
418.72	539.75
418.943	540.75
419.166	546.75
419.389	566.75
419.611	584.75
419.834	579.75
420.057	558.75
420.28	568.75
420.503	559.75
420.726	592.75
420.948	598.75
421.171	638.75
421.394	660.75
421.617	601.75
421.839	563.75
422.062	576.75
422.285	588.75
422.507	632.75
422.73	742.75
422.953	726.75
423.175	633.75
423.398	581.75
423.621	592.75
423.843	627.75
424.066	603.75
424.288	618.75
424.511	641.75
424.733	697.75
424.956	784.75
425.178	753.75
425.401	789.75
425.623	771.75
425.846	659.75
426.068	639.75
426.291	628.75
426.513	633.75
426.735	641.75
426.958	713.75
427.18	797.75
427.402	937.75
427.625	982.75
427.847	881.75
428.069	771.75
428.292	702.75
428.514	645.75
428.736	636.75
428.958	622.75
429.181	584.75
429.403	601.75
429.625	622.75
429.847	638.75
430.069	706.75
430.292	681.75
430.514	597.75
430.736	575.75
430.958	585.75
431.18	546.75
431.402	565.75
431.624	539.75
431.846	525.75
432.068	561.75
432.29	537.75
432.512	529.75
432.734	544.75
432.956	564.75
433.178	571.75
433.4	549.75
433.622	573.75
433.844	545.75
434.066	547.75
434.287	528.75
434.509	540.75
434.731	543.75
434.953	563.75
435.175	578.75
435.397	602.75
435.618	613.75
435.84	673.75
436.062	769.75
436.284	829.75
436.505	738.75
436.727	645.75
436.949	575.75
437.17	576.75
437.392	583.75
437.614	620.75
437.835	665.75
438.057	757.75
438.278	868.75
438.5	887.75
438.721	926.75
438.943	891.75
439.165	742.75
439.386	703.75
439.608	659.75
439.829	649.75
440.05	695.75
440.272	732.75
440.493	700.75
440.715	607.75
440.936	614.75
441.158	573.75
441.379	578.75
441.6	589.75
441.822	630.75
442.043	679.75
442.264	775.75
442.486	838.75
442.707	685.75
442.928	670.75
443.149	657.75
443.371	683.75
443.592	726.75
443.813	850.75
444.034	883.75
444.255	759.75
444.476	645.75
444.698	625.75
444.919	630.75
445.14	727.75
445.361	683.75
445.582	678.75
445.803	755.75
446.024	862.75
446.245	882.75
446.466	801.75
446.687	702.75
446.908	651.75
447.129	618.75
447.35	603.75
447.571	592.75
447.792	592.75
448.013	601.75
448.234	596.75
448.455	669.75
448.675	812.75
448.896	895.75
449.117	781.75
449.338	759.75
449.559	854.75
449.779	923.75
450	807.75
450.221	679.75
450.442	613.75
450.662	631.75
450.883	621.75
451.104	589.75
451.324	618.75
451.545	575.75
451.766	539.75
451.986	538.75
452.207	517.75
452.428	490.75
452.648	539.75
452.869	510.75
453.089	547.75
453.31	564.75
453.53	539.75
453.751	533.75
453.971	549.75
454.192	548.75
454.412	564.75
454.633	535.75
454.853	522.75
455.073	511.75
455.294	551.75
455.514	618.75
455.734	627.75
455.955	527.75
456.175	516.75
456.395	487.75
456.616	482.75
456.836	502.75
457.056	477.75
457.276	478.75
457.497	492.75
457.717	498.75
457.937	493.75
458.157	503.75
458.377	500.75
458.598	542.75
458.818	595.75
459.038	695.75
459.258	735.75
459.478	623.75
459.698	570.75
459.918	529.75
460.138	531.75
460.358	532.75
460.578	556.75
460.798	534.75
461.018	526.75
461.238	537.75
461.458	533.75
461.678	541.75
461.898	526.75
462.118	524.75
462.338	533.75
462.558	545.75
462.777	549.75
462.997	573.75
463.217	571.75
463.437	563.75
463.657	580.75
463.876	565.75
464.096	557.75
464.316	549.75
464.536	572.75
464.755	583.75
464.975	588.75
465.195	659.75
465.414	739.75
465.634	675.75
465.854	611.75
466.073	589.75
466.293	551.75
466.512	549.75
466.732	520.75
466.951	522.75
467.171	539.75
467.391	532.75
467.61	549.75
467.829	550.75
468.049	556.75
468.268	550.75
468.488	527.75
468.707	510.75
468.927	541.75
469.146	515.75
469.365	529.75
469.585	498.75
469.804	527.75
470.023	543.75
470.243	540.75
470.462	560.75
470.681	577.75
470.901	561.75
471.12	535.75
471.339	538.75
471.558	538.75
471.777	551.75
471.997	521.75
472.216	547.75
472.435	600.75
472.654	601.75
472.873	529.75
473.092	537.75
473.311	546.75
473.53	555.75
473.749	549.75
473.968	601.75
474.187	707.75
474.406	748.75
474.625	627.75
474.844	574.75
475.063	540.75
475.282	562.75
475.501	549.75
475.72	550.75
475.939	544.75
476.158	553.75
476.377	547.75
476.596	570.75
476.814	574.75
477.033	553.75
477.252	595.75
477.471	592.75
477.69	583.75
477.908	616.75
478.127	589.75
478.346	597.75
478.564	603.75
478.783	599.75
479.002	615.75
479.22	608.75
479.439	639.75
479.658	668.75
479.876	642.75
480.095	659.75
480.313	711.75
480.532	667.75
480.751	649.75
480.969	681.75
481.188	759.75
481.406	851.75
481.624	727.75
481.843	682.75
482.061	681.75
482.28	670.75
482.498	661.75
482.717	643.75
482.935	652.75
483.153	647.75
483.372	652.75
483.59	659.75
483.808	636.75
484.027	627.75
484.245	659.75
484.463	648.75
484.681	647.75
484.9	655.75
485.118	676.75
485.336	673.75
485.554	666.75
485.772	678.75
485.99	672.75
486.209	645.75
486.427	686.75
486.645	696.75
486.863	712.75
487.081	719.75
487.299	708.75
487.517	701.75
487.735	716.75
487.953	702.75
488.171	735.75
488.389	721.75
488.607	746.75
488.825	714.75
489.043	715.75
489.261	701.75
489.479	711.75
489.696	710.75
489.914	731.75
490.132	723.75
490.35	738.75
490.568	743.75
490.786	756.75
491.003	769.75
491.221	796.75
491.439	801.75
491.657	826.75
491.874	838.75
492.092	830.75
492.31	860.75
492.527	828.75
492.745	838.75
492.963	824.75
493.18	839.75
493.398	874.75
493.615	839.75
493.833	870.75
494.05	885.75
494.268	873.75
494.485	872.75
494.703	827.75
494.92	870.75
495.138	876.75
495.355	865.75
495.573	891.75
495.79	860.75
496.008	845.75
496.225	844.75
496.442	854.75
496.66	856.75
496.877	873.75
497.094	883.75
497.312	872.75
497.529	861.75
497.746	889.75
497.963	873.75
498.181	937.75
498.398	869.75
498.615	918.75
498.832	918.75
499.049	935.75
499.267	925.75
499.484	950.75
499.701	987.75
499.918	1016.75
500.135	1009.75
500.352	1061.75
500.569	1051.75
500.786	1091.75
501.003	1079.75
501.22	1034.75
501.437	1028.75
501.654	1001.75
501.871	1029.75
502.088	990.75
502.305	941.75
502.522	909.75
502.739	937.75
502.956	869.75
503.172	887.75
503.389	874.75
503.606	883.75
503.823	926.75
504.04	856.75
504.256	843.75
504.473	837.75
504.69	840.75
504.907	833.75
505.123	835.75
505.34	830.75
505.557	806.75
505.773	826.75
505.99	834.75
506.207	847.75
506.423	826.75
506.64	791.75
506.856	799.75
507.073	800.75
507.289	799.75
507.506	822.75
507.722	825.75
507.939	807.75
508.155	815.75
508.372	799.75
508.588	763.75
508.805	794.75
509.021	793.75
509.238	817.75
509.454	797.75
509.67	791.75
509.887	766.75
510.103	800.75
510.319	823.75
510.536	901.75
510.752	1533.75
510.968	1219.75
511.184	833.75
511.401	783.75
511.617	801.75
511.833	780.75
512.049	757.75
512.265	747.75
512.481	739.75
512.698	739.75
512.914	780.75
513.13	747.75
513.346	718.75
513.562	768.75
513.778	738.75
513.994	760.75
514.21	777.75
514.426	827.75
514.642	870.75
514.858	913.75
515.074	930.75
515.29	1142.75
515.506	1699.75
515.721	1397.75
515.937	929.75
516.153	843.75
516.369	801.75
516.585	775.75
516.801	760.75
517.016	755.75
517.232	773.75
517.448	762.75
517.664	739.75
517.879	742.75
518.095	769.75
518.311	754.75
518.527	744.75
518.742	753.75
518.958	739.75
519.173	737.75
519.389	742.75
519.605	746.75
519.82	772.75
520.036	779.75
520.251	777.75
520.467	824.75
520.682	835.75
520.898	858.75
521.113	864.75
521.329	915.75
521.544	1040.75
521.76	1345.75
521.975	2257.75
522.19	2183.75
522.406	1205.75
522.621	874.75
522.836	788.75
523.052	766.75
523.267	721.75
523.482	701.75
523.698	707.75
523.913	713.75
524.128	691.75
524.343	696.75
524.559	686.75
524.774	655.75
524.989	641.75
525.204	650.75
525.419	674.75
525.634	644.75
525.849	625.75
526.064	620.75
526.28	615.75
526.495	618.75
526.71	602.75
526.925	615.75
527.14	613.75
527.355	606.75
527.57	605.75
527.785	585.75
527.999	578.75
528.214	607.75
528.429	577.75
528.644	606.75
528.859	608.75
529.074	628.75
529.289	617.75
529.503	749.75
529.718	737.75
529.933	669.75
530.148	622.75
530.363	622.75
530.577	610.75
530.792	591.75
531.007	595.75
531.221	597.75
531.436	583.75
531.651	556.75
531.865	570.75
532.08	567.75
532.295	559.75
532.509	576.75
532.724	583.75
532.938	581.75
533.153	557.75
533.367	555.75
533.582	573.75
533.796	582.75
534.011	555.75
534.225	544.75
534.44	547.75
534.654	563.75
534.868	555.75
535.083	557.75
535.297	563.75
535.511	584.75
535.726	577.75
535.94	586.75
536.154	577.75
536.369	574.75
536.583	555.75
536.797	549.75
537.011	531.75
537.225	554.75
537.44	527.75
537.654	540.75
537.868	551.75
538.082	539.75
538.296	547.75
538.51	532.75
538.724	544.75
538.938	565.75
539.153	534.75
539.367	571.75
539.581	580.75
539.795	563.75
540.009	529.75
540.222	546.75
540.436	559.75
540.65	526.75
540.864	531.75
541.078	563.75
541.292	557.75
541.506	563.75
541.72	531.75
541.934	549.75
542.147	558.75
542.361	553.75
542.575	514.75
542.789	523.75
543.002	521.75
543.216	529.75
543.43	541.75
543.644	542.75
543.857	551.75
544.071	540.75
544.285	542.75
544.498	541.75
544.712	523.75
544.925	540.75
545.139	531.75
545.352	521.75
545.566	529.75
545.779	522.75
545.993	546.75
546.206	515.75
546.42	527.75
546.633	527.75
546.847	519.75
547.06	511.75
547.274	535.75
547.487	531.75
547.7	530.75
547.914	523.75
548.127	505.75
548.34	523.75
548.554	512.75
548.767	516.75
548.98	503.75
549.193	509.75
549.407	503.75
549.62	502.75
549.833	489.75
550.046	504.75
550.259	491.75
550.473	485.75
550.686	495.75
550.899	483.75
551.112	500.75
551.325	501.75
551.538	495.75
551.751	478.75
551.964	474.75
552.177	501.75
552.39	481.75
552.603	488.75
552.816	499.75
553.029	479.75
553.242	489.75
553.455	536.75
553.667	536.75
553.88	528.75
554.093	521.75
554.306	510.75
554.519	512.75
554.732	500.75
554.944	488.75
555.157	489.75
555.37	472.75
555.583	489.75
555.795	479.75
556.008	478.75
556.221	470.75
556.433	456.75
556.646	446.75
556.859	453.75
557.071	461.75
557.284	481.75
557.496	474.75
557.709	474.75
557.921	465.75
558.134	479.75
558.346	438.75
558.559	461.75
558.771	456.75
558.984	472.75
559.196	467.75
559.409	457.75
559.621	453.75
559.833	452.75
560.046	418.75
560.258	457.75
560.47	457.75
560.683	418.75
560.895	431.75
561.107	470.75
561.32	431.75
561.532	443.75
561.744	427.75
561.956	451.75
562.168	457.75
562.381	460.75
562.593	457.75
562.805	449.75
563.017	439.75
563.229	449.75
563.441	453.75
563.653	446.75
563.865	448.75
564.077	449.75
564.289	443.75
564.501	437.75
564.713	457.75
564.925	470.75
565.137	475.75
565.349	498.75
565.561	468.75
565.773	468.75
565.985	482.75
566.197	489.75
566.408	501.75
566.62	503.75
566.832	511.75
567.044	497.75
567.255	497.75
567.467	513.75
567.679	521.75
567.891	510.75
568.102	527.75
568.314	520.75
568.526	497.75
568.737	488.75
568.949	488.75
569.161	478.75
569.372	447.75
569.584	456.75
569.795	444.75
570.007	452.75
570.218	502.75
570.43	481.75
570.641	445.75
570.853	420.75
571.064	437.75
571.276	416.75
571.487	422.75
571.698	413.75
571.91	404.75
572.121	422.75
572.333	405.75
572.544	400.75
572.755	422.75
572.966	400.75
573.178	390.75
573.389	404.75
573.6	394.75
573.811	377.75
574.023	378.75
574.234	404.75
574.445	387.75
574.656	392.75
574.867	384.75
575.078	370.75
575.289	395.75
575.501	382.75
575.712	381.75
575.923	382.75
576.134	369.75
576.345	369.75
576.556	376.75
576.767	380.75
576.978	371.75
577.188	375.75
577.399	393.75
577.61	358.75
577.821	373.75
578.032	373.75
578.243	404.75
578.454	659.75
578.665	531.75
578.875	389.75
579.086	364.75
579.297	349.75
579.508	355.75
579.718	353.75
579.929	356.75
580.14	363.75
580.35	347.75
580.561	337.75
580.772	353.75
580.982	334.75
581.193	350.75
581.403	350.75
581.614	348.75
581.825	352.75
582.035	345.75
582.246	344.75
582.456	333.75
582.667	348.75
582.877	341.75
583.087	343.75
583.298	335.75
583.508	310.75
583.719	345.75
583.929	349.75
584.139	328.75
584.35	337.75
584.56	338.75
584.77	351.75
584.981	325.75
585.191	349.75
585.401	338.75
585.611	337.75
585.821	316.75
586.032	326.75
586.242	328.75
586.452	351.75
586.662	341.75
586.872	345.75
587.082	319.75
587.292	317.75
587.502	324.75
587.713	308.75
587.923	347.75
588.133	312.75
588.343	329.75
588.553	350.75
588.762	332.75
588.972	340.75
589.182	331.75
589.392	337.75
589.602	342.75
589.812	331.75
590.022	329.75
590.232	314.75
590.441	314.75
590.651	323.75
590.861	321.75
591.071	323.75
591.281	332.75
591.49	323.75
591.7	325.75
591.91	331.75
592.119	318.75
592.329	320.75
592.539	336.75
592.748	339.75
592.958	335.75
593.167	330.75
593.377	324.75
593.587	345.75
593.796	343.75
594.006	328.75
594.215	323.75
594.424	313.75
594.634	328.75
594.843	332.75
595.053	337.75
595.262	335.75
595.472	329.75
595.681	323.75
595.89	323.75
596.1	326.75
596.309	330.75
596.518	316.75
596.727	314.75
596.937	312.75
597.146	325.75
597.355	309.75
597.564	292.75
597.774	313.75
597.983	298.75
598.192	317.75
598.401	302.75
598.61	292.75
598.819	284.75
599.028	303.75
599.237	298.75
599.446	315.75
599.655	298.75
599.864	305.75
600.073	284.75
600.282	277.75
600.491	275.75
600.7	290.75
600.909	271.75
601.118	293.75
601.327	299.75
601.536	302.75
601.745	294.75
601.953	300.75
602.162	279.75
602.371	284.75
602.58	273.75
602.789	293.75
602.997	288.75
603.206	274.75
603.415	270.75
603.623	291.75
603.832	287.75
604.041	282.75
604.249	276.75
604.458	289.75
604.666	276.75
604.875	269.75
605.084	264.75
605.292	262.75
605.501	286.75
605.709	270.75
605.918	270.75
606.126	286.75
606.334	293.75
606.543	287.75
606.751	267.75
606.96	276.75
607.168	278.75
607.376	277.75
607.585	277.75
607.793	295.75
608.001	278.75
608.21	275.75
608.418	292.75
608.626	280.75
608.834	285.75
609.043	288.75
609.251	259.75
609.459	269.75
609.667	266.75
609.875	275.75
610.083	275.75
610.291	277.75
610.499	262.75
610.707	254.75
610.916	265.75
611.124	273.75
611.332	266.75
611.54	286.75
611.748	274.75
611.955	280.75
612.163	276.75
612.371	257.75
612.579	252.75
612.787	259.75
612.995	261.75
613.203	257.75
613.411	271.75
613.618	278.75
613.826	259.75
614.034	259.75
614.242	251.75
614.449	288.75
614.657	272.75
614.865	274.75
615.072	260.75
615.28	269.75
615.488	269.75
615.695	246.75
615.903	247.75
616.111	263.75
616.318	258.75
616.526	285.75
616.733	264.75
616.941	261.75
617.148	277.75
617.356	254.75
617.563	267.75
617.771	256.75
617.978	253.75
618.185	265.75
618.393	274.75
618.6	267.75
618.807	297.75
619.015	258.75
619.222	253.75
619.429	261.75
619.637	261.75
619.844	234.75
620.051	246.75
620.258	238.75
620.466	255.75
620.673	242.75
620.88	250.75
621.087	261.75
621.294	255.75
621.501	276.75
621.708	246.75
621.915	266.75
622.122	239.75
622.329	267.75
622.536	246.75
622.743	243.75
622.95	238.75
623.157	255.75
623.364	268.75
623.571	250.75
623.778	248.75
623.985	221.75
624.192	233.75
624.399	248.75
624.606	246.75
624.812	280.75
625.019	231.75
625.226	231.75
625.433	233.75
625.639	219.75
625.846	227.75
626.053	222.75
626.259	225.75
626.466	217.75
626.673	219.75
626.879	215.75
627.086	241.75
627.293	230.75
627.499	236.75
627.706	216.75
627.912	245.75
628.119	228.75
628.325	219.75
628.532	228.75
628.738	235.75
628.945	207.75
629.151	219.75
629.357	226.75
629.564	225.75
629.77	202.75
629.976	219.75
630.183	207.75
630.389	213.75
630.595	201.75
630.802	234.75
631.008	215.75
631.214	220.75
631.42	218.75
631.627	212.75
631.833	204.75
632.039	205.75
632.245	204.75
632.451	203.75
632.657	203.75
632.863	183.75
633.069	205.75
633.275	209.75
633.481	200.75
633.688	199.75
633.893	206.75
634.099	196.75
634.305	206.75
634.511	205.75
634.717	200.75
634.923	225.75
635.129	192.75
635.335	203.75
635.541	204.75
635.747	206.75
635.952	190.75
636.158	205.75
636.364	219.75
636.57	205.75
636.775	212.75
636.981	214.75
637.187	207.75
637.392	198.75
637.598	190.75
637.804	192.75
638.009	198.75
638.215	197.75
638.421	207.75
638.626	180.75
638.832	197.75
639.037	185.75
639.243	184.75
639.448	190.75
639.654	194.75
639.859	186.75
640.065	204.75
640.27	200.75
640.475	181.75
640.681	185.75
640.886	197.75
641.091	191.75
641.297	193.75
641.502	193.75
641.707	173.75
641.913	181.75
642.118	192.75
642.323	191.75
642.528	199.75
642.733	192.75
642.939	185.75
643.144	189.75
643.349	194.75
643.554	202.75
643.759	177.75
643.964	181.75
644.169	171.75
644.374	172.75
644.579	186.75
644.784	183.75
644.989	192.75
645.194	176.75
645.399	183.75
645.604	185.75
645.809	187.75
646.014	187.75
646.219	162.75
646.423	196.75
646.628	170.75
646.833	169.75
647.038	183.75
647.243	190.75
647.447	165.75
647.652	179.75
647.857	177.75
648.062	174.75
648.266	174.75
648.471	196.75
648.676	177.75
648.88	186.75
649.085	182.75
649.289	171.75
649.494	179.75
649.698	192.75
649.903	205.75
650.107	170.75
650.312	171.75
650.516	179.75
650.721	152.75
650.925	153.75
651.13	162.75
651.334	162.75
651.539	159.75
651.743	146.75
651.947	159.75
652.152	161.75
652.356	155.75
652.56	157.75
652.764	140.75
652.969	154.75
653.173	135.75
653.377	153.75
653.581	144.75
653.785	154.75
653.99	141.75
654.194	147.75
654.398	140.75
654.602	145.75
654.806	142.75
655.01	145.75
655.214	156.75
655.418	140.75
655.622	131.75
655.826	142.75
656.03	138.75
656.234	131.75
656.438	135.75
656.642	146.75
656.846	118.75
657.049	126.75
657.253	115.75
657.457	115.75
657.661	115.75
657.865	124.75
658.068	112.75
658.272	119.75
658.476	108.75
658.68	109.75
658.883	122.75
659.087	116.75
659.291	101.75
659.494	105.75
659.698	93.75
659.901	106.75
660.105	89.75
660.309	94.75
660.512	86.75
660.716	95.75
660.919	94.75
661.123	93.75
661.326	82.75
661.53	91.75
661.733	83.75
661.936	96.75
662.14	106.75
662.343	93.75
662.546	97.75
662.75	105.75
662.953	89.75
663.156	86.75
663.36	73.75
663.563	89.75
663.766	83.75
663.969	79.75
664.173	74.75
664.376	75.75
664.579	66.75
664.782	86.75
664.985	88.75
665.188	79.75
665.391	78.75
665.594	85.75
665.797	92.75
666	86.75
666.203	85.75
666.406	79.75
666.609	69.75
666.812	86.75
667.015	83.75
667.218	84.75
667.421	92.75
667.624	73.75
667.827	81.75
668.03	81.75
668.232	89.75
668.435	84.75
668.638	89.75
668.841	92.75
669.043	82.75
669.246	81.75
669.449	87.75
669.651	85.75
669.854	78.75
670.057	98.75
670.259	76.75
670.462	88.75
670.665	92.75
670.867	85.75
671.07	92.75
671.272	93.75
671.475	84.75
671.677	85.75
671.88	82.75
672.082	75.75
672.284	83.75
672.487	78.75
672.689	74.75
672.892	86.75
