Data from 1970.PennyLincolnUp.Lamp.En5.5.200Scan.071719.P1._HRD10591_15-15-30-841.txt Node
Date: Thu Jul 18 15:15:30 EDT 2019
User: cochatt
Spectrometer: HR+D1059
Trigger mode: 1
Integration Time (sec): 1.000000E-1
Scans to average: 1
Electric dark correction enabled: true
Nonlinearity correction enabled: false
Boxcar width: 0
XAxis mode: Wavelengths
Number of Pixels in Spectrum: 2048
>>>>>Begin Spectral Data<<<<<
223.165	-11.94
223.4	-11.94
223.635	-11.94
223.869	-10.94
224.104	-6.94
224.338	-21.94
224.573	-7.94
224.808	-14.94
225.042	-10.94
225.277	-2.94
225.511	-6.94
225.746	0.06
225.98	-9.94
226.215	10.06
226.449	19.06
226.683	18.06
226.918	25.06
227.152	33.06
227.387	30.06
227.621	33.06
227.856	46.06
228.09	38.06
228.324	54.06
228.559	45.06
228.793	74.06
229.027	112.06
229.262	108.06
229.496	129.06
229.73	147.06
229.964	190.06
230.199	139.06
230.433	128.06
230.667	128.06
230.901	113.06
231.136	117.06
231.37	130.06
231.604	126.06
231.838	133.06
232.072	119.06
232.306	126.06
232.541	125.06
232.775	125.06
233.009	121.06
233.243	109.06
233.477	113.06
233.711	123.06
233.945	129.06
234.179	132.06
234.413	113.06
234.647	136.06
234.881	114.06
235.115	113.06
235.349	128.06
235.583	120.06
235.817	137.06
236.051	134.06
236.285	152.06
236.519	129.06
236.753	145.06
236.987	157.06
237.221	205.06
237.455	269.06
237.689	228.06
237.922	166.06
238.156	154.06
238.39	147.06
238.624	144.06
238.858	135.06
239.091	134.06
239.325	142.06
239.559	134.06
239.793	145.06
240.027	150.06
240.26	152.06
240.494	182.06
240.728	167.06
240.961	164.06
241.195	167.06
241.429	158.06
241.662	135.06
241.896	167.06
242.13	164.06
242.363	146.06
242.597	153.06
242.83	143.06
243.064	157.06
243.298	157.06
243.531	140.06
243.765	155.06
243.998	166.06
244.232	150.06
244.465	160.06
244.699	153.06
244.932	162.06
245.166	158.06
245.399	145.06
245.633	172.06
245.866	169.06
246.099	150.06
246.333	172.06
246.566	184.06
246.8	172.06
247.033	166.06
247.266	175.06
247.5	164.06
247.733	188.06
247.966	199.06
248.2	194.06
248.433	210.06
248.666	200.06
248.899	208.06
249.133	214.06
249.366	228.06
249.599	243.06
249.832	211.06
250.066	222.06
250.299	201.06
250.532	224.06
250.765	232.06
250.998	259.06
251.231	282.06
251.465	262.06
251.698	229.06
251.931	227.06
252.164	231.06
252.397	224.06
252.63	227.06
252.863	244.06
253.096	242.06
253.329	252.06
253.562	277.06
253.795	267.06
254.028	238.06
254.261	244.06
254.494	267.06
254.727	275.06
254.96	307.06
255.193	319.06
255.426	287.06
255.659	257.06
255.892	293.06
256.124	277.06
256.357	264.06
256.59	278.06
256.823	252.06
257.056	241.06
257.289	239.06
257.521	228.06
257.754	237.06
257.987	240.06
258.22	248.06
258.452	221.06
258.685	233.06
258.918	230.06
259.151	244.06
259.383	246.06
259.616	229.06
259.849	258.06
260.081	281.06
260.314	278.06
260.547	282.06
260.779	270.06
261.012	260.06
261.244	264.06
261.477	245.06
261.71	246.06
261.942	258.06
262.175	253.06
262.407	255.06
262.64	231.06
262.872	234.06
263.105	209.06
263.337	239.06
263.57	238.06
263.802	225.06
264.035	244.06
264.267	235.06
264.499	220.06
264.732	235.06
264.964	244.06
265.197	213.06
265.429	236.06
265.661	237.06
265.894	230.06
266.126	238.06
266.358	223.06
266.591	226.06
266.823	234.06
267.055	235.06
267.287	250.06
267.52	256.06
267.752	240.06
267.984	237.06
268.216	254.06
268.448	248.06
268.681	256.06
268.913	262.06
269.145	306.06
269.377	291.06
269.609	288.06
269.841	315.06
270.073	301.06
270.306	324.06
270.538	351.06
270.77	332.06
271.002	328.06
271.234	308.06
271.466	339.06
271.698	330.06
271.93	352.06
272.162	366.06
272.394	350.06
272.626	329.06
272.858	312.06
273.09	302.06
273.322	294.06
273.553	289.06
273.785	278.06
274.017	288.06
274.249	285.06
274.481	287.06
274.713	289.06
274.945	276.06
275.176	292.06
275.408	290.06
275.64	272.06
275.872	270.06
276.104	267.06
276.335	285.06
276.567	308.06
276.799	297.06
277.031	320.06
277.262	347.06
277.494	330.06
277.726	335.06
277.957	300.06
278.189	289.06
278.421	280.06
278.652	288.06
278.884	283.06
279.115	269.06
279.347	280.06
279.579	285.06
279.81	281.06
280.042	273.06
280.273	276.06
280.505	266.06
280.736	273.06
280.968	273.06
281.199	268.06
281.431	256.06
281.662	269.06
281.894	268.06
282.125	298.06
282.356	302.06
282.588	312.06
282.819	322.06
283.051	279.06
283.282	271.06
283.513	292.06
283.745	292.06
283.976	294.06
284.207	277.06
284.439	283.06
284.67	298.06
284.901	285.06
285.132	272.06
285.364	279.06
285.595	271.06
285.826	278.06
286.057	280.06
286.288	265.06
286.52	281.06
286.751	296.06
286.982	286.06
287.213	285.06
287.444	299.06
287.675	284.06
287.906	297.06
288.138	305.06
288.369	304.06
288.6	311.06
288.831	287.06
289.062	300.06
289.293	288.06
289.524	294.06
289.755	296.06
289.986	299.06
290.217	290.06
290.448	280.06
290.679	292.06
290.91	276.06
291.141	279.06
291.371	284.06
291.602	271.06
291.833	280.06
292.064	299.06
292.295	282.06
292.526	292.06
292.757	291.06
292.987	299.06
293.218	302.06
293.449	299.06
293.68	310.06
293.91	308.06
294.141	273.06
294.372	310.06
294.603	292.06
294.833	281.06
295.064	292.06
295.295	295.06
295.525	300.06
295.756	310.06
295.987	293.06
296.217	322.06
296.448	337.06
296.679	306.06
296.909	289.06
297.14	300.06
297.37	310.06
297.601	297.06
297.831	296.06
298.062	295.06
298.292	301.06
298.523	306.06
298.753	293.06
298.984	296.06
299.214	292.06
299.445	304.06
299.675	317.06
299.905	308.06
300.136	302.06
300.366	313.06
300.597	321.06
300.827	315.06
301.057	341.06
301.288	335.06
301.518	316.06
301.748	332.06
301.979	348.06
302.209	322.06
302.439	319.06
302.669	317.06
302.9	319.06
303.13	318.06
303.36	322.06
303.59	337.06
303.82	361.06
304.051	338.06
304.281	338.06
304.511	329.06
304.741	326.06
304.971	332.06
305.201	328.06
305.431	323.06
305.661	333.06
305.891	320.06
306.121	328.06
306.352	337.06
306.582	349.06
306.812	345.06
307.042	332.06
307.272	343.06
307.502	334.06
307.731	333.06
307.961	345.06
308.191	339.06
308.421	342.06
308.651	348.06
308.881	344.06
309.111	347.06
309.341	385.06
309.571	361.06
309.8	367.06
310.03	381.06
310.26	394.06
310.49	392.06
310.72	377.06
310.949	395.06
311.179	417.06
311.409	395.06
311.639	394.06
311.868	385.06
312.098	385.06
312.328	384.06
312.557	407.06
312.787	437.06
313.017	417.06
313.246	400.06
313.476	395.06
313.706	380.06
313.935	410.06
314.165	414.06
314.394	415.06
314.624	390.06
314.853	401.06
315.083	390.06
315.312	394.06
315.542	389.06
315.771	380.06
316.001	388.06
316.23	379.06
316.46	401.06
316.689	374.06
316.919	386.06
317.148	399.06
317.377	421.06
317.607	408.06
317.836	380.06
318.065	381.06
318.295	397.06
318.524	374.06
318.753	384.06
318.983	376.06
319.212	418.06
319.441	422.06
319.67	415.06
319.9	403.06
320.129	404.06
320.358	397.06
320.587	408.06
320.816	406.06
321.046	416.06
321.275	406.06
321.504	415.06
321.733	434.06
321.962	443.06
322.191	427.06
322.42	459.06
322.649	476.06
322.878	494.06
323.108	507.06
323.337	540.06
323.566	560.06
323.795	592.06
324.024	645.06
324.253	790.06
324.482	1134.06
324.71	1766.06
324.939	2491.06
325.168	2136.06
325.397	1174.06
325.626	768.06
325.855	640.06
326.084	560.06
326.313	559.06
326.542	569.06
326.77	628.06
326.999	743.06
327.228	1003.06
327.457	1572.06
327.686	1893.06
327.914	1288.06
328.143	841.06
328.372	722.06
328.6	696.06
328.829	662.06
329.058	658.06
329.287	668.06
329.515	619.06
329.744	584.06
329.972	557.06
330.201	600.06
330.43	646.06
330.658	682.06
330.887	672.06
331.115	654.06
331.344	562.06
331.572	548.06
331.801	519.06
332.03	534.06
332.258	483.06
332.486	486.06
332.715	498.06
332.943	468.06
333.172	466.06
333.4	471.06
333.629	491.06
333.857	495.06
334.085	500.06
334.314	540.06
334.542	587.06
334.771	586.06
334.999	542.06
335.227	503.06
335.455	480.06
335.684	436.06
335.912	450.06
336.14	442.06
336.369	469.06
336.597	468.06
336.825	457.06
337.053	446.06
337.281	463.06
337.51	460.06
337.738	439.06
337.966	448.06
338.194	447.06
338.422	460.06
338.65	458.06
338.878	433.06
339.106	430.06
339.334	427.06
339.562	439.06
339.79	442.06
340.018	441.06
340.246	433.06
340.474	472.06
340.702	440.06
340.93	447.06
341.158	446.06
341.386	440.06
341.614	450.06
341.842	430.06
342.07	441.06
342.298	438.06
342.526	418.06
342.754	414.06
342.981	409.06
343.209	429.06
343.437	424.06
343.665	435.06
343.893	449.06
344.12	442.06
344.348	431.06
344.576	433.06
344.804	466.06
345.031	463.06
345.259	463.06
345.487	471.06
345.714	462.06
345.942	440.06
346.17	447.06
346.397	430.06
346.625	438.06
346.853	436.06
347.08	441.06
347.308	430.06
347.535	453.06
347.763	461.06
347.99	461.06
348.218	430.06
348.445	456.06
348.673	474.06
348.9	464.06
349.128	426.06
349.355	396.06
349.583	428.06
349.81	420.06
350.037	421.06
350.265	442.06
350.492	436.06
350.72	417.06
350.947	425.06
351.174	466.06
351.402	457.06
351.629	445.06
351.856	454.06
352.083	427.06
352.311	464.06
352.538	464.06
352.765	461.06
352.992	469.06
353.22	428.06
353.447	456.06
353.674	429.06
353.901	412.06
354.128	425.06
354.355	420.06
354.583	422.06
354.81	407.06
355.037	402.06
355.264	396.06
355.491	399.06
355.718	410.06
355.945	393.06
356.172	401.06
356.399	388.06
356.626	393.06
356.853	399.06
357.08	403.06
357.307	401.06
357.534	388.06
357.761	367.06
357.988	389.06
358.215	412.06
358.441	422.06
358.668	430.06
358.895	415.06
359.122	404.06
359.349	440.06
359.576	449.06
359.802	470.06
360.029	500.06
360.256	494.06
360.483	509.06
360.709	470.06
360.936	479.06
361.163	449.06
361.39	462.06
361.616	430.06
361.843	466.06
362.07	454.06
362.296	458.06
362.523	433.06
362.749	440.06
362.976	420.06
363.203	417.06
363.429	429.06
363.656	433.06
363.882	411.06
364.109	407.06
364.335	423.06
364.562	437.06
364.788	434.06
365.015	427.06
365.241	432.06
365.468	417.06
365.694	432.06
365.92	414.06
366.147	421.06
366.373	407.06
366.599	424.06
366.826	424.06
367.052	423.06
367.278	434.06
367.505	432.06
367.731	435.06
367.957	420.06
368.184	410.06
368.41	413.06
368.636	425.06
368.862	432.06
369.089	424.06
369.315	432.06
369.541	416.06
369.767	407.06
369.993	425.06
370.219	417.06
370.445	421.06
370.672	414.06
370.898	399.06
371.124	398.06
371.35	424.06
371.576	421.06
371.802	417.06
372.028	412.06
372.254	410.06
372.48	405.06
372.706	413.06
372.932	434.06
373.158	420.06
373.384	433.06
373.61	423.06
373.835	428.06
374.061	412.06
374.287	449.06
374.513	406.06
374.739	438.06
374.965	430.06
375.191	421.06
375.416	458.06
375.642	401.06
375.868	427.06
376.094	426.06
376.319	433.06
376.545	424.06
376.771	436.06
376.997	411.06
377.222	416.06
377.448	402.06
377.674	422.06
377.899	408.06
378.125	424.06
378.35	425.06
378.576	411.06
378.802	417.06
379.027	422.06
379.253	421.06
379.478	423.06
379.704	409.06
379.929	403.06
380.155	415.06
380.38	411.06
380.606	427.06
380.831	426.06
381.057	425.06
381.282	427.06
381.507	420.06
381.733	405.06
381.958	417.06
382.184	431.06
382.409	445.06
382.634	418.06
382.86	428.06
383.085	434.06
383.31	408.06
383.535	422.06
383.761	432.06
383.986	455.06
384.211	426.06
384.436	427.06
384.662	453.06
384.887	438.06
385.112	439.06
385.337	448.06
385.562	447.06
385.787	441.06
386.013	452.06
386.238	464.06
386.463	455.06
386.688	433.06
386.913	436.06
387.138	433.06
387.363	446.06
387.588	425.06
387.813	450.06
388.038	452.06
388.263	455.06
388.488	460.06
388.713	468.06
388.938	444.06
389.163	465.06
389.387	463.06
389.612	463.06
389.837	462.06
390.062	449.06
390.287	428.06
390.512	429.06
390.736	456.06
390.961	458.06
391.186	465.06
391.411	470.06
391.636	450.06
391.86	460.06
392.085	453.06
392.31	430.06
392.534	454.06
392.759	464.06
392.984	460.06
393.208	443.06
393.433	463.06
393.658	457.06
393.882	444.06
394.107	436.06
394.331	465.06
394.556	438.06
394.78	456.06
395.005	447.06
395.229	463.06
395.454	435.06
395.678	474.06
395.903	475.06
396.127	513.06
396.352	510.06
396.576	485.06
396.801	466.06
397.025	468.06
397.249	463.06
397.474	463.06
397.698	490.06
397.922	494.06
398.147	522.06
398.371	519.06
398.595	528.06
398.82	494.06
399.044	521.06
399.268	527.06
399.492	541.06
399.717	569.06
399.941	588.06
400.165	624.06
400.389	621.06
400.613	568.06
400.837	553.06
401.062	530.06
401.286	554.06
401.51	520.06
401.734	523.06
401.958	542.06
402.182	526.06
402.406	533.06
402.63	540.06
402.854	526.06
403.078	536.06
403.302	526.06
403.526	540.06
403.75	544.06
403.974	539.06
404.198	529.06
404.422	539.06
404.645	560.06
404.869	529.06
405.093	569.06
405.317	617.06
405.541	650.06
405.765	600.06
405.988	586.06
406.212	580.06
406.436	611.06
406.66	620.06
406.883	593.06
407.107	635.06
407.331	639.06
407.555	719.06
407.778	708.06
408.002	664.06
408.226	602.06
408.449	600.06
408.673	622.06
408.896	625.06
409.12	653.06
409.344	668.06
409.567	584.06
409.791	554.06
410.014	558.06
410.238	550.06
410.461	530.06
410.685	568.06
410.908	530.06
411.132	604.06
411.355	638.06
411.578	601.06
411.802	566.06
412.025	567.06
412.249	564.06
412.472	584.06
412.695	628.06
412.919	634.06
413.142	567.06
413.365	549.06
413.589	540.06
413.812	544.06
414.035	522.06
414.258	500.06
414.482	503.06
414.705	511.06
414.928	516.06
415.151	524.06
415.374	501.06
415.597	523.06
415.821	517.06
416.044	512.06
416.267	528.06
416.49	521.06
416.713	531.06
416.936	498.06
417.159	538.06
417.382	515.06
417.605	523.06
417.828	570.06
418.051	550.06
418.274	538.06
418.497	502.06
418.72	533.06
418.943	524.06
419.166	545.06
419.389	586.06
419.611	555.06
419.834	531.06
420.057	570.06
420.28	584.06
420.503	553.06
420.726	564.06
420.948	568.06
421.171	605.06
421.394	616.06
421.617	584.06
421.839	556.06
422.062	568.06
422.285	572.06
422.507	637.06
422.73	728.06
422.953	719.06
423.175	628.06
423.398	597.06
423.621	575.06
423.843	598.06
424.066	607.06
424.288	608.06
424.511	606.06
424.733	678.06
424.956	778.06
425.178	736.06
425.401	732.06
425.623	780.06
425.846	652.06
426.068	631.06
426.291	607.06
426.513	584.06
426.735	603.06
426.958	654.06
427.18	766.06
427.402	894.06
427.625	975.06
427.847	905.06
428.069	771.06
428.292	683.06
428.514	653.06
428.736	613.06
428.958	622.06
429.181	562.06
429.403	587.06
429.625	577.06
429.847	615.06
430.069	699.06
430.292	704.06
430.514	599.06
430.736	585.06
430.958	560.06
431.18	538.06
431.402	556.06
431.624	522.06
431.846	523.06
432.068	524.06
432.29	510.06
432.512	525.06
432.734	554.06
432.956	531.06
433.178	566.06
433.4	561.06
433.622	543.06
433.844	548.06
434.066	528.06
434.287	543.06
434.509	541.06
434.731	544.06
434.953	557.06
435.175	589.06
435.397	591.06
435.618	603.06
435.84	656.06
436.062	781.06
436.284	815.06
436.505	695.06
436.727	623.06
436.949	581.06
437.17	592.06
437.392	584.06
437.614	595.06
437.835	642.06
438.057	744.06
438.278	835.06
438.5	850.06
438.721	890.06
438.943	854.06
439.165	735.06
439.386	668.06
439.608	633.06
439.829	666.06
440.05	658.06
440.272	686.06
440.493	654.06
440.715	643.06
440.936	607.06
441.158	586.06
441.379	600.06
441.6	599.06
441.822	614.06
442.043	676.06
442.264	758.06
442.486	793.06
442.707	702.06
442.928	650.06
443.149	636.06
443.371	693.06
443.592	711.06
443.813	818.06
444.034	865.06
444.255	720.06
444.476	640.06
444.698	614.06
444.919	599.06
445.14	722.06
445.361	698.06
445.582	657.06
445.803	745.06
446.024	843.06
446.245	844.06
446.466	784.06
446.687	672.06
446.908	623.06
447.129	606.06
447.35	608.06
447.571	601.06
447.792	569.06
448.013	598.06
448.234	610.06
448.455	669.06
448.675	793.06
448.896	912.06
449.117	768.06
449.338	716.06
449.559	840.06
449.779	932.06
450	760.06
450.221	648.06
450.442	571.06
450.662	571.06
450.883	594.06
451.104	599.06
451.324	599.06
451.545	546.06
451.766	549.06
451.986	524.06
452.207	521.06
452.428	523.06
452.648	540.06
452.869	539.06
453.089	547.06
453.31	551.06
453.53	526.06
453.751	516.06
453.971	519.06
454.192	570.06
454.412	561.06
454.633	550.06
454.853	520.06
455.073	511.06
455.294	570.06
455.514	628.06
455.734	609.06
455.955	527.06
456.175	496.06
456.395	481.06
456.616	463.06
456.836	487.06
457.056	456.06
457.276	461.06
457.497	479.06
457.717	476.06
457.937	478.06
458.157	482.06
458.377	498.06
458.598	536.06
458.818	601.06
459.038	699.06
459.258	703.06
459.478	589.06
459.698	538.06
459.918	538.06
460.138	514.06
460.358	501.06
460.578	506.06
460.798	546.06
461.018	532.06
461.238	525.06
461.458	518.06
461.678	505.06
461.898	508.06
462.118	513.06
462.338	547.06
462.558	538.06
462.777	538.06
462.997	559.06
463.217	545.06
463.437	550.06
463.657	550.06
463.876	548.06
464.096	543.06
464.316	566.06
464.536	556.06
464.755	559.06
464.975	594.06
465.195	640.06
465.414	723.06
465.634	646.06
465.854	585.06
466.073	560.06
466.293	545.06
466.512	540.06
466.732	520.06
466.951	524.06
467.171	512.06
467.391	527.06
467.61	541.06
467.829	558.06
468.049	545.06
468.268	524.06
468.488	521.06
468.707	527.06
468.927	522.06
469.146	502.06
469.365	511.06
469.585	522.06
469.804	510.06
470.023	532.06
470.243	541.06
470.462	556.06
470.681	568.06
470.901	561.06
471.12	530.06
471.339	528.06
471.558	556.06
471.777	551.06
471.997	526.06
472.216	542.06
472.435	598.06
472.654	569.06
472.873	553.06
473.092	536.06
473.311	538.06
473.53	548.06
473.749	550.06
473.968	606.06
474.187	720.06
474.406	728.06
474.625	604.06
474.844	556.06
475.063	553.06
475.282	541.06
475.501	552.06
475.72	548.06
475.939	529.06
476.158	548.06
476.377	541.06
476.596	553.06
476.814	560.06
477.033	566.06
477.252	572.06
477.471	602.06
477.69	568.06
477.908	593.06
478.127	584.06
478.346	588.06
478.564	594.06
478.783	581.06
479.002	584.06
479.22	623.06
479.439	606.06
479.658	644.06
479.876	647.06
480.095	646.06
480.313	680.06
480.532	671.06
480.751	644.06
480.969	684.06
481.188	764.06
481.406	824.06
481.624	720.06
481.843	697.06
482.061	679.06
482.28	641.06
482.498	666.06
482.717	640.06
482.935	640.06
483.153	648.06
483.372	638.06
483.59	625.06
483.808	674.06
484.027	626.06
484.245	623.06
484.463	657.06
484.681	664.06
484.9	637.06
485.118	646.06
485.336	654.06
485.554	689.06
485.772	648.06
485.99	652.06
486.209	647.06
486.427	695.06
486.645	666.06
486.863	713.06
487.081	703.06
487.299	709.06
487.517	692.06
487.735	689.06
487.953	687.06
488.171	687.06
488.389	698.06
488.607	716.06
488.825	714.06
489.043	700.06
489.261	733.06
489.479	686.06
489.696	702.06
489.914	709.06
490.132	722.06
490.35	762.06
490.568	760.06
490.786	739.06
491.003	792.06
491.221	774.06
491.439	786.06
491.657	804.06
491.874	824.06
492.092	823.06
492.31	817.06
492.527	812.06
492.745	806.06
492.963	834.06
493.18	838.06
493.398	831.06
493.615	837.06
493.833	860.06
494.05	855.06
494.268	832.06
494.485	845.06
494.703	827.06
494.92	847.06
495.138	850.06
495.355	873.06
495.573	849.06
495.79	831.06
496.008	855.06
496.225	860.06
496.442	862.06
496.66	861.06
496.877	824.06
497.094	861.06
497.312	846.06
497.529	859.06
497.746	850.06
497.963	874.06
498.181	911.06
498.398	893.06
498.615	927.06
498.832	923.06
499.049	897.06
499.267	904.06
499.484	915.06
499.701	931.06
499.918	957.06
500.135	976.06
500.352	1035.06
500.569	1030.06
500.786	1002.06
501.003	1017.06
501.22	999.06
501.437	1007.06
501.654	988.06
501.871	1003.06
502.088	994.06
502.305	963.06
502.522	944.06
502.739	886.06
502.956	864.06
503.172	878.06
503.389	904.06
503.606	875.06
503.823	878.06
504.04	864.06
504.256	838.06
504.473	856.06
504.69	833.06
504.907	823.06
505.123	832.06
505.34	808.06
505.557	830.06
505.773	825.06
505.99	840.06
506.207	812.06
506.423	840.06
506.64	806.06
506.856	806.06
507.073	814.06
507.289	792.06
507.506	788.06
507.722	811.06
507.939	836.06
508.155	784.06
508.372	794.06
508.588	783.06
508.805	809.06
509.021	781.06
509.238	779.06
509.454	798.06
509.67	785.06
509.887	805.06
510.103	792.06
510.319	809.06
510.536	937.06
510.752	1548.06
510.968	1251.06
511.184	824.06
511.401	780.06
511.617	753.06
511.833	758.06
512.049	725.06
512.265	763.06
512.481	758.06
512.698	724.06
512.914	743.06
513.13	720.06
513.346	748.06
513.562	733.06
513.778	756.06
513.994	770.06
514.21	780.06
514.426	798.06
514.642	845.06
514.858	920.06
515.074	957.06
515.29	1109.06
515.506	1687.06
515.721	1381.06
515.937	913.06
516.153	822.06
516.369	801.06
516.585	781.06
516.801	765.06
517.016	741.06
517.232	733.06
517.448	763.06
517.664	758.06
517.879	732.06
518.095	714.06
518.311	735.06
518.527	746.06
518.742	741.06
518.958	735.06
519.173	721.06
519.389	710.06
519.605	756.06
519.82	736.06
520.036	774.06
520.251	811.06
520.467	834.06
520.682	839.06
520.898	851.06
521.113	871.06
521.329	928.06
521.544	1066.06
521.76	1333.06
521.975	2250.06
522.19	2176.06
522.406	1164.06
522.621	912.06
522.836	784.06
523.052	751.06
523.267	719.06
523.482	694.06
523.698	676.06
523.913	689.06
524.128	700.06
524.343	664.06
524.559	656.06
524.774	640.06
524.989	651.06
525.204	658.06
525.419	674.06
525.634	638.06
525.849	610.06
526.064	607.06
526.28	618.06
526.495	585.06
526.71	613.06
526.925	586.06
527.14	581.06
527.355	602.06
527.57	577.06
527.785	605.06
527.999	601.06
528.214	585.06
528.429	598.06
528.644	590.06
528.859	597.06
529.074	597.06
529.289	633.06
529.503	723.06
529.718	729.06
529.933	663.06
530.148	616.06
530.363	611.06
530.577	598.06
530.792	583.06
531.007	606.06
531.221	575.06
531.436	592.06
531.651	580.06
531.865	574.06
532.08	550.06
532.295	557.06
532.509	552.06
532.724	583.06
532.938	561.06
533.153	548.06
533.367	543.06
533.582	571.06
533.796	533.06
534.011	555.06
534.225	528.06
534.44	534.06
534.654	558.06
534.868	545.06
535.083	538.06
535.297	550.06
535.511	557.06
535.726	561.06
535.94	590.06
536.154	560.06
536.369	560.06
536.583	526.06
536.797	511.06
537.011	532.06
537.225	535.06
537.44	515.06
537.654	535.06
537.868	538.06
538.082	556.06
538.296	533.06
538.51	537.06
538.724	561.06
538.938	538.06
539.153	534.06
539.367	567.06
539.581	540.06
539.795	555.06
540.009	542.06
540.222	524.06
540.436	519.06
540.65	517.06
540.864	527.06
541.078	560.06
541.292	562.06
541.506	529.06
541.72	525.06
541.934	543.06
542.147	533.06
542.361	530.06
542.575	538.06
542.789	530.06
543.002	512.06
543.216	538.06
543.43	533.06
543.644	543.06
543.857	537.06
544.071	516.06
544.285	514.06
544.498	543.06
544.712	518.06
544.925	525.06
545.139	520.06
545.352	516.06
545.566	482.06
545.779	522.06
545.993	526.06
546.206	529.06
546.42	508.06
546.633	488.06
546.847	504.06
547.06	498.06
547.274	502.06
547.487	488.06
547.7	479.06
547.914	514.06
548.127	504.06
548.34	493.06
548.554	492.06
548.767	512.06
548.98	488.06
549.193	496.06
549.407	497.06
549.62	503.06
549.833	508.06
550.046	510.06
550.259	490.06
550.473	490.06
550.686	500.06
550.899	493.06
551.112	477.06
551.325	479.06
551.538	476.06
551.751	469.06
551.964	470.06
552.177	484.06
552.39	472.06
552.603	472.06
552.816	490.06
553.029	487.06
553.242	494.06
553.455	490.06
553.667	489.06
553.88	516.06
554.093	496.06
554.306	508.06
554.519	518.06
554.732	500.06
554.944	472.06
555.157	460.06
555.37	465.06
555.583	481.06
555.795	477.06
556.008	484.06
556.221	462.06
556.433	472.06
556.646	460.06
556.859	420.06
557.071	463.06
557.284	482.06
557.496	438.06
557.709	458.06
557.921	448.06
558.134	454.06
558.346	454.06
558.559	433.06
558.771	446.06
558.984	456.06
559.196	449.06
559.409	429.06
559.621	427.06
559.833	433.06
560.046	426.06
560.258	439.06
560.47	448.06
560.683	449.06
560.895	442.06
561.107	444.06
561.32	452.06
561.532	441.06
561.744	454.06
561.956	438.06
562.168	433.06
562.381	444.06
562.593	443.06
562.805	456.06
563.017	456.06
563.229	427.06
563.441	422.06
563.653	446.06
563.865	442.06
564.077	451.06
564.289	428.06
564.501	438.06
564.713	454.06
564.925	464.06
565.137	463.06
565.349	446.06
565.561	439.06
565.773	450.06
565.985	451.06
566.197	468.06
566.408	466.06
566.62	491.06
566.832	470.06
567.044	497.06
567.255	500.06
567.467	490.06
567.679	474.06
567.891	494.06
568.102	495.06
568.314	500.06
568.526	483.06
568.737	481.06
568.949	452.06
569.161	444.06
569.372	433.06
569.584	447.06
569.795	442.06
570.007	440.06
570.218	474.06
570.43	485.06
570.641	419.06
570.853	418.06
571.064	426.06
571.276	420.06
571.487	435.06
571.698	384.06
571.91	394.06
572.121	394.06
572.333	400.06
572.544	408.06
572.755	377.06
572.966	384.06
573.178	390.06
573.389	388.06
573.6	384.06
573.811	385.06
574.023	359.06
574.234	380.06
574.445	378.06
574.656	385.06
574.867	370.06
575.078	390.06
575.289	369.06
575.501	360.06
575.712	362.06
575.923	364.06
576.134	353.06
576.345	351.06
576.556	361.06
576.767	365.06
576.978	389.06
577.188	361.06
577.399	376.06
577.61	356.06
577.821	367.06
578.032	376.06
578.243	420.06
578.454	718.06
578.665	526.06
578.875	382.06
579.086	339.06
579.297	360.06
579.508	342.06
579.718	342.06
579.929	348.06
580.14	343.06
580.35	340.06
580.561	347.06
580.772	353.06
580.982	339.06
581.193	346.06
581.403	351.06
581.614	338.06
581.825	343.06
582.035	354.06
582.246	333.06
582.456	339.06
582.667	348.06
582.877	330.06
583.087	352.06
583.298	340.06
583.508	332.06
583.719	338.06
583.929	342.06
584.139	325.06
584.35	324.06
584.56	330.06
584.77	329.06
584.981	332.06
585.191	347.06
585.401	337.06
585.611	337.06
585.821	336.06
586.032	338.06
586.242	343.06
586.452	325.06
586.662	314.06
586.872	329.06
587.082	338.06
587.292	319.06
587.502	333.06
587.713	327.06
587.923	328.06
588.133	314.06
588.343	332.06
588.553	328.06
588.762	343.06
588.972	327.06
589.182	333.06
589.392	309.06
589.602	305.06
589.812	320.06
590.022	347.06
590.232	314.06
590.441	311.06
590.651	331.06
590.861	312.06
591.071	338.06
591.281	332.06
591.49	321.06
591.7	311.06
591.91	318.06
592.119	320.06
592.329	321.06
592.539	338.06
592.748	323.06
592.958	328.06
593.167	315.06
593.377	342.06
593.587	328.06
593.796	320.06
594.006	331.06
594.215	330.06
594.424	348.06
594.634	312.06
594.843	311.06
595.053	312.06
595.262	318.06
595.472	325.06
595.681	317.06
595.89	302.06
596.1	314.06
596.309	305.06
596.518	294.06
596.727	297.06
596.937	312.06
597.146	307.06
597.355	321.06
597.564	281.06
597.774	298.06
597.983	292.06
598.192	302.06
598.401	296.06
598.61	306.06
598.819	308.06
599.028	290.06
599.237	293.06
599.446	297.06
599.655	266.06
599.864	291.06
600.073	301.06
600.282	278.06
600.491	279.06
600.7	307.06
600.909	286.06
601.118	282.06
601.327	282.06
601.536	290.06
601.745	286.06
601.953	301.06
602.162	288.06
602.371	290.06
602.58	297.06
602.789	303.06
602.997	280.06
603.206	280.06
603.415	267.06
603.623	272.06
603.832	288.06
604.041	277.06
604.249	269.06
604.458	272.06
604.666	267.06
604.875	288.06
605.084	275.06
605.292	280.06
605.501	266.06
605.709	279.06
605.918	254.06
606.126	273.06
606.334	282.06
606.543	281.06
606.751	270.06
606.96	292.06
607.168	268.06
607.376	276.06
607.585	262.06
607.793	272.06
608.001	280.06
608.21	273.06
608.418	275.06
608.626	283.06
608.834	267.06
609.043	271.06
609.251	295.06
609.459	272.06
609.667	287.06
609.875	282.06
610.083	266.06
610.291	270.06
610.499	265.06
610.707	254.06
610.916	269.06
611.124	284.06
611.332	268.06
611.54	278.06
611.748	272.06
611.955	253.06
612.163	269.06
612.371	276.06
612.579	270.06
612.787	264.06
612.995	278.06
613.203	267.06
613.411	268.06
613.618	264.06
613.826	260.06
614.034	275.06
614.242	248.06
614.449	260.06
614.657	277.06
614.865	260.06
615.072	274.06
615.28	259.06
615.488	260.06
615.695	266.06
615.903	267.06
616.111	262.06
616.318	270.06
616.526	277.06
616.733	270.06
616.941	261.06
617.148	269.06
617.356	266.06
617.563	244.06
617.771	250.06
617.978	250.06
618.185	257.06
618.393	247.06
618.6	272.06
618.807	257.06
619.015	245.06
619.222	266.06
619.429	245.06
619.637	244.06
619.844	250.06
620.051	243.06
620.258	240.06
620.466	244.06
620.673	249.06
620.88	268.06
621.087	232.06
621.294	256.06
621.501	235.06
621.708	258.06
621.915	248.06
622.122	248.06
622.329	262.06
622.536	256.06
622.743	250.06
622.95	233.06
623.157	252.06
623.364	235.06
623.571	248.06
623.778	244.06
623.985	242.06
624.192	227.06
624.399	236.06
624.606	236.06
624.812	229.06
625.019	240.06
625.226	223.06
625.433	238.06
625.639	241.06
625.846	237.06
626.053	224.06
626.259	218.06
626.466	218.06
626.673	221.06
626.879	224.06
627.086	213.06
627.293	221.06
627.499	224.06
627.706	234.06
627.912	227.06
628.119	225.06
628.325	229.06
628.532	226.06
628.738	218.06
628.945	217.06
629.151	227.06
629.357	223.06
629.564	230.06
629.77	217.06
629.976	217.06
630.183	208.06
630.389	232.06
630.595	225.06
630.802	221.06
631.008	205.06
631.214	207.06
631.42	226.06
631.627	207.06
631.833	199.06
632.039	213.06
632.245	190.06
632.451	221.06
632.657	204.06
632.863	201.06
633.069	188.06
633.275	198.06
633.481	203.06
633.688	203.06
633.893	213.06
634.099	214.06
634.305	201.06
634.511	212.06
634.717	215.06
634.923	200.06
635.129	210.06
635.335	199.06
635.541	188.06
635.747	199.06
635.952	206.06
636.158	199.06
636.364	199.06
636.57	208.06
636.775	221.06
636.981	201.06
637.187	204.06
637.392	203.06
637.598	198.06
637.804	196.06
638.009	207.06
638.215	205.06
638.421	188.06
638.626	191.06
638.832	197.06
639.037	196.06
639.243	199.06
639.448	190.06
639.654	186.06
639.859	184.06
640.065	184.06
640.27	186.06
640.475	191.06
640.681	188.06
640.886	189.06
641.091	206.06
641.297	189.06
641.502	181.06
641.707	168.06
641.913	192.06
642.118	188.06
642.323	198.06
642.528	182.06
642.733	175.06
642.939	167.06
643.144	177.06
643.349	159.06
643.554	193.06
643.759	195.06
643.964	195.06
644.169	183.06
644.374	176.06
644.579	187.06
644.784	182.06
644.989	187.06
645.194	195.06
645.399	178.06
645.604	183.06
645.809	191.06
646.014	177.06
646.219	169.06
646.423	185.06
646.628	164.06
646.833	185.06
647.038	176.06
647.243	169.06
647.447	186.06
647.652	180.06
647.857	167.06
648.062	177.06
648.266	176.06
648.471	186.06
648.676	183.06
648.88	185.06
649.085	188.06
649.289	178.06
649.494	200.06
649.698	209.06
649.903	210.06
650.107	177.06
650.312	177.06
650.516	167.06
650.721	161.06
650.925	161.06
651.13	167.06
651.334	160.06
651.539	167.06
651.743	151.06
651.947	157.06
652.152	168.06
652.356	155.06
652.56	142.06
652.764	152.06
652.969	141.06
653.173	150.06
653.377	149.06
653.581	154.06
653.785	149.06
653.99	155.06
654.194	138.06
654.398	152.06
654.602	147.06
654.806	146.06
655.01	161.06
655.214	151.06
655.418	144.06
655.622	138.06
655.826	136.06
656.03	129.06
656.234	117.06
656.438	141.06
656.642	136.06
656.846	128.06
657.049	132.06
657.253	132.06
657.457	124.06
657.661	132.06
657.865	124.06
658.068	116.06
658.272	118.06
658.476	101.06
658.68	122.06
658.883	114.06
659.087	104.06
659.291	105.06
659.494	96.06
659.698	97.06
659.901	94.06
660.105	101.06
660.309	86.06
660.512	108.06
660.716	96.06
660.919	98.06
661.123	88.06
661.326	94.06
661.53	87.06
661.733	97.06
661.936	92.06
662.14	97.06
662.343	92.06
662.546	70.06
662.75	91.06
662.953	92.06
663.156	64.06
663.36	87.06
663.563	89.06
663.766	82.06
663.969	99.06
664.173	79.06
664.376	81.06
664.579	80.06
664.782	86.06
664.985	86.06
665.188	84.06
665.391	95.06
665.594	100.06
665.797	80.06
666	77.06
666.203	94.06
666.406	82.06
666.609	88.06
666.812	89.06
667.015	99.06
667.218	94.06
667.421	96.06
667.624	88.06
667.827	79.06
668.03	81.06
668.232	91.06
668.435	89.06
668.638	90.06
668.841	82.06
669.043	81.06
669.246	90.06
669.449	90.06
669.651	107.06
669.854	77.06
670.057	85.06
670.259	74.06
670.462	83.06
670.665	78.06
670.867	92.06
671.07	87.06
671.272	93.06
671.475	99.06
671.677	81.06
671.88	85.06
672.082	95.06
672.284	85.06
672.487	85.06
672.689	91.06
672.892	80.06
