Data from 1970.PennyLincolnUp.Lamp.En5.5.200Scan.071719.P1._HRD10591_15-14-39-842.txt Node
Date: Thu Jul 18 15:14:39 EDT 2019
User: cochatt
Spectrometer: HR+D1059
Trigger mode: 1
Integration Time (sec): 1.000000E-1
Scans to average: 1
Electric dark correction enabled: true
Nonlinearity correction enabled: false
Boxcar width: 0
XAxis mode: Wavelengths
Number of Pixels in Spectrum: 2048
>>>>>Begin Spectral Data<<<<<
223.165	-10.12
223.4	-10.12
223.635	-10.12
223.869	-25.12
224.104	-6.12
224.338	-8.12
224.573	-10.12
224.808	-20.12
225.042	-21.12
225.277	-3.12
225.511	-0.12
225.746	-10.12
225.98	10.88
226.215	16.88
226.449	13.88
226.683	19.88
226.918	22.88
227.152	29.88
227.387	35.88
227.621	53.88
227.856	49.88
228.09	59.88
228.324	64.88
228.559	54.88
228.793	60.88
229.027	97.88
229.262	108.88
229.496	126.88
229.73	137.88
229.964	176.88
230.199	143.88
230.433	131.88
230.667	125.88
230.901	134.88
231.136	131.88
231.37	129.88
231.604	115.88
231.838	119.88
232.072	120.88
232.306	117.88
232.541	117.88
232.775	122.88
233.009	128.88
233.243	125.88
233.477	114.88
233.711	115.88
233.945	134.88
234.179	121.88
234.413	123.88
234.647	120.88
234.881	132.88
235.115	124.88
235.349	125.88
235.583	127.88
235.817	132.88
236.051	129.88
236.285	129.88
236.519	126.88
236.753	142.88
236.987	160.88
237.221	200.88
237.455	239.88
237.689	206.88
237.922	146.88
238.156	147.88
238.39	129.88
238.624	139.88
238.858	128.88
239.091	134.88
239.325	127.88
239.559	133.88
239.793	145.88
240.027	138.88
240.26	157.88
240.494	168.88
240.728	174.88
240.961	157.88
241.195	156.88
241.429	145.88
241.662	152.88
241.896	130.88
242.13	135.88
242.363	143.88
242.597	148.88
242.83	142.88
243.064	152.88
243.298	147.88
243.531	157.88
243.765	141.88
243.998	141.88
244.232	159.88
244.465	152.88
244.699	147.88
244.932	149.88
245.166	157.88
245.399	151.88
245.633	153.88
245.866	145.88
246.099	150.88
246.333	165.88
246.566	157.88
246.8	152.88
247.033	157.88
247.266	164.88
247.5	176.88
247.733	166.88
247.966	177.88
248.2	168.88
248.433	187.88
248.666	176.88
248.899	197.88
249.133	208.88
249.366	248.88
249.599	206.88
249.832	205.88
250.066	200.88
250.299	207.88
250.532	203.88
250.765	210.88
250.998	239.88
251.231	241.88
251.465	231.88
251.698	230.88
251.931	217.88
252.164	216.88
252.397	206.88
252.63	223.88
252.863	227.88
253.096	239.88
253.329	250.88
253.562	252.88
253.795	231.88
254.028	227.88
254.261	248.88
254.494	239.88
254.727	275.88
254.96	298.88
255.193	317.88
255.426	275.88
255.659	266.88
255.892	253.88
256.124	257.88
256.357	270.88
256.59	241.88
256.823	236.88
257.056	232.88
257.289	236.88
257.521	222.88
257.754	226.88
257.987	221.88
258.22	237.88
258.452	222.88
258.685	223.88
258.918	221.88
259.151	211.88
259.383	230.88
259.616	226.88
259.849	238.88
260.081	222.88
260.314	256.88
260.547	260.88
260.779	262.88
261.012	246.88
261.244	249.88
261.477	223.88
261.71	226.88
261.942	242.88
262.175	240.88
262.407	231.88
262.64	213.88
262.872	222.88
263.105	206.88
263.337	208.88
263.57	217.88
263.802	201.88
264.035	198.88
264.267	218.88
264.499	211.88
264.732	204.88
264.964	209.88
265.197	199.88
265.429	200.88
265.661	209.88
265.894	209.88
266.126	208.88
266.358	209.88
266.591	217.88
266.823	213.88
267.055	234.88
267.287	208.88
267.52	196.88
267.752	216.88
267.984	216.88
268.216	226.88
268.448	231.88
268.681	230.88
268.913	250.88
269.145	276.88
269.377	290.88
269.609	266.88
269.841	276.88
270.073	287.88
270.306	293.88
270.538	300.88
270.77	329.88
271.002	297.88
271.234	286.88
271.466	302.88
271.698	315.88
271.93	324.88
272.162	319.88
272.394	324.88
272.626	287.88
272.858	297.88
273.09	281.88
273.322	268.88
273.553	253.88
273.785	271.88
274.017	267.88
274.249	255.88
274.481	248.88
274.713	262.88
274.945	293.88
275.176	270.88
275.408	277.88
275.64	253.88
275.872	270.88
276.104	282.88
276.335	255.88
276.567	247.88
276.799	279.88
277.031	294.88
277.262	325.88
277.494	310.88
277.726	312.88
277.957	294.88
278.189	279.88
278.421	270.88
278.652	269.88
278.884	248.88
279.115	253.88
279.347	262.88
279.579	253.88
279.81	255.88
280.042	250.88
280.273	269.88
280.505	241.88
280.736	258.88
280.968	260.88
281.199	255.88
281.431	247.88
281.662	251.88
281.894	256.88
282.125	251.88
282.356	294.88
282.588	300.88
282.819	300.88
283.051	253.88
283.282	241.88
283.513	263.88
283.745	239.88
283.976	266.88
284.207	284.88
284.439	269.88
284.67	269.88
284.901	269.88
285.132	242.88
285.364	244.88
285.595	267.88
285.826	261.88
286.057	259.88
286.288	253.88
286.52	280.88
286.751	246.88
286.982	275.88
287.213	264.88
287.444	247.88
287.675	265.88
287.906	273.88
288.138	274.88
288.369	288.88
288.6	279.88
288.831	277.88
289.062	280.88
289.293	269.88
289.524	279.88
289.755	255.88
289.986	264.88
290.217	270.88
290.448	268.88
290.679	258.88
290.91	270.88
291.141	261.88
291.371	274.88
291.602	255.88
291.833	291.88
292.064	287.88
292.295	265.88
292.526	252.88
292.757	280.88
292.987	257.88
293.218	258.88
293.449	272.88
293.68	273.88
293.91	261.88
294.141	280.88
294.372	281.88
294.603	268.88
294.833	263.88
295.064	263.88
295.295	272.88
295.525	271.88
295.756	273.88
295.987	283.88
296.217	295.88
296.448	300.88
296.679	302.88
296.909	265.88
297.14	285.88
297.37	267.88
297.601	269.88
297.831	277.88
298.062	254.88
298.292	279.88
298.523	274.88
298.753	267.88
298.984	276.88
299.214	270.88
299.445	273.88
299.675	274.88
299.905	287.88
300.136	287.88
300.366	276.88
300.597	278.88
300.827	319.88
301.057	284.88
301.288	304.88
301.518	286.88
301.748	295.88
301.979	280.88
302.209	307.88
302.439	307.88
302.669	285.88
302.9	307.88
303.13	310.88
303.36	315.88
303.59	299.88
303.82	323.88
304.051	307.88
304.281	292.88
304.511	285.88
304.741	299.88
304.971	292.88
305.201	297.88
305.431	310.88
305.661	290.88
305.891	290.88
306.121	300.88
306.352	290.88
306.582	307.88
306.812	286.88
307.042	317.88
307.272	306.88
307.502	304.88
307.731	301.88
307.961	315.88
308.191	311.88
308.421	314.88
308.651	329.88
308.881	312.88
309.111	312.88
309.341	317.88
309.571	339.88
309.8	343.88
310.03	348.88
310.26	336.88
310.49	356.88
310.72	375.88
310.949	381.88
311.179	380.88
311.409	338.88
311.639	350.88
311.868	352.88
312.098	356.88
312.328	360.88
312.557	378.88
312.787	420.88
313.017	385.88
313.246	361.88
313.476	352.88
313.706	346.88
313.935	352.88
314.165	376.88
314.394	378.88
314.624	363.88
314.853	374.88
315.083	359.88
315.312	341.88
315.542	353.88
315.771	333.88
316.001	338.88
316.23	353.88
316.46	336.88
316.689	361.88
316.919	355.88
317.148	352.88
317.377	363.88
317.607	363.88
317.836	354.88
318.065	369.88
318.295	335.88
318.524	353.88
318.753	350.88
318.983	345.88
319.212	353.88
319.441	351.88
319.67	370.88
319.9	353.88
320.129	362.88
320.358	367.88
320.587	357.88
320.816	380.88
321.046	361.88
321.275	367.88
321.504	392.88
321.733	387.88
321.962	368.88
322.191	391.88
322.42	419.88
322.649	434.88
322.878	422.88
323.108	451.88
323.337	487.88
323.566	490.88
323.795	543.88
324.024	598.88
324.253	721.88
324.482	1050.88
324.71	1599.88
324.939	2234.88
325.168	1973.88
325.397	1051.88
325.626	685.88
325.855	581.88
326.084	530.88
326.313	515.88
326.542	525.88
326.77	554.88
326.999	660.88
327.228	924.88
327.457	1420.88
327.686	1710.88
327.914	1179.88
328.143	773.88
328.372	669.88
328.6	635.88
328.829	603.88
329.058	612.88
329.287	601.88
329.515	569.88
329.744	529.88
329.972	519.88
330.201	549.88
330.43	579.88
330.658	611.88
330.887	652.88
331.115	640.88
331.344	533.88
331.572	485.88
331.801	481.88
332.03	488.88
332.258	475.88
332.486	455.88
332.715	415.88
332.943	425.88
333.172	419.88
333.4	414.88
333.629	423.88
333.857	438.88
334.085	464.88
334.314	492.88
334.542	513.88
334.771	540.88
334.999	506.88
335.227	457.88
335.455	423.88
335.684	430.88
335.912	419.88
336.14	402.88
336.369	398.88
336.597	420.88
336.825	401.88
337.053	418.88
337.281	396.88
337.51	392.88
337.738	403.88
337.966	415.88
338.194	418.88
338.422	414.88
338.65	407.88
338.878	386.88
339.106	397.88
339.334	389.88
339.562	391.88
339.79	369.88
340.018	381.88
340.246	421.88
340.474	419.88
340.702	408.88
340.93	408.88
341.158	402.88
341.386	409.88
341.614	412.88
341.842	408.88
342.07	402.88
342.298	389.88
342.526	393.88
342.754	389.88
342.981	359.88
343.209	369.88
343.437	389.88
343.665	395.88
343.893	389.88
344.12	398.88
344.348	400.88
344.576	417.88
344.804	402.88
345.031	421.88
345.259	435.88
345.487	416.88
345.714	418.88
345.942	397.88
346.17	407.88
346.397	386.88
346.625	381.88
346.853	392.88
347.08	379.88
347.308	399.88
347.535	402.88
347.763	424.88
347.99	396.88
348.218	423.88
348.445	425.88
348.673	410.88
348.9	409.88
349.128	396.88
349.355	385.88
349.583	373.88
349.81	409.88
350.037	378.88
350.265	382.88
350.492	378.88
350.72	376.88
350.947	400.88
351.174	411.88
351.402	413.88
351.629	425.88
351.856	422.88
352.083	439.88
352.311	430.88
352.538	430.88
352.765	427.88
352.992	415.88
353.22	419.88
353.447	415.88
353.674	402.88
353.901	398.88
354.128	367.88
354.355	384.88
354.583	369.88
354.81	362.88
355.037	335.88
355.264	385.88
355.491	346.88
355.718	341.88
355.945	383.88
356.172	360.88
356.399	359.88
356.626	369.88
356.853	355.88
357.08	367.88
357.307	355.88
357.534	359.88
357.761	359.88
357.988	375.88
358.215	368.88
358.441	373.88
358.668	365.88
358.895	368.88
359.122	371.88
359.349	376.88
359.576	395.88
359.802	415.88
360.029	446.88
360.256	479.88
360.483	431.88
360.709	421.88
360.936	398.88
361.163	416.88
361.39	425.88
361.616	421.88
361.843	387.88
362.07	394.88
362.296	402.88
362.523	416.88
362.749	400.88
362.976	402.88
363.203	385.88
363.429	355.88
363.656	396.88
363.882	395.88
364.109	389.88
364.335	373.88
364.562	384.88
364.788	394.88
365.015	380.88
365.241	373.88
365.468	372.88
365.694	394.88
365.92	399.88
366.147	392.88
366.373	393.88
366.599	388.88
366.826	386.88
367.052	379.88
367.278	355.88
367.505	378.88
367.731	387.88
367.957	381.88
368.184	391.88
368.41	385.88
368.636	417.88
368.862	409.88
369.089	401.88
369.315	389.88
369.541	401.88
369.767	381.88
369.993	376.88
370.219	383.88
370.445	383.88
370.672	384.88
370.898	360.88
371.124	366.88
371.35	369.88
371.576	391.88
371.802	375.88
372.028	373.88
372.254	375.88
372.48	370.88
372.706	383.88
372.932	385.88
373.158	377.88
373.384	381.88
373.61	386.88
373.835	381.88
374.061	369.88
374.287	391.88
374.513	381.88
374.739	400.88
374.965	383.88
375.191	383.88
375.416	397.88
375.642	393.88
375.868	392.88
376.094	377.88
376.319	375.88
376.545	357.88
376.771	377.88
376.997	384.88
377.222	377.88
377.448	363.88
377.674	380.88
377.899	374.88
378.125	373.88
378.35	370.88
378.576	362.88
378.802	364.88
379.027	375.88
379.253	378.88
379.478	369.88
379.704	381.88
379.929	375.88
380.155	376.88
380.38	394.88
380.606	384.88
380.831	384.88
381.057	390.88
381.282	401.88
381.507	377.88
381.733	394.88
381.958	380.88
382.184	390.88
382.409	392.88
382.634	410.88
382.86	370.88
383.085	381.88
383.31	382.88
383.535	391.88
383.761	399.88
383.986	395.88
384.211	397.88
384.436	406.88
384.662	404.88
384.887	407.88
385.112	400.88
385.337	397.88
385.562	399.88
385.787	408.88
386.013	413.88
386.238	414.88
386.463	415.88
386.688	398.88
386.913	390.88
387.138	396.88
387.363	404.88
387.588	392.88
387.813	415.88
388.038	417.88
388.263	397.88
388.488	421.88
388.713	407.88
388.938	400.88
389.163	403.88
389.387	409.88
389.612	395.88
389.837	397.88
390.062	385.88
390.287	407.88
390.512	399.88
390.736	409.88
390.961	403.88
391.186	398.88
391.411	415.88
391.636	402.88
391.86	410.88
392.085	421.88
392.31	395.88
392.534	396.88
392.759	397.88
392.984	414.88
393.208	400.88
393.433	421.88
393.658	420.88
393.882	389.88
394.107	408.88
394.331	422.88
394.556	404.88
394.78	427.88
395.005	415.88
395.229	400.88
395.454	434.88
395.678	442.88
395.903	426.88
396.127	458.88
396.352	446.88
396.576	427.88
396.801	416.88
397.025	415.88
397.249	438.88
397.474	416.88
397.698	432.88
397.922	451.88
398.147	464.88
398.371	449.88
398.595	459.88
398.82	442.88
399.044	479.88
399.268	461.88
399.492	466.88
399.717	473.88
399.941	501.88
400.165	549.88
400.389	552.88
400.613	529.88
400.837	488.88
401.062	478.88
401.286	458.88
401.51	450.88
401.734	451.88
401.958	458.88
402.182	474.88
402.406	491.88
402.63	482.88
402.854	462.88
403.078	482.88
403.302	483.88
403.526	487.88
403.75	463.88
403.974	487.88
404.198	451.88
404.422	488.88
404.645	479.88
404.869	501.88
405.093	517.88
405.317	566.88
405.541	579.88
405.765	544.88
405.988	509.88
406.212	505.88
406.436	545.88
406.66	576.88
406.883	531.88
407.107	541.88
407.331	564.88
407.555	642.88
407.778	645.88
408.002	587.88
408.226	542.88
408.449	544.88
408.673	554.88
408.896	567.88
409.12	600.88
409.344	550.88
409.567	518.88
409.791	506.88
410.014	485.88
410.238	479.88
410.461	488.88
410.685	503.88
410.908	519.88
411.132	541.88
411.355	620.88
411.578	553.88
411.802	516.88
412.025	493.88
412.249	500.88
412.472	521.88
412.695	558.88
412.919	568.88
413.142	528.88
413.365	465.88
413.589	475.88
413.812	480.88
414.035	462.88
414.258	456.88
414.482	466.88
414.705	443.88
414.928	441.88
415.151	457.88
415.374	464.88
415.597	449.88
415.821	451.88
416.044	471.88
416.267	459.88
416.49	450.88
416.713	442.88
416.936	471.88
417.159	472.88
417.382	474.88
417.605	498.88
417.828	479.88
418.051	494.88
418.274	476.88
418.497	471.88
418.72	484.88
418.943	467.88
419.166	481.88
419.389	485.88
419.611	498.88
419.834	506.88
420.057	526.88
420.28	510.88
420.503	509.88
420.726	496.88
420.948	497.88
421.171	544.88
421.394	600.88
421.617	519.88
421.839	519.88
422.062	495.88
422.285	509.88
422.507	582.88
422.73	639.88
422.953	604.88
423.175	533.88
423.398	527.88
423.621	526.88
423.843	552.88
424.066	562.88
424.288	557.88
424.511	561.88
424.733	620.88
424.956	694.88
425.178	668.88
425.401	678.88
425.623	686.88
425.846	612.88
426.068	561.88
426.291	550.88
426.513	559.88
426.735	562.88
426.958	601.88
427.18	704.88
427.402	803.88
427.625	864.88
427.847	809.88
428.069	704.88
428.292	631.88
428.514	575.88
428.736	534.88
428.958	568.88
429.181	513.88
429.403	522.88
429.625	525.88
429.847	567.88
430.069	606.88
430.292	603.88
430.514	548.88
430.736	526.88
430.958	493.88
431.18	495.88
431.402	483.88
431.624	463.88
431.846	490.88
432.068	469.88
432.29	487.88
432.512	489.88
432.734	510.88
432.956	461.88
433.178	503.88
433.4	510.88
433.622	496.88
433.844	486.88
434.066	495.88
434.287	499.88
434.509	485.88
434.731	479.88
434.953	502.88
435.175	518.88
435.397	539.88
435.618	579.88
435.84	609.88
436.062	683.88
436.284	749.88
436.505	648.88
436.727	567.88
436.949	511.88
437.17	513.88
437.392	520.88
437.614	541.88
437.835	601.88
438.057	673.88
438.278	766.88
438.5	749.88
438.721	823.88
438.943	797.88
439.165	655.88
439.386	598.88
439.608	599.88
439.829	577.88
440.05	615.88
440.272	617.88
440.493	590.88
440.715	574.88
440.936	525.88
441.158	529.88
441.379	514.88
441.6	569.88
441.822	575.88
442.043	604.88
442.264	677.88
442.486	718.88
442.707	633.88
442.928	581.88
443.149	600.88
443.371	595.88
443.592	633.88
443.813	713.88
444.034	785.88
444.255	660.88
444.476	584.88
444.698	565.88
444.919	543.88
445.14	670.88
445.361	634.88
445.582	592.88
445.803	678.88
446.024	760.88
446.245	756.88
446.466	733.88
446.687	622.88
446.908	590.88
447.129	546.88
447.35	542.88
447.571	539.88
447.792	524.88
448.013	519.88
448.234	579.88
448.455	604.88
448.675	717.88
448.896	817.88
449.117	685.88
449.338	685.88
449.559	765.88
449.779	821.88
450	696.88
450.221	597.88
450.442	549.88
450.662	519.88
450.883	512.88
451.104	546.88
451.324	542.88
451.545	492.88
451.766	493.88
451.986	470.88
452.207	452.88
452.428	474.88
452.648	473.88
452.869	481.88
453.089	483.88
453.31	494.88
453.53	468.88
453.751	476.88
453.971	497.88
454.192	513.88
454.412	486.88
454.633	476.88
454.853	476.88
455.073	483.88
455.294	482.88
455.514	568.88
455.734	537.88
455.955	479.88
456.175	471.88
456.395	425.88
456.616	437.88
456.836	429.88
457.056	451.88
457.276	432.88
457.497	446.88
457.717	437.88
457.937	458.88
458.157	442.88
458.377	475.88
458.598	459.88
458.818	552.88
459.038	645.88
459.258	644.88
459.478	536.88
459.698	494.88
459.918	489.88
460.138	462.88
460.358	447.88
460.578	493.88
460.798	451.88
461.018	467.88
461.238	469.88
461.458	467.88
461.678	473.88
461.898	448.88
462.118	461.88
462.338	473.88
462.558	479.88
462.777	478.88
462.997	488.88
463.217	480.88
463.437	487.88
463.657	510.88
463.876	502.88
464.096	490.88
464.316	521.88
464.536	517.88
464.755	509.88
464.975	508.88
465.195	580.88
465.414	691.88
465.634	599.88
465.854	551.88
466.073	494.88
466.293	519.88
466.512	485.88
466.732	463.88
466.951	475.88
467.171	478.88
467.391	478.88
467.61	485.88
467.829	502.88
468.049	506.88
468.268	497.88
468.488	496.88
468.707	471.88
468.927	456.88
469.146	465.88
469.365	469.88
469.585	465.88
469.804	473.88
470.023	478.88
470.243	491.88
470.462	461.88
470.681	509.88
470.901	520.88
471.12	485.88
471.339	468.88
471.558	499.88
471.777	477.88
471.997	490.88
472.216	483.88
472.435	565.88
472.654	517.88
472.873	476.88
473.092	469.88
473.311	476.88
473.53	490.88
473.749	498.88
473.968	543.88
474.187	664.88
474.406	671.88
474.625	562.88
474.844	513.88
475.063	479.88
475.282	483.88
475.501	483.88
475.72	499.88
475.939	503.88
476.158	491.88
476.377	507.88
476.596	497.88
476.814	505.88
477.033	531.88
477.252	522.88
477.471	503.88
477.69	543.88
477.908	512.88
478.127	532.88
478.346	540.88
478.564	519.88
478.783	530.88
479.002	543.88
479.22	556.88
479.439	544.88
479.658	581.88
479.876	577.88
480.095	569.88
480.313	606.88
480.532	590.88
480.751	574.88
480.969	618.88
481.188	693.88
481.406	734.88
481.624	631.88
481.843	618.88
482.061	596.88
482.28	585.88
482.498	589.88
482.717	567.88
482.935	591.88
483.153	562.88
483.372	586.88
483.59	573.88
483.808	610.88
484.027	588.88
484.245	567.88
484.463	579.88
484.681	578.88
484.9	583.88
485.118	594.88
485.336	594.88
485.554	599.88
485.772	606.88
485.99	602.88
486.209	614.88
486.427	616.88
486.645	614.88
486.863	637.88
487.081	637.88
487.299	646.88
487.517	648.88
487.735	632.88
487.953	641.88
488.171	629.88
488.389	630.88
488.607	638.88
488.825	619.88
489.043	630.88
489.261	655.88
489.479	650.88
489.696	659.88
489.914	673.88
490.132	637.88
490.35	670.88
490.568	688.88
490.786	670.88
491.003	687.88
491.221	704.88
491.439	713.88
491.657	745.88
491.874	737.88
492.092	743.88
492.31	734.88
492.527	757.88
492.745	758.88
492.963	743.88
493.18	746.88
493.398	755.88
493.615	778.88
493.833	770.88
494.05	796.88
494.268	800.88
494.485	733.88
494.703	748.88
494.92	774.88
495.138	745.88
495.355	767.88
495.573	749.88
495.79	745.88
496.008	753.88
496.225	762.88
496.442	771.88
496.66	786.88
496.877	762.88
497.094	765.88
497.312	743.88
497.529	786.88
497.746	764.88
497.963	773.88
498.181	826.88
498.398	809.88
498.615	795.88
498.832	817.88
499.049	828.88
499.267	840.88
499.484	866.88
499.701	846.88
499.918	873.88
500.135	890.88
500.352	901.88
500.569	900.88
500.786	926.88
501.003	935.88
501.22	889.88
501.437	892.88
501.654	859.88
501.871	909.88
502.088	855.88
502.305	837.88
502.522	809.88
502.739	805.88
502.956	786.88
503.172	816.88
503.389	778.88
503.606	766.88
503.823	797.88
504.04	754.88
504.256	727.88
504.473	736.88
504.69	731.88
504.907	755.88
505.123	728.88
505.34	706.88
505.557	734.88
505.773	762.88
505.99	741.88
506.207	730.88
506.423	732.88
506.64	728.88
506.856	698.88
507.073	753.88
507.289	706.88
507.506	706.88
507.722	729.88
507.939	773.88
508.155	746.88
508.372	727.88
508.588	724.88
508.805	706.88
509.021	712.88
509.238	726.88
509.454	741.88
509.67	713.88
509.887	701.88
510.103	715.88
510.319	720.88
510.536	829.88
510.752	1410.88
510.968	1143.88
511.184	765.88
511.401	723.88
511.617	672.88
511.833	687.88
512.049	670.88
512.265	677.88
512.481	675.88
512.698	670.88
512.914	666.88
513.13	702.88
513.346	672.88
513.562	677.88
513.778	695.88
513.994	688.88
514.21	703.88
514.426	732.88
514.642	801.88
514.858	804.88
515.074	861.88
515.29	1066.88
515.506	1587.88
515.721	1305.88
515.937	855.88
516.153	761.88
516.369	726.88
516.585	724.88
516.801	704.88
517.016	683.88
517.232	681.88
517.448	695.88
517.664	661.88
517.879	667.88
518.095	683.88
518.311	650.88
518.527	643.88
518.742	670.88
518.958	685.88
519.173	695.88
519.389	663.88
519.605	651.88
519.82	694.88
520.036	706.88
520.251	739.88
520.467	762.88
520.682	741.88
520.898	775.88
521.113	806.88
521.329	873.88
521.544	993.88
521.76	1261.88
521.975	2077.88
522.19	2086.88
522.406	1136.88
522.621	844.88
522.836	739.88
523.052	669.88
523.267	635.88
523.482	649.88
523.698	630.88
523.913	629.88
524.128	630.88
524.343	600.88
524.559	597.88
524.774	597.88
524.989	588.88
525.204	594.88
525.419	600.88
525.634	559.88
525.849	560.88
526.064	569.88
526.28	565.88
526.495	568.88
526.71	551.88
526.925	533.88
527.14	530.88
527.355	532.88
527.57	541.88
527.785	537.88
527.999	544.88
528.214	548.88
528.429	545.88
528.644	535.88
528.859	535.88
529.074	558.88
529.289	580.88
529.503	670.88
529.718	647.88
529.933	610.88
530.148	606.88
530.363	576.88
530.577	562.88
530.792	517.88
531.007	521.88
531.221	528.88
531.436	502.88
531.651	530.88
531.865	498.88
532.08	510.88
532.295	503.88
532.509	506.88
532.724	501.88
532.938	511.88
533.153	493.88
533.367	506.88
533.582	495.88
533.796	490.88
534.011	518.88
534.225	482.88
534.44	494.88
534.654	506.88
534.868	486.88
535.083	495.88
535.297	495.88
535.511	505.88
535.726	533.88
535.94	532.88
536.154	507.88
536.369	503.88
536.583	517.88
536.797	498.88
537.011	476.88
537.225	479.88
537.44	507.88
537.654	485.88
537.868	478.88
538.082	477.88
538.296	491.88
538.51	484.88
538.724	497.88
538.938	483.88
539.153	503.88
539.367	501.88
539.581	504.88
539.795	495.88
540.009	497.88
540.222	468.88
540.436	483.88
540.65	481.88
540.864	490.88
541.078	512.88
541.292	496.88
541.506	481.88
541.72	474.88
541.934	489.88
542.147	493.88
542.361	488.88
542.575	455.88
542.789	478.88
543.002	478.88
543.216	471.88
543.43	489.88
543.644	491.88
543.857	496.88
544.071	470.88
544.285	468.88
544.498	476.88
544.712	482.88
544.925	470.88
545.139	472.88
545.352	447.88
545.566	447.88
545.779	477.88
545.993	466.88
546.206	473.88
546.42	471.88
546.633	457.88
546.847	463.88
547.06	461.88
547.274	466.88
547.487	462.88
547.7	469.88
547.914	455.88
548.127	461.88
548.34	468.88
548.554	459.88
548.767	468.88
548.98	433.88
549.193	451.88
549.407	455.88
549.62	457.88
549.833	461.88
550.046	441.88
550.259	452.88
550.473	455.88
550.686	464.88
550.899	465.88
551.112	451.88
551.325	431.88
551.538	437.88
551.751	433.88
551.964	448.88
552.177	427.88
552.39	439.88
552.603	457.88
552.816	414.88
553.029	447.88
553.242	458.88
553.455	454.88
553.667	469.88
553.88	489.88
554.093	475.88
554.306	456.88
554.519	465.88
554.732	470.88
554.944	447.88
555.157	412.88
555.37	446.88
555.583	450.88
555.795	422.88
556.008	437.88
556.221	417.88
556.433	412.88
556.646	424.88
556.859	414.88
557.071	421.88
557.284	434.88
557.496	425.88
557.709	419.88
557.921	413.88
558.134	413.88
558.346	414.88
558.559	418.88
558.771	408.88
558.984	393.88
559.196	412.88
559.409	394.88
559.621	407.88
559.833	410.88
560.046	387.88
560.258	393.88
560.47	406.88
560.683	416.88
560.895	401.88
561.107	394.88
561.32	406.88
561.532	403.88
561.744	409.88
561.956	395.88
562.168	393.88
562.381	403.88
562.593	409.88
562.805	394.88
563.017	417.88
563.229	433.88
563.441	397.88
563.653	395.88
563.865	409.88
564.077	425.88
564.289	419.88
564.501	412.88
564.713	407.88
564.925	389.88
565.137	430.88
565.349	439.88
565.561	432.88
565.773	419.88
565.985	420.88
566.197	423.88
566.408	424.88
566.62	445.88
566.832	443.88
567.044	460.88
567.255	457.88
567.467	431.88
567.679	462.88
567.891	460.88
568.102	446.88
568.314	447.88
568.526	426.88
568.737	400.88
568.949	402.88
569.161	404.88
569.372	388.88
569.584	407.88
569.795	388.88
570.007	413.88
570.218	458.88
570.43	431.88
570.641	381.88
570.853	370.88
571.064	371.88
571.276	381.88
571.487	380.88
571.698	366.88
571.91	381.88
572.121	359.88
572.333	362.88
572.544	368.88
572.755	361.88
572.966	364.88
573.178	331.88
573.389	346.88
573.6	339.88
573.811	353.88
574.023	343.88
574.234	338.88
574.445	334.88
574.656	343.88
574.867	361.88
575.078	363.88
575.289	349.88
575.501	363.88
575.712	329.88
575.923	331.88
576.134	343.88
576.345	335.88
576.556	346.88
576.767	351.88
576.978	336.88
577.188	338.88
577.399	343.88
577.61	343.88
577.821	341.88
578.032	353.88
578.243	381.88
578.454	664.88
578.665	498.88
578.875	367.88
579.086	326.88
579.297	320.88
579.508	300.88
579.718	309.88
579.929	313.88
580.14	330.88
580.35	327.88
580.561	319.88
580.772	326.88
580.982	343.88
581.193	314.88
581.403	330.88
581.614	309.88
581.825	312.88
582.035	321.88
582.246	303.88
582.456	321.88
582.667	309.88
582.877	313.88
583.087	309.88
583.298	318.88
583.508	297.88
583.719	299.88
583.929	291.88
584.139	307.88
584.35	314.88
584.56	311.88
584.77	308.88
584.981	306.88
585.191	316.88
585.401	296.88
585.611	301.88
585.821	297.88
586.032	308.88
586.242	309.88
586.452	305.88
586.662	312.88
586.872	310.88
587.082	293.88
587.292	289.88
587.502	322.88
587.713	319.88
587.923	294.88
588.133	281.88
588.343	295.88
588.553	299.88
588.762	294.88
588.972	307.88
589.182	304.88
589.392	312.88
589.602	293.88
589.812	307.88
590.022	301.88
590.232	300.88
590.441	283.88
590.651	299.88
590.861	294.88
591.071	294.88
591.281	299.88
591.49	278.88
591.7	285.88
591.91	300.88
592.119	309.88
592.329	304.88
592.539	296.88
592.748	283.88
592.958	308.88
593.167	313.88
593.377	315.88
593.587	305.88
593.796	307.88
594.006	314.88
594.215	317.88
594.424	307.88
594.634	293.88
594.843	302.88
595.053	283.88
595.262	295.88
595.472	286.88
595.681	300.88
595.89	294.88
596.1	280.88
596.309	286.88
596.518	273.88
596.727	287.88
596.937	283.88
597.146	273.88
597.355	277.88
597.564	269.88
597.774	293.88
597.983	275.88
598.192	273.88
598.401	280.88
598.61	276.88
598.819	277.88
599.028	251.88
599.237	269.88
599.446	273.88
599.655	272.88
599.864	276.88
600.073	254.88
600.282	283.88
600.491	258.88
600.7	278.88
600.909	261.88
601.118	250.88
601.327	267.88
601.536	257.88
601.745	262.88
601.953	267.88
602.162	288.88
602.371	261.88
602.58	265.88
602.789	253.88
602.997	254.88
603.206	281.88
603.415	283.88
603.623	269.88
603.832	250.88
604.041	255.88
604.249	269.88
604.458	273.88
604.666	243.88
604.875	247.88
605.084	257.88
605.292	252.88
605.501	255.88
605.709	261.88
605.918	247.88
606.126	263.88
606.334	254.88
606.543	254.88
606.751	249.88
606.96	251.88
607.168	266.88
607.376	255.88
607.585	263.88
607.793	260.88
608.001	255.88
608.21	251.88
608.418	263.88
608.626	270.88
608.834	231.88
609.043	233.88
609.251	256.88
609.459	250.88
609.667	263.88
609.875	259.88
610.083	246.88
610.291	261.88
610.499	257.88
610.707	233.88
610.916	264.88
611.124	258.88
611.332	259.88
611.54	261.88
611.748	269.88
611.955	267.88
612.163	257.88
612.371	254.88
612.579	259.88
612.787	224.88
612.995	247.88
613.203	235.88
613.411	248.88
613.618	249.88
613.826	239.88
614.034	227.88
614.242	246.88
614.449	240.88
614.657	258.88
614.865	246.88
615.072	237.88
615.28	268.88
615.488	255.88
615.695	249.88
615.903	238.88
616.111	223.88
616.318	242.88
616.526	253.88
616.733	245.88
616.941	251.88
617.148	251.88
617.356	229.88
617.563	245.88
617.771	252.88
617.978	249.88
618.185	231.88
618.393	226.88
618.6	231.88
618.807	263.88
619.015	229.88
619.222	253.88
619.429	239.88
619.637	240.88
619.844	217.88
620.051	226.88
620.258	229.88
620.466	226.88
620.673	244.88
620.88	231.88
621.087	218.88
621.294	233.88
621.501	229.88
621.708	231.88
621.915	258.88
622.122	230.88
622.329	234.88
622.536	236.88
622.743	235.88
622.95	231.88
623.157	232.88
623.364	223.88
623.571	234.88
623.778	243.88
623.985	231.88
624.192	236.88
624.399	229.88
624.606	225.88
624.812	204.88
625.019	219.88
625.226	224.88
625.433	218.88
625.639	217.88
625.846	221.88
626.053	208.88
626.259	217.88
626.466	230.88
626.673	222.88
626.879	220.88
627.086	209.88
627.293	224.88
627.499	223.88
627.706	205.88
627.912	214.88
628.119	217.88
628.325	209.88
628.532	210.88
628.738	214.88
628.945	220.88
629.151	214.88
629.357	211.88
629.564	201.88
629.77	198.88
629.976	203.88
630.183	206.88
630.389	205.88
630.595	197.88
630.802	210.88
631.008	203.88
631.214	203.88
631.42	199.88
631.627	196.88
631.833	177.88
632.039	199.88
632.245	190.88
632.451	200.88
632.657	190.88
632.863	203.88
633.069	191.88
633.275	193.88
633.481	187.88
633.688	196.88
633.893	199.88
634.099	184.88
634.305	177.88
634.511	185.88
634.717	195.88
634.923	201.88
635.129	188.88
635.335	185.88
635.541	198.88
635.747	185.88
635.952	179.88
636.158	183.88
636.364	182.88
636.57	205.88
636.775	178.88
636.981	186.88
637.187	199.88
637.392	172.88
637.598	205.88
637.804	198.88
638.009	182.88
638.215	190.88
638.421	170.88
638.626	185.88
638.832	190.88
639.037	168.88
639.243	178.88
639.448	195.88
639.654	172.88
639.859	186.88
640.065	189.88
640.27	185.88
640.475	170.88
640.681	174.88
640.886	178.88
641.091	179.88
641.297	200.88
641.502	166.88
641.707	174.88
641.913	192.88
642.118	171.88
642.323	173.88
642.528	184.88
642.733	174.88
642.939	165.88
643.144	191.88
643.349	174.88
643.554	171.88
643.759	161.88
643.964	171.88
644.169	187.88
644.374	163.88
644.579	182.88
644.784	177.88
644.989	181.88
645.194	165.88
645.399	175.88
645.604	174.88
645.809	167.88
646.014	177.88
646.219	179.88
646.423	160.88
646.628	174.88
646.833	184.88
647.038	169.88
647.243	178.88
647.447	147.88
647.652	169.88
647.857	181.88
648.062	166.88
648.266	166.88
648.471	176.88
648.676	171.88
648.88	175.88
649.085	179.88
649.289	165.88
649.494	181.88
649.698	185.88
649.903	182.88
650.107	168.88
650.312	165.88
650.516	160.88
650.721	154.88
650.925	156.88
651.13	155.88
651.334	146.88
651.539	151.88
651.743	158.88
651.947	149.88
652.152	166.88
652.356	138.88
652.56	142.88
652.764	147.88
652.969	138.88
653.173	145.88
653.377	123.88
653.581	144.88
653.785	133.88
653.99	124.88
654.194	146.88
654.398	135.88
654.602	141.88
654.806	142.88
655.01	143.88
655.214	147.88
655.418	140.88
655.622	127.88
655.826	139.88
656.03	134.88
656.234	125.88
656.438	141.88
656.642	140.88
656.846	123.88
657.049	113.88
657.253	115.88
657.457	114.88
657.661	124.88
657.865	132.88
658.068	114.88
658.272	128.88
658.476	108.88
658.68	119.88
658.883	92.88
659.087	97.88
659.291	109.88
659.494	110.88
659.698	96.88
659.901	98.88
660.105	99.88
660.309	99.88
660.512	96.88
660.716	96.88
660.919	88.88
661.123	103.88
661.326	99.88
661.53	94.88
661.733	112.88
661.936	108.88
662.14	94.88
662.343	81.88
662.546	92.88
662.75	85.88
662.953	94.88
663.156	100.88
663.36	96.88
663.563	92.88
663.766	90.88
663.969	79.88
664.173	103.88
664.376	90.88
664.579	91.88
664.782	83.88
664.985	76.88
665.188	83.88
665.391	80.88
665.594	89.88
665.797	69.88
666	89.88
666.203	85.88
666.406	71.88
666.609	79.88
666.812	86.88
667.015	87.88
667.218	89.88
667.421	89.88
667.624	79.88
667.827	98.88
668.03	91.88
668.232	83.88
668.435	87.88
668.638	91.88
668.841	91.88
669.043	93.88
669.246	93.88
669.449	88.88
669.651	86.88
669.854	81.88
670.057	80.88
670.259	94.88
670.462	104.88
670.665	84.88
670.867	87.88
671.07	76.88
671.272	78.88
671.475	93.88
671.677	88.88
671.88	87.88
672.082	71.88
672.284	78.88
672.487	74.88
672.689	89.88
672.892	82.88
