Data from 1971.PennyLincolnUp.Lamp.En5.5.200Scan.071719.P1._HRD10591_15-18-35-841.txt Node
Date: Thu Jul 18 15:18:35 EDT 2019
User: cochatt
Spectrometer: HR+D1059
Trigger mode: 1
Integration Time (sec): 1.000000E-1
Scans to average: 1
Electric dark correction enabled: true
Nonlinearity correction enabled: false
Boxcar width: 0
XAxis mode: Wavelengths
Number of Pixels in Spectrum: 2048
>>>>>Begin Spectral Data<<<<<
223.165	-17.12
223.4	-17.12
223.635	-17.12
223.869	-27.12
224.104	-21.12
224.338	-17.12
224.573	0.88
224.808	-3.12
225.042	-8.12
225.277	-18.12
225.511	-0.12
225.746	8.88
225.98	3.88
226.215	15.88
226.449	7.88
226.683	14.88
226.918	28.88
227.152	30.88
227.387	43.88
227.621	31.88
227.856	45.88
228.09	37.88
228.324	34.88
228.559	48.88
228.793	74.88
229.027	87.88
229.262	106.88
229.496	101.88
229.73	110.88
229.964	140.88
230.199	124.88
230.433	124.88
230.667	114.88
230.901	90.88
231.136	111.88
231.37	101.88
231.604	119.88
231.838	107.88
232.072	97.88
232.306	102.88
232.541	102.88
232.775	103.88
233.009	113.88
233.243	99.88
233.477	113.88
233.711	92.88
233.945	105.88
234.179	114.88
234.413	95.88
234.647	117.88
234.881	111.88
235.115	107.88
235.349	100.88
235.583	101.88
235.817	108.88
236.051	118.88
236.285	110.88
236.519	111.88
236.753	126.88
236.987	131.88
237.221	181.88
237.455	199.88
237.689	172.88
237.922	131.88
238.156	123.88
238.39	136.88
238.624	121.88
238.858	116.88
239.091	125.88
239.325	128.88
239.559	113.88
239.793	127.88
240.027	117.88
240.26	146.88
240.494	137.88
240.728	131.88
240.961	137.88
241.195	143.88
241.429	137.88
241.662	132.88
241.896	141.88
242.13	132.88
242.363	119.88
242.597	137.88
242.83	125.88
243.064	133.88
243.298	134.88
243.531	127.88
243.765	138.88
243.998	125.88
244.232	126.88
244.465	151.88
244.699	144.88
244.932	131.88
245.166	145.88
245.399	125.88
245.633	142.88
245.866	127.88
246.099	155.88
246.333	150.88
246.566	158.88
246.8	150.88
247.033	140.88
247.266	169.88
247.5	155.88
247.733	137.88
247.966	157.88
248.2	155.88
248.433	168.88
248.666	181.88
248.899	177.88
249.133	185.88
249.366	214.88
249.599	185.88
249.832	165.88
250.066	174.88
250.299	194.88
250.532	164.88
250.765	195.88
250.998	209.88
251.231	221.88
251.465	207.88
251.698	195.88
251.931	182.88
252.164	211.88
252.397	179.88
252.63	195.88
252.863	189.88
253.096	209.88
253.329	209.88
253.562	207.88
253.795	223.88
254.028	217.88
254.261	226.88
254.494	227.88
254.727	250.88
254.96	279.88
255.193	259.88
255.426	245.88
255.659	219.88
255.892	217.88
256.124	235.88
256.357	235.88
256.59	230.88
256.823	215.88
257.056	216.88
257.289	213.88
257.521	205.88
257.754	201.88
257.987	200.88
258.22	238.88
258.452	207.88
258.685	201.88
258.918	202.88
259.151	227.88
259.383	217.88
259.616	215.88
259.849	214.88
260.081	231.88
260.314	238.88
260.547	249.88
260.779	234.88
261.012	223.88
261.244	221.88
261.477	211.88
261.71	233.88
261.942	217.88
262.175	233.88
262.407	234.88
262.64	219.88
262.872	229.88
263.105	211.88
263.337	207.88
263.57	206.88
263.802	191.88
264.035	209.88
264.267	203.88
264.499	214.88
264.732	209.88
264.964	201.88
265.197	201.88
265.429	204.88
265.661	206.88
265.894	222.88
266.126	222.88
266.358	201.88
266.591	221.88
266.823	243.88
267.055	211.88
267.287	220.88
267.52	226.88
267.752	209.88
267.984	219.88
268.216	227.88
268.448	216.88
268.681	225.88
268.913	231.88
269.145	246.88
269.377	283.88
269.609	275.88
269.841	274.88
270.073	274.88
270.306	278.88
270.538	307.88
270.77	293.88
271.002	295.88
271.234	298.88
271.466	279.88
271.698	309.88
271.93	318.88
272.162	286.88
272.394	313.88
272.626	294.88
272.858	286.88
273.09	283.88
273.322	271.88
273.553	267.88
273.785	270.88
274.017	266.88
274.249	269.88
274.481	252.88
274.713	256.88
274.945	266.88
275.176	245.88
275.408	271.88
275.64	270.88
275.872	245.88
276.104	248.88
276.335	269.88
276.567	269.88
276.799	280.88
277.031	292.88
277.262	313.88
277.494	314.88
277.726	294.88
277.957	280.88
278.189	283.88
278.421	283.88
278.652	275.88
278.884	265.88
279.115	283.88
279.347	273.88
279.579	256.88
279.81	269.88
280.042	264.88
280.273	282.88
280.505	257.88
280.736	246.88
280.968	278.88
281.199	260.88
281.431	259.88
281.662	265.88
281.894	286.88
282.125	255.88
282.356	281.88
282.588	308.88
282.819	272.88
283.051	266.88
283.282	267.88
283.513	300.88
283.745	261.88
283.976	259.88
284.207	283.88
284.439	275.88
284.67	271.88
284.901	276.88
285.132	271.88
285.364	295.88
285.595	275.88
285.826	272.88
286.057	284.88
286.288	276.88
286.52	279.88
286.751	274.88
286.982	261.88
287.213	279.88
287.444	290.88
287.675	298.88
287.906	294.88
288.138	290.88
288.369	303.88
288.6	301.88
288.831	293.88
289.062	299.88
289.293	302.88
289.524	284.88
289.755	272.88
289.986	289.88
290.217	283.88
290.448	287.88
290.679	290.88
290.91	317.88
291.141	266.88
291.371	278.88
291.602	286.88
291.833	288.88
292.064	292.88
292.295	301.88
292.526	285.88
292.757	300.88
292.987	286.88
293.218	278.88
293.449	302.88
293.68	286.88
293.91	288.88
294.141	270.88
294.372	273.88
294.603	287.88
294.833	278.88
295.064	286.88
295.295	293.88
295.525	291.88
295.756	289.88
295.987	291.88
296.217	322.88
296.448	305.88
296.679	298.88
296.909	289.88
297.14	291.88
297.37	300.88
297.601	294.88
297.831	276.88
298.062	295.88
298.292	299.88
298.523	312.88
298.753	309.88
298.984	285.88
299.214	317.88
299.445	323.88
299.675	302.88
299.905	304.88
300.136	311.88
300.366	302.88
300.597	282.88
300.827	309.88
301.057	308.88
301.288	316.88
301.518	314.88
301.748	308.88
301.979	318.88
302.209	314.88
302.439	319.88
302.669	322.88
302.9	339.88
303.13	340.88
303.36	315.88
303.59	332.88
303.82	327.88
304.051	333.88
304.281	326.88
304.511	307.88
304.741	316.88
304.971	352.88
305.201	323.88
305.431	346.88
305.661	320.88
305.891	294.88
306.121	325.88
306.352	328.88
306.582	342.88
306.812	333.88
307.042	330.88
307.272	334.88
307.502	322.88
307.731	319.88
307.961	328.88
308.191	327.88
308.421	333.88
308.651	313.88
308.881	314.88
309.111	328.88
309.341	335.88
309.571	330.88
309.8	333.88
310.03	364.88
310.26	358.88
310.49	328.88
310.72	357.88
310.949	378.88
311.179	371.88
311.409	377.88
311.639	358.88
311.868	363.88
312.098	364.88
312.328	373.88
312.557	375.88
312.787	389.88
313.017	379.88
313.246	357.88
313.476	364.88
313.706	348.88
313.935	353.88
314.165	374.88
314.394	364.88
314.624	371.88
314.853	371.88
315.083	349.88
315.312	379.88
315.542	369.88
315.771	354.88
316.001	366.88
316.23	354.88
316.46	365.88
316.689	374.88
316.919	369.88
317.148	380.88
317.377	385.88
317.607	370.88
317.836	357.88
318.065	371.88
318.295	363.88
318.524	356.88
318.753	362.88
318.983	377.88
319.212	369.88
319.441	367.88
319.67	367.88
319.9	371.88
320.129	364.88
320.358	366.88
320.587	380.88
320.816	388.88
321.046	386.88
321.275	396.88
321.504	387.88
321.733	365.88
321.962	395.88
322.191	412.88
322.42	423.88
322.649	412.88
322.878	426.88
323.108	434.88
323.337	453.88
323.566	469.88
323.795	489.88
324.024	536.88
324.253	640.88
324.482	889.88
324.71	1307.88
324.939	1794.88
325.168	1469.88
325.397	804.88
325.626	587.88
325.855	475.88
326.084	451.88
326.313	466.88
326.542	457.88
326.77	521.88
326.999	577.88
327.228	769.88
327.457	1140.88
327.686	1321.88
327.914	885.88
328.143	617.88
328.372	567.88
328.6	541.88
328.829	515.88
329.058	495.88
329.287	515.88
329.515	492.88
329.744	445.88
329.972	455.88
330.201	467.88
330.43	496.88
330.658	534.88
330.887	555.88
331.115	512.88
331.344	482.88
331.572	452.88
331.801	449.88
332.03	457.88
332.258	441.88
332.486	430.88
332.715	421.88
332.943	428.88
333.172	426.88
333.4	413.88
333.629	415.88
333.857	453.88
334.085	461.88
334.314	467.88
334.542	467.88
334.771	460.88
334.999	449.88
335.227	425.88
335.455	453.88
335.684	407.88
335.912	421.88
336.14	412.88
336.369	415.88
336.597	416.88
336.825	406.88
337.053	407.88
337.281	395.88
337.51	405.88
337.738	413.88
337.966	409.88
338.194	432.88
338.422	407.88
338.65	398.88
338.878	398.88
339.106	399.88
339.334	420.88
339.562	399.88
339.79	412.88
340.018	407.88
340.246	393.88
340.474	413.88
340.702	397.88
340.93	394.88
341.158	396.88
341.386	400.88
341.614	407.88
341.842	403.88
342.07	405.88
342.298	390.88
342.526	411.88
342.754	385.88
342.981	376.88
343.209	381.88
343.437	379.88
343.665	405.88
343.893	405.88
344.12	403.88
344.348	395.88
344.576	400.88
344.804	407.88
345.031	413.88
345.259	402.88
345.487	399.88
345.714	409.88
345.942	393.88
346.17	386.88
346.397	386.88
346.625	382.88
346.853	387.88
347.08	358.88
347.308	389.88
347.535	398.88
347.763	409.88
347.99	383.88
348.218	393.88
348.445	393.88
348.673	395.88
348.9	396.88
349.128	384.88
349.355	370.88
349.583	381.88
349.81	380.88
350.037	376.88
350.265	381.88
350.492	383.88
350.72	376.88
350.947	359.88
351.174	375.88
351.402	387.88
351.629	380.88
351.856	380.88
352.083	386.88
352.311	397.88
352.538	383.88
352.765	386.88
352.992	387.88
353.22	374.88
353.447	380.88
353.674	378.88
353.901	375.88
354.128	375.88
354.355	338.88
354.583	355.88
354.81	358.88
355.037	356.88
355.264	366.88
355.491	348.88
355.718	362.88
355.945	357.88
356.172	361.88
356.399	347.88
356.626	356.88
356.853	372.88
357.08	345.88
357.307	355.88
357.534	329.88
357.761	376.88
357.988	345.88
358.215	375.88
358.441	359.88
358.668	385.88
358.895	363.88
359.122	377.88
359.349	355.88
359.576	391.88
359.802	376.88
360.029	415.88
360.256	398.88
360.483	396.88
360.709	367.88
360.936	354.88
361.163	395.88
361.39	377.88
361.616	375.88
361.843	377.88
362.07	371.88
362.296	360.88
362.523	381.88
362.749	363.88
362.976	377.88
363.203	345.88
363.429	352.88
363.656	370.88
363.882	351.88
364.109	343.88
364.335	353.88
364.562	358.88
364.788	353.88
365.015	363.88
365.241	356.88
365.468	348.88
365.694	356.88
365.92	377.88
366.147	371.88
366.373	354.88
366.599	339.88
366.826	338.88
367.052	346.88
367.278	369.88
367.505	365.88
367.731	351.88
367.957	359.88
368.184	358.88
368.41	360.88
368.636	357.88
368.862	355.88
369.089	369.88
369.315	337.88
369.541	345.88
369.767	360.88
369.993	362.88
370.219	347.88
370.445	354.88
370.672	351.88
370.898	334.88
371.124	359.88
371.35	371.88
371.576	338.88
371.802	330.88
372.028	354.88
372.254	363.88
372.48	333.88
372.706	355.88
372.932	371.88
373.158	355.88
373.384	358.88
373.61	361.88
373.835	349.88
374.061	353.88
374.287	372.88
374.513	356.88
374.739	373.88
374.965	358.88
375.191	363.88
375.416	344.88
375.642	349.88
375.868	357.88
376.094	350.88
376.319	347.88
376.545	333.88
376.771	327.88
376.997	347.88
377.222	352.88
377.448	345.88
377.674	347.88
377.899	356.88
378.125	315.88
378.35	353.88
378.576	326.88
378.802	349.88
379.027	343.88
379.253	350.88
379.478	343.88
379.704	335.88
379.929	358.88
380.155	331.88
380.38	349.88
380.606	346.88
380.831	347.88
381.057	332.88
381.282	335.88
381.507	339.88
381.733	349.88
381.958	364.88
382.184	339.88
382.409	358.88
382.634	354.88
382.86	363.88
383.085	359.88
383.31	367.88
383.535	343.88
383.761	363.88
383.986	375.88
384.211	360.88
384.436	353.88
384.662	354.88
384.887	364.88
385.112	366.88
385.337	366.88
385.562	373.88
385.787	370.88
386.013	361.88
386.238	369.88
386.463	393.88
386.688	393.88
386.913	359.88
387.138	365.88
387.363	373.88
387.588	364.88
387.813	374.88
388.038	378.88
388.263	368.88
388.488	362.88
388.713	335.88
388.938	360.88
389.163	358.88
389.387	371.88
389.612	369.88
389.837	349.88
390.062	363.88
390.287	367.88
390.512	362.88
390.736	387.88
390.961	350.88
391.186	362.88
391.411	373.88
391.636	366.88
391.86	385.88
392.085	371.88
392.31	373.88
392.534	370.88
392.759	357.88
392.984	357.88
393.208	376.88
393.433	385.88
393.658	371.88
393.882	359.88
394.107	358.88
394.331	365.88
394.556	363.88
394.78	355.88
395.005	370.88
395.229	353.88
395.454	389.88
395.678	376.88
395.903	384.88
396.127	398.88
396.352	401.88
396.576	361.88
396.801	373.88
397.025	385.88
397.249	378.88
397.474	387.88
397.698	383.88
397.922	397.88
398.147	394.88
398.371	382.88
398.595	395.88
398.82	392.88
399.044	429.88
399.268	419.88
399.492	449.88
399.717	445.88
399.941	484.88
400.165	472.88
400.389	500.88
400.613	459.88
400.837	420.88
401.062	401.88
401.286	408.88
401.51	413.88
401.734	406.88
401.958	399.88
402.182	394.88
402.406	422.88
402.63	407.88
402.854	418.88
403.078	408.88
403.302	405.88
403.526	419.88
403.75	413.88
403.974	399.88
404.198	411.88
404.422	421.88
404.645	425.88
404.869	438.88
405.093	451.88
405.317	482.88
405.541	489.88
405.765	468.88
405.988	433.88
406.212	466.88
406.436	461.88
406.66	489.88
406.883	470.88
407.107	481.88
407.331	490.88
407.555	525.88
407.778	550.88
408.002	490.88
408.226	468.88
408.449	457.88
408.673	452.88
408.896	479.88
409.12	486.88
409.344	477.88
409.567	423.88
409.791	425.88
410.014	407.88
410.238	435.88
410.461	423.88
410.685	437.88
410.908	417.88
411.132	455.88
411.355	479.88
411.578	460.88
411.802	440.88
412.025	421.88
412.249	396.88
412.472	447.88
412.695	455.88
412.919	440.88
413.142	419.88
413.365	415.88
413.589	410.88
413.812	397.88
414.035	396.88
414.258	394.88
414.482	405.88
414.705	405.88
414.928	388.88
415.151	385.88
415.374	391.88
415.597	395.88
415.821	386.88
416.044	390.88
416.267	400.88
416.49	417.88
416.713	401.88
416.936	399.88
417.159	398.88
417.382	395.88
417.605	385.88
417.828	415.88
418.051	407.88
418.274	387.88
418.497	390.88
418.72	405.88
418.943	400.88
419.166	405.88
419.389	418.88
419.611	413.88
419.834	389.88
420.057	398.88
420.28	399.88
420.503	419.88
420.726	400.88
420.948	419.88
421.171	473.88
421.394	493.88
421.617	436.88
421.839	397.88
422.062	422.88
422.285	422.88
422.507	474.88
422.73	507.88
422.953	506.88
423.175	454.88
423.398	417.88
423.621	424.88
423.843	435.88
424.066	437.88
424.288	437.88
424.511	462.88
424.733	498.88
424.956	554.88
425.178	551.88
425.401	521.88
425.623	533.88
425.846	460.88
426.068	445.88
426.291	440.88
426.513	442.88
426.735	453.88
426.958	471.88
427.18	526.88
427.402	647.88
427.625	670.88
427.847	586.88
428.069	542.88
428.292	464.88
428.514	430.88
428.736	413.88
428.958	425.88
429.181	393.88
429.403	397.88
429.625	399.88
429.847	445.88
430.069	467.88
430.292	495.88
430.514	419.88
430.736	384.88
430.958	405.88
431.18	380.88
431.402	388.88
431.624	393.88
431.846	375.88
432.068	397.88
432.29	371.88
432.512	369.88
432.734	381.88
432.956	410.88
433.178	389.88
433.4	382.88
433.622	373.88
433.844	384.88
434.066	369.88
434.287	377.88
434.509	383.88
434.731	397.88
434.953	409.88
435.175	408.88
435.397	417.88
435.618	451.88
435.84	469.88
436.062	537.88
436.284	587.88
436.505	504.88
436.727	453.88
436.949	422.88
437.17	414.88
437.392	408.88
437.614	409.88
437.835	428.88
438.057	535.88
438.278	579.88
438.5	596.88
438.721	631.88
438.943	621.88
439.165	496.88
439.386	430.88
439.608	430.88
439.829	415.88
440.05	457.88
440.272	490.88
440.493	462.88
440.715	446.88
440.936	419.88
441.158	417.88
441.379	415.88
441.6	420.88
441.822	428.88
442.043	484.88
442.264	534.88
442.486	558.88
442.707	488.88
442.928	448.88
443.149	459.88
443.371	473.88
443.592	515.88
443.813	552.88
444.034	602.88
444.255	525.88
444.476	453.88
444.698	435.88
444.919	429.88
445.14	579.88
445.361	513.88
445.582	445.88
445.803	510.88
446.024	588.88
446.245	589.88
446.466	572.88
446.687	459.88
446.908	457.88
447.129	426.88
447.35	423.88
447.571	413.88
447.792	401.88
448.013	418.88
448.234	423.88
448.455	481.88
448.675	562.88
448.896	612.88
449.117	541.88
449.338	513.88
449.559	623.88
449.779	657.88
450	535.88
450.221	458.88
450.442	398.88
450.662	379.88
450.883	414.88
451.104	403.88
451.324	382.88
451.545	387.88
451.766	380.88
451.986	354.88
452.207	364.88
452.428	363.88
452.648	351.88
452.869	376.88
453.089	365.88
453.31	361.88
453.53	374.88
453.751	356.88
453.971	355.88
454.192	376.88
454.412	365.88
454.633	363.88
454.853	366.88
455.073	340.88
455.294	359.88
455.514	415.88
455.734	428.88
455.955	392.88
456.175	334.88
456.395	349.88
456.616	345.88
456.836	357.88
457.056	334.88
457.276	341.88
457.497	327.88
457.717	330.88
457.937	354.88
458.157	362.88
458.377	366.88
458.598	359.88
458.818	415.88
459.038	467.88
459.258	472.88
459.478	405.88
459.698	380.88
459.918	375.88
460.138	379.88
460.358	378.88
460.578	378.88
460.798	376.88
461.018	385.88
461.238	375.88
461.458	368.88
461.678	375.88
461.898	375.88
462.118	389.88
462.338	376.88
462.558	405.88
462.777	402.88
462.997	399.88
463.217	395.88
463.437	408.88
463.657	403.88
463.876	408.88
464.096	403.88
464.316	394.88
464.536	395.88
464.755	409.88
464.975	398.88
465.195	443.88
465.414	461.88
465.634	417.88
465.854	389.88
466.073	390.88
466.293	356.88
466.512	381.88
466.732	365.88
466.951	364.88
467.171	346.88
467.391	357.88
467.61	391.88
467.829	381.88
468.049	375.88
468.268	362.88
468.488	366.88
468.707	359.88
468.927	359.88
469.146	356.88
469.365	351.88
469.585	364.88
469.804	369.88
470.023	353.88
470.243	353.88
470.462	401.88
470.681	383.88
470.901	399.88
471.12	373.88
471.339	382.88
471.558	386.88
471.777	373.88
471.997	381.88
472.216	394.88
472.435	367.88
472.654	355.88
472.873	352.88
473.092	371.88
473.311	376.88
473.53	361.88
473.749	389.88
473.968	423.88
474.187	491.88
474.406	510.88
474.625	412.88
474.844	376.88
475.063	369.88
475.282	382.88
475.501	376.88
475.72	363.88
475.939	372.88
476.158	403.88
476.377	387.88
476.596	397.88
476.814	390.88
477.033	373.88
477.252	385.88
477.471	402.88
477.69	395.88
477.908	385.88
478.127	393.88
478.346	411.88
478.564	404.88
478.783	403.88
479.002	389.88
479.22	420.88
479.439	417.88
479.658	448.88
479.876	444.88
480.095	446.88
480.313	450.88
480.532	458.88
480.751	442.88
480.969	437.88
481.188	473.88
481.406	477.88
481.624	460.88
481.843	432.88
482.061	435.88
482.28	422.88
482.498	427.88
482.717	439.88
482.935	417.88
483.153	421.88
483.372	441.88
483.59	436.88
483.808	416.88
484.027	427.88
484.245	413.88
484.463	430.88
484.681	429.88
484.9	438.88
485.118	427.88
485.336	417.88
485.554	437.88
485.772	445.88
485.99	440.88
486.209	442.88
486.427	437.88
486.645	444.88
486.863	469.88
487.081	462.88
487.299	480.88
487.517	440.88
487.735	436.88
487.953	463.88
488.171	467.88
488.389	459.88
488.607	449.88
488.825	460.88
489.043	456.88
489.261	452.88
489.479	453.88
489.696	466.88
489.914	469.88
490.132	462.88
490.35	480.88
490.568	474.88
490.786	486.88
491.003	496.88
491.221	527.88
491.439	505.88
491.657	522.88
491.874	519.88
492.092	521.88
492.31	547.88
492.527	541.88
492.745	521.88
492.963	536.88
493.18	542.88
493.398	529.88
493.615	537.88
493.833	516.88
494.05	518.88
494.268	540.88
494.485	529.88
494.703	551.88
494.92	548.88
495.138	541.88
495.355	532.88
495.573	552.88
495.79	555.88
496.008	554.88
496.225	559.88
496.442	514.88
496.66	545.88
496.877	559.88
497.094	580.88
497.312	565.88
497.529	577.88
497.746	563.88
497.963	583.88
498.181	582.88
498.398	577.88
498.615	582.88
498.832	606.88
499.049	605.88
499.267	613.88
499.484	630.88
499.701	647.88
499.918	680.88
500.135	704.88
500.352	708.88
500.569	717.88
500.786	743.88
501.003	733.88
501.22	710.88
501.437	686.88
501.654	694.88
501.871	650.88
502.088	659.88
502.305	625.88
502.522	609.88
502.739	550.88
502.956	561.88
503.172	557.88
503.389	567.88
503.606	549.88
503.823	570.88
504.04	545.88
504.256	545.88
504.473	539.88
504.69	539.88
504.907	540.88
505.123	521.88
505.34	518.88
505.557	534.88
505.773	535.88
505.99	519.88
506.207	487.88
506.423	527.88
506.64	527.88
506.856	485.88
507.073	511.88
507.289	505.88
507.506	505.88
507.722	511.88
507.939	527.88
508.155	518.88
508.372	494.88
508.588	507.88
508.805	479.88
509.021	493.88
509.238	499.88
509.454	513.88
509.67	525.88
509.887	482.88
510.103	493.88
510.319	479.88
510.536	561.88
510.752	853.88
510.968	686.88
511.184	489.88
511.401	475.88
511.617	478.88
511.833	463.88
512.049	449.88
512.265	444.88
512.481	464.88
512.698	456.88
512.914	459.88
513.13	457.88
513.346	453.88
513.562	469.88
513.778	463.88
513.994	456.88
514.21	483.88
514.426	482.88
514.642	484.88
514.858	502.88
515.074	527.88
515.29	620.88
515.506	853.88
515.721	737.88
515.937	521.88
516.153	498.88
516.369	472.88
516.585	454.88
516.801	469.88
517.016	437.88
517.232	459.88
517.448	474.88
517.664	441.88
517.879	472.88
518.095	469.88
518.311	490.88
518.527	460.88
518.742	454.88
518.958	446.88
519.173	438.88
519.389	474.88
519.605	469.88
519.82	453.88
520.036	469.88
520.251	476.88
520.467	498.88
520.682	497.88
520.898	494.88
521.113	521.88
521.329	502.88
521.544	580.88
521.76	712.88
521.975	1115.88
522.19	1036.88
522.406	627.88
522.621	511.88
522.836	462.88
523.052	463.88
523.267	443.88
523.482	424.88
523.698	413.88
523.913	416.88
524.128	437.88
524.343	421.88
524.559	407.88
524.774	400.88
524.989	413.88
525.204	414.88
525.419	401.88
525.634	386.88
525.849	386.88
526.064	385.88
526.28	379.88
526.495	379.88
526.71	375.88
526.925	373.88
527.14	397.88
527.355	379.88
527.57	370.88
527.785	388.88
527.999	388.88
528.214	389.88
528.429	384.88
528.644	377.88
528.859	381.88
529.074	378.88
529.289	412.88
529.503	447.88
529.718	431.88
529.933	396.88
530.148	399.88
530.363	375.88
530.577	377.88
530.792	373.88
531.007	365.88
531.221	359.88
531.436	346.88
531.651	372.88
531.865	373.88
532.08	372.88
532.295	363.88
532.509	356.88
532.724	347.88
532.938	362.88
533.153	354.88
533.367	354.88
533.582	367.88
533.796	350.88
534.011	351.88
534.225	375.88
534.44	374.88
534.654	378.88
534.868	340.88
535.083	349.88
535.297	351.88
535.511	368.88
535.726	360.88
535.94	386.88
536.154	349.88
536.369	353.88
536.583	338.88
536.797	356.88
537.011	321.88
537.225	353.88
537.44	332.88
537.654	357.88
537.868	343.88
538.082	319.88
538.296	356.88
538.51	361.88
538.724	348.88
538.938	358.88
539.153	361.88
539.367	356.88
539.581	361.88
539.795	353.88
540.009	323.88
540.222	329.88
540.436	359.88
540.65	333.88
540.864	352.88
541.078	362.88
541.292	357.88
541.506	355.88
541.72	348.88
541.934	365.88
542.147	380.88
542.361	356.88
542.575	334.88
542.789	354.88
543.002	344.88
543.216	359.88
543.43	354.88
543.644	338.88
543.857	357.88
544.071	362.88
544.285	362.88
544.498	367.88
544.712	350.88
544.925	350.88
545.139	364.88
545.352	343.88
545.566	354.88
545.779	354.88
545.993	362.88
546.206	366.88
546.42	365.88
546.633	364.88
546.847	362.88
547.06	344.88
547.274	350.88
547.487	343.88
547.7	351.88
547.914	352.88
548.127	350.88
548.34	346.88
548.554	340.88
548.767	342.88
548.98	343.88
549.193	350.88
549.407	350.88
549.62	338.88
549.833	347.88
550.046	350.88
550.259	335.88
550.473	344.88
550.686	341.88
550.899	352.88
551.112	338.88
551.325	333.88
551.538	335.88
551.751	331.88
551.964	332.88
552.177	324.88
552.39	323.88
552.603	334.88
552.816	342.88
553.029	335.88
553.242	328.88
553.455	355.88
553.667	358.88
553.88	348.88
554.093	357.88
554.306	339.88
554.519	334.88
554.732	311.88
554.944	327.88
555.157	327.88
555.37	329.88
555.583	326.88
555.795	328.88
556.008	313.88
556.221	331.88
556.433	315.88
556.646	309.88
556.859	301.88
557.071	311.88
557.284	302.88
557.496	317.88
557.709	304.88
557.921	316.88
558.134	306.88
558.346	307.88
558.559	310.88
558.771	322.88
558.984	303.88
559.196	299.88
559.409	298.88
559.621	324.88
559.833	309.88
560.046	300.88
560.258	303.88
560.47	320.88
560.683	298.88
560.895	311.88
561.107	307.88
561.32	314.88
561.532	294.88
561.744	298.88
561.956	303.88
562.168	293.88
562.381	307.88
562.593	303.88
562.805	307.88
563.017	293.88
563.229	316.88
563.441	311.88
563.653	311.88
563.865	293.88
564.077	290.88
564.289	318.88
564.501	314.88
564.713	305.88
564.925	298.88
565.137	334.88
565.349	336.88
565.561	318.88
565.773	300.88
565.985	329.88
566.197	323.88
566.408	327.88
566.62	334.88
566.832	356.88
567.044	348.88
567.255	347.88
567.467	350.88
567.679	347.88
567.891	351.88
568.102	372.88
568.314	354.88
568.526	330.88
568.737	350.88
568.949	327.88
569.161	301.88
569.372	300.88
569.584	323.88
569.795	307.88
570.007	290.88
570.218	323.88
570.43	298.88
570.641	275.88
570.853	287.88
571.064	291.88
571.276	287.88
571.487	282.88
571.698	286.88
571.91	278.88
572.121	284.88
572.333	277.88
572.544	271.88
572.755	239.88
572.966	279.88
573.178	266.88
573.389	260.88
573.6	263.88
573.811	278.88
574.023	257.88
574.234	273.88
574.445	253.88
574.656	250.88
574.867	258.88
575.078	271.88
575.289	254.88
575.501	248.88
575.712	255.88
575.923	259.88
576.134	254.88
576.345	246.88
576.556	250.88
576.767	254.88
576.978	260.88
577.188	252.88
577.399	246.88
577.61	245.88
577.821	243.88
578.032	251.88
578.243	281.88
578.454	417.88
578.665	318.88
578.875	266.88
579.086	243.88
579.297	251.88
579.508	235.88
579.718	238.88
579.929	255.88
580.14	225.88
580.35	241.88
580.561	234.88
580.772	245.88
580.982	228.88
581.193	228.88
581.403	228.88
581.614	248.88
581.825	236.88
582.035	220.88
582.246	239.88
582.456	231.88
582.667	229.88
582.877	253.88
583.087	219.88
583.298	233.88
583.508	226.88
583.719	237.88
583.929	237.88
584.139	241.88
584.35	247.88
584.56	231.88
584.77	213.88
584.981	226.88
585.191	229.88
585.401	234.88
585.611	235.88
585.821	231.88
586.032	206.88
586.242	225.88
586.452	209.88
586.662	227.88
586.872	224.88
587.082	223.88
587.292	242.88
587.502	221.88
587.713	218.88
587.923	237.88
588.133	215.88
588.343	219.88
588.553	252.88
588.762	237.88
588.972	211.88
589.182	243.88
589.392	233.88
589.602	216.88
589.812	230.88
590.022	225.88
590.232	222.88
590.441	228.88
590.651	215.88
590.861	232.88
591.071	229.88
591.281	218.88
591.49	225.88
591.7	228.88
591.91	225.88
592.119	229.88
592.329	242.88
592.539	223.88
592.748	258.88
592.958	233.88
593.167	245.88
593.377	222.88
593.587	231.88
593.796	235.88
594.006	243.88
594.215	246.88
594.424	230.88
594.634	229.88
594.843	238.88
595.053	230.88
595.262	238.88
595.472	232.88
595.681	208.88
595.89	215.88
596.1	216.88
596.309	224.88
596.518	218.88
596.727	216.88
596.937	220.88
597.146	216.88
597.355	230.88
597.564	209.88
597.774	205.88
597.983	209.88
598.192	207.88
598.401	206.88
598.61	216.88
598.819	210.88
599.028	196.88
599.237	189.88
599.446	204.88
599.655	203.88
599.864	204.88
600.073	195.88
600.282	214.88
600.491	197.88
600.7	206.88
600.909	205.88
601.118	191.88
601.327	209.88
601.536	187.88
601.745	202.88
601.953	201.88
602.162	210.88
602.371	226.88
602.58	202.88
602.789	200.88
602.997	195.88
603.206	223.88
603.415	213.88
603.623	212.88
603.832	203.88
604.041	185.88
604.249	196.88
604.458	195.88
604.666	190.88
604.875	198.88
605.084	195.88
605.292	212.88
605.501	205.88
605.709	209.88
605.918	193.88
606.126	211.88
606.334	198.88
606.543	190.88
606.751	189.88
606.96	207.88
607.168	197.88
607.376	200.88
607.585	203.88
607.793	179.88
608.001	196.88
608.21	210.88
608.418	198.88
608.626	194.88
608.834	206.88
609.043	191.88
609.251	197.88
609.459	206.88
609.667	189.88
609.875	197.88
610.083	193.88
610.291	202.88
610.499	192.88
610.707	196.88
610.916	208.88
611.124	208.88
611.332	202.88
611.54	213.88
611.748	205.88
611.955	197.88
612.163	204.88
612.371	191.88
612.579	197.88
612.787	204.88
612.995	201.88
613.203	213.88
613.411	179.88
613.618	210.88
613.826	196.88
614.034	198.88
614.242	190.88
614.449	203.88
614.657	184.88
614.865	197.88
615.072	189.88
615.28	194.88
615.488	183.88
615.695	189.88
615.903	181.88
616.111	199.88
616.318	183.88
616.526	178.88
616.733	190.88
616.941	211.88
617.148	191.88
617.356	205.88
617.563	189.88
617.771	190.88
617.978	179.88
618.185	185.88
618.393	179.88
618.6	197.88
618.807	189.88
619.015	200.88
619.222	192.88
619.429	171.88
619.637	189.88
619.844	194.88
620.051	197.88
620.258	193.88
620.466	193.88
620.673	180.88
620.88	167.88
621.087	179.88
621.294	187.88
621.501	183.88
621.708	182.88
621.915	175.88
622.122	179.88
622.329	195.88
622.536	192.88
622.743	178.88
622.95	173.88
623.157	160.88
623.364	179.88
623.571	183.88
623.778	187.88
623.985	168.88
624.192	174.88
624.399	179.88
624.606	193.88
624.812	188.88
625.019	194.88
625.226	167.88
625.433	172.88
625.639	167.88
625.846	175.88
626.053	161.88
626.259	170.88
626.466	168.88
626.673	170.88
626.879	169.88
627.086	193.88
627.293	184.88
627.499	196.88
627.706	184.88
627.912	162.88
628.119	182.88
628.325	178.88
628.532	168.88
628.738	181.88
628.945	170.88
629.151	177.88
629.357	168.88
629.564	165.88
629.77	159.88
629.976	169.88
630.183	161.88
630.389	166.88
630.595	172.88
630.802	166.88
631.008	161.88
631.214	176.88
631.42	161.88
631.627	161.88
631.833	159.88
632.039	169.88
632.245	165.88
632.451	154.88
632.657	155.88
632.863	157.88
633.069	169.88
633.275	175.88
633.481	161.88
633.688	165.88
633.893	146.88
634.099	161.88
634.305	155.88
634.511	165.88
634.717	147.88
634.923	149.88
635.129	141.88
635.335	148.88
635.541	141.88
635.747	156.88
635.952	152.88
636.158	160.88
636.364	162.88
636.57	159.88
636.775	151.88
636.981	163.88
637.187	155.88
637.392	157.88
637.598	169.88
637.804	150.88
638.009	167.88
638.215	149.88
638.421	149.88
638.626	144.88
638.832	148.88
639.037	142.88
639.243	156.88
639.448	143.88
639.654	152.88
639.859	140.88
640.065	157.88
640.27	156.88
640.475	141.88
640.681	149.88
640.886	150.88
641.091	155.88
641.297	158.88
641.502	137.88
641.707	143.88
641.913	155.88
642.118	148.88
642.323	144.88
642.528	137.88
642.733	146.88
642.939	166.88
643.144	148.88
643.349	156.88
643.554	149.88
643.759	156.88
643.964	141.88
644.169	158.88
644.374	159.88
644.579	158.88
644.784	145.88
644.989	147.88
645.194	139.88
645.399	143.88
645.604	135.88
645.809	148.88
646.014	155.88
646.219	147.88
646.423	152.88
646.628	135.88
646.833	127.88
647.038	138.88
647.243	152.88
647.447	150.88
647.652	145.88
647.857	157.88
648.062	157.88
648.266	144.88
648.471	149.88
648.676	135.88
648.88	138.88
649.085	149.88
649.289	153.88
649.494	146.88
649.698	169.88
649.903	152.88
650.107	140.88
650.312	137.88
650.516	149.88
650.721	132.88
650.925	142.88
651.13	149.88
651.334	149.88
651.539	136.88
651.743	137.88
651.947	144.88
652.152	133.88
652.356	135.88
652.56	129.88
652.764	130.88
652.969	136.88
653.173	132.88
653.377	138.88
653.581	126.88
653.785	125.88
653.99	116.88
654.194	129.88
654.398	125.88
654.602	131.88
654.806	133.88
655.01	115.88
655.214	122.88
655.418	119.88
655.622	125.88
655.826	126.88
656.03	127.88
656.234	120.88
656.438	124.88
656.642	120.88
656.846	123.88
657.049	122.88
657.253	123.88
657.457	116.88
657.661	110.88
657.865	102.88
658.068	121.88
658.272	109.88
658.476	101.88
658.68	95.88
658.883	89.88
659.087	106.88
659.291	109.88
659.494	100.88
659.698	104.88
659.901	101.88
660.105	91.88
660.309	85.88
660.512	98.88
660.716	91.88
660.919	84.88
661.123	93.88
661.326	86.88
661.53	83.88
661.733	95.88
661.936	77.88
662.14	95.88
662.343	93.88
662.546	84.88
662.75	87.88
662.953	86.88
663.156	93.88
663.36	82.88
663.563	77.88
663.766	85.88
663.969	97.88
664.173	86.88
664.376	77.88
664.579	81.88
664.782	92.88
664.985	78.88
665.188	83.88
665.391	84.88
665.594	71.88
665.797	78.88
666	87.88
666.203	94.88
666.406	81.88
666.609	98.88
666.812	77.88
667.015	85.88
667.218	79.88
667.421	92.88
667.624	85.88
667.827	86.88
668.03	79.88
668.232	84.88
668.435	85.88
668.638	80.88
668.841	85.88
669.043	69.88
669.246	75.88
669.449	84.88
669.651	78.88
669.854	93.88
670.057	77.88
670.259	84.88
670.462	82.88
670.665	88.88
670.867	88.88
671.07	92.88
671.272	83.88
671.475	84.88
671.677	100.88
671.88	89.88
672.082	85.88
672.284	75.88
672.487	81.88
672.689	77.88
672.892	93.88
