Data from 1971.PennyLincolnUp.Lamp.En5.5.200Scan.071719.P1.Scan 2. Changed Angle._HRD10591_15-22-26-842.txt Node
Date: Thu Jul 18 15:22:26 EDT 2019
User: cochatt
Spectrometer: HR+D1059
Trigger mode: 1
Integration Time (sec): 1.000000E-1
Scans to average: 1
Electric dark correction enabled: true
Nonlinearity correction enabled: false
Boxcar width: 0
XAxis mode: Wavelengths
Number of Pixels in Spectrum: 2048
>>>>>Begin Spectral Data<<<<<
223.165	-18.31
223.4	-18.31
223.635	-18.31
223.869	-12.31
224.104	-21.31
224.338	-5.31
224.573	-8.31
224.808	-3.31
225.042	-8.31
225.277	-5.31
225.511	4.69
225.746	-3.31
225.98	-14.31
226.215	3.69
226.449	11.69
226.683	24.69
226.918	27.69
227.152	27.69
227.387	27.69
227.621	30.69
227.856	48.69
228.09	32.69
228.324	51.69
228.559	55.69
228.793	63.69
229.027	85.69
229.262	107.69
229.496	98.69
229.73	91.69
229.964	126.69
230.199	107.69
230.433	99.69
230.667	110.69
230.901	105.69
231.136	103.69
231.37	99.69
231.604	94.69
231.838	88.69
232.072	114.69
232.306	104.69
232.541	101.69
232.775	111.69
233.009	114.69
233.243	110.69
233.477	118.69
233.711	115.69
233.945	103.69
234.179	110.69
234.413	102.69
234.647	96.69
234.881	104.69
235.115	123.69
235.349	107.69
235.583	117.69
235.817	98.69
236.051	122.69
236.285	114.69
236.519	97.69
236.753	115.69
236.987	125.69
237.221	143.69
237.455	192.69
237.689	152.69
237.922	124.69
238.156	109.69
238.39	112.69
238.624	109.69
238.858	107.69
239.091	124.69
239.325	124.69
239.559	114.69
239.793	105.69
240.027	118.69
240.26	116.69
240.494	128.69
240.728	128.69
240.961	126.69
241.195	122.69
241.429	109.69
241.662	122.69
241.896	110.69
242.13	134.69
242.363	104.69
242.597	124.69
242.83	130.69
243.064	122.69
243.298	126.69
243.531	123.69
243.765	130.69
243.998	130.69
244.232	135.69
244.465	132.69
244.699	139.69
244.932	133.69
245.166	144.69
245.399	130.69
245.633	135.69
245.866	117.69
246.099	139.69
246.333	136.69
246.566	137.69
246.8	124.69
247.033	128.69
247.266	147.69
247.5	138.69
247.733	136.69
247.966	152.69
248.2	150.69
248.433	150.69
248.666	157.69
248.899	165.69
249.133	164.69
249.366	185.69
249.599	161.69
249.832	156.69
250.066	174.69
250.299	158.69
250.532	170.69
250.765	147.69
250.998	168.69
251.231	183.69
251.465	184.69
251.698	160.69
251.931	180.69
252.164	166.69
252.397	171.69
252.63	183.69
252.863	182.69
253.096	178.69
253.329	185.69
253.562	170.69
253.795	180.69
254.028	191.69
254.261	192.69
254.494	193.69
254.727	210.69
254.96	226.69
255.193	226.69
255.426	211.69
255.659	195.69
255.892	186.69
256.124	194.69
256.357	180.69
256.59	182.69
256.823	182.69
257.056	176.69
257.289	185.69
257.521	166.69
257.754	175.69
257.987	171.69
258.22	169.69
258.452	171.69
258.685	181.69
258.918	168.69
259.151	174.69
259.383	188.69
259.616	166.69
259.849	196.69
260.081	216.69
260.314	208.69
260.547	208.69
260.779	200.69
261.012	191.69
261.244	187.69
261.477	190.69
261.71	174.69
261.942	174.69
262.175	171.69
262.407	181.69
262.64	166.69
262.872	157.69
263.105	174.69
263.337	166.69
263.57	182.69
263.802	192.69
264.035	165.69
264.267	165.69
264.499	164.69
264.732	194.69
264.964	169.69
265.197	172.69
265.429	180.69
265.661	176.69
265.894	175.69
266.126	175.69
266.358	170.69
266.591	160.69
266.823	170.69
267.055	166.69
267.287	186.69
267.52	186.69
267.752	164.69
267.984	184.69
268.216	174.69
268.448	200.69
268.681	189.69
268.913	184.69
269.145	213.69
269.377	208.69
269.609	203.69
269.841	212.69
270.073	214.69
270.306	225.69
270.538	221.69
270.77	258.69
271.002	230.69
271.234	227.69
271.466	217.69
271.698	242.69
271.93	221.69
272.162	219.69
272.394	235.69
272.626	231.69
272.858	212.69
273.09	198.69
273.322	219.69
273.553	212.69
273.785	199.69
274.017	216.69
274.249	212.69
274.481	214.69
274.713	199.69
274.945	202.69
275.176	208.69
275.408	217.69
275.64	190.69
275.872	215.69
276.104	184.69
276.335	197.69
276.567	180.69
276.799	213.69
277.031	248.69
277.262	256.69
277.494	241.69
277.726	227.69
277.957	208.69
278.189	203.69
278.421	183.69
278.652	206.69
278.884	202.69
279.115	210.69
279.347	204.69
279.579	209.69
279.81	203.69
280.042	202.69
280.273	198.69
280.505	193.69
280.736	199.69
280.968	203.69
281.199	212.69
281.431	198.69
281.662	190.69
281.894	195.69
282.125	204.69
282.356	213.69
282.588	226.69
282.819	223.69
283.051	198.69
283.282	211.69
283.513	207.69
283.745	216.69
283.976	211.69
284.207	207.69
284.439	212.69
284.67	204.69
284.901	215.69
285.132	207.69
285.364	201.69
285.595	203.69
285.826	212.69
286.057	222.69
286.288	219.69
286.52	205.69
286.751	205.69
286.982	232.69
287.213	208.69
287.444	203.69
287.675	208.69
287.906	212.69
288.138	229.69
288.369	206.69
288.6	211.69
288.831	220.69
289.062	222.69
289.293	216.69
289.524	208.69
289.755	212.69
289.986	212.69
290.217	227.69
290.448	213.69
290.679	214.69
290.91	215.69
291.141	202.69
291.371	216.69
291.602	222.69
291.833	210.69
292.064	198.69
292.295	214.69
292.526	221.69
292.757	216.69
292.987	216.69
293.218	222.69
293.449	214.69
293.68	224.69
293.91	218.69
294.141	208.69
294.372	217.69
294.603	219.69
294.833	230.69
295.064	194.69
295.295	223.69
295.525	205.69
295.756	228.69
295.987	228.69
296.217	227.69
296.448	230.69
296.679	220.69
296.909	233.69
297.14	226.69
297.37	216.69
297.601	235.69
297.831	215.69
298.062	225.69
298.292	219.69
298.523	219.69
298.753	228.69
298.984	228.69
299.214	227.69
299.445	226.69
299.675	200.69
299.905	245.69
300.136	236.69
300.366	226.69
300.597	234.69
300.827	218.69
301.057	230.69
301.288	242.69
301.518	227.69
301.748	223.69
301.979	253.69
302.209	228.69
302.439	232.69
302.669	240.69
302.9	234.69
303.13	238.69
303.36	250.69
303.59	229.69
303.82	230.69
304.051	230.69
304.281	213.69
304.511	226.69
304.741	227.69
304.971	238.69
305.201	235.69
305.431	246.69
305.661	246.69
305.891	222.69
306.121	234.69
306.352	244.69
306.582	247.69
306.812	247.69
307.042	240.69
307.272	253.69
307.502	238.69
307.731	244.69
307.961	232.69
308.191	266.69
308.421	236.69
308.651	231.69
308.881	251.69
309.111	251.69
309.341	242.69
309.571	262.69
309.8	245.69
310.03	284.69
310.26	266.69
310.49	272.69
310.72	265.69
310.949	270.69
311.179	263.69
311.409	263.69
311.639	274.69
311.868	272.69
312.098	284.69
312.328	272.69
312.557	285.69
312.787	292.69
313.017	291.69
313.246	271.69
313.476	269.69
313.706	265.69
313.935	269.69
314.165	257.69
314.394	277.69
314.624	283.69
314.853	291.69
315.083	279.69
315.312	270.69
315.542	269.69
315.771	284.69
316.001	270.69
316.23	276.69
316.46	267.69
316.689	272.69
316.919	274.69
317.148	283.69
317.377	280.69
317.607	272.69
317.836	285.69
318.065	280.69
318.295	275.69
318.524	288.69
318.753	256.69
318.983	265.69
319.212	263.69
319.441	292.69
319.67	283.69
319.9	281.69
320.129	271.69
320.358	298.69
320.587	282.69
320.816	288.69
321.046	281.69
321.275	291.69
321.504	288.69
321.733	273.69
321.962	303.69
322.191	290.69
322.42	300.69
322.649	313.69
322.878	310.69
323.108	313.69
323.337	350.69
323.566	358.69
323.795	359.69
324.024	389.69
324.253	468.69
324.482	659.69
324.71	999.69
324.939	1398.69
325.168	1242.69
325.397	631.69
325.626	449.69
325.855	360.69
326.084	343.69
326.313	343.69
326.542	341.69
326.77	380.69
326.999	424.69
327.228	578.69
327.457	895.69
327.686	1048.69
327.914	717.69
328.143	483.69
328.372	426.69
328.6	398.69
328.829	381.69
329.058	374.69
329.287	413.69
329.515	372.69
329.744	367.69
329.972	356.69
330.201	360.69
330.43	365.69
330.658	383.69
330.887	419.69
331.115	396.69
331.344	376.69
331.572	346.69
331.801	357.69
332.03	328.69
332.258	340.69
332.486	322.69
332.715	310.69
332.943	316.69
333.172	314.69
333.4	322.69
333.629	322.69
333.857	324.69
334.085	310.69
334.314	337.69
334.542	331.69
334.771	341.69
334.999	354.69
335.227	329.69
335.455	323.69
335.684	318.69
335.912	332.69
336.14	307.69
336.369	306.69
336.597	328.69
336.825	331.69
337.053	320.69
337.281	315.69
337.51	316.69
337.738	337.69
337.966	332.69
338.194	326.69
338.422	323.69
338.65	321.69
338.878	344.69
339.106	316.69
339.334	334.69
339.562	318.69
339.79	312.69
340.018	306.69
340.246	331.69
340.474	319.69
340.702	318.69
340.93	319.69
341.158	313.69
341.386	326.69
341.614	317.69
341.842	315.69
342.07	303.69
342.298	313.69
342.526	327.69
342.754	314.69
342.981	307.69
343.209	295.69
343.437	317.69
343.665	311.69
343.893	336.69
344.12	326.69
344.348	304.69
344.576	315.69
344.804	335.69
345.031	329.69
345.259	336.69
345.487	347.69
345.714	309.69
345.942	323.69
346.17	326.69
346.397	308.69
346.625	315.69
346.853	308.69
347.08	345.69
347.308	333.69
347.535	309.69
347.763	320.69
347.99	311.69
348.218	308.69
348.445	336.69
348.673	312.69
348.9	319.69
349.128	308.69
349.355	304.69
349.583	288.69
349.81	314.69
350.037	318.69
350.265	297.69
350.492	313.69
350.72	299.69
350.947	317.69
351.174	332.69
351.402	335.69
351.629	327.69
351.856	317.69
352.083	329.69
352.311	322.69
352.538	316.69
352.765	327.69
352.992	304.69
353.22	312.69
353.447	303.69
353.674	318.69
353.901	306.69
354.128	329.69
354.355	296.69
354.583	301.69
354.81	310.69
355.037	284.69
355.264	297.69
355.491	301.69
355.718	299.69
355.945	295.69
356.172	297.69
356.399	295.69
356.626	302.69
356.853	310.69
357.08	306.69
357.307	302.69
357.534	290.69
357.761	286.69
357.988	325.69
358.215	311.69
358.441	324.69
358.668	294.69
358.895	316.69
359.122	312.69
359.349	296.69
359.576	323.69
359.802	316.69
360.029	327.69
360.256	356.69
360.483	334.69
360.709	335.69
360.936	342.69
361.163	324.69
361.39	294.69
361.616	303.69
361.843	311.69
362.07	313.69
362.296	321.69
362.523	334.69
362.749	328.69
362.976	307.69
363.203	330.69
363.429	301.69
363.656	300.69
363.882	302.69
364.109	309.69
364.335	309.69
364.562	316.69
364.788	327.69
365.015	326.69
365.241	313.69
365.468	316.69
365.694	324.69
365.92	326.69
366.147	311.69
366.373	293.69
366.599	307.69
366.826	300.69
367.052	314.69
367.278	298.69
367.505	314.69
367.731	309.69
367.957	318.69
368.184	310.69
368.41	323.69
368.636	325.69
368.862	315.69
369.089	310.69
369.315	303.69
369.541	309.69
369.767	320.69
369.993	311.69
370.219	310.69
370.445	315.69
370.672	326.69
370.898	316.69
371.124	299.69
371.35	301.69
371.576	316.69
371.802	324.69
372.028	309.69
372.254	320.69
372.48	342.69
372.706	317.69
372.932	288.69
373.158	316.69
373.384	334.69
373.61	317.69
373.835	334.69
374.061	325.69
374.287	324.69
374.513	330.69
374.739	329.69
374.965	315.69
375.191	337.69
375.416	347.69
375.642	330.69
375.868	338.69
376.094	333.69
376.319	320.69
376.545	319.69
376.771	335.69
376.997	316.69
377.222	326.69
377.448	324.69
377.674	315.69
377.899	322.69
378.125	312.69
378.35	299.69
378.576	306.69
378.802	336.69
379.027	317.69
379.253	315.69
379.478	324.69
379.704	314.69
379.929	342.69
380.155	324.69
380.38	316.69
380.606	330.69
380.831	338.69
381.057	342.69
381.282	335.69
381.507	337.69
381.733	316.69
381.958	328.69
382.184	328.69
382.409	323.69
382.634	323.69
382.86	320.69
383.085	355.69
383.31	341.69
383.535	337.69
383.761	351.69
383.986	324.69
384.211	337.69
384.436	350.69
384.662	315.69
384.887	343.69
385.112	346.69
385.337	335.69
385.562	336.69
385.787	362.69
386.013	355.69
386.238	354.69
386.463	354.69
386.688	362.69
386.913	364.69
387.138	351.69
387.363	346.69
387.588	353.69
387.813	345.69
388.038	371.69
388.263	358.69
388.488	356.69
388.713	354.69
388.938	346.69
389.163	360.69
389.387	371.69
389.612	349.69
389.837	346.69
390.062	355.69
390.287	367.69
390.512	345.69
390.736	354.69
390.961	379.69
391.186	354.69
391.411	351.69
391.636	364.69
391.86	374.69
392.085	385.69
392.31	383.69
392.534	368.69
392.759	383.69
392.984	398.69
393.208	420.69
393.433	526.69
393.658	564.69
393.882	434.69
394.107	374.69
394.331	387.69
394.556	379.69
394.78	379.69
395.005	356.69
395.229	360.69
395.454	394.69
395.678	364.69
395.903	367.69
396.127	398.69
396.352	418.69
396.576	404.69
396.801	434.69
397.025	506.69
397.249	465.69
397.474	392.69
397.698	379.69
397.922	372.69
398.147	386.69
398.371	382.69
398.595	406.69
398.82	396.69
399.044	396.69
399.268	423.69
399.492	438.69
399.717	426.69
399.941	475.69
400.165	475.69
400.389	489.69
400.613	458.69
400.837	421.69
401.062	402.69
401.286	402.69
401.51	390.69
401.734	392.69
401.958	408.69
402.182	411.69
402.406	424.69
402.63	415.69
402.854	413.69
403.078	397.69
403.302	421.69
403.526	420.69
403.75	403.69
403.974	427.69
404.198	406.69
404.422	424.69
404.645	428.69
404.869	406.69
405.093	432.69
405.317	444.69
405.541	481.69
405.765	427.69
405.988	424.69
406.212	463.69
406.436	470.69
406.66	475.69
406.883	463.69
407.107	452.69
407.331	504.69
407.555	551.69
407.778	560.69
408.002	501.69
408.226	487.69
408.449	455.69
408.673	445.69
408.896	472.69
409.12	518.69
409.344	492.69
409.567	444.69
409.791	425.69
410.014	423.69
410.238	413.69
410.461	398.69
410.685	406.69
410.908	429.69
411.132	465.69
411.355	493.69
411.578	492.69
411.802	435.69
412.025	445.69
412.249	455.69
412.472	427.69
412.695	447.69
412.919	448.69
413.142	400.69
413.365	414.69
413.589	413.69
413.812	414.69
414.035	406.69
414.258	405.69
414.482	390.69
414.705	391.69
414.928	415.69
415.151	408.69
415.374	404.69
415.597	387.69
415.821	404.69
416.044	400.69
416.267	405.69
416.49	411.69
416.713	390.69
416.936	384.69
417.159	378.69
417.382	406.69
417.605	405.69
417.828	422.69
418.051	427.69
418.274	434.69
418.497	394.69
418.72	414.69
418.943	399.69
419.166	415.69
419.389	421.69
419.611	416.69
419.834	417.69
420.057	424.69
420.28	425.69
420.503	421.69
420.726	422.69
420.948	421.69
421.171	470.69
421.394	491.69
421.617	442.69
421.839	428.69
422.062	429.69
422.285	408.69
422.507	496.69
422.73	567.69
422.953	534.69
423.175	480.69
423.398	459.69
423.621	444.69
423.843	467.69
424.066	454.69
424.288	459.69
424.511	445.69
424.733	510.69
424.956	581.69
425.178	544.69
425.401	558.69
425.623	574.69
425.846	506.69
426.068	471.69
426.291	442.69
426.513	445.69
426.735	468.69
426.958	506.69
427.18	574.69
427.402	667.69
427.625	734.69
427.847	640.69
428.069	551.69
428.292	507.69
428.514	454.69
428.736	442.69
428.958	436.69
429.181	433.69
429.403	434.69
429.625	449.69
429.847	434.69
430.069	502.69
430.292	502.69
430.514	456.69
430.736	436.69
430.958	428.69
431.18	411.69
431.402	402.69
431.624	395.69
431.846	419.69
432.068	409.69
432.29	397.69
432.512	390.69
432.734	431.69
432.956	416.69
433.178	401.69
433.4	404.69
433.622	415.69
433.844	421.69
434.066	400.69
434.287	384.69
434.509	416.69
434.731	418.69
434.953	406.69
435.175	425.69
435.397	428.69
435.618	459.69
435.84	503.69
436.062	555.69
436.284	620.69
436.505	522.69
436.727	478.69
436.949	443.69
437.17	447.69
437.392	447.69
437.614	453.69
437.835	482.69
438.057	516.69
438.278	620.69
438.5	604.69
438.721	680.69
438.943	651.69
439.165	543.69
439.386	488.69
439.608	472.69
439.829	438.69
440.05	475.69
440.272	510.69
440.493	485.69
440.715	450.69
440.936	440.69
441.158	449.69
441.379	430.69
441.6	436.69
441.822	447.69
442.043	488.69
442.264	562.69
442.486	582.69
442.707	499.69
442.928	463.69
443.149	479.69
443.371	502.69
443.592	516.69
443.813	613.69
444.034	658.69
444.255	554.69
444.476	466.69
444.698	477.69
444.919	475.69
445.14	550.69
445.361	521.69
445.582	504.69
445.803	545.69
446.024	631.69
446.245	634.69
446.466	553.69
446.687	490.69
446.908	479.69
447.129	460.69
447.35	429.69
447.571	436.69
447.792	446.69
448.013	439.69
448.234	440.69
448.455	489.69
448.675	567.69
448.896	656.69
449.117	595.69
449.338	542.69
449.559	635.69
449.779	712.69
450	553.69
450.221	481.69
450.442	436.69
450.662	425.69
450.883	426.69
451.104	425.69
451.324	438.69
451.545	426.69
451.766	394.69
451.986	399.69
452.207	386.69
452.428	391.69
452.648	397.69
452.869	376.69
453.089	416.69
453.31	411.69
453.53	420.69
453.751	381.69
453.971	398.69
454.192	394.69
454.412	405.69
454.633	408.69
454.853	379.69
455.073	381.69
455.294	407.69
455.514	435.69
455.734	451.69
455.955	392.69
456.175	388.69
456.395	345.69
456.616	350.69
456.836	378.69
457.056	381.69
457.276	376.69
457.497	354.69
457.717	388.69
457.937	388.69
458.157	379.69
458.377	377.69
458.598	388.69
458.818	438.69
459.038	491.69
459.258	506.69
459.478	431.69
459.698	415.69
459.918	398.69
460.138	393.69
460.358	408.69
460.578	412.69
460.798	416.69
461.018	410.69
461.238	401.69
461.458	408.69
461.678	419.69
461.898	422.69
462.118	430.69
462.338	423.69
462.558	447.69
462.777	435.69
462.997	422.69
463.217	438.69
463.437	443.69
463.657	440.69
463.876	421.69
464.096	448.69
464.316	424.69
464.536	450.69
464.755	451.69
464.975	442.69
465.195	455.69
465.414	506.69
465.634	468.69
465.854	439.69
466.073	418.69
466.293	403.69
466.512	392.69
466.732	404.69
466.951	404.69
467.171	412.69
467.391	415.69
467.61	405.69
467.829	416.69
468.049	395.69
468.268	416.69
468.488	409.69
468.707	406.69
468.927	392.69
469.146	376.69
469.365	386.69
469.585	398.69
469.804	398.69
470.023	423.69
470.243	388.69
470.462	402.69
470.681	420.69
470.901	423.69
471.12	405.69
471.339	390.69
471.558	396.69
471.777	423.69
471.997	399.69
472.216	409.69
472.435	425.69
472.654	389.69
472.873	408.69
473.092	406.69
473.311	407.69
473.53	416.69
473.749	404.69
473.968	456.69
474.187	521.69
474.406	523.69
474.625	455.69
474.844	402.69
475.063	413.69
475.282	425.69
475.501	407.69
475.72	443.69
475.939	413.69
476.158	411.69
476.377	415.69
476.596	428.69
476.814	443.69
477.033	428.69
477.252	429.69
477.471	447.69
477.69	452.69
477.908	439.69
478.127	447.69
478.346	421.69
478.564	463.69
478.783	472.69
479.002	466.69
479.22	462.69
479.439	474.69
479.658	471.69
479.876	481.69
480.095	474.69
480.313	533.69
480.532	518.69
480.751	498.69
480.969	506.69
481.188	501.69
481.406	523.69
481.624	508.69
481.843	499.69
482.061	495.69
482.28	487.69
482.498	498.69
482.717	485.69
482.935	488.69
483.153	468.69
483.372	498.69
483.59	472.69
483.808	497.69
484.027	500.69
484.245	490.69
484.463	488.69
484.681	517.69
484.9	513.69
485.118	487.69
485.336	504.69
485.554	503.69
485.772	480.69
485.99	491.69
486.209	500.69
486.427	506.69
486.645	494.69
486.863	529.69
487.081	528.69
487.299	534.69
487.517	516.69
487.735	513.69
487.953	558.69
488.171	538.69
488.389	508.69
488.607	521.69
488.825	512.69
489.043	532.69
489.261	537.69
489.479	527.69
489.696	528.69
489.914	555.69
490.132	554.69
490.35	546.69
490.568	570.69
490.786	565.69
491.003	572.69
491.221	574.69
491.439	604.69
491.657	588.69
491.874	582.69
492.092	587.69
492.31	616.69
492.527	608.69
492.745	608.69
492.963	630.69
493.18	630.69
493.398	620.69
493.615	620.69
493.833	607.69
494.05	610.69
494.268	636.69
494.485	617.69
494.703	601.69
494.92	629.69
495.138	633.69
495.355	614.69
495.573	624.69
495.79	611.69
496.008	643.69
496.225	620.69
496.442	641.69
496.66	636.69
496.877	621.69
497.094	648.69
497.312	647.69
497.529	647.69
497.746	654.69
497.963	644.69
498.181	693.69
498.398	656.69
498.615	704.69
498.832	684.69
499.049	712.69
499.267	694.69
499.484	735.69
499.701	766.69
499.918	744.69
500.135	797.69
500.352	804.69
500.569	824.69
500.786	846.69
501.003	786.69
501.22	794.69
501.437	788.69
501.654	747.69
501.871	734.69
502.088	751.69
502.305	742.69
502.522	721.69
502.739	702.69
502.956	674.69
503.172	656.69
503.389	648.69
503.606	640.69
503.823	648.69
504.04	652.69
504.256	640.69
504.473	619.69
504.69	650.69
504.907	641.69
505.123	608.69
505.34	615.69
505.557	618.69
505.773	588.69
505.99	609.69
506.207	603.69
506.423	598.69
506.64	585.69
506.856	588.69
507.073	575.69
507.289	616.69
507.506	585.69
507.722	571.69
507.939	594.69
508.155	565.69
508.372	587.69
508.588	574.69
508.805	565.69
509.021	576.69
509.238	594.69
509.454	553.69
509.67	566.69
509.887	562.69
510.103	555.69
510.319	568.69
510.536	624.69
510.752	934.69
510.968	816.69
511.184	576.69
511.401	554.69
511.617	548.69
511.833	550.69
512.049	536.69
512.265	537.69
512.481	522.69
512.698	522.69
512.914	523.69
513.13	532.69
513.346	525.69
513.562	530.69
513.778	539.69
513.994	564.69
514.21	576.69
514.426	563.69
514.642	592.69
514.858	604.69
515.074	629.69
515.29	720.69
515.506	1003.69
515.721	884.69
515.937	617.69
516.153	586.69
516.369	568.69
516.585	576.69
516.801	560.69
517.016	547.69
517.232	566.69
517.448	538.69
517.664	564.69
517.879	559.69
518.095	557.69
518.311	559.69
518.527	557.69
518.742	548.69
518.958	538.69
519.173	528.69
519.389	557.69
519.605	538.69
519.82	534.69
520.036	533.69
520.251	549.69
520.467	575.69
520.682	566.69
520.898	558.69
521.113	568.69
521.329	616.69
521.544	679.69
521.76	804.69
521.975	1262.69
522.19	1267.69
522.406	738.69
522.621	587.69
522.836	545.69
523.052	538.69
523.267	515.69
523.482	501.69
523.698	503.69
523.913	487.69
524.128	499.69
524.343	477.69
524.559	509.69
524.774	472.69
524.989	463.69
525.204	470.69
525.419	499.69
525.634	473.69
525.849	488.69
526.064	461.69
526.28	468.69
526.495	450.69
526.71	443.69
526.925	451.69
527.14	459.69
527.355	463.69
527.57	457.69
527.785	446.69
527.999	445.69
528.214	443.69
528.429	461.69
528.644	450.69
528.859	456.69
529.074	458.69
529.289	466.69
529.503	511.69
529.718	487.69
529.933	452.69
530.148	476.69
530.363	466.69
530.577	443.69
530.792	435.69
531.007	430.69
531.221	456.69
531.436	441.69
531.651	454.69
531.865	440.69
532.08	429.69
532.295	437.69
532.509	428.69
532.724	426.69
532.938	424.69
533.153	431.69
533.367	432.69
533.582	424.69
533.796	442.69
534.011	438.69
534.225	420.69
534.44	422.69
534.654	432.69
534.868	419.69
535.083	412.69
535.297	416.69
535.511	442.69
535.726	423.69
535.94	423.69
536.154	396.69
536.369	405.69
536.583	412.69
536.797	416.69
537.011	417.69
537.225	421.69
537.44	409.69
537.654	397.69
537.868	420.69
538.082	421.69
538.296	406.69
538.51	407.69
538.724	423.69
538.938	406.69
539.153	421.69
539.367	431.69
539.581	441.69
539.795	408.69
540.009	434.69
540.222	415.69
540.436	418.69
540.65	409.69
540.864	413.69
541.078	415.69
541.292	440.69
541.506	414.69
541.72	418.69
541.934	442.69
542.147	426.69
542.361	417.69
542.575	431.69
542.789	433.69
543.002	430.69
543.216	423.69
543.43	422.69
543.644	427.69
543.857	414.69
544.071	411.69
544.285	442.69
544.498	429.69
544.712	425.69
544.925	431.69
545.139	400.69
545.352	418.69
545.566	404.69
545.779	433.69
545.993	410.69
546.206	410.69
546.42	446.69
546.633	420.69
546.847	414.69
547.06	398.69
547.274	407.69
547.487	418.69
547.7	405.69
547.914	394.69
548.127	410.69
548.34	386.69
548.554	397.69
548.767	399.69
548.98	421.69
549.193	430.69
549.407	403.69
549.62	398.69
549.833	392.69
550.046	405.69
550.259	402.69
550.473	390.69
550.686	394.69
550.899	403.69
551.112	386.69
551.325	396.69
551.538	384.69
551.751	387.69
551.964	391.69
552.177	404.69
552.39	387.69
552.603	398.69
552.816	391.69
553.029	397.69
553.242	397.69
553.455	394.69
553.667	408.69
553.88	403.69
554.093	404.69
554.306	411.69
554.519	388.69
554.732	410.69
554.944	406.69
555.157	392.69
555.37	395.69
555.583	382.69
555.795	397.69
556.008	383.69
556.221	383.69
556.433	357.69
556.646	372.69
556.859	350.69
557.071	378.69
557.284	383.69
557.496	366.69
557.709	362.69
557.921	358.69
558.134	375.69
558.346	370.69
558.559	365.69
558.771	360.69
558.984	360.69
559.196	382.69
559.409	352.69
559.621	372.69
559.833	382.69
560.046	371.69
560.258	364.69
560.47	360.69
560.683	364.69
560.895	355.69
561.107	364.69
561.32	347.69
561.532	374.69
561.744	340.69
561.956	368.69
562.168	364.69
562.381	362.69
562.593	364.69
562.805	379.69
563.017	380.69
563.229	375.69
563.441	378.69
563.653	361.69
563.865	372.69
564.077	380.69
564.289	355.69
564.501	376.69
564.713	374.69
564.925	364.69
565.137	382.69
565.349	381.69
565.561	387.69
565.773	392.69
565.985	402.69
566.197	392.69
566.408	395.69
566.62	400.69
566.832	425.69
567.044	421.69
567.255	412.69
567.467	425.69
567.679	434.69
567.891	411.69
568.102	427.69
568.314	406.69
568.526	409.69
568.737	401.69
568.949	386.69
569.161	375.69
569.372	378.69
569.584	375.69
569.795	370.69
570.007	391.69
570.218	412.69
570.43	378.69
570.641	362.69
570.853	361.69
571.064	346.69
571.276	348.69
571.487	331.69
571.698	334.69
571.91	354.69
572.121	342.69
572.333	332.69
572.544	330.69
572.755	341.69
572.966	328.69
573.178	311.69
573.389	333.69
573.6	329.69
573.811	318.69
574.023	311.69
574.234	320.69
574.445	306.69
574.656	306.69
574.867	299.69
575.078	314.69
575.289	312.69
575.501	307.69
575.712	302.69
575.923	321.69
576.134	318.69
576.345	327.69
576.556	306.69
576.767	298.69
576.978	316.69
577.188	312.69
577.399	304.69
577.61	296.69
577.821	302.69
578.032	288.69
578.243	323.69
578.454	478.69
578.665	372.69
578.875	310.69
579.086	282.69
579.297	289.69
579.508	289.69
579.718	287.69
579.929	301.69
580.14	309.69
580.35	297.69
580.561	284.69
580.772	294.69
580.982	284.69
581.193	290.69
581.403	288.69
581.614	279.69
581.825	278.69
582.035	285.69
582.246	292.69
582.456	297.69
582.667	283.69
582.877	285.69
583.087	299.69
583.298	289.69
583.508	282.69
583.719	271.69
583.929	281.69
584.139	281.69
584.35	295.69
584.56	291.69
584.77	288.69
584.981	283.69
585.191	295.69
585.401	304.69
585.611	294.69
585.821	269.69
586.032	288.69
586.242	277.69
586.452	272.69
586.662	278.69
586.872	284.69
587.082	294.69
587.292	266.69
587.502	266.69
587.713	289.69
587.923	278.69
588.133	274.69
588.343	293.69
588.553	276.69
588.762	280.69
588.972	293.69
589.182	279.69
589.392	309.69
589.602	273.69
589.812	268.69
590.022	278.69
590.232	264.69
590.441	279.69
590.651	288.69
590.861	278.69
591.071	283.69
591.281	272.69
591.49	278.69
591.7	271.69
591.91	285.69
592.119	279.69
592.329	277.69
592.539	282.69
592.748	284.69
592.958	275.69
593.167	288.69
593.377	280.69
593.587	302.69
593.796	275.69
594.006	280.69
594.215	293.69
594.424	287.69
594.634	285.69
594.843	274.69
595.053	287.69
595.262	262.69
595.472	262.69
595.681	281.69
595.89	290.69
596.1	262.69
596.309	258.69
596.518	267.69
596.727	268.69
596.937	263.69
597.146	284.69
597.355	262.69
597.564	247.69
597.774	252.69
597.983	251.69
598.192	231.69
598.401	266.69
598.61	268.69
598.819	247.69
599.028	247.69
599.237	258.69
599.446	252.69
599.655	248.69
599.864	252.69
600.073	258.69
600.282	255.69
600.491	246.69
600.7	249.69
600.909	238.69
601.118	233.69
601.327	236.69
601.536	244.69
601.745	251.69
601.953	256.69
602.162	250.69
602.371	247.69
602.58	233.69
602.789	231.69
602.997	231.69
603.206	233.69
603.415	251.69
603.623	244.69
603.832	262.69
604.041	247.69
604.249	223.69
604.458	246.69
604.666	231.69
604.875	228.69
605.084	235.69
605.292	255.69
605.501	227.69
605.709	259.69
605.918	237.69
606.126	244.69
606.334	224.69
606.543	237.69
606.751	234.69
606.96	220.69
607.168	234.69
607.376	230.69
607.585	254.69
607.793	251.69
608.001	226.69
608.21	230.69
608.418	234.69
608.626	259.69
608.834	218.69
609.043	235.69
609.251	237.69
609.459	224.69
609.667	244.69
609.875	236.69
610.083	221.69
610.291	222.69
610.499	233.69
610.707	230.69
610.916	237.69
611.124	231.69
611.332	235.69
611.54	252.69
611.748	231.69
611.955	234.69
612.163	238.69
612.371	244.69
612.579	223.69
612.787	228.69
612.995	218.69
613.203	255.69
613.411	227.69
613.618	218.69
613.826	232.69
614.034	249.69
614.242	238.69
614.449	249.69
614.657	239.69
614.865	226.69
615.072	214.69
615.28	239.69
615.488	227.69
615.695	228.69
615.903	236.69
616.111	237.69
616.318	245.69
616.526	221.69
616.733	227.69
616.941	240.69
617.148	227.69
617.356	220.69
617.563	210.69
617.771	229.69
617.978	233.69
618.185	226.69
618.393	224.69
618.6	222.69
618.807	239.69
619.015	212.69
619.222	219.69
619.429	228.69
619.637	221.69
619.844	227.69
620.051	223.69
620.258	214.69
620.466	229.69
620.673	218.69
620.88	199.69
621.087	218.69
621.294	225.69
621.501	211.69
621.708	224.69
621.915	220.69
622.122	208.69
622.329	208.69
622.536	219.69
622.743	219.69
622.95	229.69
623.157	198.69
623.364	212.69
623.571	214.69
623.778	199.69
623.985	222.69
624.192	217.69
624.399	214.69
624.606	220.69
624.812	220.69
625.019	218.69
625.226	196.69
625.433	207.69
625.639	196.69
625.846	202.69
626.053	199.69
626.259	217.69
626.466	210.69
626.673	182.69
626.879	195.69
627.086	186.69
627.293	205.69
627.499	217.69
627.706	202.69
627.912	203.69
628.119	189.69
628.325	186.69
628.532	200.69
628.738	205.69
628.945	199.69
629.151	219.69
629.357	194.69
629.564	195.69
629.77	196.69
629.976	201.69
630.183	186.69
630.389	181.69
630.595	200.69
630.802	187.69
631.008	195.69
631.214	199.69
631.42	177.69
631.627	204.69
631.833	201.69
632.039	180.69
632.245	188.69
632.451	190.69
632.657	192.69
632.863	185.69
633.069	182.69
633.275	178.69
633.481	187.69
633.688	185.69
633.893	182.69
634.099	179.69
634.305	190.69
634.511	167.69
634.717	173.69
634.923	183.69
635.129	154.69
635.335	175.69
635.541	183.69
635.747	179.69
635.952	196.69
636.158	171.69
636.364	190.69
636.57	186.69
636.775	178.69
636.981	169.69
637.187	184.69
637.392	174.69
637.598	175.69
637.804	179.69
638.009	173.69
638.215	199.69
638.421	178.69
638.626	162.69
638.832	173.69
639.037	161.69
639.243	169.69
639.448	172.69
639.654	173.69
639.859	179.69
640.065	167.69
640.27	175.69
640.475	169.69
640.681	165.69
640.886	163.69
641.091	164.69
641.297	181.69
641.502	180.69
641.707	180.69
641.913	185.69
642.118	173.69
642.323	170.69
642.528	160.69
642.733	154.69
642.939	172.69
643.144	179.69
643.349	165.69
643.554	168.69
643.759	157.69
643.964	162.69
644.169	170.69
644.374	164.69
644.579	181.69
644.784	158.69
644.989	163.69
645.194	177.69
645.399	170.69
645.604	160.69
645.809	162.69
646.014	174.69
646.219	173.69
646.423	165.69
646.628	145.69
646.833	171.69
647.038	166.69
647.243	171.69
647.447	173.69
647.652	158.69
647.857	160.69
648.062	158.69
648.266	164.69
648.471	148.69
648.676	168.69
648.88	166.69
649.085	155.69
649.289	161.69
649.494	166.69
649.698	196.69
649.903	165.69
650.107	175.69
650.312	179.69
650.516	153.69
650.721	143.69
650.925	145.69
651.13	148.69
651.334	141.69
651.539	152.69
651.743	156.69
651.947	165.69
652.152	151.69
652.356	137.69
652.56	140.69
652.764	131.69
652.969	132.69
653.173	155.69
653.377	142.69
653.581	134.69
653.785	131.69
653.99	130.69
654.194	134.69
654.398	139.69
654.602	141.69
654.806	129.69
655.01	142.69
655.214	146.69
655.418	127.69
655.622	130.69
655.826	132.69
656.03	140.69
656.234	119.69
656.438	136.69
656.642	137.69
656.846	131.69
657.049	128.69
657.253	120.69
657.457	118.69
657.661	113.69
657.865	101.69
658.068	123.69
658.272	118.69
658.476	114.69
658.68	111.69
658.883	105.69
659.087	100.69
659.291	103.69
659.494	103.69
659.698	106.69
659.901	90.69
660.105	107.69
660.309	110.69
660.512	103.69
660.716	85.69
660.919	98.69
661.123	103.69
661.326	92.69
661.53	77.69
661.733	88.69
661.936	90.69
662.14	93.69
662.343	78.69
662.546	88.69
662.75	95.69
662.953	103.69
663.156	93.69
663.36	76.69
663.563	89.69
663.766	87.69
663.969	100.69
664.173	84.69
664.376	92.69
664.579	94.69
664.782	79.69
664.985	76.69
665.188	67.69
665.391	89.69
665.594	79.69
665.797	73.69
666	83.69
666.203	92.69
666.406	82.69
666.609	86.69
666.812	83.69
667.015	79.69
667.218	80.69
667.421	87.69
667.624	95.69
667.827	79.69
668.03	99.69
668.232	94.69
668.435	91.69
668.638	87.69
668.841	91.69
669.043	78.69
669.246	97.69
669.449	83.69
669.651	70.69
669.854	74.69
670.057	84.69
670.259	86.69
670.462	72.69
670.665	87.69
670.867	99.69
671.07	84.69
671.272	87.69
671.475	82.69
671.677	85.69
671.88	84.69
672.082	108.69
672.284	100.69
672.487	75.69
672.689	90.69
672.892	86.69
