Data from 1971.PennyLincolnUp.Lamp.En5.5.200Scan.071719.P1._HRD10591_15-17-54-841.txt Node
Date: Thu Jul 18 15:17:54 EDT 2019
User: cochatt
Spectrometer: HR+D1059
Trigger mode: 1
Integration Time (sec): 1.000000E-1
Scans to average: 1
Electric dark correction enabled: true
Nonlinearity correction enabled: false
Boxcar width: 0
XAxis mode: Wavelengths
Number of Pixels in Spectrum: 2048
>>>>>Begin Spectral Data<<<<<
223.165	-9.12
223.4	-9.12
223.635	-9.12
223.869	-13.12
224.104	-17.12
224.338	-11.12
224.573	-9.12
224.808	-12.12
225.042	-18.12
225.277	-11.12
225.511	-7.12
225.746	10.88
225.98	20.88
226.215	3.88
226.449	12.88
226.683	19.88
226.918	14.88
227.152	24.88
227.387	22.88
227.621	31.88
227.856	40.88
228.09	54.88
228.324	46.88
228.559	61.88
228.793	52.88
229.027	92.88
229.262	87.88
229.496	104.88
229.73	104.88
229.964	116.88
230.199	106.88
230.433	82.88
230.667	106.88
230.901	95.88
231.136	99.88
231.37	111.88
231.604	95.88
231.838	108.88
232.072	117.88
232.306	107.88
232.541	109.88
232.775	96.88
233.009	102.88
233.243	109.88
233.477	113.88
233.711	117.88
233.945	117.88
234.179	110.88
234.413	111.88
234.647	104.88
234.881	94.88
235.115	107.88
235.349	104.88
235.583	110.88
235.817	108.88
236.051	101.88
236.285	114.88
236.519	124.88
236.753	113.88
236.987	125.88
237.221	140.88
237.455	184.88
237.689	152.88
237.922	109.88
238.156	114.88
238.39	115.88
238.624	104.88
238.858	123.88
239.091	110.88
239.325	132.88
239.559	109.88
239.793	120.88
240.027	134.88
240.26	136.88
240.494	126.88
240.728	120.88
240.961	125.88
241.195	141.88
241.429	136.88
241.662	123.88
241.896	121.88
242.13	127.88
242.363	130.88
242.597	121.88
242.83	133.88
243.064	124.88
243.298	116.88
243.531	140.88
243.765	125.88
243.998	129.88
244.232	125.88
244.465	138.88
244.699	123.88
244.932	130.88
245.166	131.88
245.399	135.88
245.633	142.88
245.866	138.88
246.099	132.88
246.333	131.88
246.566	145.88
246.8	131.88
247.033	157.88
247.266	147.88
247.5	136.88
247.733	158.88
247.966	153.88
248.2	149.88
248.433	141.88
248.666	148.88
248.899	154.88
249.133	167.88
249.366	160.88
249.599	165.88
249.832	153.88
250.066	167.88
250.299	151.88
250.532	163.88
250.765	167.88
250.998	198.88
251.231	189.88
251.465	168.88
251.698	170.88
251.931	171.88
252.164	174.88
252.397	181.88
252.63	181.88
252.863	182.88
253.096	189.88
253.329	195.88
253.562	196.88
253.795	182.88
254.028	188.88
254.261	183.88
254.494	214.88
254.727	222.88
254.96	218.88
255.193	215.88
255.426	222.88
255.659	218.88
255.892	208.88
256.124	184.88
256.357	184.88
256.59	189.88
256.823	176.88
257.056	191.88
257.289	186.88
257.521	188.88
257.754	176.88
257.987	182.88
258.22	194.88
258.452	195.88
258.685	201.88
258.918	190.88
259.151	181.88
259.383	199.88
259.616	199.88
259.849	203.88
260.081	206.88
260.314	207.88
260.547	208.88
260.779	220.88
261.012	204.88
261.244	199.88
261.477	188.88
261.71	201.88
261.942	189.88
262.175	192.88
262.407	182.88
262.64	166.88
262.872	175.88
263.105	198.88
263.337	188.88
263.57	196.88
263.802	199.88
264.035	185.88
264.267	180.88
264.499	184.88
264.732	188.88
264.964	206.88
265.197	191.88
265.429	179.88
265.661	201.88
265.894	189.88
266.126	195.88
266.358	182.88
266.591	203.88
266.823	207.88
267.055	202.88
267.287	209.88
267.52	203.88
267.752	194.88
267.984	202.88
268.216	200.88
268.448	205.88
268.681	206.88
268.913	214.88
269.145	222.88
269.377	227.88
269.609	242.88
269.841	232.88
270.073	237.88
270.306	256.88
270.538	252.88
270.77	258.88
271.002	262.88
271.234	252.88
271.466	259.88
271.698	250.88
271.93	270.88
272.162	264.88
272.394	251.88
272.626	247.88
272.858	252.88
273.09	261.88
273.322	224.88
273.553	229.88
273.785	251.88
274.017	222.88
274.249	231.88
274.481	237.88
274.713	234.88
274.945	244.88
275.176	228.88
275.408	243.88
275.64	225.88
275.872	221.88
276.104	218.88
276.335	236.88
276.567	214.88
276.799	229.88
277.031	263.88
277.262	266.88
277.494	268.88
277.726	273.88
277.957	269.88
278.189	233.88
278.421	232.88
278.652	232.88
278.884	231.88
279.115	237.88
279.347	246.88
279.579	228.88
279.81	235.88
280.042	234.88
280.273	238.88
280.505	248.88
280.736	235.88
280.968	233.88
281.199	243.88
281.431	240.88
281.662	234.88
281.894	230.88
282.125	246.88
282.356	244.88
282.588	240.88
282.819	227.88
283.051	253.88
283.282	236.88
283.513	243.88
283.745	256.88
283.976	246.88
284.207	266.88
284.439	230.88
284.67	252.88
284.901	243.88
285.132	252.88
285.364	247.88
285.595	264.88
285.826	255.88
286.057	248.88
286.288	250.88
286.52	244.88
286.751	235.88
286.982	246.88
287.213	245.88
287.444	250.88
287.675	263.88
287.906	265.88
288.138	266.88
288.369	274.88
288.6	261.88
288.831	247.88
289.062	251.88
289.293	251.88
289.524	252.88
289.755	261.88
289.986	247.88
290.217	271.88
290.448	239.88
290.679	254.88
290.91	223.88
291.141	244.88
291.371	240.88
291.602	245.88
291.833	255.88
292.064	247.88
292.295	245.88
292.526	252.88
292.757	256.88
292.987	234.88
293.218	246.88
293.449	254.88
293.68	266.88
293.91	250.88
294.141	250.88
294.372	248.88
294.603	264.88
294.833	266.88
295.064	268.88
295.295	248.88
295.525	249.88
295.756	259.88
295.987	279.88
296.217	270.88
296.448	269.88
296.679	257.88
296.909	262.88
297.14	274.88
297.37	268.88
297.601	291.88
297.831	255.88
298.062	262.88
298.292	267.88
298.523	264.88
298.753	259.88
298.984	267.88
299.214	249.88
299.445	259.88
299.675	282.88
299.905	275.88
300.136	271.88
300.366	265.88
300.597	261.88
300.827	268.88
301.057	286.88
301.288	276.88
301.518	273.88
301.748	271.88
301.979	298.88
302.209	282.88
302.439	289.88
302.669	286.88
302.9	284.88
303.13	287.88
303.36	287.88
303.59	285.88
303.82	294.88
304.051	310.88
304.281	303.88
304.511	297.88
304.741	307.88
304.971	286.88
305.201	290.88
305.431	275.88
305.661	280.88
305.891	285.88
306.121	269.88
306.352	297.88
306.582	295.88
306.812	298.88
307.042	304.88
307.272	283.88
307.502	290.88
307.731	312.88
307.961	292.88
308.191	288.88
308.421	288.88
308.651	284.88
308.881	293.88
309.111	312.88
309.341	306.88
309.571	291.88
309.8	300.88
310.03	299.88
310.26	309.88
310.49	307.88
310.72	320.88
310.949	313.88
311.179	330.88
311.409	333.88
311.639	310.88
311.868	303.88
312.098	325.88
312.328	316.88
312.557	333.88
312.787	334.88
313.017	339.88
313.246	333.88
313.476	318.88
313.706	340.88
313.935	341.88
314.165	333.88
314.394	327.88
314.624	333.88
314.853	318.88
315.083	326.88
315.312	328.88
315.542	319.88
315.771	319.88
316.001	321.88
316.23	323.88
316.46	309.88
316.689	316.88
316.919	337.88
317.148	338.88
317.377	317.88
317.607	339.88
317.836	339.88
318.065	318.88
318.295	328.88
318.524	315.88
318.753	313.88
318.983	318.88
319.212	307.88
319.441	326.88
319.67	334.88
319.9	330.88
320.129	311.88
320.358	332.88
320.587	327.88
320.816	323.88
321.046	317.88
321.275	335.88
321.504	323.88
321.733	343.88
321.962	311.88
322.191	354.88
322.42	354.88
322.649	352.88
322.878	376.88
323.108	363.88
323.337	398.88
323.566	397.88
323.795	394.88
324.024	426.88
324.253	483.88
324.482	704.88
324.71	995.88
324.939	1341.88
325.168	1160.88
325.397	646.88
325.626	463.88
325.855	428.88
326.084	403.88
326.313	360.88
326.542	386.88
326.77	425.88
326.999	488.88
327.228	640.88
327.457	874.88
327.686	988.88
327.914	684.88
328.143	485.88
328.372	419.88
328.6	396.88
328.829	397.88
329.058	431.88
329.287	414.88
329.515	402.88
329.744	392.88
329.972	382.88
330.201	397.88
330.43	414.88
330.658	427.88
330.887	446.88
331.115	427.88
331.344	408.88
331.572	372.88
331.801	389.88
332.03	397.88
332.258	383.88
332.486	391.88
332.715	381.88
332.943	378.88
333.172	381.88
333.4	383.88
333.629	389.88
333.857	371.88
334.085	375.88
334.314	398.88
334.542	405.88
334.771	410.88
334.999	419.88
335.227	396.88
335.455	373.88
335.684	390.88
335.912	387.88
336.14	381.88
336.369	366.88
336.597	375.88
336.825	340.88
337.053	375.88
337.281	346.88
337.51	362.88
337.738	371.88
337.966	342.88
338.194	360.88
338.422	364.88
338.65	355.88
338.878	351.88
339.106	346.88
339.334	347.88
339.562	353.88
339.79	337.88
340.018	359.88
340.246	355.88
340.474	351.88
340.702	349.88
340.93	357.88
341.158	345.88
341.386	374.88
341.614	356.88
341.842	339.88
342.07	351.88
342.298	354.88
342.526	331.88
342.754	354.88
342.981	337.88
343.209	346.88
343.437	355.88
343.665	346.88
343.893	356.88
344.12	367.88
344.348	354.88
344.576	357.88
344.804	376.88
345.031	367.88
345.259	367.88
345.487	374.88
345.714	372.88
345.942	347.88
346.17	346.88
346.397	359.88
346.625	333.88
346.853	340.88
347.08	342.88
347.308	328.88
347.535	359.88
347.763	362.88
347.99	340.88
348.218	339.88
348.445	332.88
348.673	340.88
348.9	325.88
349.128	324.88
349.355	325.88
349.583	326.88
349.81	330.88
350.037	333.88
350.265	332.88
350.492	320.88
350.72	330.88
350.947	319.88
351.174	326.88
351.402	344.88
351.629	350.88
351.856	359.88
352.083	343.88
352.311	356.88
352.538	336.88
352.765	355.88
352.992	318.88
353.22	338.88
353.447	311.88
353.674	327.88
353.901	312.88
354.128	342.88
354.355	317.88
354.583	313.88
354.81	337.88
355.037	300.88
355.264	323.88
355.491	311.88
355.718	303.88
355.945	319.88
356.172	318.88
356.399	279.88
356.626	314.88
356.853	327.88
357.08	308.88
357.307	297.88
357.534	316.88
357.761	303.88
357.988	315.88
358.215	318.88
358.441	328.88
358.668	323.88
358.895	319.88
359.122	322.88
359.349	318.88
359.576	331.88
359.802	343.88
360.029	325.88
360.256	321.88
360.483	323.88
360.709	345.88
360.936	332.88
361.163	321.88
361.39	328.88
361.616	327.88
361.843	314.88
362.07	325.88
362.296	330.88
362.523	316.88
362.749	334.88
362.976	320.88
363.203	330.88
363.429	307.88
363.656	328.88
363.882	307.88
364.109	321.88
364.335	315.88
364.562	304.88
364.788	332.88
365.015	324.88
365.241	310.88
365.468	326.88
365.694	320.88
365.92	322.88
366.147	312.88
366.373	322.88
366.599	316.88
366.826	306.88
367.052	311.88
367.278	304.88
367.505	332.88
367.731	322.88
367.957	319.88
368.184	322.88
368.41	313.88
368.636	342.88
368.862	344.88
369.089	330.88
369.315	291.88
369.541	310.88
369.767	327.88
369.993	319.88
370.219	322.88
370.445	313.88
370.672	313.88
370.898	299.88
371.124	315.88
371.35	328.88
371.576	323.88
371.802	323.88
372.028	305.88
372.254	316.88
372.48	335.88
372.706	305.88
372.932	317.88
373.158	309.88
373.384	327.88
373.61	314.88
373.835	326.88
374.061	321.88
374.287	336.88
374.513	339.88
374.739	322.88
374.965	310.88
375.191	318.88
375.416	313.88
375.642	331.88
375.868	297.88
376.094	313.88
376.319	306.88
376.545	309.88
376.771	316.88
376.997	294.88
377.222	329.88
377.448	306.88
377.674	317.88
377.899	319.88
378.125	303.88
378.35	307.88
378.576	317.88
378.802	303.88
379.027	313.88
379.253	309.88
379.478	293.88
379.704	318.88
379.929	300.88
380.155	312.88
380.38	314.88
380.606	335.88
380.831	318.88
381.057	303.88
381.282	314.88
381.507	312.88
381.733	316.88
381.958	293.88
382.184	314.88
382.409	306.88
382.634	323.88
382.86	325.88
383.085	301.88
383.31	311.88
383.535	324.88
383.761	329.88
383.986	335.88
384.211	323.88
384.436	307.88
384.662	335.88
384.887	338.88
385.112	330.88
385.337	308.88
385.562	335.88
385.787	328.88
386.013	347.88
386.238	330.88
386.463	350.88
386.688	338.88
386.913	328.88
387.138	334.88
387.363	338.88
387.588	302.88
387.813	332.88
388.038	328.88
388.263	330.88
388.488	331.88
388.713	318.88
388.938	335.88
389.163	324.88
389.387	336.88
389.612	327.88
389.837	326.88
390.062	337.88
390.287	326.88
390.512	334.88
390.736	332.88
390.961	328.88
391.186	327.88
391.411	325.88
391.636	341.88
391.86	358.88
392.085	333.88
392.31	337.88
392.534	351.88
392.759	334.88
392.984	350.88
393.208	317.88
393.433	363.88
393.658	337.88
393.882	315.88
394.107	335.88
394.331	338.88
394.556	327.88
394.78	324.88
395.005	335.88
395.229	328.88
395.454	339.88
395.678	333.88
395.903	346.88
396.127	379.88
396.352	347.88
396.576	338.88
396.801	358.88
397.025	356.88
397.249	363.88
397.474	362.88
397.698	343.88
397.922	361.88
398.147	347.88
398.371	378.88
398.595	386.88
398.82	367.88
399.044	383.88
399.268	391.88
399.492	374.88
399.717	391.88
399.941	407.88
400.165	431.88
400.389	433.88
400.613	423.88
400.837	391.88
401.062	378.88
401.286	364.88
401.51	363.88
401.734	355.88
401.958	365.88
402.182	382.88
402.406	375.88
402.63	376.88
402.854	361.88
403.078	367.88
403.302	383.88
403.526	388.88
403.75	389.88
403.974	363.88
404.198	362.88
404.422	398.88
404.645	383.88
404.869	373.88
405.093	401.88
405.317	402.88
405.541	440.88
405.765	420.88
405.988	390.88
406.212	380.88
406.436	397.88
406.66	398.88
406.883	387.88
407.107	428.88
407.331	440.88
407.555	501.88
407.778	476.88
408.002	455.88
408.226	420.88
408.449	413.88
408.673	412.88
408.896	420.88
409.12	455.88
409.344	407.88
409.567	377.88
409.791	390.88
410.014	396.88
410.238	381.88
410.461	365.88
410.685	378.88
410.908	386.88
411.132	399.88
411.355	442.88
411.578	400.88
411.802	386.88
412.025	363.88
412.249	370.88
412.472	385.88
412.695	417.88
412.919	408.88
413.142	373.88
413.365	377.88
413.589	355.88
413.812	349.88
414.035	363.88
414.258	364.88
414.482	351.88
414.705	355.88
414.928	340.88
415.151	333.88
415.374	336.88
415.597	355.88
415.821	343.88
416.044	339.88
416.267	350.88
416.49	342.88
416.713	352.88
416.936	359.88
417.159	349.88
417.382	363.88
417.605	342.88
417.828	326.88
418.051	383.88
418.274	372.88
418.497	359.88
418.72	366.88
418.943	348.88
419.166	364.88
419.389	368.88
419.611	368.88
419.834	374.88
420.057	371.88
420.28	375.88
420.503	353.88
420.726	361.88
420.948	403.88
421.171	396.88
421.394	416.88
421.617	372.88
421.839	370.88
422.062	379.88
422.285	366.88
422.507	414.88
422.73	458.88
422.953	442.88
423.175	401.88
423.398	374.88
423.621	365.88
423.843	378.88
424.066	388.88
424.288	374.88
424.511	398.88
424.733	438.88
424.956	505.88
425.178	453.88
425.401	464.88
425.623	482.88
425.846	412.88
426.068	380.88
426.291	397.88
426.513	396.88
426.735	393.88
426.958	421.88
427.18	471.88
427.402	540.88
427.625	605.88
427.847	526.88
428.069	455.88
428.292	386.88
428.514	376.88
428.736	360.88
428.958	357.88
429.181	372.88
429.403	358.88
429.625	360.88
429.847	368.88
430.069	416.88
430.292	448.88
430.514	382.88
430.736	375.88
430.958	352.88
431.18	331.88
431.402	354.88
431.624	342.88
431.846	336.88
432.068	350.88
432.29	330.88
432.512	351.88
432.734	334.88
432.956	342.88
433.178	365.88
433.4	354.88
433.622	348.88
433.844	349.88
434.066	344.88
434.287	335.88
434.509	325.88
434.731	349.88
434.953	333.88
435.175	358.88
435.397	393.88
435.618	364.88
435.84	404.88
436.062	466.88
436.284	517.88
436.505	435.88
436.727	381.88
436.949	378.88
437.17	344.88
437.392	357.88
437.614	347.88
437.835	393.88
438.057	436.88
438.278	515.88
438.5	504.88
438.721	542.88
438.943	544.88
439.165	429.88
439.386	404.88
439.608	388.88
439.829	384.88
440.05	381.88
440.272	419.88
440.493	390.88
440.715	374.88
440.936	370.88
441.158	341.88
441.379	380.88
441.6	370.88
441.822	370.88
442.043	408.88
442.264	448.88
442.486	474.88
442.707	408.88
442.928	370.88
443.149	406.88
443.371	414.88
443.592	437.88
443.813	482.88
444.034	538.88
444.255	454.88
444.476	397.88
444.698	377.88
444.919	377.88
445.14	498.88
445.361	451.88
445.582	411.88
445.803	458.88
446.024	496.88
446.245	502.88
446.466	468.88
446.687	410.88
446.908	403.88
447.129	370.88
447.35	359.88
447.571	371.88
447.792	358.88
448.013	364.88
448.234	361.88
448.455	385.88
448.675	487.88
448.896	557.88
449.117	477.88
449.338	459.88
449.559	532.88
449.779	568.88
450	467.88
450.221	394.88
450.442	363.88
450.662	338.88
450.883	348.88
451.104	351.88
451.324	332.88
451.545	337.88
451.766	325.88
451.986	330.88
452.207	324.88
452.428	327.88
452.648	315.88
452.869	320.88
453.089	312.88
453.31	325.88
453.53	319.88
453.751	327.88
453.971	328.88
454.192	326.88
454.412	334.88
454.633	310.88
454.853	314.88
455.073	327.88
455.294	335.88
455.514	370.88
455.734	347.88
455.955	311.88
456.175	295.88
456.395	306.88
456.616	290.88
456.836	286.88
457.056	324.88
457.276	308.88
457.497	291.88
457.717	299.88
457.937	301.88
458.157	298.88
458.377	308.88
458.598	307.88
458.818	348.88
459.038	380.88
459.258	402.88
459.478	356.88
459.698	340.88
459.918	334.88
460.138	331.88
460.358	349.88
460.578	330.88
460.798	341.88
461.018	373.88
461.238	319.88
461.458	340.88
461.678	331.88
461.898	332.88
462.118	360.88
462.338	351.88
462.558	357.88
462.777	346.88
462.997	349.88
463.217	359.88
463.437	372.88
463.657	368.88
463.876	357.88
464.096	366.88
464.316	349.88
464.536	349.88
464.755	349.88
464.975	371.88
465.195	372.88
465.414	383.88
465.634	372.88
465.854	344.88
466.073	335.88
466.293	316.88
466.512	339.88
466.732	315.88
466.951	325.88
467.171	321.88
467.391	326.88
467.61	316.88
467.829	347.88
468.049	343.88
468.268	320.88
468.488	323.88
468.707	324.88
468.927	343.88
469.146	318.88
469.365	322.88
469.585	324.88
469.804	322.88
470.023	338.88
470.243	325.88
470.462	344.88
470.681	338.88
470.901	345.88
471.12	349.88
471.339	350.88
471.558	325.88
471.777	318.88
471.997	343.88
472.216	336.88
472.435	328.88
472.654	343.88
472.873	332.88
473.092	323.88
473.311	342.88
473.53	331.88
473.749	336.88
473.968	366.88
474.187	414.88
474.406	414.88
474.625	346.88
474.844	330.88
475.063	347.88
475.282	332.88
475.501	356.88
475.72	343.88
475.939	350.88
476.158	342.88
476.377	350.88
476.596	350.88
476.814	330.88
477.033	335.88
477.252	340.88
477.471	363.88
477.69	366.88
477.908	356.88
478.127	366.88
478.346	363.88
478.564	368.88
478.783	372.88
479.002	366.88
479.22	376.88
479.439	356.88
479.658	352.88
479.876	358.88
480.095	366.88
480.313	393.88
480.532	393.88
480.751	398.88
480.969	387.88
481.188	395.88
481.406	414.88
481.624	377.88
481.843	383.88
482.061	387.88
482.28	381.88
482.498	355.88
482.717	371.88
482.935	394.88
483.153	376.88
483.372	380.88
483.59	386.88
483.808	387.88
484.027	380.88
484.245	370.88
484.463	379.88
484.681	398.88
484.9	386.88
485.118	402.88
485.336	391.88
485.554	401.88
485.772	401.88
485.99	403.88
486.209	413.88
486.427	406.88
486.645	386.88
486.863	413.88
487.081	409.88
487.299	411.88
487.517	416.88
487.735	400.88
487.953	420.88
488.171	424.88
488.389	416.88
488.607	396.88
488.825	404.88
489.043	415.88
489.261	437.88
489.479	404.88
489.696	427.88
489.914	407.88
490.132	404.88
490.35	411.88
490.568	420.88
490.786	444.88
491.003	459.88
491.221	445.88
491.439	465.88
491.657	463.88
491.874	442.88
492.092	449.88
492.31	457.88
492.527	461.88
492.745	463.88
492.963	462.88
493.18	491.88
493.398	461.88
493.615	486.88
493.833	466.88
494.05	446.88
494.268	473.88
494.485	471.88
494.703	482.88
494.92	469.88
495.138	448.88
495.355	474.88
495.573	465.88
495.79	468.88
496.008	486.88
496.225	458.88
496.442	471.88
496.66	476.88
496.877	473.88
497.094	478.88
497.312	482.88
497.529	464.88
497.746	500.88
497.963	494.88
498.181	520.88
498.398	520.88
498.615	510.88
498.832	537.88
499.049	535.88
499.267	564.88
499.484	552.88
499.701	581.88
499.918	575.88
500.135	621.88
500.352	644.88
500.569	645.88
500.786	670.88
501.003	647.88
501.22	635.88
501.437	611.88
501.654	590.88
501.871	586.88
502.088	558.88
502.305	563.88
502.522	522.88
502.739	524.88
502.956	495.88
503.172	495.88
503.389	472.88
503.606	495.88
503.823	464.88
504.04	479.88
504.256	485.88
504.473	485.88
504.69	483.88
504.907	480.88
505.123	464.88
505.34	451.88
505.557	463.88
505.773	438.88
505.99	473.88
506.207	440.88
506.423	448.88
506.64	468.88
506.856	449.88
507.073	431.88
507.289	446.88
507.506	434.88
507.722	420.88
507.939	447.88
508.155	419.88
508.372	398.88
508.588	453.88
508.805	411.88
509.021	426.88
509.238	413.88
509.454	448.88
509.67	439.88
509.887	412.88
510.103	414.88
510.319	446.88
510.536	499.88
510.752	642.88
510.968	557.88
511.184	422.88
511.401	397.88
511.617	402.88
511.833	389.88
512.049	416.88
512.265	397.88
512.481	408.88
512.698	410.88
512.914	384.88
513.13	409.88
513.346	389.88
513.562	392.88
513.778	410.88
513.994	409.88
514.21	387.88
514.426	413.88
514.642	416.88
514.858	426.88
515.074	454.88
515.29	512.88
515.506	667.88
515.721	586.88
515.937	455.88
516.153	442.88
516.369	410.88
516.585	392.88
516.801	407.88
517.016	414.88
517.232	430.88
517.448	447.88
517.664	418.88
517.879	422.88
518.095	430.88
518.311	427.88
518.527	400.88
518.742	393.88
518.958	400.88
519.173	383.88
519.389	408.88
519.605	395.88
519.82	406.88
520.036	399.88
520.251	402.88
520.467	418.88
520.682	425.88
520.898	414.88
521.113	440.88
521.329	443.88
521.544	471.88
521.76	556.88
521.975	773.88
522.19	756.88
522.406	518.88
522.621	446.88
522.836	404.88
523.052	384.88
523.267	399.88
523.482	376.88
523.698	365.88
523.913	355.88
524.128	367.88
524.343	342.88
524.559	367.88
524.774	351.88
524.989	358.88
525.204	382.88
525.419	357.88
525.634	360.88
525.849	361.88
526.064	339.88
526.28	349.88
526.495	342.88
526.71	334.88
526.925	340.88
527.14	330.88
527.355	326.88
527.57	336.88
527.785	319.88
527.999	320.88
528.214	329.88
528.429	311.88
528.644	344.88
528.859	344.88
529.074	352.88
529.289	358.88
529.503	389.88
529.718	365.88
529.933	337.88
530.148	356.88
530.363	350.88
530.577	332.88
530.792	330.88
531.007	336.88
531.221	324.88
531.436	326.88
531.651	304.88
531.865	316.88
532.08	313.88
532.295	316.88
532.509	324.88
532.724	342.88
532.938	342.88
533.153	324.88
533.367	322.88
533.582	343.88
533.796	334.88
534.011	324.88
534.225	326.88
534.44	313.88
534.654	330.88
534.868	309.88
535.083	318.88
535.297	328.88
535.511	332.88
535.726	332.88
535.94	329.88
536.154	326.88
536.369	324.88
536.583	306.88
536.797	331.88
537.011	314.88
537.225	318.88
537.44	317.88
537.654	319.88
537.868	330.88
538.082	318.88
538.296	324.88
538.51	311.88
538.724	308.88
538.938	331.88
539.153	316.88
539.367	312.88
539.581	307.88
539.795	292.88
540.009	317.88
540.222	335.88
540.436	327.88
540.65	309.88
540.864	322.88
541.078	327.88
541.292	318.88
541.506	315.88
541.72	311.88
541.934	347.88
542.147	342.88
542.361	314.88
542.575	324.88
542.789	330.88
543.002	315.88
543.216	322.88
543.43	311.88
543.644	303.88
543.857	306.88
544.071	325.88
544.285	330.88
544.498	327.88
544.712	325.88
544.925	303.88
545.139	315.88
545.352	333.88
545.566	303.88
545.779	339.88
545.993	325.88
546.206	326.88
546.42	322.88
546.633	332.88
546.847	306.88
547.06	302.88
547.274	322.88
547.487	323.88
547.7	316.88
547.914	310.88
548.127	322.88
548.34	310.88
548.554	320.88
548.767	312.88
548.98	319.88
549.193	322.88
549.407	314.88
549.62	328.88
549.833	320.88
550.046	326.88
550.259	308.88
550.473	296.88
550.686	307.88
550.899	307.88
551.112	302.88
551.325	320.88
551.538	295.88
551.751	314.88
551.964	306.88
552.177	303.88
552.39	298.88
552.603	294.88
552.816	307.88
553.029	309.88
553.242	309.88
553.455	310.88
553.667	311.88
553.88	310.88
554.093	317.88
554.306	323.88
554.519	316.88
554.732	322.88
554.944	303.88
555.157	300.88
555.37	299.88
555.583	309.88
555.795	294.88
556.008	289.88
556.221	264.88
556.433	260.88
556.646	299.88
556.859	291.88
557.071	273.88
557.284	317.88
557.496	294.88
557.709	289.88
557.921	283.88
558.134	287.88
558.346	275.88
558.559	276.88
558.771	271.88
558.984	283.88
559.196	290.88
559.409	284.88
559.621	275.88
559.833	267.88
560.046	262.88
560.258	270.88
560.47	278.88
560.683	276.88
560.895	284.88
561.107	276.88
561.32	279.88
561.532	279.88
561.744	272.88
561.956	276.88
562.168	285.88
562.381	274.88
562.593	272.88
562.805	295.88
563.017	287.88
563.229	266.88
563.441	288.88
563.653	298.88
563.865	283.88
564.077	301.88
564.289	285.88
564.501	285.88
564.713	282.88
564.925	299.88
565.137	298.88
565.349	286.88
565.561	291.88
565.773	292.88
565.985	291.88
566.197	292.88
566.408	309.88
566.62	334.88
566.832	310.88
567.044	318.88
567.255	330.88
567.467	336.88
567.679	330.88
567.891	335.88
568.102	334.88
568.314	335.88
568.526	315.88
568.737	324.88
568.949	316.88
569.161	291.88
569.372	274.88
569.584	289.88
569.795	289.88
570.007	277.88
570.218	295.88
570.43	281.88
570.641	266.88
570.853	268.88
571.064	272.88
571.276	254.88
571.487	254.88
571.698	271.88
571.91	252.88
572.121	260.88
572.333	259.88
572.544	253.88
572.755	245.88
572.966	248.88
573.178	247.88
573.389	243.88
573.6	229.88
573.811	250.88
574.023	242.88
574.234	242.88
574.445	258.88
574.656	233.88
574.867	247.88
575.078	242.88
575.289	227.88
575.501	238.88
575.712	240.88
575.923	228.88
576.134	223.88
576.345	235.88
576.556	235.88
576.767	228.88
576.978	232.88
577.188	242.88
577.399	232.88
577.61	231.88
577.821	235.88
578.032	227.88
578.243	234.88
578.454	336.88
578.665	282.88
578.875	229.88
579.086	233.88
579.297	216.88
579.508	217.88
579.718	227.88
579.929	229.88
580.14	203.88
580.35	229.88
580.561	212.88
580.772	220.88
580.982	235.88
581.193	216.88
581.403	207.88
581.614	206.88
581.825	221.88
582.035	213.88
582.246	214.88
582.456	220.88
582.667	213.88
582.877	213.88
583.087	199.88
583.298	227.88
583.508	213.88
583.719	208.88
583.929	217.88
584.139	220.88
584.35	212.88
584.56	207.88
584.77	221.88
584.981	222.88
585.191	225.88
585.401	213.88
585.611	202.88
585.821	207.88
586.032	221.88
586.242	222.88
586.452	214.88
586.662	205.88
586.872	226.88
587.082	216.88
587.292	225.88
587.502	218.88
587.713	229.88
587.923	200.88
588.133	218.88
588.343	211.88
588.553	212.88
588.762	208.88
588.972	214.88
589.182	198.88
589.392	221.88
589.602	217.88
589.812	205.88
590.022	227.88
590.232	216.88
590.441	211.88
590.651	214.88
590.861	219.88
591.071	216.88
591.281	219.88
591.49	211.88
591.7	214.88
591.91	230.88
592.119	215.88
592.329	205.88
592.539	212.88
592.748	206.88
592.958	219.88
593.167	225.88
593.377	227.88
593.587	238.88
593.796	226.88
594.006	215.88
594.215	227.88
594.424	203.88
594.634	216.88
594.843	226.88
595.053	215.88
595.262	225.88
595.472	208.88
595.681	221.88
595.89	215.88
596.1	205.88
596.309	212.88
596.518	216.88
596.727	218.88
596.937	208.88
597.146	193.88
597.355	205.88
597.564	202.88
597.774	209.88
597.983	200.88
598.192	185.88
598.401	193.88
598.61	182.88
598.819	191.88
599.028	202.88
599.237	186.88
599.446	197.88
599.655	177.88
599.864	195.88
600.073	188.88
600.282	190.88
600.491	195.88
600.7	199.88
600.909	197.88
601.118	184.88
601.327	178.88
601.536	198.88
601.745	196.88
601.953	203.88
602.162	198.88
602.371	173.88
602.58	196.88
602.789	190.88
602.997	202.88
603.206	185.88
603.415	208.88
603.623	188.88
603.832	198.88
604.041	192.88
604.249	195.88
604.458	182.88
604.666	195.88
604.875	198.88
605.084	188.88
605.292	190.88
605.501	186.88
605.709	196.88
605.918	199.88
606.126	185.88
606.334	189.88
606.543	191.88
606.751	192.88
606.96	186.88
607.168	198.88
607.376	171.88
607.585	179.88
607.793	188.88
608.001	198.88
608.21	192.88
608.418	182.88
608.626	187.88
608.834	184.88
609.043	184.88
609.251	189.88
609.459	190.88
609.667	190.88
609.875	187.88
610.083	202.88
610.291	205.88
610.499	197.88
610.707	200.88
610.916	192.88
611.124	209.88
611.332	196.88
611.54	210.88
611.748	202.88
611.955	197.88
612.163	195.88
612.371	184.88
612.579	176.88
612.787	197.88
612.995	179.88
613.203	190.88
613.411	186.88
613.618	188.88
613.826	198.88
614.034	196.88
614.242	198.88
614.449	207.88
614.657	185.88
614.865	187.88
615.072	183.88
615.28	173.88
615.488	182.88
615.695	184.88
615.903	186.88
616.111	170.88
616.318	200.88
616.526	181.88
616.733	184.88
616.941	189.88
617.148	182.88
617.356	187.88
617.563	181.88
617.771	176.88
617.978	170.88
618.185	170.88
618.393	186.88
618.6	173.88
618.807	184.88
619.015	201.88
619.222	184.88
619.429	183.88
619.637	184.88
619.844	175.88
620.051	178.88
620.258	174.88
620.466	171.88
620.673	180.88
620.88	171.88
621.087	175.88
621.294	179.88
621.501	183.88
621.708	183.88
621.915	160.88
622.122	180.88
622.329	175.88
622.536	178.88
622.743	178.88
622.95	176.88
623.157	175.88
623.364	165.88
623.571	169.88
623.778	180.88
623.985	185.88
624.192	173.88
624.399	164.88
624.606	171.88
624.812	178.88
625.019	165.88
625.226	197.88
625.433	182.88
625.639	165.88
625.846	170.88
626.053	175.88
626.259	172.88
626.466	184.88
626.673	141.88
626.879	143.88
627.086	168.88
627.293	168.88
627.499	165.88
627.706	168.88
627.912	154.88
628.119	159.88
628.325	174.88
628.532	184.88
628.738	165.88
628.945	150.88
629.151	173.88
629.357	155.88
629.564	149.88
629.77	172.88
629.976	161.88
630.183	143.88
630.389	157.88
630.595	157.88
630.802	170.88
631.008	153.88
631.214	150.88
631.42	159.88
631.627	166.88
631.833	169.88
632.039	172.88
632.245	166.88
632.451	167.88
632.657	162.88
632.863	148.88
633.069	152.88
633.275	156.88
633.481	162.88
633.688	163.88
633.893	151.88
634.099	155.88
634.305	162.88
634.511	141.88
634.717	157.88
634.923	144.88
635.129	134.88
635.335	133.88
635.541	145.88
635.747	158.88
635.952	147.88
636.158	158.88
636.364	144.88
636.57	156.88
636.775	166.88
636.981	136.88
637.187	159.88
637.392	145.88
637.598	139.88
637.804	154.88
638.009	160.88
638.215	148.88
638.421	159.88
638.626	146.88
638.832	152.88
639.037	154.88
639.243	139.88
639.448	149.88
639.654	160.88
639.859	138.88
640.065	138.88
640.27	142.88
640.475	144.88
640.681	146.88
640.886	151.88
641.091	142.88
641.297	143.88
641.502	145.88
641.707	148.88
641.913	151.88
642.118	144.88
642.323	164.88
642.528	151.88
642.733	158.88
642.939	136.88
643.144	140.88
643.349	150.88
643.554	153.88
643.759	143.88
643.964	134.88
644.169	148.88
644.374	124.88
644.579	149.88
644.784	138.88
644.989	158.88
645.194	144.88
645.399	147.88
645.604	152.88
645.809	141.88
646.014	165.88
646.219	143.88
646.423	153.88
646.628	139.88
646.833	153.88
647.038	140.88
647.243	145.88
647.447	156.88
647.652	152.88
647.857	139.88
648.062	138.88
648.266	151.88
648.471	157.88
648.676	145.88
648.88	146.88
649.085	154.88
649.289	142.88
649.494	133.88
649.698	168.88
649.903	149.88
650.107	134.88
650.312	140.88
650.516	126.88
650.721	138.88
650.925	140.88
651.13	142.88
651.334	143.88
651.539	127.88
651.743	115.88
651.947	120.88
652.152	138.88
652.356	129.88
652.56	125.88
652.764	127.88
652.969	116.88
653.173	124.88
653.377	120.88
653.581	123.88
653.785	129.88
653.99	121.88
654.194	135.88
654.398	127.88
654.602	110.88
654.806	126.88
655.01	126.88
655.214	120.88
655.418	134.88
655.622	125.88
655.826	116.88
656.03	127.88
656.234	101.88
656.438	119.88
656.642	116.88
656.846	131.88
657.049	107.88
657.253	131.88
657.457	116.88
657.661	103.88
657.865	101.88
658.068	111.88
658.272	93.88
658.476	119.88
658.68	114.88
658.883	96.88
659.087	91.88
659.291	100.88
659.494	87.88
659.698	83.88
659.901	98.88
660.105	104.88
660.309	92.88
660.512	93.88
660.716	94.88
660.919	84.88
661.123	84.88
661.326	80.88
661.53	98.88
661.733	88.88
661.936	94.88
662.14	89.88
662.343	94.88
662.546	73.88
662.75	80.88
662.953	92.88
663.156	80.88
663.36	89.88
663.563	97.88
663.766	89.88
663.969	93.88
664.173	88.88
664.376	85.88
664.579	84.88
664.782	80.88
664.985	88.88
665.188	83.88
665.391	77.88
665.594	86.88
665.797	96.88
666	84.88
666.203	92.88
666.406	95.88
666.609	84.88
666.812	85.88
667.015	69.88
667.218	75.88
667.421	87.88
667.624	86.88
667.827	85.88
668.03	82.88
668.232	75.88
668.435	78.88
668.638	78.88
668.841	92.88
669.043	81.88
669.246	94.88
669.449	84.88
669.651	83.88
669.854	90.88
670.057	89.88
670.259	79.88
670.462	73.88
670.665	79.88
670.867	95.88
671.07	75.88
671.272	78.88
671.475	87.88
671.677	88.88
671.88	92.88
672.082	87.88
672.284	88.88
672.487	90.88
672.689	92.88
672.892	85.88
