Data from 1971.PennyLincolnUp.Lamp.En5.5.200Scan.071719.P1.Scan 2. Changed Angle._HRD10591_15-23-47-842.txt Node
Date: Thu Jul 18 15:23:47 EDT 2019
User: cochatt
Spectrometer: HR+D1059
Trigger mode: 1
Integration Time (sec): 1.000000E-1
Scans to average: 1
Electric dark correction enabled: true
Nonlinearity correction enabled: false
Boxcar width: 0
XAxis mode: Wavelengths
Number of Pixels in Spectrum: 2048
>>>>>Begin Spectral Data<<<<<
223.165	-14.62
223.4	-14.62
223.635	-14.62
223.869	-3.62
224.104	-27.62
224.338	-9.62
224.573	-21.62
224.808	-13.62
225.042	-5.62
225.277	-11.62
225.511	2.38
225.746	-5.62
225.98	15.38
226.215	11.38
226.449	26.38
226.683	22.38
226.918	17.38
227.152	18.38
227.387	36.38
227.621	35.38
227.856	43.38
228.09	34.38
228.324	60.38
228.559	59.38
228.793	70.38
229.027	87.38
229.262	108.38
229.496	138.38
229.73	149.38
229.964	172.38
230.199	146.38
230.433	130.38
230.667	115.38
230.901	125.38
231.136	104.38
231.37	120.38
231.604	113.38
231.838	110.38
232.072	110.38
232.306	126.38
232.541	125.38
232.775	138.38
233.009	120.38
233.243	125.38
233.477	118.38
233.711	121.38
233.945	120.38
234.179	138.38
234.413	121.38
234.647	134.38
234.881	133.38
235.115	120.38
235.349	122.38
235.583	132.38
235.817	136.38
236.051	132.38
236.285	118.38
236.519	128.38
236.753	139.38
236.987	163.38
237.221	200.38
237.455	270.38
237.689	220.38
237.922	146.38
238.156	150.38
238.39	137.38
238.624	132.38
238.858	136.38
239.091	136.38
239.325	138.38
239.559	137.38
239.793	133.38
240.027	141.38
240.26	155.38
240.494	174.38
240.728	180.38
240.961	156.38
241.195	148.38
241.429	144.38
241.662	142.38
241.896	147.38
242.13	146.38
242.363	138.38
242.597	135.38
242.83	141.38
243.064	150.38
243.298	146.38
243.531	145.38
243.765	135.38
243.998	130.38
244.232	148.38
244.465	157.38
244.699	149.38
244.932	151.38
245.166	153.38
245.399	148.38
245.633	154.38
245.866	158.38
246.099	147.38
246.333	157.38
246.566	150.38
246.8	173.38
247.033	160.38
247.266	153.38
247.5	168.38
247.733	184.38
247.966	199.38
248.2	181.38
248.433	199.38
248.666	207.38
248.899	184.38
249.133	230.38
249.366	231.38
249.599	218.38
249.832	192.38
250.066	197.38
250.299	201.38
250.532	190.38
250.765	212.38
250.998	248.38
251.231	237.38
251.465	217.38
251.698	224.38
251.931	212.38
252.164	213.38
252.397	200.38
252.63	208.38
252.863	236.38
253.096	225.38
253.329	244.38
253.562	254.38
253.795	213.38
254.028	244.38
254.261	237.38
254.494	236.38
254.727	269.38
254.96	307.38
255.193	288.38
255.426	272.38
255.659	254.38
255.892	251.38
256.124	249.38
256.357	235.38
256.59	232.38
256.823	227.38
257.056	230.38
257.289	218.38
257.521	220.38
257.754	220.38
257.987	233.38
258.22	224.38
258.452	213.38
258.685	233.38
258.918	227.38
259.151	214.38
259.383	240.38
259.616	220.38
259.849	229.38
260.081	265.38
260.314	257.38
260.547	277.38
260.779	265.38
261.012	245.38
261.244	247.38
261.477	236.38
261.71	240.38
261.942	237.38
262.175	256.38
262.407	233.38
262.64	221.38
262.872	237.38
263.105	233.38
263.337	214.38
263.57	202.38
263.802	218.38
264.035	222.38
264.267	237.38
264.499	209.38
264.732	217.38
264.964	206.38
265.197	217.38
265.429	219.38
265.661	211.38
265.894	218.38
266.126	218.38
266.358	214.38
266.591	220.38
266.823	213.38
267.055	224.38
267.287	222.38
267.52	211.38
267.752	219.38
267.984	222.38
268.216	232.38
268.448	234.38
268.681	218.38
268.913	259.38
269.145	280.38
269.377	276.38
269.609	276.38
269.841	261.38
270.073	286.38
270.306	288.38
270.538	323.38
270.77	355.38
271.002	313.38
271.234	306.38
271.466	307.38
271.698	313.38
271.93	340.38
272.162	340.38
272.394	322.38
272.626	310.38
272.858	291.38
273.09	285.38
273.322	289.38
273.553	256.38
273.785	258.38
274.017	259.38
274.249	269.38
274.481	274.38
274.713	254.38
274.945	276.38
275.176	268.38
275.408	276.38
275.64	277.38
275.872	259.38
276.104	257.38
276.335	278.38
276.567	270.38
276.799	276.38
277.031	323.38
277.262	329.38
277.494	332.38
277.726	305.38
277.957	288.38
278.189	274.38
278.421	267.38
278.652	257.38
278.884	262.38
279.115	271.38
279.347	261.38
279.579	256.38
279.81	241.38
280.042	260.38
280.273	252.38
280.505	269.38
280.736	249.38
280.968	256.38
281.199	260.38
281.431	265.38
281.662	248.38
281.894	247.38
282.125	258.38
282.356	263.38
282.588	305.38
282.819	316.38
283.051	280.38
283.282	271.38
283.513	257.38
283.745	261.38
283.976	261.38
284.207	280.38
284.439	277.38
284.67	270.38
284.901	258.38
285.132	258.38
285.364	262.38
285.595	248.38
285.826	261.38
286.057	265.38
286.288	269.38
286.52	258.38
286.751	263.38
286.982	261.38
287.213	264.38
287.444	263.38
287.675	247.38
287.906	268.38
288.138	275.38
288.369	294.38
288.6	284.38
288.831	269.38
289.062	262.38
289.293	270.38
289.524	286.38
289.755	273.38
289.986	259.38
290.217	261.38
290.448	268.38
290.679	278.38
290.91	281.38
291.141	270.38
291.371	256.38
291.602	269.38
291.833	269.38
292.064	292.38
292.295	280.38
292.526	282.38
292.757	268.38
292.987	264.38
293.218	274.38
293.449	268.38
293.68	274.38
293.91	264.38
294.141	242.38
294.372	264.38
294.603	262.38
294.833	280.38
295.064	265.38
295.295	258.38
295.525	279.38
295.756	274.38
295.987	282.38
296.217	314.38
296.448	323.38
296.679	294.38
296.909	272.38
297.14	293.38
297.37	296.38
297.601	272.38
297.831	269.38
298.062	297.38
298.292	274.38
298.523	289.38
298.753	270.38
298.984	300.38
299.214	295.38
299.445	301.38
299.675	294.38
299.905	302.38
300.136	283.38
300.366	287.38
300.597	277.38
300.827	274.38
301.057	298.38
301.288	316.38
301.518	301.38
301.748	308.38
301.979	316.38
302.209	299.38
302.439	288.38
302.669	310.38
302.9	320.38
303.13	314.38
303.36	323.38
303.59	290.38
303.82	324.38
304.051	320.38
304.281	304.38
304.511	298.38
304.741	312.38
304.971	284.38
305.201	306.38
305.431	291.38
305.661	310.38
305.891	294.38
306.121	325.38
306.352	315.38
306.582	332.38
306.812	329.38
307.042	313.38
307.272	301.38
307.502	302.38
307.731	296.38
307.961	297.38
308.191	316.38
308.421	295.38
308.651	308.38
308.881	320.38
309.111	316.38
309.341	331.38
309.571	332.38
309.8	329.38
310.03	362.38
310.26	375.38
310.49	368.38
310.72	384.38
310.949	385.38
311.179	395.38
311.409	374.38
311.639	375.38
311.868	356.38
312.098	364.38
312.328	389.38
312.557	396.38
312.787	404.38
313.017	407.38
313.246	396.38
313.476	379.38
313.706	369.38
313.935	373.38
314.165	389.38
314.394	400.38
314.624	397.38
314.853	387.38
315.083	374.38
315.312	377.38
315.542	368.38
315.771	352.38
316.001	369.38
316.23	368.38
316.46	371.38
316.689	365.38
316.919	374.38
317.148	391.38
317.377	392.38
317.607	387.38
317.836	395.38
318.065	346.38
318.295	358.38
318.524	366.38
318.753	374.38
318.983	363.38
319.212	377.38
319.441	381.38
319.67	399.38
319.9	404.38
320.129	370.38
320.358	370.38
320.587	365.38
320.816	374.38
321.046	374.38
321.275	390.38
321.504	381.38
321.733	391.38
321.962	418.38
322.191	423.38
322.42	452.38
322.649	477.38
322.878	484.38
323.108	472.38
323.337	499.38
323.566	532.38
323.795	590.38
324.024	637.38
324.253	786.38
324.482	1169.38
324.71	1830.38
324.939	2606.38
325.168	2259.38
325.397	1176.38
325.626	761.38
325.855	626.38
326.084	554.38
326.313	541.38
326.542	543.38
326.77	616.38
326.999	722.38
327.228	1008.38
327.457	1554.38
327.686	1965.38
327.914	1298.38
328.143	869.38
328.372	719.38
328.6	653.38
328.829	626.38
329.058	642.38
329.287	667.38
329.515	596.38
329.744	538.38
329.972	551.38
330.201	592.38
330.43	618.38
330.658	645.38
330.887	699.38
331.115	682.38
331.344	577.38
331.572	519.38
331.801	514.38
332.03	501.38
332.258	481.38
332.486	471.38
332.715	451.38
332.943	445.38
333.172	449.38
333.4	437.38
333.629	444.38
333.857	459.38
334.085	478.38
334.314	486.38
334.542	541.38
334.771	566.38
334.999	498.38
335.227	475.38
335.455	456.38
335.684	458.38
335.912	433.38
336.14	421.38
336.369	443.38
336.597	435.38
336.825	436.38
337.053	424.38
337.281	430.38
337.51	434.38
337.738	436.38
337.966	428.38
338.194	421.38
338.422	438.38
338.65	443.38
338.878	386.38
339.106	417.38
339.334	417.38
339.562	399.38
339.79	430.38
340.018	431.38
340.246	425.38
340.474	440.38
340.702	435.38
340.93	434.38
341.158	416.38
341.386	425.38
341.614	423.38
341.842	437.38
342.07	411.38
342.298	401.38
342.526	415.38
342.754	399.38
342.981	402.38
343.209	400.38
343.437	397.38
343.665	407.38
343.893	405.38
344.12	415.38
344.348	408.38
344.576	408.38
344.804	420.38
345.031	450.38
345.259	447.38
345.487	435.38
345.714	422.38
345.942	419.38
346.17	413.38
346.397	412.38
346.625	408.38
346.853	417.38
347.08	402.38
347.308	407.38
347.535	430.38
347.763	448.38
347.99	437.38
348.218	411.38
348.445	428.38
348.673	429.38
348.9	412.38
349.128	406.38
349.355	394.38
349.583	403.38
349.81	396.38
350.037	405.38
350.265	405.38
350.492	408.38
350.72	396.38
350.947	407.38
351.174	444.38
351.402	439.38
351.629	441.38
351.856	433.38
352.083	452.38
352.311	446.38
352.538	443.38
352.765	441.38
352.992	433.38
353.22	438.38
353.447	426.38
353.674	418.38
353.901	394.38
354.128	392.38
354.355	380.38
354.583	380.38
354.81	368.38
355.037	386.38
355.264	377.38
355.491	394.38
355.718	392.38
355.945	369.38
356.172	365.38
356.399	378.38
356.626	372.38
356.853	374.38
357.08	381.38
357.307	369.38
357.534	383.38
357.761	374.38
357.988	365.38
358.215	354.38
358.441	393.38
358.668	384.38
358.895	384.38
359.122	394.38
359.349	406.38
359.576	436.38
359.802	450.38
360.029	484.38
360.256	524.38
360.483	474.38
360.709	437.38
360.936	436.38
361.163	419.38
361.39	427.38
361.616	429.38
361.843	405.38
362.07	427.38
362.296	434.38
362.523	420.38
362.749	418.38
362.976	427.38
363.203	406.38
363.429	395.38
363.656	388.38
363.882	397.38
364.109	404.38
364.335	419.38
364.562	394.38
364.788	404.38
365.015	394.38
365.241	404.38
365.468	404.38
365.694	407.38
365.92	405.38
366.147	418.38
366.373	399.38
366.599	390.38
366.826	372.38
367.052	394.38
367.278	410.38
367.505	412.38
367.731	390.38
367.957	396.38
368.184	403.38
368.41	402.38
368.636	422.38
368.862	416.38
369.089	404.38
369.315	402.38
369.541	411.38
369.767	407.38
369.993	392.38
370.219	405.38
370.445	384.38
370.672	408.38
370.898	386.38
371.124	388.38
371.35	374.38
371.576	381.38
371.802	420.38
372.028	392.38
372.254	380.38
372.48	387.38
372.706	388.38
372.932	391.38
373.158	385.38
373.384	398.38
373.61	398.38
373.835	401.38
374.061	396.38
374.287	399.38
374.513	401.38
374.739	393.38
374.965	411.38
375.191	404.38
375.416	402.38
375.642	392.38
375.868	391.38
376.094	406.38
376.319	386.38
376.545	377.38
376.771	377.38
376.997	399.38
377.222	388.38
377.448	398.38
377.674	392.38
377.899	395.38
378.125	397.38
378.35	388.38
378.576	382.38
378.802	369.38
379.027	384.38
379.253	384.38
379.478	386.38
379.704	393.38
379.929	380.38
380.155	398.38
380.38	407.38
380.606	396.38
380.831	386.38
381.057	395.38
381.282	400.38
381.507	388.38
381.733	400.38
381.958	399.38
382.184	398.38
382.409	400.38
382.634	389.38
382.86	390.38
383.085	411.38
383.31	402.38
383.535	413.38
383.761	413.38
383.986	393.38
384.211	413.38
384.436	415.38
384.662	425.38
384.887	404.38
385.112	400.38
385.337	408.38
385.562	413.38
385.787	452.38
386.013	438.38
386.238	430.38
386.463	440.38
386.688	419.38
386.913	416.38
387.138	420.38
387.363	417.38
387.588	417.38
387.813	404.38
388.038	417.38
388.263	413.38
388.488	415.38
388.713	418.38
388.938	401.38
389.163	428.38
389.387	421.38
389.612	425.38
389.837	410.38
390.062	429.38
390.287	429.38
390.512	437.38
390.736	417.38
390.961	419.38
391.186	410.38
391.411	428.38
391.636	427.38
391.86	427.38
392.085	438.38
392.31	430.38
392.534	421.38
392.759	430.38
392.984	442.38
393.208	410.38
393.433	430.38
393.658	448.38
393.882	437.38
394.107	433.38
394.331	421.38
394.556	420.38
394.78	430.38
395.005	430.38
395.229	445.38
395.454	440.38
395.678	429.38
395.903	458.38
396.127	460.38
396.352	459.38
396.576	452.38
396.801	442.38
397.025	463.38
397.249	436.38
397.474	474.38
397.698	448.38
397.922	456.38
398.147	458.38
398.371	499.38
398.595	491.38
398.82	489.38
399.044	479.38
399.268	499.38
399.492	512.38
399.717	546.38
399.941	542.38
400.165	592.38
400.389	601.38
400.613	543.38
400.837	516.38
401.062	515.38
401.286	494.38
401.51	468.38
401.734	484.38
401.958	490.38
402.182	515.38
402.406	504.38
402.63	514.38
402.854	499.38
403.078	487.38
403.302	494.38
403.526	535.38
403.75	504.38
403.974	474.38
404.198	521.38
404.422	515.38
404.645	513.38
404.869	524.38
405.093	558.38
405.317	572.38
405.541	632.38
405.765	576.38
405.988	548.38
406.212	552.38
406.436	586.38
406.66	610.38
406.883	599.38
407.107	607.38
407.331	618.38
407.555	683.38
407.778	669.38
408.002	611.38
408.226	573.38
408.449	580.38
408.673	570.38
408.896	595.38
409.12	621.38
409.344	603.38
409.567	568.38
409.791	529.38
410.014	530.38
410.238	514.38
410.461	525.38
410.685	514.38
410.908	548.38
411.132	567.38
411.355	619.38
411.578	597.38
411.802	531.38
412.025	538.38
412.249	530.38
412.472	558.38
412.695	585.38
412.919	526.38
413.142	526.38
413.365	508.38
413.589	507.38
413.812	486.38
414.035	482.38
414.258	497.38
414.482	506.38
414.705	483.38
414.928	492.38
415.151	465.38
415.374	490.38
415.597	488.38
415.821	489.38
416.044	491.38
416.267	492.38
416.49	483.38
416.713	486.38
416.936	482.38
417.159	469.38
417.382	500.38
417.605	487.38
417.828	530.38
418.051	517.38
418.274	499.38
418.497	480.38
418.72	507.38
418.943	508.38
419.166	520.38
419.389	499.38
419.611	546.38
419.834	563.38
420.057	539.38
420.28	523.38
420.503	524.38
420.726	536.38
420.948	541.38
421.171	570.38
421.394	632.38
421.617	535.38
421.839	533.38
422.062	541.38
422.285	531.38
422.507	606.38
422.73	720.38
422.953	681.38
423.175	580.38
423.398	555.38
423.621	570.38
423.843	582.38
424.066	579.38
424.288	584.38
424.511	609.38
424.733	683.38
424.956	730.38
425.178	729.38
425.401	728.38
425.623	740.38
425.846	628.38
426.068	598.38
426.291	586.38
426.513	580.38
426.735	608.38
426.958	636.38
427.18	742.38
427.402	861.38
427.625	944.38
427.847	885.38
428.069	794.38
428.292	681.38
428.514	626.38
428.736	585.38
428.958	586.38
429.181	584.38
429.403	538.38
429.625	553.38
429.847	596.38
430.069	684.38
430.292	666.38
430.514	577.38
430.736	540.38
430.958	542.38
431.18	522.38
431.402	529.38
431.624	515.38
431.846	490.38
432.068	492.38
432.29	528.38
432.512	516.38
432.734	545.38
432.956	512.38
433.178	546.38
433.4	543.38
433.622	527.38
433.844	520.38
434.066	515.38
434.287	504.38
434.509	516.38
434.731	513.38
434.953	523.38
435.175	535.38
435.397	587.38
435.618	602.38
435.84	643.38
436.062	754.38
436.284	813.38
436.505	699.38
436.727	631.38
436.949	599.38
437.17	528.38
437.392	558.38
437.614	567.38
437.835	621.38
438.057	728.38
438.278	854.38
438.5	856.38
438.721	868.38
438.943	842.38
439.165	698.38
439.386	633.38
439.608	621.38
439.829	616.38
440.05	657.38
440.272	698.38
440.493	654.38
440.715	611.38
440.936	595.38
441.158	569.38
441.379	541.38
441.6	560.38
441.822	590.38
442.043	636.38
442.264	728.38
442.486	787.38
442.707	659.38
442.928	631.38
443.149	631.38
443.371	667.38
443.592	705.38
443.813	782.38
444.034	864.38
444.255	696.38
444.476	604.38
444.698	606.38
444.919	590.38
445.14	685.38
445.361	654.38
445.582	649.38
445.803	762.38
446.024	833.38
446.245	849.38
446.466	760.38
446.687	637.38
446.908	611.38
447.129	573.38
447.35	577.38
447.571	552.38
447.792	533.38
448.013	570.38
448.234	595.38
448.455	634.38
448.675	771.38
448.896	871.38
449.117	733.38
449.338	725.38
449.559	831.38
449.779	908.38
450	754.38
450.221	618.38
450.442	557.38
450.662	576.38
450.883	574.38
451.104	591.38
451.324	557.38
451.545	562.38
451.766	530.38
451.986	515.38
452.207	492.38
452.428	490.38
452.648	501.38
452.869	518.38
453.089	516.38
453.31	553.38
453.53	520.38
453.751	504.38
453.971	509.38
454.192	523.38
454.412	519.38
454.633	521.38
454.853	493.38
455.073	494.38
455.294	553.38
455.514	622.38
455.734	608.38
455.955	497.38
456.175	489.38
456.395	471.38
456.616	460.38
456.836	478.38
457.056	450.38
457.276	454.38
457.497	467.38
457.717	451.38
457.937	458.38
458.157	453.38
458.377	479.38
458.598	535.38
458.818	567.38
459.038	704.38
459.258	697.38
459.478	579.38
459.698	514.38
459.918	519.38
460.138	486.38
460.358	492.38
460.578	488.38
460.798	512.38
461.018	527.38
461.238	477.38
461.458	512.38
461.678	477.38
461.898	466.38
462.118	501.38
462.338	501.38
462.558	515.38
462.777	519.38
462.997	518.38
463.217	521.38
463.437	522.38
463.657	523.38
463.876	530.38
464.096	520.38
464.316	520.38
464.536	549.38
464.755	539.38
464.975	544.38
465.195	631.38
465.414	729.38
465.634	632.38
465.854	586.38
466.073	541.38
466.293	530.38
466.512	493.38
466.732	501.38
466.951	500.38
467.171	513.38
467.391	514.38
467.61	519.38
467.829	531.38
468.049	514.38
468.268	518.38
468.488	489.38
468.707	500.38
468.927	510.38
469.146	488.38
469.365	475.38
469.585	500.38
469.804	481.38
470.023	524.38
470.243	517.38
470.462	528.38
470.681	552.38
470.901	536.38
471.12	525.38
471.339	518.38
471.558	518.38
471.777	520.38
471.997	503.38
472.216	522.38
472.435	574.38
472.654	561.38
472.873	545.38
473.092	533.38
473.311	525.38
473.53	513.38
473.749	539.38
473.968	577.38
474.187	690.38
474.406	741.38
474.625	579.38
474.844	529.38
475.063	512.38
475.282	503.38
475.501	534.38
475.72	536.38
475.939	537.38
476.158	525.38
476.377	524.38
476.596	516.38
476.814	519.38
477.033	536.38
477.252	553.38
477.471	549.38
477.69	524.38
477.908	546.38
478.127	542.38
478.346	552.38
478.564	556.38
478.783	587.38
479.002	566.38
479.22	566.38
479.439	624.38
479.658	628.38
479.876	627.38
480.095	612.38
480.313	642.38
480.532	625.38
480.751	631.38
480.969	617.38
481.188	719.38
481.406	765.38
481.624	679.38
481.843	640.38
482.061	632.38
482.28	614.38
482.498	603.38
482.717	598.38
482.935	615.38
483.153	610.38
483.372	613.38
483.59	633.38
483.808	612.38
484.027	610.38
484.245	617.38
484.463	622.38
484.681	625.38
484.9	638.38
485.118	613.38
485.336	643.38
485.554	609.38
485.772	615.38
485.99	638.38
486.209	618.38
486.427	646.38
486.645	644.38
486.863	692.38
487.081	697.38
487.299	660.38
487.517	661.38
487.735	645.38
487.953	666.38
488.171	666.38
488.389	678.38
488.607	681.38
488.825	692.38
489.043	668.38
489.261	657.38
489.479	677.38
489.696	690.38
489.914	685.38
490.132	684.38
490.35	676.38
490.568	692.38
490.786	720.38
491.003	708.38
491.221	738.38
491.439	764.38
491.657	765.38
491.874	775.38
492.092	783.38
492.31	756.38
492.527	782.38
492.745	787.38
492.963	809.38
493.18	797.38
493.398	825.38
493.615	800.38
493.833	794.38
494.05	796.38
494.268	797.38
494.485	793.38
494.703	802.38
494.92	818.38
495.138	787.38
495.355	804.38
495.573	813.38
495.79	811.38
496.008	803.38
496.225	810.38
496.442	814.38
496.66	809.38
496.877	834.38
497.094	800.38
497.312	797.38
497.529	798.38
497.746	830.38
497.963	833.38
498.181	866.38
498.398	854.38
498.615	853.38
498.832	869.38
499.049	857.38
499.267	887.38
499.484	889.38
499.701	909.38
499.918	905.38
500.135	919.38
500.352	967.38
500.569	957.38
500.786	982.38
501.003	956.38
501.22	949.38
501.437	953.38
501.654	949.38
501.871	961.38
502.088	929.38
502.305	880.38
502.522	870.38
502.739	841.38
502.956	817.38
503.172	847.38
503.389	811.38
503.606	849.38
503.823	845.38
504.04	813.38
504.256	811.38
504.473	788.38
504.69	779.38
504.907	794.38
505.123	778.38
505.34	783.38
505.557	768.38
505.773	762.38
505.99	784.38
506.207	765.38
506.423	743.38
506.64	742.38
506.856	745.38
507.073	787.38
507.289	772.38
507.506	761.38
507.722	785.38
507.939	793.38
508.155	770.38
508.372	741.38
508.588	736.38
508.805	738.38
509.021	753.38
509.238	751.38
509.454	756.38
509.67	789.38
509.887	742.38
510.103	729.38
510.319	752.38
510.536	905.38
510.752	1544.38
510.968	1243.38
511.184	788.38
511.401	740.38
511.617	752.38
511.833	754.38
512.049	711.38
512.265	713.38
512.481	724.38
512.698	722.38
512.914	699.38
513.13	691.38
513.346	706.38
513.562	714.38
513.778	721.38
513.994	738.38
514.21	758.38
514.426	768.38
514.642	844.38
514.858	884.38
515.074	936.38
515.29	1168.38
515.506	1756.38
515.721	1409.38
515.937	959.38
516.153	814.38
516.369	770.38
516.585	762.38
516.801	756.38
517.016	718.38
517.232	707.38
517.448	728.38
517.664	718.38
517.879	710.38
518.095	702.38
518.311	708.38
518.527	706.38
518.742	713.38
518.958	706.38
519.173	702.38
519.389	704.38
519.605	719.38
519.82	711.38
520.036	753.38
520.251	775.38
520.467	838.38
520.682	807.38
520.898	823.38
521.113	837.38
521.329	925.38
521.544	1080.38
521.76	1408.38
521.975	2388.38
522.19	2285.38
522.406	1237.38
522.621	877.38
522.836	780.38
523.052	742.38
523.267	714.38
523.482	694.38
523.698	668.38
523.913	658.38
524.128	666.38
524.343	669.38
524.559	638.38
524.774	628.38
524.989	621.38
525.204	628.38
525.419	640.38
525.634	611.38
525.849	598.38
526.064	605.38
526.28	606.38
526.495	585.38
526.71	586.38
526.925	580.38
527.14	552.38
527.355	578.38
527.57	555.38
527.785	564.38
527.999	555.38
528.214	590.38
528.429	576.38
528.644	566.38
528.859	585.38
529.074	600.38
529.289	624.38
529.503	728.38
529.718	703.38
529.933	643.38
530.148	579.38
530.363	568.38
530.577	560.38
530.792	538.38
531.007	544.38
531.221	555.38
531.436	527.38
531.651	557.38
531.865	512.38
532.08	560.38
532.295	513.38
532.509	524.38
532.724	516.38
532.938	539.38
533.153	520.38
533.367	526.38
533.582	522.38
533.796	530.38
534.011	525.38
534.225	511.38
534.44	526.38
534.654	547.38
534.868	516.38
535.083	508.38
535.297	515.38
535.511	537.38
535.726	545.38
535.94	535.38
536.154	536.38
536.369	530.38
536.583	490.38
536.797	506.38
537.011	513.38
537.225	503.38
537.44	535.38
537.654	517.38
537.868	490.38
538.082	505.38
538.296	523.38
538.51	517.38
538.724	523.38
538.938	520.38
539.153	527.38
539.367	540.38
539.581	543.38
539.795	509.38
540.009	511.38
540.222	529.38
540.436	494.38
540.65	520.38
540.864	548.38
541.078	522.38
541.292	498.38
541.506	503.38
541.72	512.38
541.934	521.38
542.147	528.38
542.361	524.38
542.575	510.38
542.789	517.38
543.002	487.38
543.216	511.38
543.43	509.38
543.644	516.38
543.857	499.38
544.071	489.38
544.285	498.38
544.498	489.38
544.712	510.38
544.925	508.38
545.139	486.38
545.352	482.38
545.566	486.38
545.779	481.38
545.993	518.38
546.206	518.38
546.42	476.38
546.633	501.38
546.847	496.38
547.06	466.38
547.274	477.38
547.487	475.38
547.7	482.38
547.914	482.38
548.127	493.38
548.34	484.38
548.554	487.38
548.767	494.38
548.98	471.38
549.193	483.38
549.407	460.38
549.62	457.38
549.833	478.38
550.046	482.38
550.259	473.38
550.473	456.38
550.686	474.38
550.899	461.38
551.112	457.38
551.325	461.38
551.538	466.38
551.751	444.38
551.964	473.38
552.177	479.38
552.39	478.38
552.603	464.38
552.816	466.38
553.029	470.38
553.242	468.38
553.455	480.38
553.667	492.38
553.88	492.38
554.093	448.38
554.306	493.38
554.519	477.38
554.732	476.38
554.944	448.38
555.157	459.38
555.37	465.38
555.583	446.38
555.795	460.38
556.008	461.38
556.221	441.38
556.433	445.38
556.646	454.38
556.859	443.38
557.071	434.38
557.284	422.38
557.496	448.38
557.709	443.38
557.921	471.38
558.134	449.38
558.346	422.38
558.559	427.38
558.771	429.38
558.984	411.38
559.196	411.38
559.409	423.38
559.621	422.38
559.833	427.38
560.046	437.38
560.258	417.38
560.47	416.38
560.683	418.38
560.895	424.38
561.107	425.38
561.32	414.38
561.532	410.38
561.744	428.38
561.956	418.38
562.168	420.38
562.381	413.38
562.593	428.38
562.805	418.38
563.017	434.38
563.229	418.38
563.441	418.38
563.653	423.38
563.865	424.38
564.077	442.38
564.289	418.38
564.501	436.38
564.713	448.38
564.925	435.38
565.137	452.38
565.349	441.38
565.561	428.38
565.773	448.38
565.985	462.38
566.197	470.38
566.408	450.38
566.62	451.38
566.832	442.38
567.044	453.38
567.255	459.38
567.467	463.38
567.679	483.38
567.891	488.38
568.102	504.38
568.314	459.38
568.526	465.38
568.737	467.38
568.949	425.38
569.161	440.38
569.372	426.38
569.584	398.38
569.795	400.38
570.007	423.38
570.218	477.38
570.43	465.38
570.641	420.38
570.853	389.38
571.064	391.38
571.276	412.38
571.487	405.38
571.698	379.38
571.91	401.38
572.121	371.38
572.333	387.38
572.544	375.38
572.755	374.38
572.966	378.38
573.178	401.38
573.389	376.38
573.6	361.38
573.811	350.38
574.023	386.38
574.234	380.38
574.445	352.38
574.656	358.38
574.867	361.38
575.078	369.38
575.289	352.38
575.501	360.38
575.712	349.38
575.923	366.38
576.134	346.38
576.345	344.38
576.556	357.38
576.767	348.38
576.978	360.38
577.188	342.38
577.399	354.38
577.61	351.38
577.821	366.38
578.032	355.38
578.243	410.38
578.454	733.38
578.665	490.38
578.875	357.38
579.086	341.38
579.297	344.38
579.508	336.38
579.718	364.38
579.929	341.38
580.14	331.38
580.35	320.38
580.561	327.38
580.772	323.38
580.982	311.38
581.193	322.38
581.403	329.38
581.614	327.38
581.825	342.38
582.035	328.38
582.246	321.38
582.456	310.38
582.667	332.38
582.877	323.38
583.087	316.38
583.298	344.38
583.508	329.38
583.719	322.38
583.929	322.38
584.139	324.38
584.35	305.38
584.56	324.38
584.77	328.38
584.981	322.38
585.191	322.38
585.401	322.38
585.611	328.38
585.821	316.38
586.032	325.38
586.242	316.38
586.452	316.38
586.662	317.38
586.872	306.38
587.082	304.38
587.292	308.38
587.502	314.38
587.713	296.38
587.923	306.38
588.133	323.38
588.343	328.38
588.553	318.38
588.762	326.38
588.972	318.38
589.182	316.38
589.392	314.38
589.602	316.38
589.812	327.38
590.022	314.38
590.232	323.38
590.441	308.38
590.651	295.38
590.861	299.38
591.071	300.38
591.281	323.38
591.49	306.38
591.7	304.38
591.91	284.38
592.119	311.38
592.329	290.38
592.539	332.38
592.748	316.38
592.958	295.38
593.167	289.38
593.377	321.38
593.587	322.38
593.796	308.38
594.006	310.38
594.215	323.38
594.424	312.38
594.634	316.38
594.843	324.38
595.053	297.38
595.262	314.38
595.472	299.38
595.681	286.38
595.89	319.38
596.1	301.38
596.309	308.38
596.518	307.38
596.727	301.38
596.937	294.38
597.146	297.38
597.355	272.38
597.564	297.38
597.774	301.38
597.983	277.38
598.192	288.38
598.401	264.38
598.61	272.38
598.819	295.38
599.028	283.38
599.237	281.38
599.446	277.38
599.655	257.38
599.864	287.38
600.073	273.38
600.282	280.38
600.491	284.38
600.7	265.38
600.909	271.38
601.118	281.38
601.327	297.38
601.536	253.38
601.745	283.38
601.953	277.38
602.162	277.38
602.371	268.38
602.58	269.38
602.789	272.38
602.997	296.38
603.206	270.38
603.415	273.38
603.623	267.38
603.832	276.38
604.041	264.38
604.249	286.38
604.458	280.38
604.666	259.38
604.875	259.38
605.084	267.38
605.292	284.38
605.501	280.38
605.709	265.38
605.918	279.38
606.126	260.38
606.334	276.38
606.543	287.38
606.751	273.38
606.96	266.38
607.168	278.38
607.376	258.38
607.585	252.38
607.793	268.38
608.001	275.38
608.21	259.38
608.418	276.38
608.626	244.38
608.834	262.38
609.043	257.38
609.251	240.38
609.459	248.38
609.667	276.38
609.875	253.38
610.083	262.38
610.291	275.38
610.499	262.38
610.707	278.38
610.916	261.38
611.124	263.38
611.332	279.38
611.54	273.38
611.748	278.38
611.955	275.38
612.163	250.38
612.371	262.38
612.579	236.38
612.787	242.38
612.995	256.38
613.203	266.38
613.411	252.38
613.618	270.38
613.826	263.38
614.034	266.38
614.242	238.38
614.449	248.38
614.657	260.38
614.865	237.38
615.072	262.38
615.28	259.38
615.488	258.38
615.695	248.38
615.903	262.38
616.111	279.38
616.318	265.38
616.526	262.38
616.733	275.38
616.941	254.38
617.148	269.38
617.356	263.38
617.563	270.38
617.771	249.38
617.978	256.38
618.185	249.38
618.393	248.38
618.6	250.38
618.807	246.38
619.015	251.38
619.222	262.38
619.429	238.38
619.637	244.38
619.844	246.38
620.051	243.38
620.258	238.38
620.466	235.38
620.673	225.38
620.88	230.38
621.087	242.38
621.294	248.38
621.501	232.38
621.708	220.38
621.915	241.38
622.122	244.38
622.329	231.38
622.536	233.38
622.743	232.38
622.95	227.38
623.157	224.38
623.364	243.38
623.571	244.38
623.778	259.38
623.985	236.38
624.192	210.38
624.399	221.38
624.606	254.38
624.812	247.38
625.019	223.38
625.226	224.38
625.433	224.38
625.639	230.38
625.846	228.38
626.053	220.38
626.259	227.38
626.466	236.38
626.673	209.38
626.879	198.38
627.086	214.38
627.293	226.38
627.499	216.38
627.706	211.38
627.912	208.38
628.119	215.38
628.325	228.38
628.532	233.38
628.738	204.38
628.945	229.38
629.151	196.38
629.357	212.38
629.564	207.38
629.77	217.38
629.976	204.38
630.183	201.38
630.389	202.38
630.595	231.38
630.802	205.38
631.008	217.38
631.214	210.38
631.42	214.38
631.627	213.38
631.833	220.38
632.039	209.38
632.245	207.38
632.451	201.38
632.657	183.38
632.863	212.38
633.069	208.38
633.275	202.38
633.481	184.38
633.688	195.38
633.893	192.38
634.099	206.38
634.305	179.38
634.511	198.38
634.717	187.38
634.923	184.38
635.129	192.38
635.335	187.38
635.541	194.38
635.747	197.38
635.952	189.38
636.158	205.38
636.364	203.38
636.57	206.38
636.775	207.38
636.981	200.38
637.187	198.38
637.392	195.38
637.598	187.38
637.804	185.38
638.009	204.38
638.215	178.38
638.421	185.38
638.626	191.38
638.832	200.38
639.037	187.38
639.243	196.38
639.448	187.38
639.654	195.38
639.859	185.38
640.065	172.38
640.27	182.38
640.475	189.38
640.681	194.38
640.886	189.38
641.091	187.38
641.297	181.38
641.502	179.38
641.707	185.38
641.913	182.38
642.118	180.38
642.323	179.38
642.528	180.38
642.733	173.38
642.939	174.38
643.144	156.38
643.349	188.38
643.554	177.38
643.759	163.38
643.964	176.38
644.169	173.38
644.374	182.38
644.579	184.38
644.784	186.38
644.989	186.38
645.194	185.38
645.399	187.38
645.604	168.38
645.809	192.38
646.014	166.38
646.219	189.38
646.423	171.38
646.628	164.38
646.833	175.38
647.038	186.38
647.243	177.38
647.447	164.38
647.652	182.38
647.857	158.38
648.062	198.38
648.266	169.38
648.471	166.38
648.676	169.38
648.88	160.38
649.085	182.38
649.289	178.38
649.494	166.38
649.698	201.38
649.903	177.38
650.107	170.38
650.312	176.38
650.516	174.38
650.721	169.38
650.925	177.38
651.13	160.38
651.334	157.38
651.539	166.38
651.743	159.38
651.947	163.38
652.152	171.38
652.356	167.38
652.56	136.38
652.764	156.38
652.969	141.38
653.173	148.38
653.377	170.38
653.581	148.38
653.785	154.38
653.99	135.38
654.194	135.38
654.398	130.38
654.602	148.38
654.806	136.38
655.01	138.38
655.214	141.38
655.418	133.38
655.622	143.38
655.826	135.38
656.03	128.38
656.234	130.38
656.438	149.38
656.642	129.38
656.846	132.38
657.049	146.38
657.253	122.38
657.457	129.38
657.661	120.38
657.865	119.38
658.068	109.38
658.272	109.38
658.476	106.38
658.68	104.38
658.883	97.38
659.087	111.38
659.291	93.38
659.494	110.38
659.698	113.38
659.901	92.38
660.105	93.38
660.309	84.38
660.512	102.38
660.716	91.38
660.919	95.38
661.123	83.38
661.326	101.38
661.53	101.38
661.733	89.38
661.936	105.38
662.14	91.38
662.343	81.38
662.546	89.38
662.75	82.38
662.953	84.38
663.156	92.38
663.36	86.38
663.563	78.38
663.766	86.38
663.969	97.38
664.173	74.38
664.376	87.38
664.579	85.38
664.782	76.38
664.985	94.38
665.188	77.38
665.391	94.38
665.594	88.38
665.797	90.38
666	70.38
666.203	84.38
666.406	85.38
666.609	74.38
666.812	84.38
667.015	82.38
667.218	68.38
667.421	94.38
667.624	82.38
667.827	90.38
668.03	101.38
668.232	84.38
668.435	87.38
668.638	87.38
668.841	83.38
669.043	91.38
669.246	79.38
669.449	82.38
669.651	75.38
669.854	87.38
670.057	82.38
670.259	80.38
670.462	91.38
670.665	70.38
670.867	89.38
671.07	78.38
671.272	82.38
671.475	72.38
671.677	95.38
671.88	76.38
672.082	86.38
672.284	93.38
672.487	88.38
672.689	86.38
672.892	65.38
