Data from 1971.PennyLincolnUp.Lamp.En5.5.200Scan.071719.P1._HRD10591_15-21-00-842.txt Node
Date: Thu Jul 18 15:21:00 EDT 2019
User: cochatt
Spectrometer: HR+D1059
Trigger mode: 1
Integration Time (sec): 1.000000E-1
Scans to average: 1
Electric dark correction enabled: true
Nonlinearity correction enabled: false
Boxcar width: 0
XAxis mode: Wavelengths
Number of Pixels in Spectrum: 2048
>>>>>Begin Spectral Data<<<<<
223.165	-25.62
223.4	-25.62
223.635	-25.62
223.869	-22.62
224.104	-10.62
224.338	-10.62
224.573	-21.62
224.808	-9.62
225.042	-3.62
225.277	-13.62
225.511	-8.62
225.746	0.38
225.98	17.38
226.215	3.38
226.449	13.38
226.683	26.38
226.918	36.38
227.152	29.38
227.387	35.38
227.621	41.38
227.856	51.38
228.09	44.38
228.324	61.38
228.559	53.38
228.793	62.38
229.027	93.38
229.262	93.38
229.496	99.38
229.73	116.38
229.964	145.38
230.199	124.38
230.433	100.38
230.667	101.38
230.901	117.38
231.136	105.38
231.37	114.38
231.604	105.38
231.838	107.38
232.072	110.38
232.306	117.38
232.541	112.38
232.775	116.38
233.009	104.38
233.243	111.38
233.477	113.38
233.711	108.38
233.945	127.38
234.179	117.38
234.413	122.38
234.647	115.38
234.881	107.38
235.115	118.38
235.349	110.38
235.583	129.38
235.817	126.38
236.051	103.38
236.285	120.38
236.519	122.38
236.753	122.38
236.987	140.38
237.221	161.38
237.455	199.38
237.689	173.38
237.922	147.38
238.156	142.38
238.39	128.38
238.624	118.38
238.858	112.38
239.091	121.38
239.325	126.38
239.559	127.38
239.793	114.38
240.027	140.38
240.26	139.38
240.494	147.38
240.728	151.38
240.961	143.38
241.195	149.38
241.429	136.38
241.662	143.38
241.896	137.38
242.13	129.38
242.363	145.38
242.597	133.38
242.83	134.38
243.064	148.38
243.298	131.38
243.531	127.38
243.765	130.38
243.998	145.38
244.232	161.38
244.465	140.38
244.699	149.38
244.932	141.38
245.166	119.38
245.399	143.38
245.633	144.38
245.866	138.38
246.099	148.38
246.333	155.38
246.566	141.38
246.8	157.38
247.033	167.38
247.266	158.38
247.5	178.38
247.733	162.38
247.966	168.38
248.2	169.38
248.433	169.38
248.666	161.38
248.899	189.38
249.133	183.38
249.366	178.38
249.599	196.38
249.832	189.38
250.066	187.38
250.299	194.38
250.532	188.38
250.765	211.38
250.998	231.38
251.231	244.38
251.465	214.38
251.698	206.38
251.931	205.38
252.164	207.38
252.397	214.38
252.63	217.38
252.863	211.38
253.096	215.38
253.329	214.38
253.562	219.38
253.795	228.38
254.028	225.38
254.261	204.38
254.494	222.38
254.727	255.38
254.96	267.38
255.193	276.38
255.426	254.38
255.659	235.38
255.892	239.38
256.124	234.38
256.357	235.38
256.59	228.38
256.823	227.38
257.056	221.38
257.289	220.38
257.521	223.38
257.754	204.38
257.987	218.38
258.22	219.38
258.452	218.38
258.685	222.38
258.918	233.38
259.151	229.38
259.383	224.38
259.616	239.38
259.849	232.38
260.081	223.38
260.314	251.38
260.547	263.38
260.779	247.38
261.012	243.38
261.244	247.38
261.477	237.38
261.71	230.38
261.942	232.38
262.175	237.38
262.407	248.38
262.64	207.38
262.872	210.38
263.105	221.38
263.337	213.38
263.57	216.38
263.802	198.38
264.035	228.38
264.267	218.38
264.499	223.38
264.732	225.38
264.964	222.38
265.197	219.38
265.429	229.38
265.661	237.38
265.894	211.38
266.126	210.38
266.358	220.38
266.591	212.38
266.823	221.38
267.055	215.38
267.287	227.38
267.52	236.38
267.752	225.38
267.984	226.38
268.216	233.38
268.448	246.38
268.681	258.38
268.913	237.38
269.145	251.38
269.377	293.38
269.609	277.38
269.841	276.38
270.073	307.38
270.306	307.38
270.538	281.38
270.77	331.38
271.002	311.38
271.234	318.38
271.466	309.38
271.698	322.38
271.93	314.38
272.162	329.38
272.394	331.38
272.626	311.38
272.858	303.38
273.09	287.38
273.322	277.38
273.553	285.38
273.785	262.38
274.017	277.38
274.249	283.38
274.481	279.38
274.713	287.38
274.945	283.38
275.176	293.38
275.408	286.38
275.64	268.38
275.872	268.38
276.104	276.38
276.335	271.38
276.567	299.38
276.799	306.38
277.031	314.38
277.262	315.38
277.494	347.38
277.726	311.38
277.957	304.38
278.189	293.38
278.421	279.38
278.652	294.38
278.884	290.38
279.115	270.38
279.347	276.38
279.579	262.38
279.81	262.38
280.042	282.38
280.273	306.38
280.505	267.38
280.736	271.38
280.968	268.38
281.199	272.38
281.431	288.38
281.662	266.38
281.894	281.38
282.125	289.38
282.356	297.38
282.588	304.38
282.819	317.38
283.051	285.38
283.282	296.38
283.513	284.38
283.745	285.38
283.976	283.38
284.207	283.38
284.439	287.38
284.67	315.38
284.901	280.38
285.132	271.38
285.364	275.38
285.595	267.38
285.826	283.38
286.057	286.38
286.288	284.38
286.52	283.38
286.751	294.38
286.982	293.38
287.213	300.38
287.444	311.38
287.675	280.38
287.906	310.38
288.138	309.38
288.369	309.38
288.6	311.38
288.831	333.38
289.062	308.38
289.293	284.38
289.524	308.38
289.755	303.38
289.986	300.38
290.217	299.38
290.448	289.38
290.679	314.38
290.91	296.38
291.141	300.38
291.371	287.38
291.602	292.38
291.833	280.38
292.064	301.38
292.295	292.38
292.526	284.38
292.757	303.38
292.987	300.38
293.218	290.38
293.449	315.38
293.68	291.38
293.91	306.38
294.141	286.38
294.372	282.38
294.603	297.38
294.833	306.38
295.064	314.38
295.295	303.38
295.525	300.38
295.756	294.38
295.987	299.38
296.217	317.38
296.448	331.38
296.679	318.38
296.909	315.38
297.14	300.38
297.37	304.38
297.601	300.38
297.831	313.38
298.062	310.38
298.292	313.38
298.523	296.38
298.753	310.38
298.984	334.38
299.214	300.38
299.445	295.38
299.675	323.38
299.905	313.38
300.136	332.38
300.366	314.38
300.597	310.38
300.827	321.38
301.057	342.38
301.288	354.38
301.518	351.38
301.748	318.38
301.979	322.38
302.209	315.38
302.439	350.38
302.669	354.38
302.9	324.38
303.13	302.38
303.36	338.38
303.59	344.38
303.82	345.38
304.051	339.38
304.281	327.38
304.511	325.38
304.741	319.38
304.971	316.38
305.201	333.38
305.431	330.38
305.661	339.38
305.891	317.38
306.121	332.38
306.352	327.38
306.582	340.38
306.812	343.38
307.042	341.38
307.272	337.38
307.502	347.38
307.731	336.38
307.961	325.38
308.191	331.38
308.421	331.38
308.651	352.38
308.881	351.38
309.111	356.38
309.341	350.38
309.571	352.38
309.8	351.38
310.03	367.38
310.26	377.38
310.49	370.38
310.72	384.38
310.949	399.38
311.179	392.38
311.409	396.38
311.639	368.38
311.868	392.38
312.098	376.38
312.328	381.38
312.557	398.38
312.787	401.38
313.017	380.38
313.246	389.38
313.476	368.38
313.706	375.38
313.935	388.38
314.165	415.38
314.394	404.38
314.624	403.38
314.853	393.38
315.083	382.38
315.312	378.38
315.542	408.38
315.771	389.38
316.001	384.38
316.23	372.38
316.46	385.38
316.689	388.38
316.919	373.38
317.148	387.38
317.377	381.38
317.607	392.38
317.836	399.38
318.065	387.38
318.295	389.38
318.524	370.38
318.753	396.38
318.983	392.38
319.212	387.38
319.441	371.38
319.67	371.38
319.9	372.38
320.129	384.38
320.358	406.38
320.587	388.38
320.816	409.38
321.046	409.38
321.275	410.38
321.504	420.38
321.733	412.38
321.962	419.38
322.191	409.38
322.42	422.38
322.649	450.38
322.878	420.38
323.108	454.38
323.337	472.38
323.566	490.38
323.795	524.38
324.024	551.38
324.253	690.38
324.482	963.38
324.71	1435.38
324.939	1996.38
325.168	1696.38
325.397	886.38
325.626	632.38
325.855	551.38
326.084	492.38
326.313	516.38
326.542	490.38
326.77	550.38
326.999	650.38
327.228	866.38
327.457	1240.38
327.686	1453.38
327.914	1005.38
328.143	679.38
328.372	593.38
328.6	548.38
328.829	551.38
329.058	553.38
329.287	554.38
329.515	540.38
329.744	501.38
329.972	490.38
330.201	510.38
330.43	573.38
330.658	536.38
330.887	570.38
331.115	546.38
331.344	491.38
331.572	476.38
331.801	478.38
332.03	478.38
332.258	483.38
332.486	458.38
332.715	463.38
332.943	463.38
333.172	442.38
333.4	449.38
333.629	456.38
333.857	469.38
334.085	472.38
334.314	477.38
334.542	494.38
334.771	495.38
334.999	495.38
335.227	486.38
335.455	470.38
335.684	448.38
335.912	437.38
336.14	439.38
336.369	432.38
336.597	434.38
336.825	442.38
337.053	431.38
337.281	420.38
337.51	420.38
337.738	440.38
337.966	429.38
338.194	427.38
338.422	442.38
338.65	417.38
338.878	415.38
339.106	421.38
339.334	431.38
339.562	433.38
339.79	415.38
340.018	436.38
340.246	430.38
340.474	424.38
340.702	425.38
340.93	411.38
341.158	425.38
341.386	402.38
341.614	425.38
341.842	408.38
342.07	400.38
342.298	404.38
342.526	406.38
342.754	407.38
342.981	413.38
343.209	400.38
343.437	423.38
343.665	425.38
343.893	418.38
344.12	413.38
344.348	402.38
344.576	419.38
344.804	401.38
345.031	420.38
345.259	426.38
345.487	438.38
345.714	386.38
345.942	419.38
346.17	418.38
346.397	408.38
346.625	400.38
346.853	399.38
347.08	392.38
347.308	396.38
347.535	411.38
347.763	403.38
347.99	403.38
348.218	389.38
348.445	410.38
348.673	401.38
348.9	391.38
349.128	400.38
349.355	388.38
349.583	386.38
349.81	384.38
350.037	391.38
350.265	376.38
350.492	392.38
350.72	367.38
350.947	388.38
351.174	388.38
351.402	398.38
351.629	394.38
351.856	386.38
352.083	400.38
352.311	405.38
352.538	390.38
352.765	411.38
352.992	394.38
353.22	387.38
353.447	397.38
353.674	396.38
353.901	376.38
354.128	354.38
354.355	388.38
354.583	381.38
354.81	373.38
355.037	375.38
355.264	356.38
355.491	349.38
355.718	362.38
355.945	374.38
356.172	362.38
356.399	356.38
356.626	380.38
356.853	367.38
357.08	365.38
357.307	362.38
357.534	373.38
357.761	370.38
357.988	376.38
358.215	351.38
358.441	370.38
358.668	348.38
358.895	363.38
359.122	382.38
359.349	387.38
359.576	392.38
359.802	406.38
360.029	418.38
360.256	418.38
360.483	406.38
360.709	400.38
360.936	400.38
361.163	397.38
361.39	392.38
361.616	395.38
361.843	367.38
362.07	386.38
362.296	382.38
362.523	378.38
362.749	391.38
362.976	371.38
363.203	355.38
363.429	346.38
363.656	363.38
363.882	365.38
364.109	370.38
364.335	366.38
364.562	347.38
364.788	366.38
365.015	374.38
365.241	364.38
365.468	374.38
365.694	380.38
365.92	370.38
366.147	356.38
366.373	370.38
366.599	354.38
366.826	367.38
367.052	355.38
367.278	368.38
367.505	373.38
367.731	374.38
367.957	360.38
368.184	367.38
368.41	367.38
368.636	370.38
368.862	372.38
369.089	359.38
369.315	369.38
369.541	370.38
369.767	363.38
369.993	374.38
370.219	363.38
370.445	369.38
370.672	374.38
370.898	377.38
371.124	348.38
371.35	367.38
371.576	363.38
371.802	368.38
372.028	347.38
372.254	360.38
372.48	338.38
372.706	334.38
372.932	365.38
373.158	345.38
373.384	365.38
373.61	351.38
373.835	362.38
374.061	356.38
374.287	375.38
374.513	364.38
374.739	384.38
374.965	368.38
375.191	355.38
375.416	354.38
375.642	369.38
375.868	376.38
376.094	350.38
376.319	364.38
376.545	338.38
376.771	351.38
376.997	340.38
377.222	352.38
377.448	351.38
377.674	347.38
377.899	348.38
378.125	345.38
378.35	350.38
378.576	352.38
378.802	349.38
379.027	338.38
379.253	355.38
379.478	352.38
379.704	337.38
379.929	346.38
380.155	351.38
380.38	360.38
380.606	354.38
380.831	348.38
381.057	351.38
381.282	340.38
381.507	343.38
381.733	346.38
381.958	352.38
382.184	374.38
382.409	367.38
382.634	364.38
382.86	354.38
383.085	363.38
383.31	368.38
383.535	366.38
383.761	354.38
383.986	363.38
384.211	376.38
384.436	376.38
384.662	371.38
384.887	371.38
385.112	355.38
385.337	368.38
385.562	372.38
385.787	376.38
386.013	377.38
386.238	383.38
386.463	380.38
386.688	404.38
386.913	373.38
387.138	371.38
387.363	379.38
387.588	372.38
387.813	399.38
388.038	375.38
388.263	379.38
388.488	372.38
388.713	370.38
388.938	371.38
389.163	379.38
389.387	361.38
389.612	365.38
389.837	373.38
390.062	368.38
390.287	388.38
390.512	360.38
390.736	361.38
390.961	374.38
391.186	384.38
391.411	384.38
391.636	375.38
391.86	395.38
392.085	362.38
392.31	382.38
392.534	372.38
392.759	379.38
392.984	357.38
393.208	370.38
393.433	388.38
393.658	379.38
393.882	377.38
394.107	365.38
394.331	372.38
394.556	374.38
394.78	393.38
395.005	361.38
395.229	362.38
395.454	386.38
395.678	380.38
395.903	387.38
396.127	410.38
396.352	392.38
396.576	392.38
396.801	393.38
397.025	376.38
397.249	383.38
397.474	404.38
397.698	399.38
397.922	387.38
398.147	394.38
398.371	416.38
398.595	382.38
398.82	418.38
399.044	425.38
399.268	425.38
399.492	446.38
399.717	468.38
399.941	479.38
400.165	505.38
400.389	490.38
400.613	458.38
400.837	442.38
401.062	434.38
401.286	395.38
401.51	399.38
401.734	414.38
401.958	414.38
402.182	414.38
402.406	436.38
402.63	404.38
402.854	436.38
403.078	425.38
403.302	397.38
403.526	424.38
403.75	430.38
403.974	407.38
404.198	424.38
404.422	430.38
404.645	425.38
404.869	445.38
405.093	456.38
405.317	477.38
405.541	514.38
405.765	468.38
405.988	452.38
406.212	444.38
406.436	475.38
406.66	503.38
406.883	464.38
407.107	464.38
407.331	518.38
407.555	554.38
407.778	538.38
408.002	504.38
408.226	486.38
408.449	482.38
408.673	469.38
408.896	475.38
409.12	520.38
409.344	486.38
409.567	438.38
409.791	429.38
410.014	421.38
410.238	405.38
410.461	424.38
410.685	442.38
410.908	439.38
411.132	460.38
411.355	490.38
411.578	475.38
411.802	412.38
412.025	421.38
412.249	410.38
412.472	432.38
412.695	471.38
412.919	467.38
413.142	430.38
413.365	414.38
413.589	411.38
413.812	429.38
414.035	418.38
414.258	395.38
414.482	406.38
414.705	412.38
414.928	407.38
415.151	404.38
415.374	372.38
415.597	382.38
415.821	408.38
416.044	424.38
416.267	404.38
416.49	401.38
416.713	397.38
416.936	390.38
417.159	408.38
417.382	396.38
417.605	397.38
417.828	423.38
418.051	401.38
418.274	404.38
418.497	421.38
418.72	392.38
418.943	382.38
419.166	413.38
419.389	435.38
419.611	426.38
419.834	420.38
420.057	399.38
420.28	399.38
420.503	413.38
420.726	407.38
420.948	436.38
421.171	477.38
421.394	483.38
421.617	438.38
421.839	424.38
422.062	443.38
422.285	437.38
422.507	488.38
422.73	545.38
422.953	494.38
423.175	456.38
423.398	454.38
423.621	426.38
423.843	475.38
424.066	444.38
424.288	446.38
424.511	486.38
424.733	548.38
424.956	592.38
425.178	543.38
425.401	533.38
425.623	557.38
425.846	484.38
426.068	478.38
426.291	444.38
426.513	429.38
426.735	466.38
426.958	505.38
427.18	548.38
427.402	642.38
427.625	716.38
427.847	630.38
428.069	539.38
428.292	475.38
428.514	439.38
428.736	409.38
428.958	415.38
429.181	431.38
429.403	410.38
429.625	429.38
429.847	453.38
430.069	502.38
430.292	497.38
430.514	435.38
430.736	422.38
430.958	420.38
431.18	397.38
431.402	396.38
431.624	368.38
431.846	401.38
432.068	384.38
432.29	378.38
432.512	405.38
432.734	403.38
432.956	398.38
433.178	424.38
433.4	418.38
433.622	400.38
433.844	392.38
434.066	403.38
434.287	384.38
434.509	391.38
434.731	407.38
434.953	415.38
435.175	391.38
435.397	412.38
435.618	454.38
435.84	488.38
436.062	571.38
436.284	606.38
436.505	505.38
436.727	460.38
436.949	442.38
437.17	410.38
437.392	412.38
437.614	435.38
437.835	466.38
438.057	536.38
438.278	583.38
438.5	606.38
438.721	648.38
438.943	650.38
439.165	516.38
439.386	462.38
439.608	457.38
439.829	461.38
440.05	490.38
440.272	511.38
440.493	460.38
440.715	447.38
440.936	435.38
441.158	427.38
441.379	430.38
441.6	418.38
441.822	441.38
442.043	490.38
442.264	556.38
442.486	574.38
442.707	516.38
442.928	474.38
443.149	489.38
443.371	486.38
443.592	498.38
443.813	602.38
444.034	634.38
444.255	517.38
444.476	466.38
444.698	444.38
444.919	453.38
445.14	518.38
445.361	507.38
445.582	492.38
445.803	526.38
446.024	622.38
446.245	627.38
446.466	581.38
446.687	500.38
446.908	466.38
447.129	434.38
447.35	435.38
447.571	415.38
447.792	407.38
448.013	417.38
448.234	419.38
448.455	493.38
448.675	584.38
448.896	643.38
449.117	559.38
449.338	529.38
449.559	631.38
449.779	683.38
450	535.38
450.221	460.38
450.442	416.38
450.662	406.38
450.883	410.38
451.104	416.38
451.324	392.38
451.545	395.38
451.766	384.38
451.986	363.38
452.207	377.38
452.428	380.38
452.648	376.38
452.869	371.38
453.089	399.38
453.31	405.38
453.53	379.38
453.751	371.38
453.971	391.38
454.192	379.38
454.412	372.38
454.633	367.38
454.853	375.38
455.073	374.38
455.294	399.38
455.514	431.38
455.734	436.38
455.955	386.38
456.175	372.38
456.395	337.38
456.616	352.38
456.836	347.38
457.056	334.38
457.276	334.38
457.497	328.38
457.717	356.38
457.937	348.38
458.157	352.38
458.377	366.38
458.598	396.38
458.818	420.38
459.038	488.38
459.258	490.38
459.478	406.38
459.698	377.38
459.918	412.38
460.138	381.38
460.358	406.38
460.578	378.38
460.798	390.38
461.018	394.38
461.238	389.38
461.458	381.38
461.678	385.38
461.898	367.38
462.118	389.38
462.338	396.38
462.558	389.38
462.777	409.38
462.997	428.38
463.217	398.38
463.437	416.38
463.657	411.38
463.876	411.38
464.096	427.38
464.316	413.38
464.536	420.38
464.755	401.38
464.975	418.38
465.195	444.38
465.414	478.38
465.634	430.38
465.854	398.38
466.073	388.38
466.293	372.38
466.512	379.38
466.732	360.38
466.951	380.38
467.171	390.38
467.391	380.38
467.61	383.38
467.829	392.38
468.049	381.38
468.268	380.38
468.488	380.38
468.707	371.38
468.927	352.38
469.146	376.38
469.365	380.38
469.585	387.38
469.804	390.38
470.023	380.38
470.243	365.38
470.462	372.38
470.681	393.38
470.901	389.38
471.12	380.38
471.339	383.38
471.558	388.38
471.777	386.38
471.997	386.38
472.216	383.38
472.435	402.38
472.654	402.38
472.873	383.38
473.092	390.38
473.311	384.38
473.53	374.38
473.749	398.38
473.968	428.38
474.187	526.38
474.406	507.38
474.625	443.38
474.844	407.38
475.063	395.38
475.282	391.38
475.501	374.38
475.72	404.38
475.939	392.38
476.158	386.38
476.377	392.38
476.596	393.38
476.814	394.38
477.033	395.38
477.252	405.38
477.471	402.38
477.69	411.38
477.908	413.38
478.127	409.38
478.346	438.38
478.564	454.38
478.783	397.38
479.002	407.38
479.22	430.38
479.439	451.38
479.658	414.38
479.876	424.38
480.095	434.38
480.313	464.38
480.532	467.38
480.751	460.38
480.969	471.38
481.188	494.38
481.406	529.38
481.624	484.38
481.843	461.38
482.061	437.38
482.28	452.38
482.498	445.38
482.717	428.38
482.935	465.38
483.153	444.38
483.372	445.38
483.59	430.38
483.808	437.38
484.027	445.38
484.245	449.38
484.463	430.38
484.681	439.38
484.9	467.38
485.118	453.38
485.336	456.38
485.554	428.38
485.772	440.38
485.99	454.38
486.209	447.38
486.427	463.38
486.645	459.38
486.863	488.38
487.081	475.38
487.299	491.38
487.517	475.38
487.735	462.38
487.953	483.38
488.171	472.38
488.389	476.38
488.607	457.38
488.825	442.38
489.043	457.38
489.261	472.38
489.479	483.38
489.696	477.38
489.914	483.38
490.132	466.38
490.35	475.38
490.568	509.38
490.786	518.38
491.003	492.38
491.221	537.38
491.439	533.38
491.657	528.38
491.874	557.38
492.092	546.38
492.31	547.38
492.527	535.38
492.745	537.38
492.963	560.38
493.18	582.38
493.398	560.38
493.615	573.38
493.833	544.38
494.05	560.38
494.268	563.38
494.485	535.38
494.703	580.38
494.92	581.38
495.138	554.38
495.355	578.38
495.573	578.38
495.79	556.38
496.008	560.38
496.225	557.38
496.442	567.38
496.66	539.38
496.877	557.38
497.094	572.38
497.312	542.38
497.529	567.38
497.746	564.38
497.963	574.38
498.181	606.38
498.398	605.38
498.615	596.38
498.832	620.38
499.049	604.38
499.267	642.38
499.484	642.38
499.701	657.38
499.918	672.38
500.135	707.38
500.352	728.38
500.569	740.38
500.786	739.38
501.003	729.38
501.22	744.38
501.437	696.38
501.654	691.38
501.871	671.38
502.088	672.38
502.305	653.38
502.522	592.38
502.739	593.38
502.956	585.38
503.172	590.38
503.389	567.38
503.606	582.38
503.823	575.38
504.04	568.38
504.256	556.38
504.473	567.38
504.69	541.38
504.907	552.38
505.123	536.38
505.34	541.38
505.557	539.38
505.773	547.38
505.99	536.38
506.207	535.38
506.423	531.38
506.64	526.38
506.856	529.38
507.073	517.38
507.289	520.38
507.506	511.38
507.722	521.38
507.939	550.38
508.155	510.38
508.372	493.38
508.588	493.38
508.805	504.38
509.021	508.38
509.238	518.38
509.454	505.38
509.67	504.38
509.887	515.38
510.103	550.38
510.319	518.38
510.536	595.38
510.752	894.38
510.968	725.38
511.184	518.38
511.401	493.38
511.617	466.38
511.833	471.38
512.049	505.38
512.265	494.38
512.481	461.38
512.698	451.38
512.914	471.38
513.13	482.38
513.346	477.38
513.562	464.38
513.778	470.38
513.994	469.38
514.21	492.38
514.426	524.38
514.642	539.38
514.858	529.38
515.074	568.38
515.29	648.38
515.506	926.38
515.721	764.38
515.937	567.38
516.153	532.38
516.369	496.38
516.585	484.38
516.801	486.38
517.016	487.38
517.232	492.38
517.448	521.38
517.664	502.38
517.879	475.38
518.095	493.38
518.311	464.38
518.527	475.38
518.742	483.38
518.958	470.38
519.173	449.38
519.389	455.38
519.605	479.38
519.82	452.38
520.036	467.38
520.251	517.38
520.467	521.38
520.682	492.38
520.898	510.38
521.113	530.38
521.329	552.38
521.544	611.38
521.76	740.38
521.975	1150.38
522.19	1120.38
522.406	666.38
522.621	548.38
522.836	481.38
523.052	457.38
523.267	447.38
523.482	434.38
523.698	438.38
523.913	458.38
524.128	441.38
524.343	420.38
524.559	410.38
524.774	412.38
524.989	397.38
525.204	410.38
525.419	448.38
525.634	438.38
525.849	391.38
526.064	402.38
526.28	418.38
526.495	398.38
526.71	393.38
526.925	391.38
527.14	383.38
527.355	395.38
527.57	375.38
527.785	376.38
527.999	388.38
528.214	389.38
528.429	378.38
528.644	378.38
528.859	387.38
529.074	394.38
529.289	406.38
529.503	467.38
529.718	458.38
529.933	421.38
530.148	388.38
530.363	398.38
530.577	394.38
530.792	372.38
531.007	386.38
531.221	378.38
531.436	371.38
531.651	366.38
531.865	363.38
532.08	348.38
532.295	395.38
532.509	367.38
532.724	370.38
532.938	348.38
533.153	374.38
533.367	364.38
533.582	366.38
533.796	371.38
534.011	375.38
534.225	361.38
534.44	361.38
534.654	358.38
534.868	372.38
535.083	370.38
535.297	372.38
535.511	365.38
535.726	363.38
535.94	376.38
536.154	354.38
536.369	374.38
536.583	369.38
536.797	353.38
537.011	356.38
537.225	351.38
537.44	346.38
537.654	362.38
537.868	348.38
538.082	360.38
538.296	362.38
538.51	348.38
538.724	356.38
538.938	352.38
539.153	358.38
539.367	375.38
539.581	360.38
539.795	357.38
540.009	350.38
540.222	340.38
540.436	334.38
540.65	378.38
540.864	370.38
541.078	393.38
541.292	378.38
541.506	375.38
541.72	392.38
541.934	382.38
542.147	379.38
542.361	360.38
542.575	374.38
542.789	370.38
543.002	380.38
543.216	371.38
543.43	353.38
543.644	355.38
543.857	351.38
544.071	356.38
544.285	357.38
544.498	364.38
544.712	350.38
544.925	356.38
545.139	363.38
545.352	376.38
545.566	341.38
545.779	352.38
545.993	356.38
546.206	357.38
546.42	357.38
546.633	350.38
546.847	365.38
547.06	352.38
547.274	349.38
547.487	358.38
547.7	346.38
547.914	349.38
548.127	363.38
548.34	345.38
548.554	362.38
548.767	353.38
548.98	332.38
549.193	348.38
549.407	345.38
549.62	339.38
549.833	347.38
550.046	348.38
550.259	351.38
550.473	343.38
550.686	354.38
550.899	340.38
551.112	336.38
551.325	338.38
551.538	343.38
551.751	329.38
551.964	349.38
552.177	338.38
552.39	325.38
552.603	342.38
552.816	350.38
553.029	349.38
553.242	329.38
553.455	365.38
553.667	361.38
553.88	355.38
554.093	336.38
554.306	364.38
554.519	366.38
554.732	346.38
554.944	340.38
555.157	342.38
555.37	337.38
555.583	341.38
555.795	330.38
556.008	341.38
556.221	306.38
556.433	324.38
556.646	319.38
556.859	313.38
557.071	314.38
557.284	318.38
557.496	313.38
557.709	306.38
557.921	310.38
558.134	328.38
558.346	296.38
558.559	300.38
558.771	335.38
558.984	310.38
559.196	309.38
559.409	296.38
559.621	308.38
559.833	316.38
560.046	323.38
560.258	287.38
560.47	311.38
560.683	289.38
560.895	293.38
561.107	288.38
561.32	316.38
561.532	312.38
561.744	311.38
561.956	314.38
562.168	298.38
562.381	302.38
562.593	316.38
562.805	322.38
563.017	312.38
563.229	288.38
563.441	298.38
563.653	308.38
563.865	291.38
564.077	320.38
564.289	308.38
564.501	297.38
564.713	325.38
564.925	331.38
565.137	326.38
565.349	314.38
565.561	309.38
565.773	332.38
565.985	344.38
566.197	320.38
566.408	342.38
566.62	359.38
566.832	359.38
567.044	354.38
567.255	348.38
567.467	343.38
567.679	335.38
567.891	357.38
568.102	374.38
568.314	342.38
568.526	340.38
568.737	350.38
568.949	327.38
569.161	301.38
569.372	311.38
569.584	322.38
569.795	308.38
570.007	294.38
570.218	324.38
570.43	322.38
570.641	298.38
570.853	280.38
571.064	282.38
571.276	276.38
571.487	285.38
571.698	282.38
571.91	281.38
572.121	298.38
572.333	279.38
572.544	274.38
572.755	276.38
572.966	284.38
573.178	260.38
573.389	252.38
573.6	270.38
573.811	262.38
574.023	262.38
574.234	256.38
574.445	257.38
574.656	262.38
574.867	248.38
575.078	251.38
575.289	266.38
575.501	272.38
575.712	244.38
575.923	254.38
576.134	270.38
576.345	248.38
576.556	273.38
576.767	251.38
576.978	275.38
577.188	261.38
577.399	237.38
577.61	243.38
577.821	251.38
578.032	256.38
578.243	287.38
578.454	413.38
578.665	320.38
578.875	259.38
579.086	248.38
579.297	255.38
579.508	244.38
579.718	249.38
579.929	228.38
580.14	231.38
580.35	234.38
580.561	255.38
580.772	260.38
580.982	238.38
581.193	242.38
581.403	235.38
581.614	224.38
581.825	246.38
582.035	233.38
582.246	234.38
582.456	232.38
582.667	235.38
582.877	244.38
583.087	222.38
583.298	246.38
583.508	214.38
583.719	238.38
583.929	249.38
584.139	225.38
584.35	244.38
584.56	224.38
584.77	210.38
584.981	239.38
585.191	230.38
585.401	215.38
585.611	242.38
585.821	208.38
586.032	247.38
586.242	246.38
586.452	225.38
586.662	226.38
586.872	230.38
587.082	221.38
587.292	222.38
587.502	232.38
587.713	220.38
587.923	223.38
588.133	224.38
588.343	234.38
588.553	241.38
588.762	229.38
588.972	248.38
589.182	234.38
589.392	230.38
589.602	223.38
589.812	220.38
590.022	227.38
590.232	227.38
590.441	234.38
590.651	224.38
590.861	236.38
591.071	226.38
591.281	213.38
591.49	213.38
591.7	245.38
591.91	239.38
592.119	225.38
592.329	226.38
592.539	231.38
592.748	247.38
592.958	242.38
593.167	231.38
593.377	232.38
593.587	251.38
593.796	236.38
594.006	258.38
594.215	253.38
594.424	237.38
594.634	264.38
594.843	243.38
595.053	226.38
595.262	240.38
595.472	208.38
595.681	224.38
595.89	213.38
596.1	226.38
596.309	218.38
596.518	241.38
596.727	225.38
596.937	210.38
597.146	216.38
597.355	218.38
597.564	238.38
597.774	200.38
597.983	212.38
598.192	207.38
598.401	234.38
598.61	202.38
598.819	210.38
599.028	233.38
599.237	207.38
599.446	219.38
599.655	214.38
599.864	216.38
600.073	196.38
600.282	204.38
600.491	208.38
600.7	211.38
600.909	195.38
601.118	214.38
601.327	218.38
601.536	211.38
601.745	198.38
601.953	203.38
602.162	220.38
602.371	215.38
602.58	209.38
602.789	203.38
602.997	222.38
603.206	210.38
603.415	208.38
603.623	213.38
603.832	211.38
604.041	202.38
604.249	190.38
604.458	180.38
604.666	199.38
604.875	187.38
605.084	198.38
605.292	206.38
605.501	208.38
605.709	203.38
605.918	205.38
606.126	207.38
606.334	204.38
606.543	192.38
606.751	215.38
606.96	211.38
607.168	215.38
607.376	185.38
607.585	203.38
607.793	214.38
608.001	198.38
608.21	209.38
608.418	204.38
608.626	187.38
608.834	202.38
609.043	204.38
609.251	204.38
609.459	202.38
609.667	198.38
609.875	212.38
610.083	203.38
610.291	181.38
610.499	197.38
610.707	212.38
610.916	206.38
611.124	209.38
611.332	196.38
611.54	210.38
611.748	212.38
611.955	197.38
612.163	190.38
612.371	200.38
612.579	198.38
612.787	210.38
612.995	202.38
613.203	202.38
613.411	221.38
613.618	193.38
613.826	190.38
614.034	201.38
614.242	195.38
614.449	190.38
614.657	202.38
614.865	195.38
615.072	208.38
615.28	193.38
615.488	190.38
615.695	196.38
615.903	204.38
616.111	194.38
616.318	211.38
616.526	199.38
616.733	194.38
616.941	204.38
617.148	197.38
617.356	199.38
617.563	218.38
617.771	197.38
617.978	194.38
618.185	185.38
618.393	194.38
618.6	188.38
618.807	189.38
619.015	189.38
619.222	190.38
619.429	195.38
619.637	181.38
619.844	192.38
620.051	204.38
620.258	192.38
620.466	188.38
620.673	184.38
620.88	201.38
621.087	183.38
621.294	176.38
621.501	187.38
621.708	183.38
621.915	186.38
622.122	182.38
622.329	183.38
622.536	184.38
622.743	188.38
622.95	166.38
623.157	199.38
623.364	175.38
623.571	184.38
623.778	185.38
623.985	167.38
624.192	182.38
624.399	185.38
624.606	181.38
624.812	181.38
625.019	186.38
625.226	176.38
625.433	179.38
625.639	180.38
625.846	166.38
626.053	152.38
626.259	176.38
626.466	185.38
626.673	172.38
626.879	163.38
627.086	167.38
627.293	171.38
627.499	186.38
627.706	172.38
627.912	169.38
628.119	182.38
628.325	187.38
628.532	162.38
628.738	174.38
628.945	183.38
629.151	169.38
629.357	179.38
629.564	166.38
629.77	160.38
629.976	172.38
630.183	168.38
630.389	180.38
630.595	163.38
630.802	148.38
631.008	172.38
631.214	179.38
631.42	178.38
631.627	168.38
631.833	172.38
632.039	178.38
632.245	173.38
632.451	176.38
632.657	166.38
632.863	181.38
633.069	166.38
633.275	163.38
633.481	159.38
633.688	148.38
633.893	166.38
634.099	162.38
634.305	151.38
634.511	168.38
634.717	158.38
634.923	149.38
635.129	158.38
635.335	152.38
635.541	159.38
635.747	148.38
635.952	148.38
636.158	163.38
636.364	167.38
636.57	167.38
636.775	155.38
636.981	150.38
637.187	155.38
637.392	165.38
637.598	164.38
637.804	149.38
638.009	150.38
638.215	162.38
638.421	158.38
638.626	153.38
638.832	158.38
639.037	150.38
639.243	174.38
639.448	160.38
639.654	147.38
639.859	167.38
640.065	151.38
640.27	148.38
640.475	150.38
640.681	159.38
640.886	142.38
641.091	148.38
641.297	155.38
641.502	143.38
641.707	161.38
641.913	144.38
642.118	160.38
642.323	148.38
642.528	151.38
642.733	140.38
642.939	160.38
643.144	134.38
643.349	149.38
643.554	129.38
643.759	135.38
643.964	144.38
644.169	142.38
644.374	156.38
644.579	143.38
644.784	151.38
644.989	159.38
645.194	150.38
645.399	128.38
645.604	142.38
645.809	138.38
646.014	152.38
646.219	150.38
646.423	158.38
646.628	163.38
646.833	157.38
647.038	156.38
647.243	151.38
647.447	164.38
647.652	153.38
647.857	153.38
648.062	140.38
648.266	135.38
648.471	135.38
648.676	155.38
648.88	151.38
649.085	128.38
649.289	151.38
649.494	154.38
649.698	174.38
649.903	174.38
650.107	153.38
650.312	164.38
650.516	128.38
650.721	133.38
650.925	145.38
651.13	150.38
651.334	141.38
651.539	128.38
651.743	138.38
651.947	138.38
652.152	137.38
652.356	127.38
652.56	133.38
652.764	133.38
652.969	136.38
653.173	128.38
653.377	130.38
653.581	145.38
653.785	140.38
653.99	143.38
654.194	128.38
654.398	130.38
654.602	114.38
654.806	135.38
655.01	136.38
655.214	128.38
655.418	119.38
655.622	142.38
655.826	135.38
656.03	130.38
656.234	125.38
656.438	125.38
656.642	128.38
656.846	123.38
657.049	131.38
657.253	116.38
657.457	122.38
657.661	107.38
657.865	125.38
658.068	113.38
658.272	95.38
658.476	100.38
658.68	121.38
658.883	109.38
659.087	91.38
659.291	106.38
659.494	114.38
659.698	89.38
659.901	90.38
660.105	101.38
660.309	95.38
660.512	102.38
660.716	99.38
660.919	87.38
661.123	95.38
661.326	79.38
661.53	81.38
661.733	85.38
661.936	99.38
662.14	86.38
662.343	86.38
662.546	86.38
662.75	84.38
662.953	80.38
663.156	90.38
663.36	91.38
663.563	87.38
663.766	84.38
663.969	91.38
664.173	98.38
664.376	89.38
664.579	75.38
664.782	85.38
664.985	81.38
665.188	96.38
665.391	84.38
665.594	74.38
665.797	75.38
666	75.38
666.203	95.38
666.406	84.38
666.609	84.38
666.812	80.38
667.015	94.38
667.218	91.38
667.421	83.38
667.624	64.38
667.827	77.38
668.03	86.38
668.232	87.38
668.435	84.38
668.638	85.38
668.841	85.38
669.043	89.38
669.246	84.38
669.449	85.38
669.651	62.38
669.854	90.38
670.057	78.38
670.259	83.38
670.462	86.38
670.665	84.38
670.867	84.38
671.07	71.38
671.272	91.38
671.475	73.38
671.677	89.38
671.88	84.38
672.082	92.38
672.284	80.38
672.487	78.38
672.689	80.38
672.892	75.38
