Data from 1971.PennyLincolnUp.Lamp.En5.5.200Scan.071719.P1.Scan 2. Changed Angle._HRD10591_15-24-19-842.txt Node
Date: Thu Jul 18 15:24:19 EDT 2019
User: cochatt
Spectrometer: HR+D1059
Trigger mode: 1
Integration Time (sec): 1.000000E-1
Scans to average: 1
Electric dark correction enabled: true
Nonlinearity correction enabled: false
Boxcar width: 0
XAxis mode: Wavelengths
Number of Pixels in Spectrum: 2048
>>>>>Begin Spectral Data<<<<<
223.165	-16.94
223.4	-16.94
223.635	-16.94
223.869	-24.94
224.104	-15.94
224.338	-18.94
224.573	-21.94
224.808	3.06
225.042	-14.94
225.277	-8.94
225.511	-9.94
225.746	9.06
225.98	15.06
226.215	30.06
226.449	-3.94
226.683	17.06
226.918	29.06
227.152	33.06
227.387	32.06
227.621	41.06
227.856	49.06
228.09	59.06
228.324	50.06
228.559	52.06
228.793	64.06
229.027	104.06
229.262	133.06
229.496	125.06
229.73	160.06
229.964	168.06
230.199	173.06
230.433	141.06
230.667	137.06
230.901	122.06
231.136	124.06
231.37	113.06
231.604	126.06
231.838	130.06
232.072	101.06
232.306	121.06
232.541	121.06
232.775	125.06
233.009	113.06
233.243	114.06
233.477	110.06
233.711	118.06
233.945	124.06
234.179	128.06
234.413	122.06
234.647	117.06
234.881	128.06
235.115	124.06
235.349	134.06
235.583	132.06
235.817	136.06
236.051	128.06
236.285	144.06
236.519	145.06
236.753	153.06
236.987	168.06
237.221	210.06
237.455	282.06
237.689	225.06
237.922	165.06
238.156	157.06
238.39	165.06
238.624	135.06
238.858	128.06
239.091	124.06
239.325	141.06
239.559	135.06
239.793	136.06
240.027	141.06
240.26	153.06
240.494	172.06
240.728	177.06
240.961	164.06
241.195	165.06
241.429	158.06
241.662	134.06
241.896	153.06
242.13	139.06
242.363	143.06
242.597	162.06
242.83	155.06
243.064	140.06
243.298	154.06
243.531	154.06
243.765	159.06
243.998	149.06
244.232	155.06
244.465	166.06
244.699	141.06
244.932	146.06
245.166	159.06
245.399	152.06
245.633	164.06
245.866	140.06
246.099	146.06
246.333	163.06
246.566	170.06
246.8	165.06
247.033	161.06
247.266	173.06
247.5	169.06
247.733	191.06
247.966	194.06
248.2	196.06
248.433	193.06
248.666	194.06
248.899	220.06
249.133	224.06
249.366	234.06
249.599	219.06
249.832	221.06
250.066	198.06
250.299	216.06
250.532	200.06
250.765	233.06
250.998	248.06
251.231	268.06
251.465	249.06
251.698	234.06
251.931	234.06
252.164	222.06
252.397	252.06
252.63	214.06
252.863	217.06
253.096	241.06
253.329	287.06
253.562	262.06
253.795	241.06
254.028	250.06
254.261	228.06
254.494	254.06
254.727	319.06
254.96	302.06
255.193	304.06
255.426	279.06
255.659	261.06
255.892	256.06
256.124	262.06
256.357	271.06
256.59	245.06
256.823	248.06
257.056	236.06
257.289	225.06
257.521	249.06
257.754	236.06
257.987	217.06
258.22	232.06
258.452	232.06
258.685	222.06
258.918	235.06
259.151	244.06
259.383	241.06
259.616	238.06
259.849	245.06
260.081	256.06
260.314	264.06
260.547	276.06
260.779	282.06
261.012	266.06
261.244	252.06
261.477	228.06
261.71	248.06
261.942	250.06
262.175	251.06
262.407	250.06
262.64	226.06
262.872	227.06
263.105	244.06
263.337	224.06
263.57	225.06
263.802	235.06
264.035	217.06
264.267	227.06
264.499	221.06
264.732	205.06
264.964	230.06
265.197	217.06
265.429	216.06
265.661	231.06
265.894	211.06
266.126	236.06
266.358	224.06
266.591	248.06
266.823	235.06
267.055	246.06
267.287	248.06
267.52	236.06
267.752	246.06
267.984	254.06
268.216	242.06
268.448	265.06
268.681	255.06
268.913	260.06
269.145	284.06
269.377	302.06
269.609	301.06
269.841	288.06
270.073	302.06
270.306	310.06
270.538	333.06
270.77	357.06
271.002	337.06
271.234	320.06
271.466	303.06
271.698	316.06
271.93	338.06
272.162	365.06
272.394	350.06
272.626	343.06
272.858	328.06
273.09	305.06
273.322	284.06
273.553	280.06
273.785	271.06
274.017	276.06
274.249	283.06
274.481	277.06
274.713	278.06
274.945	274.06
275.176	278.06
275.408	276.06
275.64	294.06
275.872	265.06
276.104	281.06
276.335	264.06
276.567	286.06
276.799	306.06
277.031	330.06
277.262	341.06
277.494	319.06
277.726	310.06
277.957	299.06
278.189	282.06
278.421	295.06
278.652	280.06
278.884	304.06
279.115	268.06
279.347	305.06
279.579	288.06
279.81	266.06
280.042	266.06
280.273	260.06
280.505	255.06
280.736	264.06
280.968	278.06
281.199	263.06
281.431	276.06
281.662	278.06
281.894	264.06
282.125	272.06
282.356	299.06
282.588	325.06
282.819	308.06
283.051	286.06
283.282	255.06
283.513	280.06
283.745	274.06
283.976	262.06
284.207	286.06
284.439	322.06
284.67	278.06
284.901	298.06
285.132	270.06
285.364	274.06
285.595	283.06
285.826	262.06
286.057	274.06
286.288	285.06
286.52	285.06
286.751	284.06
286.982	298.06
287.213	283.06
287.444	300.06
287.675	285.06
287.906	304.06
288.138	295.06
288.369	308.06
288.6	315.06
288.831	303.06
289.062	302.06
289.293	308.06
289.524	296.06
289.755	284.06
289.986	292.06
290.217	289.06
290.448	263.06
290.679	287.06
290.91	299.06
291.141	280.06
291.371	276.06
291.602	274.06
291.833	288.06
292.064	285.06
292.295	280.06
292.526	284.06
292.757	292.06
292.987	293.06
293.218	274.06
293.449	281.06
293.68	294.06
293.91	290.06
294.141	278.06
294.372	272.06
294.603	284.06
294.833	287.06
295.064	309.06
295.295	298.06
295.525	283.06
295.756	278.06
295.987	297.06
296.217	345.06
296.448	328.06
296.679	310.06
296.909	291.06
297.14	316.06
297.37	292.06
297.601	287.06
297.831	283.06
298.062	303.06
298.292	294.06
298.523	305.06
298.753	288.06
298.984	309.06
299.214	303.06
299.445	298.06
299.675	337.06
299.905	317.06
300.136	298.06
300.366	318.06
300.597	315.06
300.827	315.06
301.057	317.06
301.288	332.06
301.518	330.06
301.748	313.06
301.979	324.06
302.209	303.06
302.439	326.06
302.669	316.06
302.9	325.06
303.13	315.06
303.36	332.06
303.59	320.06
303.82	353.06
304.051	329.06
304.281	319.06
304.511	327.06
304.741	304.06
304.971	313.06
305.201	331.06
305.431	305.06
305.661	326.06
305.891	312.06
306.121	317.06
306.352	335.06
306.582	347.06
306.812	319.06
307.042	336.06
307.272	333.06
307.502	324.06
307.731	332.06
307.961	327.06
308.191	317.06
308.421	341.06
308.651	352.06
308.881	339.06
309.111	335.06
309.341	342.06
309.571	349.06
309.8	355.06
310.03	394.06
310.26	386.06
310.49	395.06
310.72	413.06
310.949	425.06
311.179	448.06
311.409	414.06
311.639	388.06
311.868	385.06
312.098	397.06
312.328	406.06
312.557	425.06
312.787	436.06
313.017	445.06
313.246	400.06
313.476	393.06
313.706	399.06
313.935	390.06
314.165	416.06
314.394	436.06
314.624	422.06
314.853	420.06
315.083	373.06
315.312	390.06
315.542	383.06
315.771	380.06
316.001	366.06
316.23	375.06
316.46	375.06
316.689	389.06
316.919	401.06
317.148	408.06
317.377	406.06
317.607	397.06
317.836	403.06
318.065	394.06
318.295	399.06
318.524	376.06
318.753	363.06
318.983	380.06
319.212	396.06
319.441	385.06
319.67	418.06
319.9	396.06
320.129	392.06
320.358	402.06
320.587	396.06
320.816	392.06
321.046	420.06
321.275	426.06
321.504	413.06
321.733	428.06
321.962	433.06
322.191	474.06
322.42	468.06
322.649	475.06
322.878	517.06
323.108	526.06
323.337	544.06
323.566	564.06
323.795	602.06
324.024	672.06
324.253	846.06
324.482	1243.06
324.71	1940.06
324.939	2824.06
325.168	2388.06
325.397	1248.06
325.626	830.06
325.855	650.06
326.084	623.06
326.313	582.06
326.542	587.06
326.77	646.06
326.999	785.06
327.228	1106.06
327.457	1671.06
327.686	2078.06
327.914	1364.06
328.143	910.06
328.372	784.06
328.6	721.06
328.829	652.06
329.058	674.06
329.287	700.06
329.515	640.06
329.744	583.06
329.972	589.06
330.201	630.06
330.43	638.06
330.658	686.06
330.887	746.06
331.115	712.06
331.344	607.06
331.572	549.06
331.801	557.06
332.03	554.06
332.258	518.06
332.486	476.06
332.715	481.06
332.943	459.06
333.172	477.06
333.4	483.06
333.629	489.06
333.857	507.06
334.085	512.06
334.314	527.06
334.542	554.06
334.771	576.06
334.999	524.06
335.227	500.06
335.455	471.06
335.684	466.06
335.912	456.06
336.14	471.06
336.369	476.06
336.597	458.06
336.825	457.06
337.053	463.06
337.281	461.06
337.51	428.06
337.738	438.06
337.966	463.06
338.194	465.06
338.422	477.06
338.65	456.06
338.878	466.06
339.106	444.06
339.334	415.06
339.562	441.06
339.79	446.06
340.018	420.06
340.246	440.06
340.474	476.06
340.702	453.06
340.93	439.06
341.158	456.06
341.386	446.06
341.614	447.06
341.842	433.06
342.07	426.06
342.298	424.06
342.526	438.06
342.754	428.06
342.981	439.06
343.209	423.06
343.437	432.06
343.665	432.06
343.893	415.06
344.12	436.06
344.348	434.06
344.576	448.06
344.804	475.06
345.031	476.06
345.259	497.06
345.487	460.06
345.714	458.06
345.942	430.06
346.17	449.06
346.397	440.06
346.625	433.06
346.853	436.06
347.08	424.06
347.308	439.06
347.535	453.06
347.763	465.06
347.99	450.06
348.218	464.06
348.445	495.06
348.673	454.06
348.9	462.06
349.128	451.06
349.355	413.06
349.583	413.06
349.81	429.06
350.037	417.06
350.265	421.06
350.492	439.06
350.72	428.06
350.947	446.06
351.174	453.06
351.402	461.06
351.629	447.06
351.856	457.06
352.083	484.06
352.311	475.06
352.538	484.06
352.765	471.06
352.992	451.06
353.22	436.06
353.447	443.06
353.674	440.06
353.901	430.06
354.128	418.06
354.355	418.06
354.583	401.06
354.81	407.06
355.037	414.06
355.264	411.06
355.491	401.06
355.718	420.06
355.945	388.06
356.172	386.06
356.399	386.06
356.626	393.06
356.853	390.06
357.08	381.06
357.307	384.06
357.534	394.06
357.761	410.06
357.988	406.06
358.215	405.06
358.441	396.06
358.668	398.06
358.895	408.06
359.122	420.06
359.349	433.06
359.576	433.06
359.802	466.06
360.029	511.06
360.256	540.06
360.483	515.06
360.709	452.06
360.936	452.06
361.163	456.06
361.39	454.06
361.616	446.06
361.843	438.06
362.07	439.06
362.296	481.06
362.523	448.06
362.749	438.06
362.976	461.06
363.203	443.06
363.429	437.06
363.656	439.06
363.882	421.06
364.109	418.06
364.335	424.06
364.562	432.06
364.788	429.06
365.015	449.06
365.241	416.06
365.468	433.06
365.694	451.06
365.92	449.06
366.147	416.06
366.373	416.06
366.599	411.06
366.826	408.06
367.052	410.06
367.278	411.06
367.505	433.06
367.731	423.06
367.957	410.06
368.184	417.06
368.41	426.06
368.636	456.06
368.862	444.06
369.089	424.06
369.315	392.06
369.541	438.06
369.767	436.06
369.993	422.06
370.219	432.06
370.445	398.06
370.672	420.06
370.898	418.06
371.124	412.06
371.35	410.06
371.576	420.06
371.802	427.06
372.028	400.06
372.254	423.06
372.48	416.06
372.706	411.06
372.932	408.06
373.158	425.06
373.384	417.06
373.61	413.06
373.835	429.06
374.061	396.06
374.287	389.06
374.513	412.06
374.739	418.06
374.965	425.06
375.191	420.06
375.416	413.06
375.642	412.06
375.868	428.06
376.094	402.06
376.319	407.06
376.545	409.06
376.771	403.06
376.997	425.06
377.222	406.06
377.448	400.06
377.674	410.06
377.899	398.06
378.125	413.06
378.35	425.06
378.576	424.06
378.802	416.06
379.027	430.06
379.253	412.06
379.478	418.06
379.704	403.06
379.929	434.06
380.155	412.06
380.38	420.06
380.606	432.06
380.831	425.06
381.057	421.06
381.282	393.06
381.507	407.06
381.733	408.06
381.958	414.06
382.184	440.06
382.409	404.06
382.634	425.06
382.86	425.06
383.085	410.06
383.31	421.06
383.535	429.06
383.761	432.06
383.986	413.06
384.211	460.06
384.436	445.06
384.662	433.06
384.887	423.06
385.112	439.06
385.337	428.06
385.562	424.06
385.787	431.06
386.013	468.06
386.238	452.06
386.463	458.06
386.688	461.06
386.913	446.06
387.138	414.06
387.363	448.06
387.588	443.06
387.813	457.06
388.038	441.06
388.263	432.06
388.488	447.06
388.713	452.06
388.938	430.06
389.163	447.06
389.387	455.06
389.612	450.06
389.837	465.06
390.062	456.06
390.287	444.06
390.512	453.06
390.736	466.06
390.961	452.06
391.186	461.06
391.411	465.06
391.636	457.06
391.86	458.06
392.085	466.06
392.31	424.06
392.534	447.06
392.759	457.06
392.984	466.06
393.208	454.06
393.433	463.06
393.658	472.06
393.882	439.06
394.107	447.06
394.331	469.06
394.556	469.06
394.78	458.06
395.005	457.06
395.229	462.06
395.454	474.06
395.678	475.06
395.903	487.06
396.127	499.06
396.352	493.06
396.576	475.06
396.801	464.06
397.025	492.06
397.249	491.06
397.474	476.06
397.698	459.06
397.922	473.06
398.147	509.06
398.371	514.06
398.595	506.06
398.82	510.06
399.044	534.06
399.268	529.06
399.492	556.06
399.717	562.06
399.941	583.06
400.165	631.06
400.389	642.06
400.613	593.06
400.837	543.06
401.062	543.06
401.286	511.06
401.51	536.06
401.734	530.06
401.958	535.06
402.182	533.06
402.406	554.06
402.63	565.06
402.854	528.06
403.078	537.06
403.302	536.06
403.526	541.06
403.75	555.06
403.974	542.06
404.198	542.06
404.422	533.06
404.645	537.06
404.869	549.06
405.093	589.06
405.317	648.06
405.541	654.06
405.765	610.06
405.988	592.06
406.212	584.06
406.436	641.06
406.66	633.06
406.883	602.06
407.107	608.06
407.331	662.06
407.555	749.06
407.778	746.06
408.002	683.06
408.226	619.06
408.449	604.06
408.673	614.06
408.896	652.06
409.12	679.06
409.344	666.06
409.567	564.06
409.791	581.06
410.014	558.06
410.238	545.06
410.461	551.06
410.685	582.06
410.908	564.06
411.132	625.06
411.355	649.06
411.578	599.06
411.802	565.06
412.025	547.06
412.249	564.06
412.472	600.06
412.695	635.06
412.919	618.06
413.142	570.06
413.365	542.06
413.589	534.06
413.812	502.06
414.035	544.06
414.258	516.06
414.482	513.06
414.705	530.06
414.928	515.06
415.151	520.06
415.374	516.06
415.597	520.06
415.821	535.06
416.044	495.06
416.267	492.06
416.49	511.06
416.713	504.06
416.936	504.06
417.159	516.06
417.382	510.06
417.605	519.06
417.828	543.06
418.051	576.06
418.274	538.06
418.497	527.06
418.72	529.06
418.943	523.06
419.166	562.06
419.389	581.06
419.611	576.06
419.834	561.06
420.057	571.06
420.28	543.06
420.503	546.06
420.726	564.06
420.948	581.06
421.171	619.06
421.394	653.06
421.617	605.06
421.839	553.06
422.062	549.06
422.285	593.06
422.507	634.06
422.73	752.06
422.953	707.06
423.175	624.06
423.398	590.06
423.621	577.06
423.843	614.06
424.066	605.06
424.288	612.06
424.511	628.06
424.733	694.06
424.956	773.06
425.178	784.06
425.401	753.06
425.623	778.06
425.846	656.06
426.068	642.06
426.291	612.06
426.513	634.06
426.735	631.06
426.958	690.06
427.18	788.06
427.402	928.06
427.625	998.06
427.847	925.06
428.069	811.06
428.292	710.06
428.514	666.06
428.736	634.06
428.958	591.06
429.181	589.06
429.403	607.06
429.625	595.06
429.847	631.06
430.069	729.06
430.292	701.06
430.514	620.06
430.736	565.06
430.958	565.06
431.18	546.06
431.402	564.06
431.624	548.06
431.846	536.06
432.068	531.06
432.29	541.06
432.512	542.06
432.734	568.06
432.956	545.06
433.178	555.06
433.4	585.06
433.622	548.06
433.844	550.06
434.066	552.06
434.287	533.06
434.509	536.06
434.731	552.06
434.953	536.06
435.175	568.06
435.397	623.06
435.618	635.06
435.84	658.06
436.062	786.06
436.284	841.06
436.505	706.06
436.727	640.06
436.949	610.06
437.17	560.06
437.392	575.06
437.614	610.06
437.835	657.06
438.057	786.06
438.278	898.06
438.5	839.06
438.721	926.06
438.943	905.06
439.165	730.06
439.386	673.06
439.608	671.06
439.829	640.06
440.05	713.06
440.272	760.06
440.493	706.06
440.715	646.06
440.936	604.06
441.158	570.06
441.379	594.06
441.6	590.06
441.822	651.06
442.043	694.06
442.264	762.06
442.486	813.06
442.707	694.06
442.928	641.06
443.149	639.06
443.371	703.06
443.592	731.06
443.813	834.06
444.034	868.06
444.255	735.06
444.476	670.06
444.698	644.06
444.919	648.06
445.14	724.06
445.361	682.06
445.582	676.06
445.803	787.06
446.024	892.06
446.245	881.06
446.466	806.06
446.687	720.06
446.908	657.06
447.129	593.06
447.35	597.06
447.571	593.06
447.792	586.06
448.013	596.06
448.234	626.06
448.455	670.06
448.675	814.06
448.896	910.06
449.117	798.06
449.338	742.06
449.559	877.06
449.779	973.06
450	785.06
450.221	648.06
450.442	591.06
450.662	592.06
450.883	609.06
451.104	645.06
451.324	628.06
451.545	584.06
451.766	576.06
451.986	540.06
452.207	526.06
452.428	510.06
452.648	527.06
452.869	534.06
453.089	538.06
453.31	562.06
453.53	549.06
453.751	527.06
453.971	543.06
454.192	575.06
454.412	549.06
454.633	531.06
454.853	510.06
455.073	539.06
455.294	550.06
455.514	641.06
455.734	619.06
455.955	554.06
456.175	503.06
456.395	506.06
456.616	485.06
456.836	486.06
457.056	498.06
457.276	455.06
457.497	482.06
457.717	489.06
457.937	500.06
458.157	481.06
458.377	496.06
458.598	551.06
458.818	611.06
459.038	742.06
459.258	734.06
459.478	597.06
459.698	542.06
459.918	541.06
460.138	518.06
460.358	518.06
460.578	520.06
460.798	521.06
461.018	526.06
461.238	516.06
461.458	523.06
461.678	525.06
461.898	544.06
462.118	519.06
462.338	541.06
462.558	526.06
462.777	552.06
462.997	558.06
463.217	550.06
463.437	577.06
463.657	552.06
463.876	566.06
464.096	552.06
464.316	547.06
464.536	562.06
464.755	581.06
464.975	592.06
465.195	637.06
465.414	746.06
465.634	669.06
465.854	604.06
466.073	569.06
466.293	533.06
466.512	530.06
466.732	528.06
466.951	519.06
467.171	546.06
467.391	534.06
467.61	556.06
467.829	554.06
468.049	510.06
468.268	550.06
468.488	504.06
468.707	513.06
468.927	521.06
469.146	498.06
469.365	500.06
469.585	506.06
469.804	517.06
470.023	521.06
470.243	538.06
470.462	556.06
470.681	574.06
470.901	592.06
471.12	528.06
471.339	545.06
471.558	544.06
471.777	525.06
471.997	526.06
472.216	540.06
472.435	598.06
472.654	573.06
472.873	554.06
473.092	540.06
473.311	550.06
473.53	549.06
473.749	546.06
473.968	605.06
474.187	735.06
474.406	764.06
474.625	641.06
474.844	564.06
475.063	552.06
475.282	532.06
475.501	553.06
475.72	557.06
475.939	560.06
476.158	554.06
476.377	559.06
476.596	554.06
476.814	557.06
477.033	588.06
477.252	567.06
477.471	569.06
477.69	586.06
477.908	576.06
478.127	585.06
478.346	582.06
478.564	581.06
478.783	608.06
479.002	618.06
479.22	621.06
479.439	632.06
479.658	658.06
479.876	632.06
480.095	667.06
480.313	682.06
480.532	649.06
480.751	659.06
480.969	674.06
481.188	744.06
481.406	822.06
481.624	703.06
481.843	677.06
482.061	643.06
482.28	657.06
482.498	659.06
482.717	620.06
482.935	635.06
483.153	618.06
483.372	667.06
483.59	652.06
483.808	626.06
484.027	629.06
484.245	644.06
484.463	650.06
484.681	650.06
484.9	658.06
485.118	664.06
485.336	664.06
485.554	664.06
485.772	681.06
485.99	676.06
486.209	667.06
486.427	676.06
486.645	696.06
486.863	705.06
487.081	706.06
487.299	692.06
487.517	694.06
487.735	687.06
487.953	689.06
488.171	712.06
488.389	712.06
488.607	706.06
488.825	709.06
489.043	691.06
489.261	712.06
489.479	716.06
489.696	729.06
489.914	714.06
490.132	734.06
490.35	748.06
490.568	740.06
490.786	750.06
491.003	768.06
491.221	769.06
491.439	767.06
491.657	787.06
491.874	807.06
492.092	825.06
492.31	814.06
492.527	817.06
492.745	829.06
492.963	814.06
493.18	817.06
493.398	856.06
493.615	870.06
493.833	845.06
494.05	838.06
494.268	828.06
494.485	851.06
494.703	853.06
494.92	818.06
495.138	849.06
495.355	858.06
495.573	856.06
495.79	856.06
496.008	849.06
496.225	849.06
496.442	855.06
496.66	855.06
496.877	846.06
497.094	874.06
497.312	874.06
497.529	846.06
497.746	869.06
497.963	870.06
498.181	894.06
498.398	866.06
498.615	897.06
498.832	906.06
499.049	906.06
499.267	919.06
499.484	926.06
499.701	928.06
499.918	970.06
500.135	995.06
500.352	1017.06
500.569	1042.06
500.786	1051.06
501.003	1040.06
501.22	994.06
501.437	1001.06
501.654	995.06
501.871	996.06
502.088	984.06
502.305	951.06
502.522	921.06
502.739	915.06
502.956	885.06
503.172	864.06
503.389	892.06
503.606	895.06
503.823	880.06
504.04	869.06
504.256	832.06
504.473	848.06
504.69	833.06
504.907	807.06
505.123	811.06
505.34	806.06
505.557	825.06
505.773	822.06
505.99	817.06
506.207	814.06
506.423	841.06
506.64	815.06
506.856	802.06
507.073	804.06
507.289	792.06
507.506	807.06
507.722	786.06
507.939	813.06
508.155	813.06
508.372	802.06
508.588	793.06
508.805	772.06
509.021	774.06
509.238	816.06
509.454	807.06
509.67	801.06
509.887	796.06
510.103	812.06
510.319	811.06
510.536	917.06
510.752	1626.06
510.968	1322.06
511.184	840.06
511.401	772.06
511.617	775.06
511.833	772.06
512.049	768.06
512.265	750.06
512.481	744.06
512.698	725.06
512.914	760.06
513.13	756.06
513.346	737.06
513.562	744.06
513.778	763.06
513.994	764.06
514.21	785.06
514.426	818.06
514.642	872.06
514.858	929.06
515.074	992.06
515.29	1213.06
515.506	1870.06
515.721	1487.06
515.937	968.06
516.153	852.06
516.369	845.06
516.585	792.06
516.801	781.06
517.016	778.06
517.232	769.06
517.448	738.06
517.664	747.06
517.879	735.06
518.095	728.06
518.311	734.06
518.527	734.06
518.742	735.06
518.958	747.06
519.173	746.06
519.389	743.06
519.605	735.06
519.82	757.06
520.036	798.06
520.251	792.06
520.467	837.06
520.682	844.06
520.898	849.06
521.113	913.06
521.329	978.06
521.544	1106.06
521.76	1447.06
521.975	2462.06
522.19	2414.06
522.406	1275.06
522.621	932.06
522.836	812.06
523.052	790.06
523.267	752.06
523.482	713.06
523.698	710.06
523.913	682.06
524.128	685.06
524.343	689.06
524.559	676.06
524.774	654.06
524.989	649.06
525.204	659.06
525.419	657.06
525.634	648.06
525.849	646.06
526.064	632.06
526.28	629.06
526.495	620.06
526.71	620.06
526.925	577.06
527.14	595.06
527.355	624.06
527.57	586.06
527.785	600.06
527.999	604.06
528.214	614.06
528.429	593.06
528.644	621.06
528.859	607.06
529.074	588.06
529.289	651.06
529.503	778.06
529.718	756.06
529.933	668.06
530.148	611.06
530.363	617.06
530.577	573.06
530.792	573.06
531.007	558.06
531.221	587.06
531.436	568.06
531.651	569.06
531.865	586.06
532.08	549.06
532.295	545.06
532.509	551.06
532.724	563.06
532.938	574.06
533.153	557.06
533.367	550.06
533.582	550.06
533.796	571.06
534.011	561.06
534.225	543.06
534.44	530.06
534.654	549.06
534.868	545.06
535.083	535.06
535.297	552.06
535.511	552.06
535.726	573.06
535.94	580.06
536.154	540.06
536.369	566.06
536.583	527.06
536.797	516.06
537.011	530.06
537.225	529.06
537.44	536.06
537.654	528.06
537.868	534.06
538.082	550.06
538.296	561.06
538.51	554.06
538.724	557.06
538.938	550.06
539.153	544.06
539.367	554.06
539.581	594.06
539.795	553.06
540.009	543.06
540.222	536.06
540.436	547.06
540.65	527.06
540.864	558.06
541.078	556.06
541.292	574.06
541.506	546.06
541.72	535.06
541.934	541.06
542.147	529.06
542.361	524.06
542.575	522.06
542.789	538.06
543.002	522.06
543.216	540.06
543.43	540.06
543.644	532.06
543.857	521.06
544.071	520.06
544.285	530.06
544.498	528.06
544.712	549.06
544.925	533.06
545.139	528.06
545.352	518.06
545.566	514.06
545.779	515.06
545.993	501.06
546.206	517.06
546.42	520.06
546.633	516.06
546.847	521.06
547.06	511.06
547.274	490.06
547.487	500.06
547.7	518.06
547.914	517.06
548.127	492.06
548.34	493.06
548.554	506.06
548.767	522.06
548.98	504.06
549.193	506.06
549.407	504.06
549.62	503.06
549.833	507.06
550.046	487.06
550.259	482.06
550.473	489.06
550.686	492.06
550.899	497.06
551.112	489.06
551.325	482.06
551.538	475.06
551.751	481.06
551.964	479.06
552.177	478.06
552.39	468.06
552.603	507.06
552.816	480.06
553.029	489.06
553.242	474.06
553.455	490.06
553.667	511.06
553.88	525.06
554.093	492.06
554.306	527.06
554.519	498.06
554.732	504.06
554.944	496.06
555.157	479.06
555.37	471.06
555.583	482.06
555.795	482.06
556.008	464.06
556.221	485.06
556.433	464.06
556.646	452.06
556.859	453.06
557.071	461.06
557.284	460.06
557.496	462.06
557.709	473.06
557.921	436.06
558.134	446.06
558.346	439.06
558.559	449.06
558.771	469.06
558.984	450.06
559.196	452.06
559.409	448.06
559.621	443.06
559.833	449.06
560.046	453.06
560.258	440.06
560.47	409.06
560.683	432.06
560.895	440.06
561.107	445.06
561.32	440.06
561.532	442.06
561.744	444.06
561.956	455.06
562.168	443.06
562.381	440.06
562.593	458.06
562.805	456.06
563.017	447.06
563.229	463.06
563.441	457.06
563.653	445.06
563.865	463.06
564.077	445.06
564.289	454.06
564.501	442.06
564.713	455.06
564.925	462.06
565.137	473.06
565.349	465.06
565.561	447.06
565.773	481.06
565.985	461.06
566.197	493.06
566.408	481.06
566.62	476.06
566.832	497.06
567.044	479.06
567.255	507.06
567.467	510.06
567.679	515.06
567.891	500.06
568.102	490.06
568.314	514.06
568.526	488.06
568.737	497.06
568.949	463.06
569.161	464.06
569.372	467.06
569.584	430.06
569.795	430.06
570.007	446.06
570.218	505.06
570.43	512.06
570.641	440.06
570.853	428.06
571.064	418.06
571.276	423.06
571.487	411.06
571.698	397.06
571.91	390.06
572.121	402.06
572.333	406.06
572.544	400.06
572.755	392.06
572.966	378.06
573.178	381.06
573.389	385.06
573.6	382.06
573.811	393.06
574.023	379.06
574.234	373.06
574.445	374.06
574.656	372.06
574.867	353.06
575.078	385.06
575.289	367.06
575.501	376.06
575.712	361.06
575.923	380.06
576.134	368.06
576.345	377.06
576.556	365.06
576.767	362.06
576.978	368.06
577.188	380.06
577.399	377.06
577.61	374.06
577.821	375.06
578.032	390.06
578.243	431.06
578.454	760.06
578.665	553.06
578.875	389.06
579.086	356.06
579.297	354.06
579.508	347.06
579.718	361.06
579.929	342.06
580.14	369.06
580.35	359.06
580.561	349.06
580.772	350.06
580.982	334.06
581.193	360.06
581.403	353.06
581.614	346.06
581.825	325.06
582.035	356.06
582.246	333.06
582.456	337.06
582.667	332.06
582.877	335.06
583.087	342.06
583.298	341.06
583.508	346.06
583.719	335.06
583.929	348.06
584.139	342.06
584.35	325.06
584.56	325.06
584.77	333.06
584.981	324.06
585.191	338.06
585.401	348.06
585.611	347.06
585.821	338.06
586.032	338.06
586.242	331.06
586.452	339.06
586.662	324.06
586.872	312.06
587.082	330.06
587.292	340.06
587.502	341.06
587.713	331.06
587.923	323.06
588.133	320.06
588.343	329.06
588.553	313.06
588.762	339.06
588.972	317.06
589.182	350.06
589.392	328.06
589.602	327.06
589.812	334.06
590.022	316.06
590.232	327.06
590.441	328.06
590.651	312.06
590.861	321.06
591.071	326.06
591.281	330.06
591.49	321.06
591.7	319.06
591.91	315.06
592.119	342.06
592.329	325.06
592.539	335.06
592.748	350.06
592.958	325.06
593.167	311.06
593.377	338.06
593.587	356.06
593.796	345.06
594.006	342.06
594.215	330.06
594.424	329.06
594.634	334.06
594.843	336.06
595.053	328.06
595.262	330.06
595.472	337.06
595.681	345.06
595.89	315.06
596.1	325.06
596.309	322.06
596.518	311.06
596.727	327.06
596.937	324.06
597.146	324.06
597.355	315.06
597.564	316.06
597.774	301.06
597.983	280.06
598.192	295.06
598.401	316.06
598.61	310.06
598.819	312.06
599.028	294.06
599.237	295.06
599.446	312.06
599.655	286.06
599.864	309.06
600.073	288.06
600.282	284.06
600.491	303.06
600.7	286.06
600.909	294.06
601.118	309.06
601.327	305.06
601.536	287.06
601.745	297.06
601.953	276.06
602.162	300.06
602.371	298.06
602.58	297.06
602.789	298.06
602.997	281.06
603.206	305.06
603.415	292.06
603.623	288.06
603.832	293.06
604.041	289.06
604.249	295.06
604.458	305.06
604.666	288.06
604.875	262.06
605.084	269.06
605.292	274.06
605.501	290.06
605.709	293.06
605.918	294.06
606.126	284.06
606.334	278.06
606.543	296.06
606.751	261.06
606.96	280.06
607.168	284.06
607.376	282.06
607.585	281.06
607.793	280.06
608.001	244.06
608.21	260.06
608.418	275.06
608.626	280.06
608.834	294.06
609.043	275.06
609.251	272.06
609.459	271.06
609.667	273.06
609.875	270.06
610.083	278.06
610.291	263.06
610.499	259.06
610.707	279.06
610.916	282.06
611.124	275.06
611.332	282.06
611.54	289.06
611.748	277.06
611.955	295.06
612.163	271.06
612.371	270.06
612.579	255.06
612.787	268.06
612.995	278.06
613.203	260.06
613.411	277.06
613.618	282.06
613.826	270.06
614.034	246.06
614.242	265.06
614.449	286.06
614.657	256.06
614.865	249.06
615.072	249.06
615.28	263.06
615.488	279.06
615.695	268.06
615.903	263.06
616.111	254.06
616.318	264.06
616.526	268.06
616.733	272.06
616.941	277.06
617.148	272.06
617.356	272.06
617.563	279.06
617.771	272.06
617.978	257.06
618.185	268.06
618.393	269.06
618.6	246.06
618.807	281.06
619.015	261.06
619.222	277.06
619.429	277.06
619.637	250.06
619.844	253.06
620.051	251.06
620.258	248.06
620.466	269.06
620.673	250.06
620.88	239.06
621.087	246.06
621.294	248.06
621.501	263.06
621.708	260.06
621.915	243.06
622.122	237.06
622.329	252.06
622.536	252.06
622.743	234.06
622.95	253.06
623.157	227.06
623.364	245.06
623.571	252.06
623.778	260.06
623.985	258.06
624.192	230.06
624.399	237.06
624.606	236.06
624.812	238.06
625.019	222.06
625.226	228.06
625.433	258.06
625.639	244.06
625.846	236.06
626.053	213.06
626.259	229.06
626.466	244.06
626.673	229.06
626.879	221.06
627.086	239.06
627.293	246.06
627.499	235.06
627.706	239.06
627.912	240.06
628.119	232.06
628.325	248.06
628.532	223.06
628.738	239.06
628.945	231.06
629.151	234.06
629.357	235.06
629.564	200.06
629.77	210.06
629.976	224.06
630.183	218.06
630.389	213.06
630.595	216.06
630.802	213.06
631.008	221.06
631.214	215.06
631.42	214.06
631.627	222.06
631.833	222.06
632.039	215.06
632.245	227.06
632.451	233.06
632.657	215.06
632.863	221.06
633.069	220.06
633.275	209.06
633.481	212.06
633.688	213.06
633.893	217.06
634.099	201.06
634.305	201.06
634.511	206.06
634.717	193.06
634.923	189.06
635.129	212.06
635.335	200.06
635.541	200.06
635.747	215.06
635.952	185.06
636.158	194.06
636.364	203.06
636.57	194.06
636.775	204.06
636.981	198.06
637.187	203.06
637.392	215.06
637.598	205.06
637.804	209.06
638.009	199.06
638.215	180.06
638.421	197.06
638.626	197.06
638.832	193.06
639.037	184.06
639.243	187.06
639.448	180.06
639.654	188.06
639.859	201.06
640.065	196.06
640.27	204.06
640.475	192.06
640.681	184.06
640.886	198.06
641.091	206.06
641.297	168.06
641.502	194.06
641.707	211.06
641.913	201.06
642.118	187.06
642.323	177.06
642.528	175.06
642.733	177.06
642.939	173.06
643.144	176.06
643.349	182.06
643.554	192.06
643.759	180.06
643.964	188.06
644.169	184.06
644.374	189.06
644.579	184.06
644.784	183.06
644.989	194.06
645.194	193.06
645.399	190.06
645.604	193.06
645.809	194.06
646.014	181.06
646.219	188.06
646.423	191.06
646.628	191.06
646.833	185.06
647.038	194.06
647.243	187.06
647.447	177.06
647.652	191.06
647.857	188.06
648.062	215.06
648.266	171.06
648.471	174.06
648.676	183.06
648.88	181.06
649.085	191.06
649.289	186.06
649.494	207.06
649.698	207.06
649.903	210.06
650.107	188.06
650.312	182.06
650.516	177.06
650.721	180.06
650.925	161.06
651.13	166.06
651.334	165.06
651.539	168.06
651.743	158.06
651.947	156.06
652.152	175.06
652.356	161.06
652.56	152.06
652.764	149.06
652.969	132.06
653.173	151.06
653.377	153.06
653.581	154.06
653.785	151.06
653.99	147.06
654.194	141.06
654.398	136.06
654.602	141.06
654.806	151.06
655.01	162.06
655.214	152.06
655.418	136.06
655.622	139.06
655.826	145.06
656.03	136.06
656.234	143.06
656.438	139.06
656.642	123.06
656.846	134.06
657.049	133.06
657.253	132.06
657.457	133.06
657.661	124.06
657.865	119.06
658.068	120.06
658.272	123.06
658.476	126.06
658.68	124.06
658.883	112.06
659.087	101.06
659.291	101.06
659.494	102.06
659.698	113.06
659.901	105.06
660.105	106.06
660.309	114.06
660.512	109.06
660.716	105.06
660.919	82.06
661.123	92.06
661.326	106.06
661.53	92.06
661.733	95.06
661.936	91.06
662.14	90.06
662.343	84.06
662.546	90.06
662.75	89.06
662.953	97.06
663.156	92.06
663.36	84.06
663.563	89.06
663.766	87.06
663.969	83.06
664.173	91.06
664.376	81.06
664.579	86.06
664.782	78.06
664.985	77.06
665.188	83.06
665.391	100.06
665.594	100.06
665.797	80.06
666	92.06
666.203	99.06
666.406	97.06
666.609	93.06
666.812	84.06
667.015	81.06
667.218	81.06
667.421	92.06
667.624	81.06
667.827	81.06
668.03	87.06
668.232	82.06
668.435	83.06
668.638	89.06
668.841	80.06
669.043	93.06
669.246	88.06
669.449	89.06
669.651	90.06
669.854	78.06
670.057	76.06
670.259	88.06
670.462	83.06
670.665	81.06
670.867	88.06
671.07	81.06
671.272	82.06
671.475	90.06
671.677	90.06
671.88	89.06
672.082	85.06
672.284	89.06
672.487	78.06
672.689	92.06
672.892	89.06
