Data from 1971.PennyLincolnUp.Lamp.En5.5.200Scan.071719.P1.Scan 2. Changed Angle._HRD10591_15-23-45-842.txt Node
Date: Thu Jul 18 15:23:45 EDT 2019
User: cochatt
Spectrometer: HR+D1059
Trigger mode: 1
Integration Time (sec): 1.000000E-1
Scans to average: 1
Electric dark correction enabled: true
Nonlinearity correction enabled: false
Boxcar width: 0
XAxis mode: Wavelengths
Number of Pixels in Spectrum: 2048
>>>>>Begin Spectral Data<<<<<
223.165	-13.94
223.4	-13.94
223.635	-13.94
223.869	-21.94
224.104	-20.94
224.338	-10.94
224.573	-4.94
224.808	-19.94
225.042	-14.94
225.277	-19.94
225.511	8.06
225.746	-1.94
225.98	13.06
226.215	5.06
226.449	11.06
226.683	34.06
226.918	23.06
227.152	35.06
227.387	34.06
227.621	33.06
227.856	34.06
228.09	49.06
228.324	67.06
228.559	40.06
228.793	70.06
229.027	112.06
229.262	114.06
229.496	141.06
229.73	155.06
229.964	177.06
230.199	152.06
230.433	127.06
230.667	110.06
230.901	108.06
231.136	113.06
231.37	123.06
231.604	126.06
231.838	138.06
232.072	125.06
232.306	114.06
232.541	124.06
232.775	103.06
233.009	123.06
233.243	133.06
233.477	130.06
233.711	126.06
233.945	133.06
234.179	129.06
234.413	129.06
234.647	136.06
234.881	137.06
235.115	123.06
235.349	137.06
235.583	132.06
235.817	132.06
236.051	132.06
236.285	127.06
236.519	151.06
236.753	146.06
236.987	166.06
237.221	204.06
237.455	271.06
237.689	211.06
237.922	147.06
238.156	154.06
238.39	138.06
238.624	129.06
238.858	140.06
239.091	125.06
239.325	141.06
239.559	131.06
239.793	133.06
240.027	141.06
240.26	162.06
240.494	174.06
240.728	174.06
240.961	166.06
241.195	162.06
241.429	158.06
241.662	143.06
241.896	151.06
242.13	149.06
242.363	132.06
242.597	159.06
242.83	161.06
243.064	123.06
243.298	151.06
243.531	147.06
243.765	139.06
243.998	137.06
244.232	158.06
244.465	153.06
244.699	162.06
244.932	162.06
245.166	150.06
245.399	141.06
245.633	150.06
245.866	146.06
246.099	157.06
246.333	159.06
246.566	158.06
246.8	164.06
247.033	170.06
247.266	164.06
247.5	174.06
247.733	179.06
247.966	185.06
248.2	199.06
248.433	184.06
248.666	180.06
248.899	204.06
249.133	201.06
249.366	242.06
249.599	217.06
249.832	198.06
250.066	199.06
250.299	193.06
250.532	207.06
250.765	210.06
250.998	231.06
251.231	238.06
251.465	235.06
251.698	229.06
251.931	224.06
252.164	217.06
252.397	206.06
252.63	223.06
252.863	206.06
253.096	234.06
253.329	261.06
253.562	243.06
253.795	230.06
254.028	237.06
254.261	226.06
254.494	262.06
254.727	261.06
254.96	307.06
255.193	306.06
255.426	282.06
255.659	262.06
255.892	258.06
256.124	240.06
256.357	265.06
256.59	261.06
256.823	233.06
257.056	236.06
257.289	220.06
257.521	222.06
257.754	245.06
257.987	224.06
258.22	220.06
258.452	215.06
258.685	223.06
258.918	214.06
259.151	228.06
259.383	225.06
259.616	224.06
259.849	247.06
260.081	236.06
260.314	267.06
260.547	289.06
260.779	281.06
261.012	253.06
261.244	243.06
261.477	251.06
261.71	239.06
261.942	253.06
262.175	252.06
262.407	229.06
262.64	221.06
262.872	227.06
263.105	234.06
263.337	226.06
263.57	214.06
263.802	225.06
264.035	207.06
264.267	214.06
264.499	215.06
264.732	220.06
264.964	219.06
265.197	221.06
265.429	218.06
265.661	216.06
265.894	219.06
266.126	221.06
266.358	239.06
266.591	219.06
266.823	234.06
267.055	246.06
267.287	245.06
267.52	235.06
267.752	217.06
267.984	230.06
268.216	237.06
268.448	213.06
268.681	239.06
268.913	247.06
269.145	249.06
269.377	285.06
269.609	268.06
269.841	284.06
270.073	268.06
270.306	304.06
270.538	355.06
270.77	325.06
271.002	315.06
271.234	296.06
271.466	328.06
271.698	315.06
271.93	316.06
272.162	347.06
272.394	345.06
272.626	333.06
272.858	329.06
273.09	285.06
273.322	289.06
273.553	270.06
273.785	263.06
274.017	266.06
274.249	265.06
274.481	265.06
274.713	254.06
274.945	273.06
275.176	263.06
275.408	261.06
275.64	270.06
275.872	262.06
276.104	275.06
276.335	281.06
276.567	267.06
276.799	304.06
277.031	295.06
277.262	318.06
277.494	328.06
277.726	288.06
277.957	298.06
278.189	276.06
278.421	261.06
278.652	280.06
278.884	277.06
279.115	275.06
279.347	259.06
279.579	265.06
279.81	279.06
280.042	262.06
280.273	249.06
280.505	248.06
280.736	267.06
280.968	257.06
281.199	262.06
281.431	279.06
281.662	263.06
281.894	279.06
282.125	263.06
282.356	293.06
282.588	300.06
282.819	325.06
283.051	285.06
283.282	253.06
283.513	250.06
283.745	263.06
283.976	275.06
284.207	268.06
284.439	295.06
284.67	279.06
284.901	264.06
285.132	298.06
285.364	282.06
285.595	279.06
285.826	263.06
286.057	267.06
286.288	258.06
286.52	276.06
286.751	265.06
286.982	276.06
287.213	269.06
287.444	288.06
287.675	289.06
287.906	297.06
288.138	299.06
288.369	311.06
288.6	286.06
288.831	285.06
289.062	286.06
289.293	297.06
289.524	288.06
289.755	272.06
289.986	277.06
290.217	287.06
290.448	265.06
290.679	290.06
290.91	289.06
291.141	275.06
291.371	271.06
291.602	272.06
291.833	275.06
292.064	276.06
292.295	299.06
292.526	265.06
292.757	289.06
292.987	275.06
293.218	272.06
293.449	278.06
293.68	297.06
293.91	255.06
294.141	289.06
294.372	281.06
294.603	286.06
294.833	297.06
295.064	275.06
295.295	278.06
295.525	290.06
295.756	292.06
295.987	270.06
296.217	315.06
296.448	345.06
296.679	302.06
296.909	270.06
297.14	285.06
297.37	315.06
297.601	307.06
297.831	318.06
298.062	286.06
298.292	298.06
298.523	283.06
298.753	298.06
298.984	298.06
299.214	288.06
299.445	288.06
299.675	294.06
299.905	282.06
300.136	294.06
300.366	309.06
300.597	291.06
300.827	299.06
301.057	304.06
301.288	315.06
301.518	322.06
301.748	311.06
301.979	291.06
302.209	312.06
302.439	321.06
302.669	314.06
302.9	325.06
303.13	311.06
303.36	334.06
303.59	309.06
303.82	333.06
304.051	327.06
304.281	325.06
304.511	306.06
304.741	299.06
304.971	306.06
305.201	309.06
305.431	311.06
305.661	328.06
305.891	322.06
306.121	300.06
306.352	333.06
306.582	325.06
306.812	313.06
307.042	321.06
307.272	325.06
307.502	315.06
307.731	337.06
307.961	321.06
308.191	329.06
308.421	325.06
308.651	327.06
308.881	333.06
309.111	325.06
309.341	325.06
309.571	334.06
309.8	359.06
310.03	358.06
310.26	364.06
310.49	357.06
310.72	375.06
310.949	403.06
311.179	413.06
311.409	393.06
311.639	387.06
311.868	379.06
312.098	371.06
312.328	401.06
312.557	392.06
312.787	429.06
313.017	426.06
313.246	387.06
313.476	376.06
313.706	381.06
313.935	380.06
314.165	385.06
314.394	390.06
314.624	413.06
314.853	395.06
315.083	374.06
315.312	364.06
315.542	352.06
315.771	368.06
316.001	362.06
316.23	384.06
316.46	381.06
316.689	377.06
316.919	368.06
317.148	383.06
317.377	408.06
317.607	385.06
317.836	378.06
318.065	381.06
318.295	387.06
318.524	363.06
318.753	375.06
318.983	395.06
319.212	340.06
319.441	373.06
319.67	389.06
319.9	377.06
320.129	355.06
320.358	391.06
320.587	388.06
320.816	386.06
321.046	389.06
321.275	389.06
321.504	417.06
321.733	415.06
321.962	423.06
322.191	431.06
322.42	434.06
322.649	451.06
322.878	474.06
323.108	483.06
323.337	507.06
323.566	558.06
323.795	590.06
324.024	653.06
324.253	781.06
324.482	1172.06
324.71	1777.06
324.939	2554.06
325.168	2185.06
325.397	1145.06
325.626	753.06
325.855	590.06
326.084	555.06
326.313	551.06
326.542	534.06
326.77	603.06
326.999	708.06
327.228	995.06
327.457	1592.06
327.686	1931.06
327.914	1291.06
328.143	838.06
328.372	741.06
328.6	672.06
328.829	624.06
329.058	613.06
329.287	662.06
329.515	631.06
329.744	557.06
329.972	535.06
330.201	590.06
330.43	622.06
330.658	651.06
330.887	704.06
331.115	650.06
331.344	574.06
331.572	530.06
331.801	491.06
332.03	509.06
332.258	491.06
332.486	451.06
332.715	439.06
332.943	483.06
333.172	457.06
333.4	463.06
333.629	482.06
333.857	464.06
334.085	501.06
334.314	503.06
334.542	553.06
334.771	569.06
334.999	491.06
335.227	487.06
335.455	462.06
335.684	440.06
335.912	426.06
336.14	428.06
336.369	419.06
336.597	434.06
336.825	447.06
337.053	453.06
337.281	422.06
337.51	468.06
337.738	430.06
337.966	429.06
338.194	453.06
338.422	442.06
338.65	447.06
338.878	425.06
339.106	405.06
339.334	427.06
339.562	434.06
339.79	406.06
340.018	442.06
340.246	425.06
340.474	423.06
340.702	421.06
340.93	421.06
341.158	427.06
341.386	398.06
341.614	410.06
341.842	437.06
342.07	433.06
342.298	431.06
342.526	414.06
342.754	413.06
342.981	425.06
343.209	413.06
343.437	416.06
343.665	414.06
343.893	408.06
344.12	427.06
344.348	438.06
344.576	446.06
344.804	431.06
345.031	472.06
345.259	458.06
345.487	451.06
345.714	462.06
345.942	427.06
346.17	437.06
346.397	425.06
346.625	451.06
346.853	421.06
347.08	429.06
347.308	420.06
347.535	430.06
347.763	443.06
347.99	440.06
348.218	432.06
348.445	450.06
348.673	451.06
348.9	423.06
349.128	429.06
349.355	426.06
349.583	422.06
349.81	412.06
350.037	398.06
350.265	402.06
350.492	416.06
350.72	398.06
350.947	432.06
351.174	429.06
351.402	441.06
351.629	435.06
351.856	429.06
352.083	423.06
352.311	466.06
352.538	483.06
352.765	471.06
352.992	448.06
353.22	446.06
353.447	422.06
353.674	443.06
353.901	403.06
354.128	409.06
354.355	413.06
354.583	411.06
354.81	409.06
355.037	387.06
355.264	395.06
355.491	393.06
355.718	396.06
355.945	374.06
356.172	380.06
356.399	374.06
356.626	383.06
356.853	389.06
357.08	386.06
357.307	398.06
357.534	381.06
357.761	402.06
357.988	407.06
358.215	408.06
358.441	402.06
358.668	389.06
358.895	415.06
359.122	391.06
359.349	402.06
359.576	426.06
359.802	464.06
360.029	515.06
360.256	505.06
360.483	482.06
360.709	430.06
360.936	420.06
361.163	454.06
361.39	423.06
361.616	450.06
361.843	453.06
362.07	434.06
362.296	428.06
362.523	427.06
362.749	433.06
362.976	402.06
363.203	419.06
363.429	407.06
363.656	413.06
363.882	406.06
364.109	410.06
364.335	415.06
364.562	439.06
364.788	429.06
365.015	450.06
365.241	413.06
365.468	395.06
365.694	413.06
365.92	425.06
366.147	417.06
366.373	421.06
366.599	403.06
366.826	409.06
367.052	410.06
367.278	409.06
367.505	419.06
367.731	413.06
367.957	407.06
368.184	401.06
368.41	429.06
368.636	430.06
368.862	435.06
369.089	416.06
369.315	402.06
369.541	405.06
369.767	400.06
369.993	426.06
370.219	407.06
370.445	429.06
370.672	407.06
370.898	414.06
371.124	420.06
371.35	417.06
371.576	393.06
371.802	401.06
372.028	405.06
372.254	401.06
372.48	407.06
372.706	387.06
372.932	380.06
373.158	401.06
373.384	424.06
373.61	406.06
373.835	406.06
374.061	404.06
374.287	425.06
374.513	424.06
374.739	402.06
374.965	398.06
375.191	420.06
375.416	409.06
375.642	399.06
375.868	415.06
376.094	402.06
376.319	407.06
376.545	409.06
376.771	399.06
376.997	403.06
377.222	414.06
377.448	405.06
377.674	409.06
377.899	401.06
378.125	407.06
378.35	413.06
378.576	400.06
378.802	412.06
379.027	407.06
379.253	411.06
379.478	411.06
379.704	409.06
379.929	405.06
380.155	398.06
380.38	403.06
380.606	411.06
380.831	413.06
381.057	423.06
381.282	419.06
381.507	415.06
381.733	401.06
381.958	403.06
382.184	417.06
382.409	417.06
382.634	411.06
382.86	414.06
383.085	421.06
383.31	425.06
383.535	429.06
383.761	422.06
383.986	430.06
384.211	411.06
384.436	427.06
384.662	439.06
384.887	426.06
385.112	413.06
385.337	446.06
385.562	439.06
385.787	433.06
386.013	427.06
386.238	435.06
386.463	449.06
386.688	448.06
386.913	447.06
387.138	437.06
387.363	441.06
387.588	461.06
387.813	438.06
388.038	444.06
388.263	431.06
388.488	432.06
388.713	417.06
388.938	447.06
389.163	437.06
389.387	454.06
389.612	441.06
389.837	443.06
390.062	428.06
390.287	440.06
390.512	408.06
390.736	451.06
390.961	440.06
391.186	435.06
391.411	444.06
391.636	439.06
391.86	452.06
392.085	446.06
392.31	434.06
392.534	439.06
392.759	447.06
392.984	437.06
393.208	438.06
393.433	463.06
393.658	446.06
393.882	446.06
394.107	441.06
394.331	445.06
394.556	453.06
394.78	428.06
395.005	453.06
395.229	442.06
395.454	454.06
395.678	441.06
395.903	473.06
396.127	494.06
396.352	503.06
396.576	466.06
396.801	463.06
397.025	459.06
397.249	475.06
397.474	464.06
397.698	482.06
397.922	487.06
398.147	508.06
398.371	528.06
398.595	519.06
398.82	523.06
399.044	483.06
399.268	530.06
399.492	507.06
399.717	541.06
399.941	575.06
400.165	619.06
400.389	634.06
400.613	568.06
400.837	551.06
401.062	539.06
401.286	524.06
401.51	506.06
401.734	499.06
401.958	502.06
402.182	501.06
402.406	538.06
402.63	522.06
402.854	522.06
403.078	535.06
403.302	530.06
403.526	522.06
403.75	541.06
403.974	512.06
404.198	522.06
404.422	526.06
404.645	537.06
404.869	546.06
405.093	566.06
405.317	614.06
405.541	642.06
405.765	589.06
405.988	572.06
406.212	592.06
406.436	618.06
406.66	620.06
406.883	591.06
407.107	619.06
407.331	659.06
407.555	713.06
407.778	698.06
408.002	645.06
408.226	604.06
408.449	585.06
408.673	579.06
408.896	601.06
409.12	660.06
409.344	620.06
409.567	563.06
409.791	540.06
410.014	552.06
410.238	520.06
410.461	547.06
410.685	532.06
410.908	583.06
411.132	620.06
411.355	635.06
411.578	605.06
411.802	546.06
412.025	549.06
412.249	541.06
412.472	556.06
412.695	608.06
412.919	590.06
413.142	543.06
413.365	536.06
413.589	535.06
413.812	519.06
414.035	519.06
414.258	504.06
414.482	495.06
414.705	517.06
414.928	490.06
415.151	503.06
415.374	491.06
415.597	486.06
415.821	506.06
416.044	517.06
416.267	525.06
416.49	496.06
416.713	527.06
416.936	507.06
417.159	501.06
417.382	530.06
417.605	556.06
417.828	548.06
418.051	539.06
418.274	550.06
418.497	513.06
418.72	517.06
418.943	507.06
419.166	530.06
419.389	554.06
419.611	569.06
419.834	545.06
420.057	561.06
420.28	537.06
420.503	572.06
420.726	551.06
420.948	571.06
421.171	618.06
421.394	654.06
421.617	569.06
421.839	547.06
422.062	539.06
422.285	581.06
422.507	634.06
422.73	693.06
422.953	685.06
423.175	606.06
423.398	571.06
423.621	571.06
423.843	582.06
424.066	581.06
424.288	587.06
424.511	596.06
424.733	685.06
424.956	755.06
425.178	737.06
425.401	723.06
425.623	731.06
425.846	632.06
426.068	605.06
426.291	616.06
426.513	624.06
426.735	589.06
426.958	664.06
427.18	769.06
427.402	895.06
427.625	968.06
427.847	905.06
428.069	782.06
428.292	658.06
428.514	621.06
428.736	575.06
428.958	595.06
429.181	567.06
429.403	548.06
429.625	601.06
429.847	615.06
430.069	679.06
430.292	680.06
430.514	594.06
430.736	560.06
430.958	535.06
431.18	537.06
431.402	519.06
431.624	522.06
431.846	528.06
432.068	540.06
432.29	525.06
432.512	534.06
432.734	529.06
432.956	533.06
433.178	545.06
433.4	537.06
433.622	537.06
433.844	532.06
434.066	499.06
434.287	540.06
434.509	515.06
434.731	531.06
434.953	543.06
435.175	554.06
435.397	608.06
435.618	595.06
435.84	659.06
436.062	748.06
436.284	821.06
436.505	703.06
436.727	645.06
436.949	570.06
437.17	571.06
437.392	553.06
437.614	566.06
437.835	629.06
438.057	737.06
438.278	840.06
438.5	834.06
438.721	905.06
438.943	864.06
439.165	708.06
439.386	660.06
439.608	623.06
439.829	630.06
440.05	669.06
440.272	737.06
440.493	679.06
440.715	618.06
440.936	563.06
441.158	571.06
441.379	571.06
441.6	589.06
441.822	632.06
442.043	665.06
442.264	770.06
442.486	793.06
442.707	694.06
442.928	663.06
443.149	638.06
443.371	661.06
443.592	712.06
443.813	801.06
444.034	847.06
444.255	707.06
444.476	639.06
444.698	602.06
444.919	593.06
445.14	712.06
445.361	674.06
445.582	669.06
445.803	723.06
446.024	858.06
446.245	857.06
446.466	799.06
446.687	679.06
446.908	639.06
447.129	603.06
447.35	575.06
447.571	615.06
447.792	551.06
448.013	572.06
448.234	592.06
448.455	657.06
448.675	787.06
448.896	895.06
449.117	757.06
449.338	725.06
449.559	856.06
449.779	965.06
450	755.06
450.221	651.06
450.442	604.06
450.662	586.06
450.883	564.06
451.104	592.06
451.324	577.06
451.545	580.06
451.766	538.06
451.986	510.06
452.207	521.06
452.428	497.06
452.648	508.06
452.869	532.06
453.089	509.06
453.31	554.06
453.53	520.06
453.751	483.06
453.971	522.06
454.192	529.06
454.412	522.06
454.633	522.06
454.853	512.06
455.073	516.06
455.294	540.06
455.514	627.06
455.734	605.06
455.955	531.06
456.175	502.06
456.395	480.06
456.616	489.06
456.836	465.06
457.056	479.06
457.276	469.06
457.497	482.06
457.717	483.06
457.937	482.06
458.157	482.06
458.377	467.06
458.598	530.06
458.818	592.06
459.038	690.06
459.258	688.06
459.478	590.06
459.698	517.06
459.918	536.06
460.138	544.06
460.358	540.06
460.578	532.06
460.798	534.06
461.018	535.06
461.238	498.06
461.458	498.06
461.678	477.06
461.898	508.06
462.118	499.06
462.338	523.06
462.558	543.06
462.777	528.06
462.997	539.06
463.217	539.06
463.437	540.06
463.657	544.06
463.876	554.06
464.096	523.06
464.316	533.06
464.536	564.06
464.755	574.06
464.975	568.06
465.195	637.06
465.414	738.06
465.634	661.06
465.854	600.06
466.073	551.06
466.293	539.06
466.512	523.06
466.732	507.06
466.951	525.06
467.171	515.06
467.391	497.06
467.61	529.06
467.829	522.06
468.049	534.06
468.268	517.06
468.488	521.06
468.707	512.06
468.927	503.06
469.146	490.06
469.365	501.06
469.585	506.06
469.804	506.06
470.023	543.06
470.243	550.06
470.462	540.06
470.681	558.06
470.901	526.06
471.12	531.06
471.339	535.06
471.558	545.06
471.777	536.06
471.997	507.06
472.216	525.06
472.435	578.06
472.654	546.06
472.873	511.06
473.092	519.06
473.311	518.06
473.53	527.06
473.749	523.06
473.968	600.06
474.187	708.06
474.406	733.06
474.625	603.06
474.844	553.06
475.063	557.06
475.282	537.06
475.501	523.06
475.72	547.06
475.939	531.06
476.158	553.06
476.377	553.06
476.596	526.06
476.814	562.06
477.033	558.06
477.252	569.06
477.471	549.06
477.69	554.06
477.908	535.06
478.127	559.06
478.346	549.06
478.564	578.06
478.783	559.06
479.002	589.06
479.22	580.06
479.439	623.06
479.658	631.06
479.876	645.06
480.095	630.06
480.313	674.06
480.532	634.06
480.751	627.06
480.969	657.06
481.188	712.06
481.406	791.06
481.624	672.06
481.843	665.06
482.061	630.06
482.28	652.06
482.498	631.06
482.717	627.06
482.935	616.06
483.153	642.06
483.372	626.06
483.59	635.06
483.808	638.06
484.027	635.06
484.245	635.06
484.463	638.06
484.681	664.06
484.9	655.06
485.118	653.06
485.336	641.06
485.554	667.06
485.772	640.06
485.99	647.06
486.209	639.06
486.427	658.06
486.645	649.06
486.863	697.06
487.081	695.06
487.299	689.06
487.517	686.06
487.735	665.06
487.953	670.06
488.171	677.06
488.389	687.06
488.607	675.06
488.825	696.06
489.043	685.06
489.261	675.06
489.479	699.06
489.696	674.06
489.914	697.06
490.132	711.06
490.35	727.06
490.568	721.06
490.786	730.06
491.003	731.06
491.221	742.06
491.439	778.06
491.657	774.06
491.874	770.06
492.092	795.06
492.31	798.06
492.527	821.06
492.745	834.06
492.963	815.06
493.18	814.06
493.398	849.06
493.615	814.06
493.833	797.06
494.05	811.06
494.268	849.06
494.485	805.06
494.703	816.06
494.92	866.06
495.138	816.06
495.355	799.06
495.573	826.06
495.79	821.06
496.008	823.06
496.225	827.06
496.442	831.06
496.66	818.06
496.877	816.06
497.094	810.06
497.312	823.06
497.529	857.06
497.746	855.06
497.963	812.06
498.181	877.06
498.398	881.06
498.615	878.06
498.832	900.06
499.049	867.06
499.267	879.06
499.484	899.06
499.701	899.06
499.918	938.06
500.135	967.06
500.352	972.06
500.569	987.06
500.786	1019.06
501.003	1005.06
501.22	984.06
501.437	1000.06
501.654	992.06
501.871	988.06
502.088	958.06
502.305	930.06
502.522	906.06
502.739	886.06
502.956	867.06
503.172	842.06
503.389	843.06
503.606	850.06
503.823	846.06
504.04	844.06
504.256	832.06
504.473	800.06
504.69	837.06
504.907	802.06
505.123	802.06
505.34	789.06
505.557	818.06
505.773	783.06
505.99	809.06
506.207	767.06
506.423	800.06
506.64	805.06
506.856	759.06
507.073	773.06
507.289	770.06
507.506	747.06
507.722	806.06
507.939	823.06
508.155	801.06
508.372	759.06
508.588	748.06
508.805	751.06
509.021	760.06
509.238	761.06
509.454	761.06
509.67	750.06
509.887	754.06
510.103	752.06
510.319	760.06
510.536	895.06
510.752	1527.06
510.968	1242.06
511.184	794.06
511.401	736.06
511.617	720.06
511.833	719.06
512.049	719.06
512.265	710.06
512.481	730.06
512.698	743.06
512.914	709.06
513.13	709.06
513.346	715.06
513.562	715.06
513.778	743.06
513.994	718.06
514.21	757.06
514.426	787.06
514.642	846.06
514.858	861.06
515.074	955.06
515.29	1122.06
515.506	1717.06
515.721	1405.06
515.937	924.06
516.153	824.06
516.369	795.06
516.585	735.06
516.801	751.06
517.016	747.06
517.232	710.06
517.448	715.06
517.664	741.06
517.879	729.06
518.095	726.06
518.311	727.06
518.527	686.06
518.742	715.06
518.958	730.06
519.173	698.06
519.389	735.06
519.605	709.06
519.82	722.06
520.036	752.06
520.251	768.06
520.467	802.06
520.682	783.06
520.898	816.06
521.113	852.06
521.329	907.06
521.544	1047.06
521.76	1383.06
521.975	2332.06
522.19	2288.06
522.406	1247.06
522.621	893.06
522.836	788.06
523.052	771.06
523.267	725.06
523.482	680.06
523.698	669.06
523.913	697.06
524.128	688.06
524.343	664.06
524.559	661.06
524.774	649.06
524.989	633.06
525.204	660.06
525.419	637.06
525.634	630.06
525.849	616.06
526.064	607.06
526.28	608.06
526.495	600.06
526.71	593.06
526.925	593.06
527.14	585.06
527.355	564.06
527.57	575.06
527.785	575.06
527.999	557.06
528.214	569.06
528.429	569.06
528.644	590.06
528.859	599.06
529.074	601.06
529.289	607.06
529.503	733.06
529.718	675.06
529.933	620.06
530.148	591.06
530.363	589.06
530.577	593.06
530.792	595.06
531.007	591.06
531.221	554.06
531.436	555.06
531.651	560.06
531.865	542.06
532.08	541.06
532.295	555.06
532.509	546.06
532.724	544.06
532.938	545.06
533.153	555.06
533.367	517.06
533.582	546.06
533.796	532.06
534.011	542.06
534.225	545.06
534.44	522.06
534.654	537.06
534.868	531.06
535.083	535.06
535.297	513.06
535.511	562.06
535.726	556.06
535.94	563.06
536.154	545.06
536.369	519.06
536.583	537.06
536.797	527.06
537.011	517.06
537.225	532.06
537.44	520.06
537.654	521.06
537.868	517.06
538.082	528.06
538.296	531.06
538.51	538.06
538.724	519.06
538.938	536.06
539.153	524.06
539.367	543.06
539.581	537.06
539.795	550.06
540.009	544.06
540.222	513.06
540.436	521.06
540.65	530.06
540.864	529.06
541.078	571.06
541.292	536.06
541.506	541.06
541.72	515.06
541.934	518.06
542.147	523.06
542.361	528.06
542.575	489.06
542.789	523.06
543.002	505.06
543.216	498.06
543.43	508.06
543.644	519.06
543.857	505.06
544.071	527.06
544.285	503.06
544.498	519.06
544.712	537.06
544.925	515.06
545.139	514.06
545.352	483.06
545.566	525.06
545.779	509.06
545.993	514.06
546.206	495.06
546.42	516.06
546.633	497.06
546.847	492.06
547.06	497.06
547.274	480.06
547.487	486.06
547.7	518.06
547.914	514.06
548.127	484.06
548.34	479.06
548.554	488.06
548.767	500.06
548.98	500.06
549.193	476.06
549.407	467.06
549.62	502.06
549.833	499.06
550.046	495.06
550.259	489.06
550.473	491.06
550.686	490.06
550.899	477.06
551.112	497.06
551.325	462.06
551.538	459.06
551.751	478.06
551.964	470.06
552.177	453.06
552.39	476.06
552.603	472.06
552.816	485.06
553.029	494.06
553.242	504.06
553.455	491.06
553.667	507.06
553.88	528.06
554.093	495.06
554.306	499.06
554.519	506.06
554.732	481.06
554.944	469.06
555.157	458.06
555.37	457.06
555.583	468.06
555.795	466.06
556.008	472.06
556.221	450.06
556.433	448.06
556.646	458.06
556.859	454.06
557.071	443.06
557.284	441.06
557.496	431.06
557.709	449.06
557.921	460.06
558.134	429.06
558.346	439.06
558.559	430.06
558.771	455.06
558.984	439.06
559.196	441.06
559.409	439.06
559.621	462.06
559.833	432.06
560.046	436.06
560.258	465.06
560.47	435.06
560.683	441.06
560.895	439.06
561.107	432.06
561.32	426.06
561.532	431.06
561.744	448.06
561.956	430.06
562.168	423.06
562.381	435.06
562.593	423.06
562.805	422.06
563.017	438.06
563.229	431.06
563.441	434.06
563.653	439.06
563.865	449.06
564.077	453.06
564.289	456.06
564.501	434.06
564.713	460.06
564.925	448.06
565.137	467.06
565.349	461.06
565.561	458.06
565.773	446.06
565.985	461.06
566.197	488.06
566.408	469.06
566.62	473.06
566.832	470.06
567.044	475.06
567.255	471.06
567.467	485.06
567.679	488.06
567.891	490.06
568.102	487.06
568.314	462.06
568.526	457.06
568.737	449.06
568.949	474.06
569.161	448.06
569.372	439.06
569.584	429.06
569.795	414.06
570.007	437.06
570.218	493.06
570.43	472.06
570.641	433.06
570.853	420.06
571.064	446.06
571.276	408.06
571.487	399.06
571.698	413.06
571.91	387.06
572.121	394.06
572.333	393.06
572.544	377.06
572.755	407.06
572.966	385.06
573.178	397.06
573.389	399.06
573.6	383.06
573.811	387.06
574.023	374.06
574.234	374.06
574.445	374.06
574.656	394.06
574.867	361.06
575.078	362.06
575.289	390.06
575.501	369.06
575.712	359.06
575.923	341.06
576.134	382.06
576.345	375.06
576.556	364.06
576.767	365.06
576.978	361.06
577.188	359.06
577.399	364.06
577.61	367.06
577.821	364.06
578.032	357.06
578.243	423.06
578.454	720.06
578.665	525.06
578.875	380.06
579.086	380.06
579.297	368.06
579.508	340.06
579.718	357.06
579.929	350.06
580.14	343.06
580.35	362.06
580.561	346.06
580.772	350.06
580.982	330.06
581.193	335.06
581.403	350.06
581.614	328.06
581.825	354.06
582.035	345.06
582.246	343.06
582.456	342.06
582.667	329.06
582.877	333.06
583.087	346.06
583.298	324.06
583.508	314.06
583.719	348.06
583.929	337.06
584.139	338.06
584.35	324.06
584.56	341.06
584.77	348.06
584.981	326.06
585.191	336.06
585.401	347.06
585.611	335.06
585.821	335.06
586.032	327.06
586.242	323.06
586.452	323.06
586.662	332.06
586.872	335.06
587.082	323.06
587.292	319.06
587.502	352.06
587.713	346.06
587.923	332.06
588.133	305.06
588.343	324.06
588.553	327.06
588.762	334.06
588.972	314.06
589.182	328.06
589.392	310.06
589.602	312.06
589.812	332.06
590.022	317.06
590.232	318.06
590.441	341.06
590.651	309.06
590.861	322.06
591.071	323.06
591.281	330.06
591.49	330.06
591.7	314.06
591.91	313.06
592.119	325.06
592.329	328.06
592.539	304.06
592.748	330.06
592.958	319.06
593.167	330.06
593.377	313.06
593.587	335.06
593.796	320.06
594.006	323.06
594.215	342.06
594.424	330.06
594.634	319.06
594.843	318.06
595.053	338.06
595.262	304.06
595.472	321.06
595.681	309.06
595.89	292.06
596.1	313.06
596.309	325.06
596.518	318.06
596.727	312.06
596.937	291.06
597.146	296.06
597.355	300.06
597.564	307.06
597.774	286.06
597.983	284.06
598.192	290.06
598.401	323.06
598.61	293.06
598.819	293.06
599.028	281.06
599.237	305.06
599.446	294.06
599.655	295.06
599.864	280.06
600.073	277.06
600.282	284.06
600.491	288.06
600.7	285.06
600.909	277.06
601.118	290.06
601.327	285.06
601.536	297.06
601.745	291.06
601.953	293.06
602.162	288.06
602.371	290.06
602.58	282.06
602.789	270.06
602.997	293.06
603.206	290.06
603.415	273.06
603.623	288.06
603.832	273.06
604.041	292.06
604.249	268.06
604.458	281.06
604.666	269.06
604.875	281.06
605.084	279.06
605.292	264.06
605.501	269.06
605.709	275.06
605.918	255.06
606.126	280.06
606.334	289.06
606.543	276.06
606.751	268.06
606.96	275.06
607.168	279.06
607.376	272.06
607.585	268.06
607.793	276.06
608.001	254.06
608.21	274.06
608.418	262.06
608.626	256.06
608.834	267.06
609.043	265.06
609.251	283.06
609.459	265.06
609.667	263.06
609.875	264.06
610.083	269.06
610.291	273.06
610.499	254.06
610.707	278.06
610.916	276.06
611.124	282.06
611.332	281.06
611.54	277.06
611.748	274.06
611.955	266.06
612.163	272.06
612.371	287.06
612.579	250.06
612.787	265.06
612.995	267.06
613.203	272.06
613.411	247.06
613.618	261.06
613.826	267.06
614.034	279.06
614.242	274.06
614.449	288.06
614.657	267.06
614.865	291.06
615.072	280.06
615.28	259.06
615.488	261.06
615.695	279.06
615.903	283.06
616.111	273.06
616.318	281.06
616.526	270.06
616.733	270.06
616.941	256.06
617.148	266.06
617.356	258.06
617.563	268.06
617.771	262.06
617.978	262.06
618.185	269.06
618.393	263.06
618.6	271.06
618.807	262.06
619.015	260.06
619.222	250.06
619.429	239.06
619.637	263.06
619.844	263.06
620.051	246.06
620.258	252.06
620.466	240.06
620.673	238.06
620.88	246.06
621.087	257.06
621.294	259.06
621.501	248.06
621.708	249.06
621.915	266.06
622.122	247.06
622.329	264.06
622.536	243.06
622.743	251.06
622.95	238.06
623.157	240.06
623.364	242.06
623.571	246.06
623.778	245.06
623.985	240.06
624.192	243.06
624.399	243.06
624.606	250.06
624.812	233.06
625.019	232.06
625.226	242.06
625.433	233.06
625.639	246.06
625.846	247.06
626.053	238.06
626.259	217.06
626.466	235.06
626.673	225.06
626.879	226.06
627.086	225.06
627.293	229.06
627.499	221.06
627.706	234.06
627.912	245.06
628.119	210.06
628.325	219.06
628.532	234.06
628.738	230.06
628.945	239.06
629.151	220.06
629.357	250.06
629.564	221.06
629.77	225.06
629.976	227.06
630.183	236.06
630.389	239.06
630.595	225.06
630.802	224.06
631.008	215.06
631.214	200.06
631.42	226.06
631.627	212.06
631.833	204.06
632.039	202.06
632.245	189.06
632.451	218.06
632.657	207.06
632.863	226.06
633.069	221.06
633.275	208.06
633.481	207.06
633.688	206.06
633.893	216.06
634.099	198.06
634.305	199.06
634.511	211.06
634.717	201.06
634.923	210.06
635.129	205.06
635.335	209.06
635.541	191.06
635.747	194.06
635.952	206.06
636.158	213.06
636.364	213.06
636.57	212.06
636.775	211.06
636.981	217.06
637.187	209.06
637.392	189.06
637.598	200.06
637.804	191.06
638.009	217.06
638.215	208.06
638.421	197.06
638.626	202.06
638.832	201.06
639.037	209.06
639.243	196.06
639.448	196.06
639.654	196.06
639.859	186.06
640.065	174.06
640.27	193.06
640.475	197.06
640.681	189.06
640.886	189.06
641.091	189.06
641.297	199.06
641.502	198.06
641.707	201.06
641.913	175.06
642.118	197.06
642.323	198.06
642.528	199.06
642.733	201.06
642.939	181.06
643.144	193.06
643.349	184.06
643.554	188.06
643.759	176.06
643.964	192.06
644.169	187.06
644.374	179.06
644.579	189.06
644.784	187.06
644.989	177.06
645.194	191.06
645.399	171.06
645.604	188.06
645.809	185.06
646.014	199.06
646.219	185.06
646.423	179.06
646.628	178.06
646.833	205.06
647.038	187.06
647.243	183.06
647.447	170.06
647.652	183.06
647.857	185.06
648.062	185.06
648.266	190.06
648.471	183.06
648.676	194.06
648.88	184.06
649.085	194.06
649.289	200.06
649.494	186.06
649.698	202.06
649.903	222.06
650.107	185.06
650.312	191.06
650.516	176.06
650.721	186.06
650.925	178.06
651.13	173.06
651.334	161.06
651.539	170.06
651.743	147.06
651.947	165.06
652.152	160.06
652.356	151.06
652.56	159.06
652.764	161.06
652.969	166.06
653.173	155.06
653.377	148.06
653.581	146.06
653.785	161.06
653.99	147.06
654.194	156.06
654.398	149.06
654.602	146.06
654.806	161.06
655.01	147.06
655.214	157.06
655.418	159.06
655.622	154.06
655.826	151.06
656.03	153.06
656.234	133.06
656.438	133.06
656.642	135.06
656.846	138.06
657.049	144.06
657.253	129.06
657.457	134.06
657.661	128.06
657.865	117.06
658.068	137.06
658.272	115.06
658.476	105.06
658.68	114.06
658.883	115.06
659.087	115.06
659.291	112.06
659.494	112.06
659.698	99.06
659.901	99.06
660.105	108.06
660.309	99.06
660.512	95.06
660.716	94.06
660.919	94.06
661.123	90.06
661.326	102.06
661.53	98.06
661.733	93.06
661.936	97.06
662.14	87.06
662.343	95.06
662.546	90.06
662.75	108.06
662.953	98.06
663.156	104.06
663.36	93.06
663.563	96.06
663.766	83.06
663.969	89.06
664.173	87.06
664.376	71.06
664.579	87.06
664.782	90.06
664.985	88.06
665.188	88.06
665.391	83.06
665.594	81.06
665.797	71.06
666	75.06
666.203	95.06
666.406	101.06
666.609	87.06
666.812	82.06
667.015	81.06
667.218	84.06
667.421	82.06
667.624	78.06
667.827	79.06
668.03	85.06
668.232	93.06
668.435	89.06
668.638	94.06
668.841	89.06
669.043	86.06
669.246	93.06
669.449	94.06
669.651	92.06
669.854	92.06
670.057	86.06
670.259	72.06
670.462	91.06
670.665	92.06
670.867	86.06
671.07	77.06
671.272	89.06
671.475	94.06
671.677	102.06
671.88	79.06
672.082	91.06
672.284	78.06
672.487	88.06
672.689	99.06
672.892	84.06
