Data from 1971.PennyLincolnUp.Lamp.En5.5.200Scan.071719.P1.Scan 2. Changed Angle._HRD10591_15-24-44-842.txt Node
Date: Thu Jul 18 15:24:44 EDT 2019
User: cochatt
Spectrometer: HR+D1059
Trigger mode: 1
Integration Time (sec): 1.000000E-1
Scans to average: 1
Electric dark correction enabled: true
Nonlinearity correction enabled: false
Boxcar width: 0
XAxis mode: Wavelengths
Number of Pixels in Spectrum: 2048
>>>>>Begin Spectral Data<<<<<
223.165	-10.75
223.4	-10.75
223.635	-10.75
223.869	-21.75
224.104	-28.75
224.338	-7.75
224.573	-8.75
224.808	-1.75
225.042	2.25
225.277	-12.75
225.511	5.25
225.746	-6.75
225.98	4.25
226.215	8.25
226.449	9.25
226.683	16.25
226.918	18.25
227.152	35.25
227.387	30.25
227.621	44.25
227.856	35.25
228.09	36.25
228.324	52.25
228.559	62.25
228.793	68.25
229.027	105.25
229.262	116.25
229.496	130.25
229.73	164.25
229.964	191.25
230.199	143.25
230.433	118.25
230.667	117.25
230.901	121.25
231.136	121.25
231.37	112.25
231.604	124.25
231.838	126.25
232.072	114.25
232.306	118.25
232.541	130.25
232.775	125.25
233.009	120.25
233.243	119.25
233.477	127.25
233.711	125.25
233.945	111.25
234.179	116.25
234.413	128.25
234.647	118.25
234.881	128.25
235.115	151.25
235.349	122.25
235.583	132.25
235.817	133.25
236.051	144.25
236.285	138.25
236.519	142.25
236.753	124.25
236.987	149.25
237.221	217.25
237.455	282.25
237.689	216.25
237.922	158.25
238.156	134.25
238.39	143.25
238.624	132.25
238.858	130.25
239.091	137.25
239.325	140.25
239.559	136.25
239.793	132.25
240.027	134.25
240.26	150.25
240.494	189.25
240.728	176.25
240.961	180.25
241.195	158.25
241.429	125.25
241.662	157.25
241.896	149.25
242.13	127.25
242.363	135.25
242.597	150.25
242.83	154.25
243.064	140.25
243.298	144.25
243.531	143.25
243.765	166.25
243.998	154.25
244.232	142.25
244.465	146.25
244.699	143.25
244.932	151.25
245.166	163.25
245.399	155.25
245.633	156.25
245.866	148.25
246.099	158.25
246.333	162.25
246.566	160.25
246.8	146.25
247.033	157.25
247.266	163.25
247.5	180.25
247.733	186.25
247.966	171.25
248.2	168.25
248.433	196.25
248.666	176.25
248.899	206.25
249.133	209.25
249.366	225.25
249.599	221.25
249.832	208.25
250.066	217.25
250.299	186.25
250.532	202.25
250.765	222.25
250.998	224.25
251.231	234.25
251.465	240.25
251.698	226.25
251.931	210.25
252.164	232.25
252.397	233.25
252.63	213.25
252.863	222.25
253.096	254.25
253.329	262.25
253.562	247.25
253.795	247.25
254.028	258.25
254.261	235.25
254.494	252.25
254.727	304.25
254.96	335.25
255.193	327.25
255.426	286.25
255.659	278.25
255.892	280.25
256.124	264.25
256.357	252.25
256.59	248.25
256.823	247.25
257.056	255.25
257.289	226.25
257.521	229.25
257.754	233.25
257.987	225.25
258.22	231.25
258.452	228.25
258.685	213.25
258.918	227.25
259.151	230.25
259.383	234.25
259.616	230.25
259.849	236.25
260.081	248.25
260.314	268.25
260.547	287.25
260.779	266.25
261.012	248.25
261.244	236.25
261.477	248.25
261.71	246.25
261.942	260.25
262.175	293.25
262.407	262.25
262.64	248.25
262.872	232.25
263.105	216.25
263.337	216.25
263.57	210.25
263.802	221.25
264.035	236.25
264.267	217.25
264.499	218.25
264.732	221.25
264.964	222.25
265.197	242.25
265.429	212.25
265.661	209.25
265.894	233.25
266.126	231.25
266.358	229.25
266.591	221.25
266.823	222.25
267.055	233.25
267.287	234.25
267.52	231.25
267.752	236.25
267.984	241.25
268.216	233.25
268.448	240.25
268.681	258.25
268.913	264.25
269.145	300.25
269.377	289.25
269.609	300.25
269.841	294.25
270.073	287.25
270.306	320.25
270.538	356.25
270.77	348.25
271.002	328.25
271.234	320.25
271.466	321.25
271.698	347.25
271.93	352.25
272.162	352.25
272.394	356.25
272.626	340.25
272.858	315.25
273.09	298.25
273.322	313.25
273.553	282.25
273.785	276.25
274.017	280.25
274.249	288.25
274.481	270.25
274.713	276.25
274.945	296.25
275.176	288.25
275.408	281.25
275.64	269.25
275.872	270.25
276.104	268.25
276.335	270.25
276.567	298.25
276.799	312.25
277.031	313.25
277.262	341.25
277.494	333.25
277.726	298.25
277.957	320.25
278.189	299.25
278.421	280.25
278.652	280.25
278.884	268.25
279.115	285.25
279.347	279.25
279.579	266.25
279.81	278.25
280.042	269.25
280.273	266.25
280.505	269.25
280.736	242.25
280.968	269.25
281.199	247.25
281.431	270.25
281.662	271.25
281.894	290.25
282.125	290.25
282.356	298.25
282.588	336.25
282.819	325.25
283.051	262.25
283.282	265.25
283.513	279.25
283.745	280.25
283.976	272.25
284.207	284.25
284.439	278.25
284.67	299.25
284.901	279.25
285.132	278.25
285.364	268.25
285.595	265.25
285.826	269.25
286.057	276.25
286.288	275.25
286.52	251.25
286.751	268.25
286.982	282.25
287.213	275.25
287.444	285.25
287.675	296.25
287.906	282.25
288.138	314.25
288.369	315.25
288.6	314.25
288.831	297.25
289.062	306.25
289.293	288.25
289.524	299.25
289.755	270.25
289.986	295.25
290.217	277.25
290.448	275.25
290.679	296.25
290.91	275.25
291.141	293.25
291.371	276.25
291.602	288.25
291.833	284.25
292.064	282.25
292.295	311.25
292.526	281.25
292.757	290.25
292.987	301.25
293.218	276.25
293.449	285.25
293.68	307.25
293.91	294.25
294.141	292.25
294.372	299.25
294.603	279.25
294.833	293.25
295.064	289.25
295.295	304.25
295.525	305.25
295.756	306.25
295.987	303.25
296.217	314.25
296.448	344.25
296.679	310.25
296.909	293.25
297.14	288.25
297.37	307.25
297.601	293.25
297.831	290.25
298.062	307.25
298.292	293.25
298.523	294.25
298.753	312.25
298.984	316.25
299.214	310.25
299.445	300.25
299.675	315.25
299.905	300.25
300.136	304.25
300.366	312.25
300.597	294.25
300.827	319.25
301.057	308.25
301.288	327.25
301.518	322.25
301.748	330.25
301.979	320.25
302.209	323.25
302.439	325.25
302.669	321.25
302.9	331.25
303.13	328.25
303.36	313.25
303.59	350.25
303.82	350.25
304.051	344.25
304.281	340.25
304.511	319.25
304.741	315.25
304.971	324.25
305.201	334.25
305.431	324.25
305.661	333.25
305.891	333.25
306.121	336.25
306.352	328.25
306.582	336.25
306.812	347.25
307.042	328.25
307.272	355.25
307.502	318.25
307.731	337.25
307.961	335.25
308.191	322.25
308.421	333.25
308.651	341.25
308.881	332.25
309.111	338.25
309.341	337.25
309.571	351.25
309.8	381.25
310.03	397.25
310.26	382.25
310.49	377.25
310.72	411.25
310.949	441.25
311.179	412.25
311.409	404.25
311.639	397.25
311.868	409.25
312.098	390.25
312.328	400.25
312.557	425.25
312.787	460.25
313.017	446.25
313.246	413.25
313.476	382.25
313.706	390.25
313.935	392.25
314.165	405.25
314.394	436.25
314.624	411.25
314.853	418.25
315.083	404.25
315.312	391.25
315.542	387.25
315.771	373.25
316.001	367.25
316.23	378.25
316.46	395.25
316.689	393.25
316.919	393.25
317.148	415.25
317.377	390.25
317.607	379.25
317.836	388.25
318.065	400.25
318.295	361.25
318.524	385.25
318.753	379.25
318.983	390.25
319.212	389.25
319.441	397.25
319.67	403.25
319.9	401.25
320.129	406.25
320.358	391.25
320.587	390.25
320.816	398.25
321.046	420.25
321.275	416.25
321.504	441.25
321.733	432.25
321.962	450.25
322.191	461.25
322.42	485.25
322.649	493.25
322.878	472.25
323.108	516.25
323.337	530.25
323.566	590.25
323.795	644.25
324.024	700.25
324.253	826.25
324.482	1295.25
324.71	1982.25
324.939	2844.25
325.168	2424.25
325.397	1272.25
325.626	800.25
325.855	658.25
326.084	605.25
326.313	582.25
326.542	587.25
326.77	638.25
326.999	780.25
327.228	1073.25
327.457	1724.25
327.686	2096.25
327.914	1432.25
328.143	904.25
328.372	765.25
328.6	730.25
328.829	666.25
329.058	686.25
329.287	717.25
329.515	648.25
329.744	599.25
329.972	578.25
330.201	600.25
330.43	683.25
330.658	701.25
330.887	726.25
331.115	683.25
331.344	604.25
331.572	555.25
331.801	564.25
332.03	542.25
332.258	532.25
332.486	508.25
332.715	495.25
332.943	477.25
333.172	478.25
333.4	486.25
333.629	492.25
333.857	492.25
334.085	503.25
334.314	540.25
334.542	557.25
334.771	591.25
334.999	556.25
335.227	496.25
335.455	467.25
335.684	482.25
335.912	467.25
336.14	452.25
336.369	460.25
336.597	479.25
336.825	472.25
337.053	454.25
337.281	460.25
337.51	456.25
337.738	453.25
337.966	475.25
338.194	461.25
338.422	452.25
338.65	461.25
338.878	461.25
339.106	452.25
339.334	444.25
339.562	438.25
339.79	445.25
340.018	456.25
340.246	461.25
340.474	457.25
340.702	448.25
340.93	435.25
341.158	454.25
341.386	434.25
341.614	456.25
341.842	462.25
342.07	427.25
342.298	464.25
342.526	422.25
342.754	415.25
342.981	441.25
343.209	424.25
343.437	420.25
343.665	416.25
343.893	425.25
344.12	448.25
344.348	437.25
344.576	454.25
344.804	453.25
345.031	485.25
345.259	470.25
345.487	466.25
345.714	471.25
345.942	436.25
346.17	432.25
346.397	445.25
346.625	420.25
346.853	428.25
347.08	434.25
347.308	457.25
347.535	476.25
347.763	463.25
347.99	468.25
348.218	487.25
348.445	463.25
348.673	472.25
348.9	433.25
349.128	443.25
349.355	434.25
349.583	419.25
349.81	419.25
350.037	412.25
350.265	429.25
350.492	429.25
350.72	429.25
350.947	450.25
351.174	441.25
351.402	453.25
351.629	465.25
351.856	441.25
352.083	483.25
352.311	471.25
352.538	459.25
352.765	466.25
352.992	460.25
353.22	456.25
353.447	451.25
353.674	433.25
353.901	411.25
354.128	415.25
354.355	418.25
354.583	411.25
354.81	434.25
355.037	417.25
355.264	407.25
355.491	411.25
355.718	396.25
355.945	399.25
356.172	410.25
356.399	368.25
356.626	382.25
356.853	415.25
357.08	388.25
357.307	395.25
357.534	400.25
357.761	403.25
357.988	407.25
358.215	405.25
358.441	417.25
358.668	420.25
358.895	414.25
359.122	427.25
359.349	445.25
359.576	456.25
359.802	511.25
360.029	525.25
360.256	534.25
360.483	528.25
360.709	457.25
360.936	463.25
361.163	445.25
361.39	472.25
361.616	458.25
361.843	438.25
362.07	444.25
362.296	455.25
362.523	445.25
362.749	445.25
362.976	438.25
363.203	461.25
363.429	447.25
363.656	429.25
363.882	426.25
364.109	443.25
364.335	424.25
364.562	413.25
364.788	413.25
365.015	437.25
365.241	427.25
365.468	435.25
365.694	436.25
365.92	451.25
366.147	434.25
366.373	426.25
366.599	437.25
366.826	416.25
367.052	418.25
367.278	425.25
367.505	451.25
367.731	434.25
367.957	430.25
368.184	411.25
368.41	415.25
368.636	442.25
368.862	462.25
369.089	446.25
369.315	419.25
369.541	414.25
369.767	424.25
369.993	428.25
370.219	438.25
370.445	432.25
370.672	415.25
370.898	432.25
371.124	409.25
371.35	414.25
371.576	432.25
371.802	437.25
372.028	420.25
372.254	424.25
372.48	425.25
372.706	430.25
372.932	398.25
373.158	412.25
373.384	426.25
373.61	409.25
373.835	414.25
374.061	405.25
374.287	443.25
374.513	421.25
374.739	427.25
374.965	427.25
375.191	413.25
375.416	443.25
375.642	411.25
375.868	419.25
376.094	433.25
376.319	418.25
376.545	405.25
376.771	405.25
376.997	418.25
377.222	416.25
377.448	418.25
377.674	417.25
377.899	425.25
378.125	424.25
378.35	416.25
378.576	424.25
378.802	424.25
379.027	423.25
379.253	417.25
379.478	404.25
379.704	412.25
379.929	438.25
380.155	420.25
380.38	449.25
380.606	439.25
380.831	430.25
381.057	453.25
381.282	418.25
381.507	411.25
381.733	409.25
381.958	432.25
382.184	430.25
382.409	434.25
382.634	443.25
382.86	429.25
383.085	445.25
383.31	426.25
383.535	440.25
383.761	437.25
383.986	437.25
384.211	440.25
384.436	441.25
384.662	424.25
384.887	449.25
385.112	444.25
385.337	439.25
385.562	447.25
385.787	455.25
386.013	456.25
386.238	461.25
386.463	454.25
386.688	462.25
386.913	448.25
387.138	451.25
387.363	465.25
387.588	454.25
387.813	455.25
388.038	451.25
388.263	465.25
388.488	441.25
388.713	447.25
388.938	457.25
389.163	445.25
389.387	462.25
389.612	452.25
389.837	467.25
390.062	433.25
390.287	449.25
390.512	448.25
390.736	430.25
390.961	421.25
391.186	442.25
391.411	466.25
391.636	457.25
391.86	451.25
392.085	455.25
392.31	442.25
392.534	468.25
392.759	481.25
392.984	467.25
393.208	454.25
393.433	469.25
393.658	458.25
393.882	459.25
394.107	474.25
394.331	463.25
394.556	452.25
394.78	460.25
395.005	442.25
395.229	461.25
395.454	482.25
395.678	452.25
395.903	476.25
396.127	502.25
396.352	504.25
396.576	476.25
396.801	484.25
397.025	468.25
397.249	472.25
397.474	493.25
397.698	474.25
397.922	490.25
398.147	532.25
398.371	524.25
398.595	506.25
398.82	518.25
399.044	541.25
399.268	538.25
399.492	548.25
399.717	560.25
399.941	600.25
400.165	631.25
400.389	640.25
400.613	601.25
400.837	568.25
401.062	528.25
401.286	538.25
401.51	533.25
401.734	515.25
401.958	536.25
402.182	520.25
402.406	542.25
402.63	554.25
402.854	538.25
403.078	537.25
403.302	558.25
403.526	578.25
403.75	553.25
403.974	548.25
404.198	524.25
404.422	549.25
404.645	576.25
404.869	544.25
405.093	599.25
405.317	660.25
405.541	677.25
405.765	620.25
405.988	584.25
406.212	595.25
406.436	653.25
406.66	675.25
406.883	588.25
407.107	639.25
407.331	676.25
407.555	755.25
407.778	756.25
408.002	680.25
408.226	636.25
408.449	633.25
408.673	606.25
408.896	628.25
409.12	688.25
409.344	660.25
409.567	580.25
409.791	561.25
410.014	545.25
410.238	560.25
410.461	570.25
410.685	554.25
410.908	569.25
411.132	631.25
411.355	665.25
411.578	618.25
411.802	568.25
412.025	563.25
412.249	582.25
412.472	587.25
412.695	646.25
412.919	651.25
413.142	593.25
413.365	560.25
413.589	549.25
413.812	518.25
414.035	518.25
414.258	545.25
414.482	524.25
414.705	519.25
414.928	514.25
415.151	503.25
415.374	508.25
415.597	532.25
415.821	520.25
416.044	520.25
416.267	528.25
416.49	521.25
416.713	534.25
416.936	521.25
417.159	528.25
417.382	526.25
417.605	541.25
417.828	536.25
418.051	576.25
418.274	538.25
418.497	548.25
418.72	522.25
418.943	534.25
419.166	548.25
419.389	571.25
419.611	555.25
419.834	568.25
420.057	581.25
420.28	568.25
420.503	576.25
420.726	558.25
420.948	576.25
421.171	630.25
421.394	672.25
421.617	589.25
421.839	582.25
422.062	577.25
422.285	572.25
422.507	669.25
422.73	737.25
422.953	707.25
423.175	630.25
423.398	588.25
423.621	585.25
423.843	618.25
424.066	618.25
424.288	622.25
424.511	629.25
424.733	698.25
424.956	810.25
425.178	760.25
425.401	793.25
425.623	809.25
425.846	692.25
426.068	640.25
426.291	650.25
426.513	625.25
426.735	638.25
426.958	663.25
427.18	781.25
427.402	947.25
427.625	1032.25
427.847	941.25
428.069	826.25
428.292	716.25
428.514	617.25
428.736	629.25
428.958	611.25
429.181	588.25
429.403	581.25
429.625	613.25
429.847	642.25
430.069	702.25
430.292	723.25
430.514	620.25
430.736	593.25
430.958	579.25
431.18	550.25
431.402	576.25
431.624	529.25
431.846	542.25
432.068	514.25
432.29	544.25
432.512	536.25
432.734	550.25
432.956	572.25
433.178	572.25
433.4	587.25
433.622	543.25
433.844	555.25
434.066	546.25
434.287	550.25
434.509	553.25
434.731	549.25
434.953	571.25
435.175	569.25
435.397	613.25
435.618	627.25
435.84	700.25
436.062	821.25
436.284	873.25
436.505	731.25
436.727	662.25
436.949	595.25
437.17	596.25
437.392	585.25
437.614	617.25
437.835	662.25
438.057	783.25
438.278	905.25
438.5	880.25
438.721	972.25
438.943	932.25
439.165	780.25
439.386	665.25
439.608	660.25
439.829	657.25
440.05	698.25
440.272	758.25
440.493	701.25
440.715	644.25
440.936	614.25
441.158	586.25
441.379	609.25
441.6	609.25
441.822	642.25
442.043	674.25
442.264	778.25
442.486	822.25
442.707	712.25
442.928	680.25
443.149	666.25
443.371	706.25
443.592	756.25
443.813	868.25
444.034	930.25
444.255	776.25
444.476	669.25
444.698	621.25
444.919	611.25
445.14	741.25
445.361	709.25
445.582	708.25
445.803	789.25
446.024	897.25
446.245	949.25
446.466	845.25
446.687	698.25
446.908	646.25
447.129	617.25
447.35	587.25
447.571	570.25
447.792	602.25
448.013	617.25
448.234	635.25
448.455	698.25
448.675	829.25
448.896	932.25
449.117	804.25
449.338	774.25
449.559	896.25
449.779	991.25
450	826.25
450.221	685.25
450.442	610.25
450.662	595.25
450.883	609.25
451.104	622.25
451.324	612.25
451.545	582.25
451.766	542.25
451.986	547.25
452.207	529.25
452.428	531.25
452.648	545.25
452.869	523.25
453.089	508.25
453.31	569.25
453.53	566.25
453.751	543.25
453.971	547.25
454.192	562.25
454.412	572.25
454.633	520.25
454.853	516.25
455.073	526.25
455.294	560.25
455.514	670.25
455.734	642.25
455.955	557.25
456.175	504.25
456.395	482.25
456.616	485.25
456.836	489.25
457.056	478.25
457.276	476.25
457.497	496.25
457.717	502.25
457.937	502.25
458.157	514.25
458.377	526.25
458.598	545.25
458.818	618.25
459.038	732.25
459.258	733.25
459.478	625.25
459.698	573.25
459.918	579.25
460.138	535.25
460.358	554.25
460.578	532.25
460.798	545.25
461.018	542.25
461.238	544.25
461.458	538.25
461.678	521.25
461.898	553.25
462.118	546.25
462.338	562.25
462.558	542.25
462.777	532.25
462.997	546.25
463.217	558.25
463.437	556.25
463.657	559.25
463.876	571.25
464.096	562.25
464.316	582.25
464.536	604.25
464.755	566.25
464.975	577.25
465.195	676.25
465.414	778.25
465.634	706.25
465.854	608.25
466.073	579.25
466.293	560.25
466.512	545.25
466.732	552.25
466.951	523.25
467.171	530.25
467.391	533.25
467.61	562.25
467.829	562.25
468.049	560.25
468.268	552.25
468.488	524.25
468.707	523.25
468.927	519.25
469.146	523.25
469.365	527.25
469.585	519.25
469.804	526.25
470.023	548.25
470.243	550.25
470.462	549.25
470.681	587.25
470.901	600.25
471.12	560.25
471.339	556.25
471.558	542.25
471.777	566.25
471.997	520.25
472.216	545.25
472.435	604.25
472.654	585.25
472.873	542.25
473.092	557.25
473.311	539.25
473.53	564.25
473.749	557.25
473.968	648.25
474.187	775.25
474.406	759.25
474.625	645.25
474.844	572.25
475.063	564.25
475.282	546.25
475.501	550.25
475.72	567.25
475.939	546.25
476.158	554.25
476.377	560.25
476.596	563.25
476.814	561.25
477.033	583.25
477.252	569.25
477.471	570.25
477.69	573.25
477.908	591.25
478.127	580.25
478.346	608.25
478.564	598.25
478.783	614.25
479.002	625.25
479.22	638.25
479.439	618.25
479.658	661.25
479.876	664.25
480.095	688.25
480.313	716.25
480.532	656.25
480.751	662.25
480.969	658.25
481.188	759.25
481.406	833.25
481.624	741.25
481.843	664.25
482.061	678.25
482.28	701.25
482.498	663.25
482.717	645.25
482.935	664.25
483.153	636.25
483.372	637.25
483.59	678.25
483.808	666.25
484.027	642.25
484.245	648.25
484.463	670.25
484.681	672.25
484.9	654.25
485.118	668.25
485.336	665.25
485.554	678.25
485.772	666.25
485.99	637.25
486.209	681.25
486.427	681.25
486.645	694.25
486.863	708.25
487.081	735.25
487.299	678.25
487.517	680.25
487.735	711.25
487.953	695.25
488.171	731.25
488.389	712.25
488.607	725.25
488.825	728.25
489.043	724.25
489.261	726.25
489.479	744.25
489.696	754.25
489.914	729.25
490.132	751.25
490.35	772.25
490.568	764.25
490.786	774.25
491.003	798.25
491.221	820.25
491.439	819.25
491.657	821.25
491.874	827.25
492.092	837.25
492.31	794.25
492.527	857.25
492.745	837.25
492.963	863.25
493.18	842.25
493.398	850.25
493.615	861.25
493.833	868.25
494.05	867.25
494.268	848.25
494.485	845.25
494.703	864.25
494.92	848.25
495.138	860.25
495.355	846.25
495.573	860.25
495.79	854.25
496.008	849.25
496.225	852.25
496.442	884.25
496.66	861.25
496.877	834.25
497.094	865.25
497.312	857.25
497.529	867.25
497.746	871.25
497.963	880.25
498.181	905.25
498.398	903.25
498.615	915.25
498.832	924.25
499.049	914.25
499.267	941.25
499.484	977.25
499.701	998.25
499.918	987.25
500.135	1000.25
500.352	1051.25
500.569	1048.25
500.786	1039.25
501.003	1025.25
501.22	1053.25
501.437	1013.25
501.654	1054.25
501.871	1004.25
502.088	990.25
502.305	984.25
502.522	923.25
502.739	900.25
502.956	912.25
503.172	900.25
503.389	860.25
503.606	888.25
503.823	886.25
504.04	881.25
504.256	884.25
504.473	857.25
504.69	834.25
504.907	838.25
505.123	825.25
505.34	817.25
505.557	836.25
505.773	841.25
505.99	843.25
506.207	838.25
506.423	843.25
506.64	823.25
506.856	814.25
507.073	810.25
507.289	800.25
507.506	813.25
507.722	836.25
507.939	881.25
508.155	837.25
508.372	814.25
508.588	798.25
508.805	822.25
509.021	792.25
509.238	827.25
509.454	850.25
509.67	809.25
509.887	806.25
510.103	813.25
510.319	838.25
510.536	948.25
510.752	1625.25
510.968	1291.25
511.184	865.25
511.401	807.25
511.617	750.25
511.833	762.25
512.049	760.25
512.265	770.25
512.481	756.25
512.698	749.25
512.914	737.25
513.13	761.25
513.346	763.25
513.562	755.25
513.778	738.25
513.994	757.25
514.21	793.25
514.426	802.25
514.642	891.25
514.858	971.25
515.074	1025.25
515.29	1190.25
515.506	1848.25
515.721	1502.25
515.937	995.25
516.153	883.25
516.369	827.25
516.585	809.25
516.801	768.25
517.016	748.25
517.232	786.25
517.448	770.25
517.664	755.25
517.879	760.25
518.095	736.25
518.311	749.25
518.527	764.25
518.742	726.25
518.958	747.25
519.173	757.25
519.389	762.25
519.605	771.25
519.82	757.25
520.036	788.25
520.251	808.25
520.467	854.25
520.682	861.25
520.898	852.25
521.113	905.25
521.329	960.25
521.544	1112.25
521.76	1466.25
521.975	2492.25
522.19	2378.25
522.406	1284.25
522.621	916.25
522.836	824.25
523.052	826.25
523.267	764.25
523.482	700.25
523.698	715.25
523.913	721.25
524.128	692.25
524.343	681.25
524.559	696.25
524.774	673.25
524.989	676.25
525.204	662.25
525.419	662.25
525.634	641.25
525.849	615.25
526.064	637.25
526.28	626.25
526.495	600.25
526.71	624.25
526.925	606.25
527.14	595.25
527.355	589.25
527.57	604.25
527.785	595.25
527.999	614.25
528.214	616.25
528.429	604.25
528.644	609.25
528.859	616.25
529.074	606.25
529.289	661.25
529.503	764.25
529.718	733.25
529.933	682.25
530.148	635.25
530.363	621.25
530.577	604.25
530.792	567.25
531.007	586.25
531.221	572.25
531.436	581.25
531.651	581.25
531.865	581.25
532.08	579.25
532.295	582.25
532.509	567.25
532.724	550.25
532.938	564.25
533.153	583.25
533.367	556.25
533.582	565.25
533.796	546.25
534.011	576.25
534.225	567.25
534.44	553.25
534.654	584.25
534.868	549.25
535.083	542.25
535.297	554.25
535.511	564.25
535.726	564.25
535.94	587.25
536.154	555.25
536.369	571.25
536.583	572.25
536.797	553.25
537.011	542.25
537.225	532.25
537.44	553.25
537.654	546.25
537.868	548.25
538.082	536.25
538.296	544.25
538.51	547.25
538.724	549.25
538.938	533.25
539.153	529.25
539.367	555.25
539.581	573.25
539.795	540.25
540.009	551.25
540.222	540.25
540.436	534.25
540.65	547.25
540.864	532.25
541.078	561.25
541.292	552.25
541.506	571.25
541.72	536.25
541.934	536.25
542.147	568.25
542.361	526.25
542.575	535.25
542.789	534.25
543.002	535.25
543.216	550.25
543.43	560.25
543.644	550.25
543.857	523.25
544.071	554.25
544.285	544.25
544.498	526.25
544.712	530.25
544.925	516.25
545.139	525.25
545.352	524.25
545.566	510.25
545.779	531.25
545.993	521.25
546.206	526.25
546.42	544.25
546.633	540.25
546.847	502.25
547.06	522.25
547.274	532.25
547.487	520.25
547.7	506.25
547.914	501.25
548.127	532.25
548.34	498.25
548.554	503.25
548.767	522.25
548.98	504.25
549.193	497.25
549.407	502.25
549.62	534.25
549.833	504.25
550.046	518.25
550.259	499.25
550.473	486.25
550.686	489.25
550.899	494.25
551.112	491.25
551.325	493.25
551.538	492.25
551.751	485.25
551.964	510.25
552.177	500.25
552.39	485.25
552.603	489.25
552.816	493.25
553.029	509.25
553.242	491.25
553.455	504.25
553.667	523.25
553.88	547.25
554.093	513.25
554.306	517.25
554.519	510.25
554.732	521.25
554.944	507.25
555.157	485.25
555.37	509.25
555.583	477.25
555.795	480.25
556.008	461.25
556.221	469.25
556.433	460.25
556.646	452.25
556.859	496.25
557.071	464.25
557.284	455.25
557.496	461.25
557.709	461.25
557.921	477.25
558.134	460.25
558.346	464.25
558.559	448.25
558.771	433.25
558.984	457.25
559.196	472.25
559.409	444.25
559.621	447.25
559.833	439.25
560.046	457.25
560.258	464.25
560.47	460.25
560.683	450.25
560.895	448.25
561.107	443.25
561.32	440.25
561.532	438.25
561.744	440.25
561.956	450.25
562.168	448.25
562.381	440.25
562.593	456.25
562.805	443.25
563.017	440.25
563.229	460.25
563.441	454.25
563.653	457.25
563.865	452.25
564.077	439.25
564.289	458.25
564.501	462.25
564.713	453.25
564.925	462.25
565.137	455.25
565.349	486.25
565.561	474.25
565.773	478.25
565.985	466.25
566.197	496.25
566.408	474.25
566.62	510.25
566.832	507.25
567.044	501.25
567.255	518.25
567.467	508.25
567.679	501.25
567.891	525.25
568.102	508.25
568.314	493.25
568.526	486.25
568.737	485.25
568.949	474.25
569.161	459.25
569.372	477.25
569.584	459.25
569.795	452.25
570.007	456.25
570.218	535.25
570.43	500.25
570.641	434.25
570.853	423.25
571.064	429.25
571.276	422.25
571.487	408.25
571.698	438.25
571.91	401.25
572.121	414.25
572.333	388.25
572.544	401.25
572.755	393.25
572.966	373.25
573.178	398.25
573.389	379.25
573.6	382.25
573.811	383.25
574.023	386.25
574.234	384.25
574.445	389.25
574.656	368.25
574.867	367.25
575.078	371.25
575.289	383.25
575.501	364.25
575.712	372.25
575.923	380.25
576.134	355.25
576.345	356.25
576.556	384.25
576.767	364.25
576.978	361.25
577.188	350.25
577.399	357.25
577.61	358.25
577.821	367.25
578.032	372.25
578.243	410.25
578.454	717.25
578.665	532.25
578.875	400.25
579.086	378.25
579.297	359.25
579.508	351.25
579.718	359.25
579.929	352.25
580.14	339.25
580.35	342.25
580.561	362.25
580.772	347.25
580.982	345.25
581.193	333.25
581.403	348.25
581.614	353.25
581.825	342.25
582.035	342.25
582.246	351.25
582.456	374.25
582.667	338.25
582.877	347.25
583.087	354.25
583.298	339.25
583.508	352.25
583.719	345.25
583.929	351.25
584.139	339.25
584.35	326.25
584.56	340.25
584.77	345.25
584.981	334.25
585.191	341.25
585.401	336.25
585.611	329.25
585.821	326.25
586.032	333.25
586.242	340.25
586.452	334.25
586.662	326.25
586.872	341.25
587.082	328.25
587.292	316.25
587.502	312.25
587.713	327.25
587.923	326.25
588.133	339.25
588.343	314.25
588.553	318.25
588.762	324.25
588.972	316.25
589.182	324.25
589.392	326.25
589.602	315.25
589.812	322.25
590.022	332.25
590.232	313.25
590.441	325.25
590.651	315.25
590.861	340.25
591.071	322.25
591.281	323.25
591.49	328.25
591.7	338.25
591.91	327.25
592.119	332.25
592.329	337.25
592.539	335.25
592.748	332.25
592.958	326.25
593.167	327.25
593.377	322.25
593.587	316.25
593.796	336.25
594.006	340.25
594.215	337.25
594.424	339.25
594.634	347.25
594.843	337.25
595.053	327.25
595.262	318.25
595.472	326.25
595.681	326.25
595.89	305.25
596.1	322.25
596.309	302.25
596.518	330.25
596.727	310.25
596.937	321.25
597.146	313.25
597.355	296.25
597.564	299.25
597.774	309.25
597.983	288.25
598.192	280.25
598.401	307.25
598.61	310.25
598.819	298.25
599.028	298.25
599.237	286.25
599.446	293.25
599.655	290.25
599.864	285.25
600.073	284.25
600.282	300.25
600.491	296.25
600.7	279.25
600.909	286.25
601.118	280.25
601.327	278.25
601.536	303.25
601.745	294.25
601.953	293.25
602.162	279.25
602.371	281.25
602.58	288.25
602.789	305.25
602.997	293.25
603.206	293.25
603.415	281.25
603.623	273.25
603.832	277.25
604.041	287.25
604.249	281.25
604.458	282.25
604.666	280.25
604.875	283.25
605.084	288.25
605.292	280.25
605.501	270.25
605.709	292.25
605.918	284.25
606.126	268.25
606.334	274.25
606.543	265.25
606.751	271.25
606.96	280.25
607.168	280.25
607.376	270.25
607.585	288.25
607.793	275.25
608.001	268.25
608.21	271.25
608.418	299.25
608.626	279.25
608.834	280.25
609.043	288.25
609.251	256.25
609.459	276.25
609.667	270.25
609.875	274.25
610.083	270.25
610.291	277.25
610.499	262.25
610.707	272.25
610.916	268.25
611.124	279.25
611.332	283.25
611.54	269.25
611.748	266.25
611.955	283.25
612.163	282.25
612.371	285.25
612.579	289.25
612.787	273.25
612.995	269.25
613.203	282.25
613.411	288.25
613.618	272.25
613.826	289.25
614.034	267.25
614.242	258.25
614.449	260.25
614.657	266.25
614.865	272.25
615.072	259.25
615.28	249.25
615.488	265.25
615.695	274.25
615.903	286.25
616.111	268.25
616.318	256.25
616.526	275.25
616.733	257.25
616.941	259.25
617.148	254.25
617.356	277.25
617.563	252.25
617.771	261.25
617.978	265.25
618.185	247.25
618.393	266.25
618.6	277.25
618.807	261.25
619.015	270.25
619.222	247.25
619.429	260.25
619.637	254.25
619.844	250.25
620.051	256.25
620.258	276.25
620.466	247.25
620.673	254.25
620.88	240.25
621.087	236.25
621.294	240.25
621.501	256.25
621.708	258.25
621.915	253.25
622.122	246.25
622.329	252.25
622.536	237.25
622.743	248.25
622.95	235.25
623.157	246.25
623.364	256.25
623.571	232.25
623.778	266.25
623.985	259.25
624.192	243.25
624.399	266.25
624.606	233.25
624.812	241.25
625.019	229.25
625.226	234.25
625.433	227.25
625.639	233.25
625.846	255.25
626.053	230.25
626.259	234.25
626.466	223.25
626.673	232.25
626.879	233.25
627.086	243.25
627.293	219.25
627.499	229.25
627.706	215.25
627.912	219.25
628.119	230.25
628.325	223.25
628.532	218.25
628.738	228.25
628.945	235.25
629.151	224.25
629.357	218.25
629.564	228.25
629.77	222.25
629.976	221.25
630.183	223.25
630.389	200.25
630.595	222.25
630.802	212.25
631.008	217.25
631.214	208.25
631.42	206.25
631.627	228.25
631.833	216.25
632.039	210.25
632.245	240.25
632.451	220.25
632.657	227.25
632.863	194.25
633.069	199.25
633.275	210.25
633.481	215.25
633.688	204.25
633.893	225.25
634.099	201.25
634.305	215.25
634.511	212.25
634.717	209.25
634.923	216.25
635.129	193.25
635.335	188.25
635.541	193.25
635.747	216.25
635.952	200.25
636.158	215.25
636.364	211.25
636.57	218.25
636.775	198.25
636.981	222.25
637.187	193.25
637.392	200.25
637.598	201.25
637.804	192.25
638.009	214.25
638.215	186.25
638.421	197.25
638.626	193.25
638.832	180.25
639.037	176.25
639.243	177.25
639.448	185.25
639.654	187.25
639.859	196.25
640.065	194.25
640.27	184.25
640.475	183.25
640.681	189.25
640.886	193.25
641.091	186.25
641.297	189.25
641.502	203.25
641.707	189.25
641.913	190.25
642.118	189.25
642.323	185.25
642.528	199.25
642.733	178.25
642.939	186.25
643.144	170.25
643.349	182.25
643.554	171.25
643.759	174.25
643.964	188.25
644.169	188.25
644.374	181.25
644.579	191.25
644.784	200.25
644.989	168.25
645.194	178.25
645.399	184.25
645.604	174.25
645.809	186.25
646.014	185.25
646.219	165.25
646.423	192.25
646.628	188.25
646.833	181.25
647.038	162.25
647.243	172.25
647.447	178.25
647.652	178.25
647.857	178.25
648.062	178.25
648.266	176.25
648.471	173.25
648.676	181.25
648.88	196.25
649.085	188.25
649.289	188.25
649.494	188.25
649.698	205.25
649.903	190.25
650.107	188.25
650.312	172.25
650.516	165.25
650.721	172.25
650.925	154.25
651.13	180.25
651.334	170.25
651.539	156.25
651.743	173.25
651.947	152.25
652.152	160.25
652.356	161.25
652.56	152.25
652.764	147.25
652.969	160.25
653.173	158.25
653.377	156.25
653.581	141.25
653.785	150.25
653.99	132.25
654.194	148.25
654.398	126.25
654.602	140.25
654.806	154.25
655.01	153.25
655.214	140.25
655.418	146.25
655.622	140.25
655.826	140.25
656.03	126.25
656.234	130.25
656.438	140.25
656.642	138.25
656.846	139.25
657.049	132.25
657.253	128.25
657.457	131.25
657.661	120.25
657.865	116.25
658.068	120.25
658.272	128.25
658.476	122.25
658.68	113.25
658.883	119.25
659.087	117.25
659.291	107.25
659.494	100.25
659.698	85.25
659.901	93.25
660.105	103.25
660.309	97.25
660.512	94.25
660.716	100.25
660.919	93.25
661.123	84.25
661.326	83.25
661.53	91.25
661.733	92.25
661.936	78.25
662.14	81.25
662.343	92.25
662.546	84.25
662.75	96.25
662.953	83.25
663.156	88.25
663.36	81.25
663.563	82.25
663.766	98.25
663.969	93.25
664.173	94.25
664.376	72.25
664.579	80.25
664.782	78.25
664.985	86.25
665.188	82.25
665.391	91.25
665.594	82.25
665.797	82.25
666	78.25
666.203	84.25
666.406	79.25
666.609	77.25
666.812	85.25
667.015	72.25
667.218	85.25
667.421	77.25
667.624	77.25
667.827	79.25
668.03	78.25
668.232	91.25
668.435	79.25
668.638	80.25
668.841	68.25
669.043	84.25
669.246	68.25
669.449	74.25
669.651	84.25
669.854	82.25
670.057	73.25
670.259	82.25
670.462	59.25
670.665	90.25
670.867	80.25
671.07	90.25
671.272	88.25
671.475	92.25
671.677	85.25
671.88	105.25
672.082	90.25
672.284	82.25
672.487	72.25
672.689	82.25
672.892	85.25
