Data from 1971.PennyLincolnUp.Lamp.En5.5.200Scan.071719.P1.Scan 2. Changed Angle._HRD10591_15-25-25-843.txt Node
Date: Thu Jul 18 15:25:25 EDT 2019
User: cochatt
Spectrometer: HR+D1059
Trigger mode: 1
Integration Time (sec): 1.000000E-1
Scans to average: 1
Electric dark correction enabled: true
Nonlinearity correction enabled: false
Boxcar width: 0
XAxis mode: Wavelengths
Number of Pixels in Spectrum: 2048
>>>>>Begin Spectral Data<<<<<
223.165	-34.12
223.4	-34.12
223.635	-34.12
223.869	-24.12
224.104	-12.12
224.338	-21.12
224.573	-18.12
224.808	-11.12
225.042	5.88
225.277	4.88
225.511	-14.12
225.746	10.88
225.98	4.88
226.215	13.88
226.449	19.88
226.683	21.88
226.918	24.88
227.152	27.88
227.387	27.88
227.621	26.88
227.856	40.88
228.09	50.88
228.324	59.88
228.559	57.88
228.793	69.88
229.027	95.88
229.262	121.88
229.496	135.88
229.73	147.88
229.964	194.88
230.199	149.88
230.433	129.88
230.667	126.88
230.901	117.88
231.136	106.88
231.37	129.88
231.604	115.88
231.838	113.88
232.072	117.88
232.306	118.88
232.541	118.88
232.775	117.88
233.009	120.88
233.243	111.88
233.477	113.88
233.711	116.88
233.945	130.88
234.179	119.88
234.413	120.88
234.647	121.88
234.881	116.88
235.115	122.88
235.349	135.88
235.583	124.88
235.817	129.88
236.051	139.88
236.285	142.88
236.519	139.88
236.753	139.88
236.987	160.88
237.221	202.88
237.455	283.88
237.689	219.88
237.922	154.88
238.156	141.88
238.39	136.88
238.624	130.88
238.858	132.88
239.091	125.88
239.325	141.88
239.559	142.88
239.793	143.88
240.027	145.88
240.26	164.88
240.494	195.88
240.728	156.88
240.961	161.88
241.195	158.88
241.429	152.88
241.662	151.88
241.896	146.88
242.13	138.88
242.363	126.88
242.597	141.88
242.83	145.88
243.064	141.88
243.298	137.88
243.531	132.88
243.765	154.88
243.998	145.88
244.232	154.88
244.465	160.88
244.699	147.88
244.932	161.88
245.166	140.88
245.399	141.88
245.633	153.88
245.866	155.88
246.099	156.88
246.333	164.88
246.566	152.88
246.8	155.88
247.033	177.88
247.266	162.88
247.5	177.88
247.733	188.88
247.966	191.88
248.2	191.88
248.433	191.88
248.666	184.88
248.899	203.88
249.133	209.88
249.366	248.88
249.599	212.88
249.832	205.88
250.066	196.88
250.299	197.88
250.532	210.88
250.765	224.88
250.998	259.88
251.231	261.88
251.465	239.88
251.698	244.88
251.931	206.88
252.164	216.88
252.397	205.88
252.63	206.88
252.863	215.88
253.096	228.88
253.329	267.88
253.562	266.88
253.795	245.88
254.028	228.88
254.261	227.88
254.494	260.88
254.727	285.88
254.96	326.88
255.193	326.88
255.426	281.88
255.659	279.88
255.892	283.88
256.124	261.88
256.357	275.88
256.59	265.88
256.823	244.88
257.056	225.88
257.289	227.88
257.521	242.88
257.754	232.88
257.987	234.88
258.22	231.88
258.452	211.88
258.685	224.88
258.918	232.88
259.151	222.88
259.383	251.88
259.616	237.88
259.849	236.88
260.081	266.88
260.314	261.88
260.547	297.88
260.779	306.88
261.012	278.88
261.244	235.88
261.477	249.88
261.71	248.88
261.942	257.88
262.175	254.88
262.407	247.88
262.64	223.88
262.872	243.88
263.105	232.88
263.337	225.88
263.57	226.88
263.802	236.88
264.035	228.88
264.267	209.88
264.499	206.88
264.732	211.88
264.964	224.88
265.197	199.88
265.429	204.88
265.661	227.88
265.894	230.88
266.126	222.88
266.358	224.88
266.591	232.88
266.823	245.88
267.055	253.88
267.287	225.88
267.52	223.88
267.752	230.88
267.984	237.88
268.216	237.88
268.448	244.88
268.681	257.88
268.913	247.88
269.145	285.88
269.377	293.88
269.609	292.88
269.841	298.88
270.073	295.88
270.306	337.88
270.538	337.88
270.77	347.88
271.002	338.88
271.234	320.88
271.466	333.88
271.698	356.88
271.93	354.88
272.162	377.88
272.394	345.88
272.626	354.88
272.858	337.88
273.09	316.88
273.322	292.88
273.553	294.88
273.785	292.88
274.017	286.88
274.249	256.88
274.481	288.88
274.713	275.88
274.945	292.88
275.176	288.88
275.408	285.88
275.64	277.88
275.872	284.88
276.104	290.88
276.335	281.88
276.567	278.88
276.799	319.88
277.031	332.88
277.262	345.88
277.494	358.88
277.726	322.88
277.957	297.88
278.189	281.88
278.421	278.88
278.652	288.88
278.884	288.88
279.115	290.88
279.347	275.88
279.579	272.88
279.81	274.88
280.042	266.88
280.273	273.88
280.505	278.88
280.736	295.88
280.968	259.88
281.199	248.88
281.431	263.88
281.662	264.88
281.894	261.88
282.125	281.88
282.356	298.88
282.588	329.88
282.819	342.88
283.051	303.88
283.282	284.88
283.513	271.88
283.745	275.88
283.976	277.88
284.207	284.88
284.439	278.88
284.67	298.88
284.901	287.88
285.132	265.88
285.364	269.88
285.595	282.88
285.826	272.88
286.057	285.88
286.288	291.88
286.52	279.88
286.751	261.88
286.982	269.88
287.213	265.88
287.444	276.88
287.675	298.88
287.906	301.88
288.138	295.88
288.369	308.88
288.6	325.88
288.831	287.88
289.062	305.88
289.293	294.88
289.524	289.88
289.755	281.88
289.986	287.88
290.217	289.88
290.448	261.88
290.679	277.88
290.91	276.88
291.141	291.88
291.371	294.88
291.602	264.88
291.833	276.88
292.064	295.88
292.295	293.88
292.526	295.88
292.757	282.88
292.987	292.88
293.218	281.88
293.449	284.88
293.68	292.88
293.91	300.88
294.141	270.88
294.372	292.88
294.603	288.88
294.833	282.88
295.064	277.88
295.295	304.88
295.525	280.88
295.756	282.88
295.987	291.88
296.217	329.88
296.448	370.88
296.679	326.88
296.909	300.88
297.14	291.88
297.37	308.88
297.601	298.88
297.831	279.88
298.062	309.88
298.292	291.88
298.523	307.88
298.753	283.88
298.984	307.88
299.214	313.88
299.445	311.88
299.675	309.88
299.905	282.88
300.136	294.88
300.366	288.88
300.597	311.88
300.827	321.88
301.057	333.88
301.288	320.88
301.518	324.88
301.748	338.88
301.979	322.88
302.209	337.88
302.439	309.88
302.669	315.88
302.9	332.88
303.13	327.88
303.36	327.88
303.59	309.88
303.82	338.88
304.051	332.88
304.281	332.88
304.511	313.88
304.741	327.88
304.971	321.88
305.201	320.88
305.431	312.88
305.661	325.88
305.891	312.88
306.121	317.88
306.352	333.88
306.582	347.88
306.812	327.88
307.042	341.88
307.272	346.88
307.502	338.88
307.731	332.88
307.961	339.88
308.191	337.88
308.421	350.88
308.651	362.88
308.881	341.88
309.111	363.88
309.341	354.88
309.571	350.88
309.8	380.88
310.03	389.88
310.26	387.88
310.49	376.88
310.72	397.88
310.949	423.88
311.179	438.88
311.409	397.88
311.639	398.88
311.868	415.88
312.098	416.88
312.328	409.88
312.557	416.88
312.787	447.88
313.017	439.88
313.246	417.88
313.476	398.88
313.706	393.88
313.935	398.88
314.165	416.88
314.394	418.88
314.624	432.88
314.853	419.88
315.083	402.88
315.312	402.88
315.542	380.88
315.771	386.88
316.001	392.88
316.23	384.88
316.46	384.88
316.689	372.88
316.919	389.88
317.148	436.88
317.377	413.88
317.607	431.88
317.836	407.88
318.065	400.88
318.295	378.88
318.524	366.88
318.753	381.88
318.983	393.88
319.212	385.88
319.441	407.88
319.67	398.88
319.9	408.88
320.129	392.88
320.358	405.88
320.587	409.88
320.816	419.88
321.046	419.88
321.275	418.88
321.504	439.88
321.733	421.88
321.962	431.88
322.191	461.88
322.42	479.88
322.649	479.88
322.878	525.88
323.108	532.88
323.337	559.88
323.566	568.88
323.795	639.88
324.024	693.88
324.253	883.88
324.482	1306.88
324.71	2037.88
324.939	2961.88
325.168	2541.88
325.397	1303.88
325.626	829.88
325.855	666.88
326.084	613.88
326.313	577.88
326.542	583.88
326.77	665.88
326.999	801.88
327.228	1115.88
327.457	1758.88
327.686	2216.88
327.914	1445.88
328.143	929.88
328.372	778.88
328.6	717.88
328.829	707.88
329.058	674.88
329.287	733.88
329.515	654.88
329.744	604.88
329.972	614.88
330.201	626.88
330.43	678.88
330.658	718.88
330.887	752.88
331.115	713.88
331.344	626.88
331.572	561.88
331.801	568.88
332.03	565.88
332.258	516.88
332.486	512.88
332.715	495.88
332.943	484.88
333.172	472.88
333.4	476.88
333.629	492.88
333.857	493.88
334.085	508.88
334.314	518.88
334.542	576.88
334.771	598.88
334.999	543.88
335.227	501.88
335.455	471.88
335.684	483.88
335.912	471.88
336.14	434.88
336.369	446.88
336.597	466.88
336.825	453.88
337.053	466.88
337.281	457.88
337.51	460.88
337.738	456.88
337.966	477.88
338.194	469.88
338.422	448.88
338.65	464.88
338.878	429.88
339.106	434.88
339.334	441.88
339.562	457.88
339.79	443.88
340.018	445.88
340.246	458.88
340.474	453.88
340.702	444.88
340.93	442.88
341.158	454.88
341.386	437.88
341.614	463.88
341.842	457.88
342.07	428.88
342.298	458.88
342.526	412.88
342.754	417.88
342.981	445.88
343.209	440.88
343.437	451.88
343.665	459.88
343.893	435.88
344.12	450.88
344.348	426.88
344.576	437.88
344.804	457.88
345.031	469.88
345.259	487.88
345.487	471.88
345.714	440.88
345.942	436.88
346.17	435.88
346.397	469.88
346.625	437.88
346.853	427.88
347.08	435.88
347.308	428.88
347.535	461.88
347.763	484.88
347.99	471.88
348.218	459.88
348.445	478.88
348.673	488.88
348.9	459.88
349.128	429.88
349.355	424.88
349.583	422.88
349.81	429.88
350.037	436.88
350.265	411.88
350.492	423.88
350.72	444.88
350.947	427.88
351.174	471.88
351.402	482.88
351.629	474.88
351.856	467.88
352.083	469.88
352.311	472.88
352.538	491.88
352.765	481.88
352.992	467.88
353.22	441.88
353.447	459.88
353.674	458.88
353.901	427.88
354.128	383.88
354.355	421.88
354.583	434.88
354.81	417.88
355.037	415.88
355.264	409.88
355.491	410.88
355.718	403.88
355.945	413.88
356.172	397.88
356.399	386.88
356.626	405.88
356.853	403.88
357.08	421.88
357.307	410.88
357.534	389.88
357.761	397.88
357.988	413.88
358.215	417.88
358.441	410.88
358.668	417.88
358.895	416.88
359.122	424.88
359.349	422.88
359.576	447.88
359.802	485.88
360.029	540.88
360.256	560.88
360.483	517.88
360.709	467.88
360.936	453.88
361.163	455.88
361.39	455.88
361.616	449.88
361.843	457.88
362.07	462.88
362.296	465.88
362.523	443.88
362.749	449.88
362.976	425.88
363.203	441.88
363.429	463.88
363.656	428.88
363.882	426.88
364.109	402.88
364.335	411.88
364.562	439.88
364.788	433.88
365.015	447.88
365.241	431.88
365.468	440.88
365.694	427.88
365.92	436.88
366.147	422.88
366.373	426.88
366.599	392.88
366.826	436.88
367.052	411.88
367.278	448.88
367.505	417.88
367.731	406.88
367.957	424.88
368.184	445.88
368.41	443.88
368.636	449.88
368.862	457.88
369.089	427.88
369.315	420.88
369.541	434.88
369.767	427.88
369.993	408.88
370.219	427.88
370.445	416.88
370.672	401.88
370.898	410.88
371.124	411.88
371.35	418.88
371.576	429.88
371.802	419.88
372.028	386.88
372.254	434.88
372.48	405.88
372.706	420.88
372.932	406.88
373.158	409.88
373.384	435.88
373.61	404.88
373.835	413.88
374.061	411.88
374.287	432.88
374.513	415.88
374.739	428.88
374.965	425.88
375.191	421.88
375.416	415.88
375.642	401.88
375.868	431.88
376.094	420.88
376.319	402.88
376.545	405.88
376.771	424.88
376.997	427.88
377.222	403.88
377.448	417.88
377.674	424.88
377.899	417.88
378.125	420.88
378.35	410.88
378.576	403.88
378.802	405.88
379.027	415.88
379.253	412.88
379.478	416.88
379.704	393.88
379.929	415.88
380.155	411.88
380.38	422.88
380.606	436.88
380.831	419.88
381.057	429.88
381.282	415.88
381.507	417.88
381.733	418.88
381.958	425.88
382.184	420.88
382.409	443.88
382.634	428.88
382.86	420.88
383.085	432.88
383.31	449.88
383.535	422.88
383.761	438.88
383.986	417.88
384.211	410.88
384.436	439.88
384.662	448.88
384.887	439.88
385.112	433.88
385.337	442.88
385.562	417.88
385.787	433.88
386.013	460.88
386.238	469.88
386.463	464.88
386.688	454.88
386.913	450.88
387.138	438.88
387.363	436.88
387.588	452.88
387.813	445.88
388.038	453.88
388.263	452.88
388.488	446.88
388.713	461.88
388.938	450.88
389.163	459.88
389.387	443.88
389.612	460.88
389.837	452.88
390.062	430.88
390.287	438.88
390.512	448.88
390.736	456.88
390.961	420.88
391.186	447.88
391.411	440.88
391.636	452.88
391.86	445.88
392.085	453.88
392.31	443.88
392.534	447.88
392.759	462.88
392.984	443.88
393.208	441.88
393.433	454.88
393.658	439.88
393.882	457.88
394.107	453.88
394.331	455.88
394.556	445.88
394.78	433.88
395.005	455.88
395.229	479.88
395.454	455.88
395.678	474.88
395.903	495.88
396.127	511.88
396.352	507.88
396.576	497.88
396.801	469.88
397.025	451.88
397.249	487.88
397.474	472.88
397.698	489.88
397.922	510.88
398.147	515.88
398.371	529.88
398.595	512.88
398.82	513.88
399.044	490.88
399.268	529.88
399.492	554.88
399.717	569.88
399.941	582.88
400.165	634.88
400.389	616.88
400.613	585.88
400.837	563.88
401.062	550.88
401.286	516.88
401.51	546.88
401.734	523.88
401.958	512.88
402.182	525.88
402.406	535.88
402.63	545.88
402.854	537.88
403.078	538.88
403.302	537.88
403.526	556.88
403.75	567.88
403.974	541.88
404.198	541.88
404.422	523.88
404.645	573.88
404.869	551.88
405.093	577.88
405.317	627.88
405.541	663.88
405.765	643.88
405.988	580.88
406.212	598.88
406.436	628.88
406.66	637.88
406.883	604.88
407.107	625.88
407.331	671.88
407.555	740.88
407.778	755.88
408.002	681.88
408.226	629.88
408.449	618.88
408.673	616.88
408.896	690.88
409.12	682.88
409.344	656.88
409.567	588.88
409.791	575.88
410.014	577.88
410.238	561.88
410.461	561.88
410.685	554.88
410.908	579.88
411.132	637.88
411.355	665.88
411.578	634.88
411.802	596.88
412.025	571.88
412.249	547.88
412.472	607.88
412.695	635.88
412.919	624.88
413.142	583.88
413.365	556.88
413.589	550.88
413.812	531.88
414.035	504.88
414.258	531.88
414.482	509.88
414.705	523.88
414.928	512.88
415.151	515.88
415.374	499.88
415.597	529.88
415.821	517.88
416.044	526.88
416.267	517.88
416.49	523.88
416.713	524.88
416.936	509.88
417.159	530.88
417.382	563.88
417.605	551.88
417.828	564.88
418.051	571.88
418.274	560.88
418.497	560.88
418.72	540.88
418.943	516.88
419.166	531.88
419.389	585.88
419.611	578.88
419.834	546.88
420.057	574.88
420.28	546.88
420.503	550.88
420.726	554.88
420.948	575.88
421.171	632.88
421.394	679.88
421.617	608.88
421.839	572.88
422.062	577.88
422.285	580.88
422.507	647.88
422.73	754.88
422.953	697.88
423.175	617.88
423.398	575.88
423.621	571.88
423.843	622.88
424.066	605.88
424.288	635.88
424.511	633.88
424.733	712.88
424.956	811.88
425.178	751.88
425.401	783.88
425.623	774.88
425.846	678.88
426.068	636.88
426.291	608.88
426.513	613.88
426.735	648.88
426.958	707.88
427.18	819.88
427.402	927.88
427.625	1045.88
427.847	952.88
428.069	823.88
428.292	713.88
428.514	666.88
428.736	630.88
428.958	605.88
429.181	609.88
429.403	576.88
429.625	586.88
429.847	639.88
430.069	736.88
430.292	714.88
430.514	600.88
430.736	581.88
430.958	565.88
431.18	575.88
431.402	546.88
431.624	537.88
431.846	527.88
432.068	537.88
432.29	548.88
432.512	548.88
432.734	565.88
432.956	554.88
433.178	579.88
433.4	594.88
433.622	557.88
433.844	537.88
434.066	518.88
434.287	529.88
434.509	571.88
434.731	542.88
434.953	569.88
435.175	583.88
435.397	621.88
435.618	636.88
435.84	690.88
436.062	803.88
436.284	859.88
436.505	732.88
436.727	672.88
436.949	610.88
437.17	618.88
437.392	581.88
437.614	611.88
437.835	654.88
438.057	783.88
438.278	885.88
438.5	861.88
438.721	939.88
438.943	915.88
439.165	755.88
439.386	673.88
439.608	672.88
439.829	652.88
440.05	717.88
440.272	755.88
440.493	715.88
440.715	666.88
440.936	596.88
441.158	598.88
441.379	612.88
441.6	618.88
441.822	651.88
442.043	684.88
442.264	786.88
442.486	790.88
442.707	725.88
442.928	680.88
443.149	689.88
443.371	707.88
443.592	743.88
443.813	846.88
444.034	917.88
444.255	729.88
444.476	680.88
444.698	639.88
444.919	626.88
445.14	721.88
445.361	697.88
445.582	697.88
445.803	796.88
446.024	920.88
446.245	904.88
446.466	809.88
446.687	728.88
446.908	656.88
447.129	634.88
447.35	627.88
447.571	591.88
447.792	598.88
448.013	601.88
448.234	630.88
448.455	691.88
448.675	810.88
448.896	930.88
449.117	801.88
449.338	773.88
449.559	881.88
449.779	952.88
450	816.88
450.221	683.88
450.442	615.88
450.662	604.88
450.883	598.88
451.104	619.88
451.324	616.88
451.545	600.88
451.766	568.88
451.986	561.88
452.207	537.88
452.428	543.88
452.648	556.88
452.869	545.88
453.089	575.88
453.31	560.88
453.53	553.88
453.751	538.88
453.971	524.88
454.192	575.88
454.412	570.88
454.633	555.88
454.853	519.88
455.073	535.88
455.294	569.88
455.514	671.88
455.734	633.88
455.955	533.88
456.175	529.88
456.395	488.88
456.616	481.88
456.836	495.88
457.056	483.88
457.276	470.88
457.497	503.88
457.717	505.88
457.937	505.88
458.157	499.88
458.377	515.88
458.598	547.88
458.818	614.88
459.038	752.88
459.258	745.88
459.478	616.88
459.698	556.88
459.918	544.88
460.138	519.88
460.358	543.88
460.578	522.88
460.798	544.88
461.018	543.88
461.238	504.88
461.458	529.88
461.678	532.88
461.898	515.88
462.118	545.88
462.338	529.88
462.558	536.88
462.777	525.88
462.997	551.88
463.217	561.88
463.437	557.88
463.657	534.88
463.876	540.88
464.096	564.88
464.316	571.88
464.536	543.88
464.755	576.88
464.975	573.88
465.195	640.88
465.414	791.88
465.634	695.88
465.854	616.88
466.073	576.88
466.293	579.88
466.512	549.88
466.732	534.88
466.951	539.88
467.171	538.88
467.391	518.88
467.61	561.88
467.829	559.88
468.049	543.88
468.268	537.88
468.488	530.88
468.707	540.88
468.927	538.88
469.146	525.88
469.365	529.88
469.585	514.88
469.804	524.88
470.023	550.88
470.243	546.88
470.462	566.88
470.681	577.88
470.901	566.88
471.12	571.88
471.339	548.88
471.558	534.88
471.777	547.88
471.997	553.88
472.216	552.88
472.435	589.88
472.654	581.88
472.873	555.88
473.092	538.88
473.311	544.88
473.53	533.88
473.749	563.88
473.968	611.88
474.187	735.88
474.406	751.88
474.625	635.88
474.844	584.88
475.063	561.88
475.282	569.88
475.501	530.88
475.72	569.88
475.939	565.88
476.158	561.88
476.377	572.88
476.596	569.88
476.814	572.88
477.033	559.88
477.252	588.88
477.471	570.88
477.69	574.88
477.908	599.88
478.127	601.88
478.346	600.88
478.564	588.88
478.783	595.88
479.002	617.88
479.22	613.88
479.439	630.88
479.658	646.88
479.876	673.88
480.095	660.88
480.313	709.88
480.532	677.88
480.751	659.88
480.969	682.88
481.188	778.88
481.406	868.88
481.624	712.88
481.843	675.88
482.061	679.88
482.28	668.88
482.498	633.88
482.717	660.88
482.935	657.88
483.153	648.88
483.372	644.88
483.59	644.88
483.808	648.88
484.027	644.88
484.245	633.88
484.463	649.88
484.681	669.88
484.9	665.88
485.118	693.88
485.336	659.88
485.554	669.88
485.772	695.88
485.99	672.88
486.209	675.88
486.427	705.88
486.645	692.88
486.863	724.88
487.081	711.88
487.299	710.88
487.517	722.88
487.735	721.88
487.953	687.88
488.171	720.88
488.389	743.88
488.607	695.88
488.825	717.88
489.043	712.88
489.261	715.88
489.479	714.88
489.696	720.88
489.914	745.88
490.132	732.88
490.35	717.88
490.568	771.88
490.786	771.88
491.003	795.88
491.221	802.88
491.439	815.88
491.657	817.88
491.874	831.88
492.092	830.88
492.31	839.88
492.527	828.88
492.745	827.88
492.963	842.88
493.18	867.88
493.398	852.88
493.615	861.88
493.833	851.88
494.05	857.88
494.268	872.88
494.485	844.88
494.703	840.88
494.92	842.88
495.138	876.88
495.355	889.88
495.573	867.88
495.79	860.88
496.008	885.88
496.225	862.88
496.442	855.88
496.66	871.88
496.877	835.88
497.094	852.88
497.312	840.88
497.529	852.88
497.746	860.88
497.963	884.88
498.181	920.88
498.398	921.88
498.615	904.88
498.832	943.88
499.049	915.88
499.267	899.88
499.484	965.88
499.701	949.88
499.918	977.88
500.135	1016.88
500.352	1011.88
500.569	1023.88
500.786	1045.88
501.003	1041.88
501.22	1016.88
501.437	1018.88
501.654	1008.88
501.871	1007.88
502.088	979.88
502.305	927.88
502.522	928.88
502.739	934.88
502.956	917.88
503.172	869.88
503.389	874.88
503.606	887.88
503.823	909.88
504.04	870.88
504.256	838.88
504.473	857.88
504.69	836.88
504.907	835.88
505.123	841.88
505.34	836.88
505.557	821.88
505.773	815.88
505.99	822.88
506.207	821.88
506.423	809.88
506.64	810.88
506.856	807.88
507.073	802.88
507.289	839.88
507.506	827.88
507.722	823.88
507.939	872.88
508.155	834.88
508.372	820.88
508.588	788.88
508.805	802.88
509.021	797.88
509.238	821.88
509.454	832.88
509.67	809.88
509.887	775.88
510.103	785.88
510.319	815.88
510.536	944.88
510.752	1672.88
510.968	1323.88
511.184	859.88
511.401	838.88
511.617	791.88
511.833	771.88
512.049	753.88
512.265	743.88
512.481	740.88
512.698	738.88
512.914	739.88
513.13	747.88
513.346	749.88
513.562	746.88
513.778	753.88
513.994	773.88
514.21	788.88
514.426	825.88
514.642	904.88
514.858	939.88
515.074	1015.88
515.29	1218.88
515.506	1891.88
515.721	1525.88
515.937	992.88
516.153	892.88
516.369	854.88
516.585	796.88
516.801	783.88
517.016	761.88
517.232	780.88
517.448	781.88
517.664	749.88
517.879	756.88
518.095	761.88
518.311	739.88
518.527	753.88
518.742	756.88
518.958	731.88
519.173	739.88
519.389	741.88
519.605	748.88
519.82	776.88
520.036	805.88
520.251	827.88
520.467	847.88
520.682	870.88
520.898	866.88
521.113	914.88
521.329	1008.88
521.544	1158.88
521.76	1500.88
521.975	2550.88
522.19	2438.88
522.406	1300.88
522.621	972.88
522.836	863.88
523.052	783.88
523.267	770.88
523.482	696.88
523.698	706.88
523.913	713.88
524.128	708.88
524.343	682.88
524.559	667.88
524.774	644.88
524.989	656.88
525.204	667.88
525.419	683.88
525.634	673.88
525.849	654.88
526.064	620.88
526.28	631.88
526.495	633.88
526.71	628.88
526.925	616.88
527.14	614.88
527.355	592.88
527.57	586.88
527.785	615.88
527.999	616.88
528.214	596.88
528.429	592.88
528.644	617.88
528.859	600.88
529.074	603.88
529.289	652.88
529.503	791.88
529.718	729.88
529.933	651.88
530.148	605.88
530.363	602.88
530.577	612.88
530.792	598.88
531.007	558.88
531.221	570.88
531.436	599.88
531.651	586.88
531.865	575.88
532.08	562.88
532.295	563.88
532.509	524.88
532.724	567.88
532.938	585.88
533.153	530.88
533.367	551.88
533.582	569.88
533.796	575.88
534.011	551.88
534.225	548.88
534.44	546.88
534.654	570.88
534.868	558.88
535.083	536.88
535.297	571.88
535.511	545.88
535.726	604.88
535.94	576.88
536.154	561.88
536.369	572.88
536.583	580.88
536.797	549.88
537.011	533.88
537.225	518.88
537.44	513.88
537.654	543.88
537.868	536.88
538.082	523.88
538.296	546.88
538.51	543.88
538.724	559.88
538.938	548.88
539.153	545.88
539.367	584.88
539.581	580.88
539.795	525.88
540.009	545.88
540.222	527.88
540.436	544.88
540.65	529.88
540.864	541.88
541.078	547.88
541.292	543.88
541.506	549.88
541.72	541.88
541.934	539.88
542.147	549.88
542.361	516.88
542.575	531.88
542.789	526.88
543.002	541.88
543.216	531.88
543.43	550.88
543.644	552.88
543.857	547.88
544.071	519.88
544.285	539.88
544.498	549.88
544.712	511.88
544.925	541.88
545.139	547.88
545.352	521.88
545.566	503.88
545.779	504.88
545.993	533.88
546.206	507.88
546.42	521.88
546.633	504.88
546.847	506.88
547.06	497.88
547.274	501.88
547.487	497.88
547.7	501.88
547.914	489.88
548.127	513.88
548.34	499.88
548.554	497.88
548.767	507.88
548.98	505.88
549.193	504.88
549.407	501.88
549.62	502.88
549.833	502.88
550.046	488.88
550.259	519.88
550.473	477.88
550.686	483.88
550.899	505.88
551.112	504.88
551.325	480.88
551.538	487.88
551.751	476.88
551.964	484.88
552.177	487.88
552.39	485.88
552.603	499.88
552.816	496.88
553.029	486.88
553.242	511.88
553.455	516.88
553.667	511.88
553.88	551.88
554.093	543.88
554.306	505.88
554.519	506.88
554.732	496.88
554.944	482.88
555.157	483.88
555.37	465.88
555.583	475.88
555.795	477.88
556.008	468.88
556.221	461.88
556.433	454.88
556.646	459.88
556.859	440.88
557.071	463.88
557.284	464.88
557.496	465.88
557.709	439.88
557.921	469.88
558.134	457.88
558.346	452.88
558.559	452.88
558.771	461.88
558.984	449.88
559.196	432.88
559.409	408.88
559.621	450.88
559.833	442.88
560.046	442.88
560.258	432.88
560.47	442.88
560.683	443.88
560.895	437.88
561.107	444.88
561.32	439.88
561.532	435.88
561.744	434.88
561.956	435.88
562.168	426.88
562.381	447.88
562.593	447.88
562.805	441.88
563.017	443.88
563.229	444.88
563.441	448.88
563.653	447.88
563.865	440.88
564.077	457.88
564.289	459.88
564.501	427.88
564.713	452.88
564.925	467.88
565.137	463.88
565.349	460.88
565.561	441.88
565.773	453.88
565.985	467.88
566.197	472.88
566.408	466.88
566.62	480.88
566.832	481.88
567.044	519.88
567.255	517.88
567.467	490.88
567.679	481.88
567.891	500.88
568.102	491.88
568.314	498.88
568.526	485.88
568.737	484.88
568.949	477.88
569.161	473.88
569.372	435.88
569.584	452.88
569.795	446.88
570.007	457.88
570.218	499.88
570.43	495.88
570.641	456.88
570.853	434.88
571.064	429.88
571.276	431.88
571.487	414.88
571.698	400.88
571.91	412.88
572.121	394.88
572.333	391.88
572.544	394.88
572.755	396.88
572.966	377.88
573.178	388.88
573.389	389.88
573.6	384.88
573.811	404.88
574.023	379.88
574.234	375.88
574.445	369.88
574.656	357.88
574.867	381.88
575.078	387.88
575.289	389.88
575.501	373.88
575.712	367.88
575.923	372.88
576.134	356.88
576.345	374.88
576.556	367.88
576.767	375.88
576.978	383.88
577.188	371.88
577.399	368.88
577.61	369.88
577.821	364.88
578.032	362.88
578.243	407.88
578.454	757.88
578.665	544.88
578.875	404.88
579.086	369.88
579.297	371.88
579.508	360.88
579.718	362.88
579.929	376.88
580.14	343.88
580.35	348.88
580.561	364.88
580.772	343.88
580.982	354.88
581.193	329.88
581.403	343.88
581.614	349.88
581.825	347.88
582.035	334.88
582.246	347.88
582.456	334.88
582.667	364.88
582.877	348.88
583.087	334.88
583.298	346.88
583.508	326.88
583.719	327.88
583.929	351.88
584.139	344.88
584.35	355.88
584.56	359.88
584.77	343.88
584.981	339.88
585.191	322.88
585.401	342.88
585.611	330.88
585.821	335.88
586.032	327.88
586.242	338.88
586.452	337.88
586.662	329.88
586.872	319.88
587.082	323.88
587.292	333.88
587.502	323.88
587.713	313.88
587.923	327.88
588.133	321.88
588.343	323.88
588.553	306.88
588.762	317.88
588.972	335.88
589.182	327.88
589.392	312.88
589.602	313.88
589.812	318.88
590.022	326.88
590.232	307.88
590.441	332.88
590.651	313.88
590.861	340.88
591.071	317.88
591.281	303.88
591.49	335.88
591.7	337.88
591.91	319.88
592.119	317.88
592.329	325.88
592.539	343.88
592.748	347.88
592.958	333.88
593.167	322.88
593.377	327.88
593.587	339.88
593.796	338.88
594.006	327.88
594.215	342.88
594.424	323.88
594.634	329.88
594.843	342.88
595.053	309.88
595.262	309.88
595.472	332.88
595.681	312.88
595.89	303.88
596.1	316.88
596.309	313.88
596.518	330.88
596.727	313.88
596.937	304.88
597.146	319.88
597.355	300.88
597.564	292.88
597.774	302.88
597.983	296.88
598.192	296.88
598.401	310.88
598.61	289.88
598.819	286.88
599.028	310.88
599.237	303.88
599.446	289.88
599.655	279.88
599.864	293.88
600.073	313.88
600.282	310.88
600.491	284.88
600.7	303.88
600.909	299.88
601.118	287.88
601.327	294.88
601.536	279.88
601.745	285.88
601.953	285.88
602.162	283.88
602.371	298.88
602.58	303.88
602.789	275.88
602.997	269.88
603.206	296.88
603.415	273.88
603.623	277.88
603.832	288.88
604.041	269.88
604.249	266.88
604.458	276.88
604.666	277.88
604.875	276.88
605.084	253.88
605.292	253.88
605.501	285.88
605.709	284.88
605.918	275.88
606.126	276.88
606.334	288.88
606.543	285.88
606.751	289.88
606.96	284.88
607.168	288.88
607.376	284.88
607.585	262.88
607.793	297.88
608.001	277.88
608.21	276.88
608.418	267.88
608.626	267.88
608.834	285.88
609.043	289.88
609.251	279.88
609.459	283.88
609.667	262.88
609.875	284.88
610.083	280.88
610.291	268.88
610.499	276.88
610.707	281.88
610.916	278.88
611.124	276.88
611.332	295.88
611.54	300.88
611.748	278.88
611.955	261.88
612.163	268.88
612.371	281.88
612.579	279.88
612.787	275.88
612.995	270.88
613.203	268.88
613.411	268.88
613.618	275.88
613.826	278.88
614.034	263.88
614.242	273.88
614.449	271.88
614.657	255.88
614.865	284.88
615.072	259.88
615.28	249.88
615.488	264.88
615.695	287.88
615.903	268.88
616.111	252.88
616.318	281.88
616.526	269.88
616.733	245.88
616.941	247.88
617.148	256.88
617.356	283.88
617.563	252.88
617.771	274.88
617.978	258.88
618.185	271.88
618.393	244.88
618.6	259.88
618.807	251.88
619.015	274.88
619.222	242.88
619.429	266.88
619.637	244.88
619.844	257.88
620.051	231.88
620.258	251.88
620.466	263.88
620.673	245.88
620.88	226.88
621.087	266.88
621.294	252.88
621.501	265.88
621.708	258.88
621.915	251.88
622.122	255.88
622.329	257.88
622.536	249.88
622.743	242.88
622.95	257.88
623.157	247.88
623.364	256.88
623.571	239.88
623.778	244.88
623.985	247.88
624.192	238.88
624.399	257.88
624.606	257.88
624.812	240.88
625.019	248.88
625.226	235.88
625.433	228.88
625.639	220.88
625.846	230.88
626.053	254.88
626.259	243.88
626.466	237.88
626.673	252.88
626.879	211.88
627.086	223.88
627.293	227.88
627.499	224.88
627.706	225.88
627.912	228.88
628.119	235.88
628.325	215.88
628.532	210.88
628.738	242.88
628.945	225.88
629.151	211.88
629.357	220.88
629.564	233.88
629.77	219.88
629.976	229.88
630.183	215.88
630.389	224.88
630.595	207.88
630.802	209.88
631.008	207.88
631.214	218.88
631.42	217.88
631.627	208.88
631.833	208.88
632.039	204.88
632.245	206.88
632.451	227.88
632.657	193.88
632.863	190.88
633.069	208.88
633.275	212.88
633.481	208.88
633.688	205.88
633.893	198.88
634.099	215.88
634.305	208.88
634.511	212.88
634.717	219.88
634.923	209.88
635.129	189.88
635.335	188.88
635.541	202.88
635.747	199.88
635.952	195.88
636.158	194.88
636.364	199.88
636.57	203.88
636.775	218.88
636.981	202.88
637.187	195.88
637.392	205.88
637.598	194.88
637.804	187.88
638.009	194.88
638.215	204.88
638.421	200.88
638.626	192.88
638.832	203.88
639.037	219.88
639.243	183.88
639.448	193.88
639.654	184.88
639.859	181.88
640.065	179.88
640.27	197.88
640.475	191.88
640.681	185.88
640.886	199.88
641.091	194.88
641.297	196.88
641.502	185.88
641.707	185.88
641.913	195.88
642.118	173.88
642.323	197.88
642.528	193.88
642.733	197.88
642.939	192.88
643.144	188.88
643.349	195.88
643.554	180.88
643.759	190.88
643.964	173.88
644.169	184.88
644.374	195.88
644.579	182.88
644.784	183.88
644.989	191.88
645.194	199.88
645.399	179.88
645.604	177.88
645.809	176.88
646.014	176.88
646.219	181.88
646.423	168.88
646.628	198.88
646.833	187.88
647.038	179.88
647.243	178.88
647.447	183.88
647.652	189.88
647.857	165.88
648.062	177.88
648.266	189.88
648.471	166.88
648.676	183.88
648.88	192.88
649.085	167.88
649.289	182.88
649.494	179.88
649.698	194.88
649.903	191.88
650.107	193.88
650.312	195.88
650.516	175.88
650.721	165.88
650.925	169.88
651.13	171.88
651.334	172.88
651.539	160.88
651.743	162.88
651.947	159.88
652.152	147.88
652.356	175.88
652.56	155.88
652.764	161.88
652.969	147.88
653.173	143.88
653.377	156.88
653.581	154.88
653.785	143.88
653.99	131.88
654.194	148.88
654.398	153.88
654.602	148.88
654.806	147.88
655.01	132.88
655.214	154.88
655.418	137.88
655.622	135.88
655.826	134.88
656.03	133.88
656.234	132.88
656.438	129.88
656.642	142.88
656.846	123.88
657.049	145.88
657.253	128.88
657.457	123.88
657.661	111.88
657.865	113.88
658.068	105.88
658.272	115.88
658.476	106.88
658.68	107.88
658.883	116.88
659.087	105.88
659.291	99.88
659.494	104.88
659.698	99.88
659.901	92.88
660.105	102.88
660.309	102.88
660.512	98.88
660.716	91.88
660.919	100.88
661.123	98.88
661.326	91.88
661.53	88.88
661.733	100.88
661.936	97.88
662.14	84.88
662.343	92.88
662.546	76.88
662.75	73.88
662.953	91.88
663.156	88.88
663.36	86.88
663.563	80.88
663.766	78.88
663.969	84.88
664.173	82.88
664.376	67.88
664.579	80.88
664.782	105.88
664.985	87.88
665.188	101.88
665.391	77.88
665.594	58.88
665.797	87.88
666	81.88
666.203	77.88
666.406	82.88
666.609	83.88
666.812	83.88
667.015	82.88
667.218	78.88
667.421	88.88
667.624	81.88
667.827	93.88
668.03	76.88
668.232	76.88
668.435	74.88
668.638	94.88
668.841	85.88
669.043	79.88
669.246	87.88
669.449	73.88
669.651	85.88
669.854	80.88
670.057	95.88
670.259	80.88
670.462	86.88
670.665	92.88
670.867	85.88
671.07	91.88
671.272	98.88
671.475	70.88
671.677	91.88
671.88	72.88
672.082	81.88
672.284	85.88
672.487	87.88
672.689	85.88
672.892	79.88
