Data from 1971.PennyLincolnUp.Lamp.En5.5.200Scan.071719.P1._HRD10591_15-18-42-841.txt Node
Date: Thu Jul 18 15:18:42 EDT 2019
User: cochatt
Spectrometer: HR+D1059
Trigger mode: 1
Integration Time (sec): 1.000000E-1
Scans to average: 1
Electric dark correction enabled: true
Nonlinearity correction enabled: false
Boxcar width: 0
XAxis mode: Wavelengths
Number of Pixels in Spectrum: 2048
>>>>>Begin Spectral Data<<<<<
223.165	-7.62
223.4	-7.62
223.635	-7.62
223.869	-18.62
224.104	-15.62
224.338	-16.62
224.573	-14.62
224.808	-21.62
225.042	-3.62
225.277	-11.62
225.511	5.38
225.746	11.38
225.98	-6.62
226.215	12.38
226.449	21.38
226.683	19.38
226.918	12.38
227.152	34.38
227.387	52.38
227.621	36.38
227.856	47.38
228.09	67.38
228.324	54.38
228.559	44.38
228.793	65.38
229.027	97.38
229.262	96.38
229.496	108.38
229.73	108.38
229.964	133.38
230.199	111.38
230.433	118.38
230.667	101.38
230.901	105.38
231.136	112.38
231.37	99.38
231.604	104.38
231.838	97.38
232.072	108.38
232.306	104.38
232.541	113.38
232.775	95.38
233.009	123.38
233.243	102.38
233.477	97.38
233.711	115.38
233.945	103.38
234.179	109.38
234.413	99.38
234.647	115.38
234.881	119.38
235.115	99.38
235.349	113.38
235.583	117.38
235.817	113.38
236.051	113.38
236.285	121.38
236.519	120.38
236.753	118.38
236.987	141.38
237.221	169.38
237.455	195.38
237.689	156.38
237.922	141.38
238.156	139.38
238.39	122.38
238.624	129.38
238.858	108.38
239.091	118.38
239.325	115.38
239.559	124.38
239.793	113.38
240.027	128.38
240.26	127.38
240.494	150.38
240.728	139.38
240.961	146.38
241.195	133.38
241.429	140.38
241.662	142.38
241.896	130.38
242.13	127.38
242.363	153.38
242.597	145.38
242.83	126.38
243.064	137.38
243.298	145.38
243.531	137.38
243.765	135.38
243.998	125.38
244.232	141.38
244.465	140.38
244.699	125.38
244.932	134.38
245.166	135.38
245.399	142.38
245.633	139.38
245.866	136.38
246.099	144.38
246.333	145.38
246.566	158.38
246.8	137.38
247.033	169.38
247.266	152.38
247.5	156.38
247.733	141.38
247.966	169.38
248.2	158.38
248.433	157.38
248.666	170.38
248.899	170.38
249.133	190.38
249.366	194.38
249.599	184.38
249.832	179.38
250.066	163.38
250.299	187.38
250.532	191.38
250.765	197.38
250.998	207.38
251.231	215.38
251.465	198.38
251.698	185.38
251.931	202.38
252.164	193.38
252.397	197.38
252.63	190.38
252.863	200.38
253.096	217.38
253.329	232.38
253.562	221.38
253.795	228.38
254.028	214.38
254.261	209.38
254.494	227.38
254.727	267.38
254.96	273.38
255.193	274.38
255.426	232.38
255.659	217.38
255.892	219.38
256.124	223.38
256.357	225.38
256.59	232.38
256.823	202.38
257.056	209.38
257.289	203.38
257.521	202.38
257.754	194.38
257.987	206.38
258.22	202.38
258.452	216.38
258.685	200.38
258.918	213.38
259.151	215.38
259.383	198.38
259.616	220.38
259.849	215.38
260.081	240.38
260.314	231.38
260.547	244.38
260.779	224.38
261.012	249.38
261.244	254.38
261.477	220.38
261.71	233.38
261.942	234.38
262.175	214.38
262.407	239.38
262.64	211.38
262.872	199.38
263.105	207.38
263.337	225.38
263.57	226.38
263.802	212.38
264.035	208.38
264.267	204.38
264.499	221.38
264.732	202.38
264.964	207.38
265.197	209.38
265.429	203.38
265.661	215.38
265.894	221.38
266.126	217.38
266.358	212.38
266.591	223.38
266.823	209.38
267.055	217.38
267.287	226.38
267.52	230.38
267.752	217.38
267.984	208.38
268.216	206.38
268.448	233.38
268.681	226.38
268.913	245.38
269.145	257.38
269.377	272.38
269.609	249.38
269.841	261.38
270.073	275.38
270.306	273.38
270.538	285.38
270.77	306.38
271.002	294.38
271.234	281.38
271.466	294.38
271.698	296.38
271.93	332.38
272.162	295.38
272.394	297.38
272.626	294.38
272.858	291.38
273.09	285.38
273.322	273.38
273.553	254.38
273.785	250.38
274.017	244.38
274.249	255.38
274.481	261.38
274.713	258.38
274.945	251.38
275.176	272.38
275.408	246.38
275.64	248.38
275.872	257.38
276.104	268.38
276.335	252.38
276.567	277.38
276.799	259.38
277.031	294.38
277.262	295.38
277.494	296.38
277.726	279.38
277.957	288.38
278.189	281.38
278.421	264.38
278.652	262.38
278.884	269.38
279.115	255.38
279.347	269.38
279.579	250.38
279.81	271.38
280.042	263.38
280.273	255.38
280.505	265.38
280.736	263.38
280.968	261.38
281.199	254.38
281.431	270.38
281.662	275.38
281.894	269.38
282.125	253.38
282.356	283.38
282.588	299.38
282.819	294.38
283.051	275.38
283.282	264.38
283.513	276.38
283.745	283.38
283.976	273.38
284.207	275.38
284.439	279.38
284.67	270.38
284.901	288.38
285.132	294.38
285.364	272.38
285.595	266.38
285.826	297.38
286.057	273.38
286.288	283.38
286.52	294.38
286.751	281.38
286.982	284.38
287.213	286.38
287.444	280.38
287.675	300.38
287.906	293.38
288.138	297.38
288.369	298.38
288.6	282.38
288.831	296.38
289.062	294.38
289.293	297.38
289.524	279.38
289.755	292.38
289.986	274.38
290.217	289.38
290.448	290.38
290.679	291.38
290.91	297.38
291.141	276.38
291.371	275.38
291.602	272.38
291.833	283.38
292.064	279.38
292.295	300.38
292.526	309.38
292.757	277.38
292.987	282.38
293.218	277.38
293.449	291.38
293.68	303.38
293.91	295.38
294.141	285.38
294.372	282.38
294.603	279.38
294.833	296.38
295.064	297.38
295.295	292.38
295.525	289.38
295.756	284.38
295.987	296.38
296.217	297.38
296.448	311.38
296.679	289.38
296.909	303.38
297.14	272.38
297.37	297.38
297.601	281.38
297.831	299.38
298.062	304.38
298.292	309.38
298.523	297.38
298.753	294.38
298.984	303.38
299.214	316.38
299.445	297.38
299.675	313.38
299.905	319.38
300.136	306.38
300.366	305.38
300.597	305.38
300.827	290.38
301.057	311.38
301.288	322.38
301.518	319.38
301.748	308.38
301.979	323.38
302.209	331.38
302.439	323.38
302.669	322.38
302.9	312.38
303.13	318.38
303.36	320.38
303.59	311.38
303.82	337.38
304.051	328.38
304.281	323.38
304.511	320.38
304.741	307.38
304.971	317.38
305.201	325.38
305.431	318.38
305.661	337.38
305.891	314.38
306.121	328.38
306.352	332.38
306.582	326.38
306.812	311.38
307.042	322.38
307.272	325.38
307.502	326.38
307.731	318.38
307.961	331.38
308.191	331.38
308.421	331.38
308.651	324.38
308.881	329.38
309.111	347.38
309.341	328.38
309.571	340.38
309.8	349.38
310.03	360.38
310.26	370.38
310.49	348.38
310.72	373.38
310.949	373.38
311.179	378.38
311.409	352.38
311.639	353.38
311.868	372.38
312.098	358.38
312.328	372.38
312.557	377.38
312.787	394.38
313.017	379.38
313.246	356.38
313.476	353.38
313.706	355.38
313.935	361.38
314.165	372.38
314.394	371.38
314.624	391.38
314.853	371.38
315.083	374.38
315.312	379.38
315.542	353.38
315.771	354.38
316.001	352.38
316.23	352.38
316.46	363.38
316.689	385.38
316.919	379.38
317.148	387.38
317.377	381.38
317.607	348.38
317.836	333.38
318.065	360.38
318.295	367.38
318.524	345.38
318.753	382.38
318.983	376.38
319.212	372.38
319.441	369.38
319.67	371.38
319.9	361.38
320.129	360.38
320.358	382.38
320.587	383.38
320.816	363.38
321.046	373.38
321.275	393.38
321.504	386.38
321.733	393.38
321.962	391.38
322.191	411.38
322.42	401.38
322.649	413.38
322.878	426.38
323.108	433.38
323.337	439.38
323.566	449.38
323.795	483.38
324.024	516.38
324.253	649.38
324.482	897.38
324.71	1311.38
324.939	1777.38
325.168	1475.38
325.397	823.38
325.626	568.38
325.855	513.38
326.084	476.38
326.313	467.38
326.542	478.38
326.77	516.38
326.999	599.38
327.228	799.38
327.457	1129.38
327.686	1316.38
327.914	913.38
328.143	626.38
328.372	561.38
328.6	538.38
328.829	519.38
329.058	519.38
329.287	517.38
329.515	497.38
329.744	473.38
329.972	477.38
330.201	482.38
330.43	498.38
330.658	519.38
330.887	549.38
331.115	532.38
331.344	481.38
331.572	449.38
331.801	462.38
332.03	442.38
332.258	423.38
332.486	438.38
332.715	416.38
332.943	419.38
333.172	431.38
333.4	434.38
333.629	408.38
333.857	437.38
334.085	449.38
334.314	459.38
334.542	455.38
334.771	488.38
334.999	456.38
335.227	435.38
335.455	434.38
335.684	420.38
335.912	409.38
336.14	411.38
336.369	420.38
336.597	416.38
336.825	431.38
337.053	402.38
337.281	405.38
337.51	409.38
337.738	419.38
337.966	403.38
338.194	425.38
338.422	394.38
338.65	407.38
338.878	402.38
339.106	417.38
339.334	376.38
339.562	409.38
339.79	398.38
340.018	417.38
340.246	411.38
340.474	411.38
340.702	411.38
340.93	394.38
341.158	384.38
341.386	401.38
341.614	396.38
341.842	402.38
342.07	405.38
342.298	396.38
342.526	391.38
342.754	375.38
342.981	396.38
343.209	395.38
343.437	391.38
343.665	389.38
343.893	392.38
344.12	407.38
344.348	402.38
344.576	406.38
344.804	412.38
345.031	419.38
345.259	425.38
345.487	395.38
345.714	397.38
345.942	380.38
346.17	411.38
346.397	384.38
346.625	380.38
346.853	397.38
347.08	372.38
347.308	399.38
347.535	391.38
347.763	401.38
347.99	377.38
348.218	380.38
348.445	397.38
348.673	372.38
348.9	363.38
349.128	377.38
349.355	362.38
349.583	363.38
349.81	379.38
350.037	371.38
350.265	368.38
350.492	385.38
350.72	361.38
350.947	383.38
351.174	377.38
351.402	396.38
351.629	383.38
351.856	371.38
352.083	393.38
352.311	390.38
352.538	377.38
352.765	391.38
352.992	361.38
353.22	375.38
353.447	376.38
353.674	360.38
353.901	351.38
354.128	370.38
354.355	348.38
354.583	353.38
354.81	362.38
355.037	347.38
355.264	368.38
355.491	361.38
355.718	356.38
355.945	343.38
356.172	342.38
356.399	347.38
356.626	350.38
356.853	353.38
357.08	333.38
357.307	357.38
357.534	354.38
357.761	345.38
357.988	353.38
358.215	351.38
358.441	324.38
358.668	338.38
358.895	361.38
359.122	365.38
359.349	348.38
359.576	368.38
359.802	390.38
360.029	394.38
360.256	396.38
360.483	387.38
360.709	378.38
360.936	371.38
361.163	354.38
361.39	365.38
361.616	382.38
361.843	355.38
362.07	373.38
362.296	387.38
362.523	348.38
362.749	364.38
362.976	377.38
363.203	375.38
363.429	350.38
363.656	363.38
363.882	356.38
364.109	353.38
364.335	344.38
364.562	341.38
364.788	363.38
365.015	358.38
365.241	355.38
365.468	353.38
365.694	355.38
365.92	340.38
366.147	359.38
366.373	375.38
366.599	366.38
366.826	337.38
367.052	359.38
367.278	342.38
367.505	350.38
367.731	357.38
367.957	351.38
368.184	370.38
368.41	351.38
368.636	374.38
368.862	370.38
369.089	361.38
369.315	356.38
369.541	359.38
369.767	355.38
369.993	347.38
370.219	321.38
370.445	327.38
370.672	344.38
370.898	337.38
371.124	352.38
371.35	344.38
371.576	356.38
371.802	351.38
372.028	344.38
372.254	331.38
372.48	345.38
372.706	350.38
372.932	349.38
373.158	342.38
373.384	352.38
373.61	334.38
373.835	340.38
374.061	328.38
374.287	349.38
374.513	349.38
374.739	351.38
374.965	373.38
375.191	370.38
375.416	367.38
375.642	344.38
375.868	332.38
376.094	315.38
376.319	338.38
376.545	349.38
376.771	338.38
376.997	328.38
377.222	348.38
377.448	340.38
377.674	336.38
377.899	351.38
378.125	338.38
378.35	326.38
378.576	322.38
378.802	326.38
379.027	326.38
379.253	336.38
379.478	328.38
379.704	336.38
379.929	323.38
380.155	325.38
380.38	344.38
380.606	344.38
380.831	365.38
381.057	354.38
381.282	329.38
381.507	343.38
381.733	334.38
381.958	345.38
382.184	344.38
382.409	347.38
382.634	331.38
382.86	363.38
383.085	345.38
383.31	343.38
383.535	346.38
383.761	368.38
383.986	347.38
384.211	369.38
384.436	342.38
384.662	334.38
384.887	356.38
385.112	354.38
385.337	377.38
385.562	356.38
385.787	384.38
386.013	368.38
386.238	363.38
386.463	352.38
386.688	358.38
386.913	374.38
387.138	375.38
387.363	359.38
387.588	359.38
387.813	366.38
388.038	355.38
388.263	375.38
388.488	372.38
388.713	350.38
388.938	368.38
389.163	365.38
389.387	367.38
389.612	360.38
389.837	368.38
390.062	356.38
390.287	367.38
390.512	371.38
390.736	351.38
390.961	355.38
391.186	367.38
391.411	379.38
391.636	364.38
391.86	369.38
392.085	364.38
392.31	356.38
392.534	359.38
392.759	373.38
392.984	345.38
393.208	374.38
393.433	369.38
393.658	369.38
393.882	340.38
394.107	347.38
394.331	345.38
394.556	345.38
394.78	345.38
395.005	371.38
395.229	350.38
395.454	363.38
395.678	387.38
395.903	395.38
396.127	399.38
396.352	402.38
396.576	377.38
396.801	377.38
397.025	370.38
397.249	360.38
397.474	351.38
397.698	375.38
397.922	399.38
398.147	412.38
398.371	393.38
398.595	385.38
398.82	399.38
399.044	408.38
399.268	425.38
399.492	437.38
399.717	459.38
399.941	479.38
400.165	476.38
400.389	497.38
400.613	449.38
400.837	428.38
401.062	426.38
401.286	399.38
401.51	383.38
401.734	367.38
401.958	396.38
402.182	387.38
402.406	408.38
402.63	391.38
402.854	411.38
403.078	419.38
403.302	403.38
403.526	405.38
403.75	408.38
403.974	410.38
404.198	433.38
404.422	424.38
404.645	417.38
404.869	408.38
405.093	435.38
405.317	456.38
405.541	487.38
405.765	456.38
405.988	426.38
406.212	471.38
406.436	426.38
406.66	476.38
406.883	450.38
407.107	474.38
407.331	490.38
407.555	511.38
407.778	513.38
408.002	486.38
408.226	453.38
408.449	450.38
408.673	459.38
408.896	469.38
409.12	501.38
409.344	475.38
409.567	425.38
409.791	409.38
410.014	425.38
410.238	400.38
410.461	409.38
410.685	417.38
410.908	420.38
411.132	441.38
411.355	483.38
411.578	461.38
411.802	420.38
412.025	408.38
412.249	438.38
412.472	431.38
412.695	473.38
412.919	457.38
413.142	400.38
413.365	402.38
413.589	378.38
413.812	391.38
414.035	387.38
414.258	401.38
414.482	383.38
414.705	387.38
414.928	359.38
415.151	386.38
415.374	373.38
415.597	381.38
415.821	379.38
416.044	394.38
416.267	394.38
416.49	386.38
416.713	387.38
416.936	380.38
417.159	375.38
417.382	382.38
417.605	378.38
417.828	386.38
418.051	420.38
418.274	413.38
418.497	398.38
418.72	407.38
418.943	405.38
419.166	405.38
419.389	414.38
419.611	415.38
419.834	401.38
420.057	419.38
420.28	404.38
420.503	427.38
420.726	406.38
420.948	406.38
421.171	448.38
421.394	461.38
421.617	419.38
421.839	412.38
422.062	428.38
422.285	420.38
422.507	463.38
422.73	532.38
422.953	474.38
423.175	450.38
423.398	440.38
423.621	406.38
423.843	435.38
424.066	431.38
424.288	438.38
424.511	462.38
424.733	493.38
424.956	556.38
425.178	530.38
425.401	529.38
425.623	538.38
425.846	467.38
426.068	442.38
426.291	436.38
426.513	433.38
426.735	451.38
426.958	459.38
427.18	538.38
427.402	657.38
427.625	689.38
427.847	598.38
428.069	503.38
428.292	460.38
428.514	424.38
428.736	426.38
428.958	406.38
429.181	412.38
429.403	397.38
429.625	424.38
429.847	445.38
430.069	487.38
430.292	477.38
430.514	404.38
430.736	407.38
430.958	382.38
431.18	398.38
431.402	405.38
431.624	377.38
431.846	384.38
432.068	363.38
432.29	377.38
432.512	378.38
432.734	388.38
432.956	379.38
433.178	403.38
433.4	415.38
433.622	380.38
433.844	395.38
434.066	391.38
434.287	374.38
434.509	368.38
434.731	389.38
434.953	387.38
435.175	420.38
435.397	416.38
435.618	438.38
435.84	469.38
436.062	533.38
436.284	587.38
436.505	481.38
436.727	446.38
436.949	402.38
437.17	408.38
437.392	400.38
437.614	415.38
437.835	447.38
438.057	496.38
438.278	577.38
438.5	578.38
438.721	644.38
438.943	614.38
439.165	485.38
439.386	450.38
439.608	467.38
439.829	459.38
440.05	467.38
440.272	504.38
440.493	476.38
440.715	441.38
440.936	408.38
441.158	421.38
441.379	398.38
441.6	410.38
441.822	421.38
442.043	467.38
442.264	513.38
442.486	550.38
442.707	485.38
442.928	453.38
443.149	473.38
443.371	460.38
443.592	501.38
443.813	569.38
444.034	634.38
444.255	524.38
444.476	468.38
444.698	429.38
444.919	436.38
445.14	571.38
445.361	515.38
445.582	456.38
445.803	526.38
446.024	579.38
446.245	593.38
446.466	554.38
446.687	469.38
446.908	451.38
447.129	426.38
447.35	412.38
447.571	423.38
447.792	414.38
448.013	419.38
448.234	437.38
448.455	476.38
448.675	539.38
448.896	643.38
449.117	571.38
449.338	528.38
449.559	577.38
449.779	643.38
450	545.38
450.221	435.38
450.442	403.38
450.662	394.38
450.883	400.38
451.104	400.38
451.324	398.38
451.545	384.38
451.766	373.38
451.986	368.38
452.207	343.38
452.428	373.38
452.648	370.38
452.869	367.38
453.089	364.38
453.31	373.38
453.53	356.38
453.751	339.38
453.971	324.38
454.192	359.38
454.412	360.38
454.633	356.38
454.853	345.38
455.073	351.38
455.294	371.38
455.514	435.38
455.734	419.38
455.955	369.38
456.175	321.38
456.395	320.38
456.616	348.38
456.836	346.38
457.056	338.38
457.276	326.38
457.497	335.38
457.717	331.38
457.937	341.38
458.157	344.38
458.377	346.38
458.598	352.38
458.818	390.38
459.038	471.38
459.258	467.38
459.478	425.38
459.698	378.38
459.918	362.38
460.138	379.38
460.358	377.38
460.578	397.38
460.798	360.38
461.018	391.38
461.238	381.38
461.458	373.38
461.678	374.38
461.898	385.38
462.118	369.38
462.338	379.38
462.558	385.38
462.777	398.38
462.997	390.38
463.217	415.38
463.437	401.38
463.657	411.38
463.876	395.38
464.096	409.38
464.316	403.38
464.536	383.38
464.755	386.38
464.975	402.38
465.195	430.38
465.414	473.38
465.634	430.38
465.854	398.38
466.073	364.38
466.293	367.38
466.512	379.38
466.732	362.38
466.951	364.38
467.171	372.38
467.391	371.38
467.61	373.38
467.829	365.38
468.049	361.38
468.268	372.38
468.488	359.38
468.707	353.38
468.927	377.38
469.146	363.38
469.365	374.38
469.585	362.38
469.804	379.38
470.023	379.38
470.243	374.38
470.462	354.38
470.681	362.38
470.901	376.38
471.12	367.38
471.339	376.38
471.558	369.38
471.777	366.38
471.997	387.38
472.216	377.38
472.435	377.38
472.654	376.38
472.873	377.38
473.092	384.38
473.311	358.38
473.53	385.38
473.749	383.38
473.968	413.38
474.187	470.38
474.406	518.38
474.625	422.38
474.844	386.38
475.063	364.38
475.282	351.38
475.501	387.38
475.72	370.38
475.939	373.38
476.158	371.38
476.377	398.38
476.596	377.38
476.814	399.38
477.033	390.38
477.252	379.38
477.471	383.38
477.69	395.38
477.908	392.38
478.127	398.38
478.346	418.38
478.564	381.38
478.783	408.38
479.002	410.38
479.22	417.38
479.439	415.38
479.658	442.38
479.876	435.38
480.095	420.38
480.313	460.38
480.532	468.38
480.751	443.38
480.969	449.38
481.188	486.38
481.406	486.38
481.624	439.38
481.843	412.38
482.061	411.38
482.28	434.38
482.498	407.38
482.717	409.38
482.935	424.38
483.153	416.38
483.372	444.38
483.59	461.38
483.808	430.38
484.027	425.38
484.245	418.38
484.463	412.38
484.681	446.38
484.9	432.38
485.118	433.38
485.336	448.38
485.554	432.38
485.772	442.38
485.99	435.38
486.209	426.38
486.427	435.38
486.645	432.38
486.863	459.38
487.081	459.38
487.299	451.38
487.517	464.38
487.735	442.38
487.953	476.38
488.171	491.38
488.389	460.38
488.607	468.38
488.825	445.38
489.043	465.38
489.261	454.38
489.479	472.38
489.696	449.38
489.914	474.38
490.132	465.38
490.35	500.38
490.568	483.38
490.786	513.38
491.003	519.38
491.221	519.38
491.439	511.38
491.657	515.38
491.874	516.38
492.092	530.38
492.31	545.38
492.527	549.38
492.745	536.38
492.963	527.38
493.18	523.38
493.398	538.38
493.615	549.38
493.833	533.38
494.05	547.38
494.268	548.38
494.485	539.38
494.703	553.38
494.92	540.38
495.138	533.38
495.355	539.38
495.573	554.38
495.79	524.38
496.008	563.38
496.225	541.38
496.442	525.38
496.66	554.38
496.877	517.38
497.094	540.38
497.312	537.38
497.529	537.38
497.746	579.38
497.963	562.38
498.181	585.38
498.398	590.38
498.615	599.38
498.832	599.38
499.049	600.38
499.267	631.38
499.484	657.38
499.701	654.38
499.918	675.38
500.135	711.38
500.352	711.38
500.569	711.38
500.786	719.38
501.003	703.38
501.22	682.38
501.437	701.38
501.654	679.38
501.871	664.38
502.088	658.38
502.305	627.38
502.522	596.38
502.739	608.38
502.956	578.38
503.172	562.38
503.389	567.38
503.606	568.38
503.823	543.38
504.04	553.38
504.256	542.38
504.473	544.38
504.69	530.38
504.907	545.38
505.123	545.38
505.34	528.38
505.557	522.38
505.773	491.38
505.99	525.38
506.207	525.38
506.423	511.38
506.64	514.38
506.856	502.38
507.073	498.38
507.289	508.38
507.506	503.38
507.722	519.38
507.939	514.38
508.155	489.38
508.372	482.38
508.588	483.38
508.805	473.38
509.021	484.38
509.238	502.38
509.454	495.38
509.67	491.38
509.887	491.38
510.103	499.38
510.319	491.38
510.536	569.38
510.752	836.38
510.968	673.38
511.184	496.38
511.401	482.38
511.617	466.38
511.833	464.38
512.049	468.38
512.265	440.38
512.481	442.38
512.698	474.38
512.914	456.38
513.13	433.38
513.346	458.38
513.562	455.38
513.778	480.38
513.994	475.38
514.21	450.38
514.426	474.38
514.642	526.38
514.858	534.38
515.074	563.38
515.29	629.38
515.506	891.38
515.721	731.38
515.937	525.38
516.153	518.38
516.369	486.38
516.585	471.38
516.801	460.38
517.016	466.38
517.232	456.38
517.448	440.38
517.664	459.38
517.879	463.38
518.095	451.38
518.311	455.38
518.527	479.38
518.742	442.38
518.958	450.38
519.173	452.38
519.389	453.38
519.605	448.38
519.82	435.38
520.036	477.38
520.251	464.38
520.467	502.38
520.682	487.38
520.898	482.38
521.113	498.38
521.329	530.38
521.544	587.38
521.76	697.38
521.975	1127.38
522.19	1055.38
522.406	649.38
522.621	501.38
522.836	486.38
523.052	481.38
523.267	444.38
523.482	423.38
523.698	423.38
523.913	435.38
524.128	425.38
524.343	414.38
524.559	415.38
524.774	421.38
524.989	406.38
525.204	419.38
525.419	421.38
525.634	391.38
525.849	387.38
526.064	375.38
526.28	382.38
526.495	376.38
526.71	377.38
526.925	378.38
527.14	365.38
527.355	367.38
527.57	381.38
527.785	367.38
527.999	372.38
528.214	387.38
528.429	386.38
528.644	389.38
528.859	376.38
529.074	386.38
529.289	412.38
529.503	450.38
529.718	421.38
529.933	393.38
530.148	364.38
530.363	393.38
530.577	383.38
530.792	379.38
531.007	381.38
531.221	370.38
531.436	363.38
531.651	348.38
531.865	368.38
532.08	355.38
532.295	342.38
532.509	359.38
532.724	351.38
532.938	346.38
533.153	369.38
533.367	373.38
533.582	377.38
533.796	363.38
534.011	341.38
534.225	364.38
534.44	339.38
534.654	364.38
534.868	347.38
535.083	342.38
535.297	354.38
535.511	357.38
535.726	363.38
535.94	370.38
536.154	353.38
536.369	347.38
536.583	344.38
536.797	347.38
537.011	330.38
537.225	338.38
537.44	357.38
537.654	360.38
537.868	334.38
538.082	353.38
538.296	350.38
538.51	364.38
538.724	341.38
538.938	353.38
539.153	361.38
539.367	363.38
539.581	361.38
539.795	346.38
540.009	358.38
540.222	356.38
540.436	356.38
540.65	361.38
540.864	357.38
541.078	362.38
541.292	383.38
541.506	372.38
541.72	355.38
541.934	351.38
542.147	360.38
542.361	341.38
542.575	340.38
542.789	348.38
543.002	352.38
543.216	355.38
543.43	358.38
543.644	353.38
543.857	367.38
544.071	358.38
544.285	344.38
544.498	348.38
544.712	384.38
544.925	371.38
545.139	355.38
545.352	356.38
545.566	328.38
545.779	358.38
545.993	360.38
546.206	364.38
546.42	349.38
546.633	355.38
546.847	336.38
547.06	363.38
547.274	337.38
547.487	344.38
547.7	344.38
547.914	351.38
548.127	337.38
548.34	349.38
548.554	350.38
548.767	339.38
548.98	351.38
549.193	346.38
549.407	344.38
549.62	342.38
549.833	349.38
550.046	350.38
550.259	345.38
550.473	340.38
550.686	356.38
550.899	346.38
551.112	348.38
551.325	328.38
551.538	324.38
551.751	328.38
551.964	345.38
552.177	328.38
552.39	314.38
552.603	325.38
552.816	352.38
553.029	331.38
553.242	341.38
553.455	346.38
553.667	339.38
553.88	342.38
554.093	343.38
554.306	338.38
554.519	345.38
554.732	345.38
554.944	309.38
555.157	337.38
555.37	324.38
555.583	316.38
555.795	332.38
556.008	331.38
556.221	315.38
556.433	311.38
556.646	311.38
556.859	307.38
557.071	285.38
557.284	309.38
557.496	319.38
557.709	318.38
557.921	300.38
558.134	299.38
558.346	307.38
558.559	301.38
558.771	309.38
558.984	293.38
559.196	291.38
559.409	290.38
559.621	296.38
559.833	289.38
560.046	292.38
560.258	302.38
560.47	294.38
560.683	301.38
560.895	303.38
561.107	307.38
561.32	284.38
561.532	316.38
561.744	315.38
561.956	304.38
562.168	305.38
562.381	309.38
562.593	297.38
562.805	298.38
563.017	297.38
563.229	295.38
563.441	299.38
563.653	299.38
563.865	304.38
564.077	301.38
564.289	296.38
564.501	308.38
564.713	323.38
564.925	308.38
565.137	326.38
565.349	335.38
565.561	315.38
565.773	324.38
565.985	334.38
566.197	341.38
566.408	331.38
566.62	336.38
566.832	357.38
567.044	347.38
567.255	333.38
567.467	356.38
567.679	375.38
567.891	360.38
568.102	361.38
568.314	343.38
568.526	333.38
568.737	335.38
568.949	310.38
569.161	318.38
569.372	316.38
569.584	316.38
569.795	312.38
570.007	317.38
570.218	324.38
570.43	313.38
570.641	311.38
570.853	296.38
571.064	280.38
571.276	281.38
571.487	279.38
571.698	278.38
571.91	282.38
572.121	268.38
572.333	264.38
572.544	264.38
572.755	280.38
572.966	272.38
573.178	252.38
573.389	273.38
573.6	269.38
573.811	259.38
574.023	251.38
574.234	256.38
574.445	236.38
574.656	240.38
574.867	257.38
575.078	248.38
575.289	232.38
575.501	229.38
575.712	268.38
575.923	249.38
576.134	251.38
576.345	244.38
576.556	243.38
576.767	245.38
576.978	258.38
577.188	257.38
577.399	245.38
577.61	241.38
577.821	248.38
578.032	263.38
578.243	289.38
578.454	403.38
578.665	304.38
578.875	255.38
579.086	240.38
579.297	239.38
579.508	231.38
579.718	224.38
579.929	222.38
580.14	227.38
580.35	243.38
580.561	241.38
580.772	243.38
580.982	254.38
581.193	253.38
581.403	239.38
581.614	233.38
581.825	223.38
582.035	231.38
582.246	231.38
582.456	227.38
582.667	219.38
582.877	221.38
583.087	228.38
583.298	228.38
583.508	239.38
583.719	240.38
583.929	224.38
584.139	219.38
584.35	244.38
584.56	226.38
584.77	227.38
584.981	238.38
585.191	243.38
585.401	235.38
585.611	228.38
585.821	223.38
586.032	239.38
586.242	211.38
586.452	222.38
586.662	232.38
586.872	234.38
587.082	214.38
587.292	229.38
587.502	235.38
587.713	225.38
587.923	206.38
588.133	228.38
588.343	227.38
588.553	224.38
588.762	214.38
588.972	233.38
589.182	235.38
589.392	232.38
589.602	235.38
589.812	215.38
590.022	232.38
590.232	224.38
590.441	219.38
590.651	239.38
590.861	230.38
591.071	225.38
591.281	222.38
591.49	232.38
591.7	247.38
591.91	239.38
592.119	214.38
592.329	242.38
592.539	231.38
592.748	220.38
592.958	228.38
593.167	233.38
593.377	243.38
593.587	236.38
593.796	235.38
594.006	233.38
594.215	235.38
594.424	232.38
594.634	243.38
594.843	230.38
595.053	245.38
595.262	230.38
595.472	216.38
595.681	227.38
595.89	222.38
596.1	219.38
596.309	212.38
596.518	221.38
596.727	214.38
596.937	224.38
597.146	227.38
597.355	205.38
597.564	233.38
597.774	223.38
597.983	201.38
598.192	212.38
598.401	214.38
598.61	205.38
598.819	214.38
599.028	217.38
599.237	199.38
599.446	219.38
599.655	217.38
599.864	205.38
600.073	198.38
600.282	200.38
600.491	210.38
600.7	192.38
600.909	191.38
601.118	202.38
601.327	203.38
601.536	203.38
601.745	188.38
601.953	213.38
602.162	196.38
602.371	207.38
602.58	199.38
602.789	217.38
602.997	193.38
603.206	202.38
603.415	192.38
603.623	203.38
603.832	207.38
604.041	202.38
604.249	207.38
604.458	200.38
604.666	201.38
604.875	196.38
605.084	184.38
605.292	186.38
605.501	211.38
605.709	202.38
605.918	190.38
606.126	192.38
606.334	216.38
606.543	203.38
606.751	200.38
606.96	193.38
607.168	205.38
607.376	199.38
607.585	204.38
607.793	197.38
608.001	196.38
608.21	203.38
608.418	197.38
608.626	210.38
608.834	196.38
609.043	200.38
609.251	201.38
609.459	175.38
609.667	207.38
609.875	194.38
610.083	206.38
610.291	201.38
610.499	193.38
610.707	195.38
610.916	190.38
611.124	190.38
611.332	199.38
611.54	217.38
611.748	212.38
611.955	219.38
612.163	203.38
612.371	201.38
612.579	199.38
612.787	208.38
612.995	187.38
613.203	200.38
613.411	187.38
613.618	188.38
613.826	194.38
614.034	191.38
614.242	193.38
614.449	195.38
614.657	208.38
614.865	193.38
615.072	204.38
615.28	188.38
615.488	202.38
615.695	184.38
615.903	197.38
616.111	191.38
616.318	191.38
616.526	187.38
616.733	209.38
616.941	195.38
617.148	197.38
617.356	188.38
617.563	178.38
617.771	208.38
617.978	198.38
618.185	183.38
618.393	198.38
618.6	188.38
618.807	186.38
619.015	188.38
619.222	199.38
619.429	189.38
619.637	188.38
619.844	170.38
620.051	190.38
620.258	191.38
620.466	192.38
620.673	186.38
620.88	179.38
621.087	169.38
621.294	184.38
621.501	192.38
621.708	169.38
621.915	187.38
622.122	198.38
622.329	191.38
622.536	185.38
622.743	191.38
622.95	156.38
623.157	187.38
623.364	179.38
623.571	195.38
623.778	176.38
623.985	184.38
624.192	184.38
624.399	186.38
624.606	191.38
624.812	188.38
625.019	161.38
625.226	183.38
625.433	182.38
625.639	167.38
625.846	154.38
626.053	170.38
626.259	175.38
626.466	181.38
626.673	166.38
626.879	167.38
627.086	170.38
627.293	184.38
627.499	167.38
627.706	179.38
627.912	170.38
628.119	152.38
628.325	167.38
628.532	162.38
628.738	171.38
628.945	166.38
629.151	158.38
629.357	162.38
629.564	154.38
629.77	161.38
629.976	164.38
630.183	157.38
630.389	167.38
630.595	171.38
630.802	155.38
631.008	162.38
631.214	159.38
631.42	181.38
631.627	159.38
631.833	153.38
632.039	153.38
632.245	165.38
632.451	149.38
632.657	159.38
632.863	163.38
633.069	168.38
633.275	152.38
633.481	147.38
633.688	149.38
633.893	157.38
634.099	145.38
634.305	156.38
634.511	159.38
634.717	152.38
634.923	159.38
635.129	157.38
635.335	141.38
635.541	155.38
635.747	154.38
635.952	153.38
636.158	165.38
636.364	156.38
636.57	154.38
636.775	144.38
636.981	140.38
637.187	143.38
637.392	150.38
637.598	156.38
637.804	155.38
638.009	144.38
638.215	149.38
638.421	160.38
638.626	161.38
638.832	151.38
639.037	155.38
639.243	157.38
639.448	162.38
639.654	149.38
639.859	147.38
640.065	144.38
640.27	142.38
640.475	146.38
640.681	136.38
640.886	147.38
641.091	172.38
641.297	159.38
641.502	166.38
641.707	157.38
641.913	145.38
642.118	132.38
642.323	143.38
642.528	157.38
642.733	149.38
642.939	142.38
643.144	149.38
643.349	148.38
643.554	160.38
643.759	141.38
643.964	149.38
644.169	129.38
644.374	137.38
644.579	137.38
644.784	146.38
644.989	127.38
645.194	156.38
645.399	138.38
645.604	144.38
645.809	143.38
646.014	155.38
646.219	144.38
646.423	145.38
646.628	144.38
646.833	140.38
647.038	140.38
647.243	161.38
647.447	136.38
647.652	153.38
647.857	141.38
648.062	148.38
648.266	144.38
648.471	144.38
648.676	138.38
648.88	140.38
649.085	153.38
649.289	133.38
649.494	157.38
649.698	162.38
649.903	167.38
650.107	160.38
650.312	155.38
650.516	123.38
650.721	147.38
650.925	140.38
651.13	118.38
651.334	128.38
651.539	128.38
651.743	127.38
651.947	133.38
652.152	139.38
652.356	134.38
652.56	139.38
652.764	130.38
652.969	132.38
653.173	123.38
653.377	127.38
653.581	122.38
653.785	127.38
653.99	107.38
654.194	108.38
654.398	120.38
654.602	131.38
654.806	124.38
655.01	120.38
655.214	133.38
655.418	136.38
655.622	121.38
655.826	123.38
656.03	117.38
656.234	113.38
656.438	113.38
656.642	122.38
656.846	127.38
657.049	106.38
657.253	106.38
657.457	111.38
657.661	127.38
657.865	108.38
658.068	100.38
658.272	113.38
658.476	101.38
658.68	115.38
658.883	102.38
659.087	98.38
659.291	104.38
659.494	104.38
659.698	95.38
659.901	90.38
660.105	96.38
660.309	93.38
660.512	74.38
660.716	87.38
660.919	79.38
661.123	84.38
661.326	90.38
661.53	89.38
661.733	89.38
661.936	99.38
662.14	87.38
662.343	76.38
662.546	82.38
662.75	86.38
662.953	88.38
663.156	67.38
663.36	73.38
663.563	76.38
663.766	88.38
663.969	88.38
664.173	81.38
664.376	92.38
664.579	80.38
664.782	87.38
664.985	88.38
665.188	76.38
665.391	84.38
665.594	86.38
665.797	76.38
666	77.38
666.203	74.38
666.406	97.38
666.609	83.38
666.812	92.38
667.015	93.38
667.218	69.38
667.421	84.38
667.624	88.38
667.827	90.38
668.03	84.38
668.232	81.38
668.435	80.38
668.638	91.38
668.841	63.38
669.043	84.38
669.246	81.38
669.449	81.38
669.651	76.38
669.854	85.38
670.057	67.38
670.259	77.38
670.462	85.38
670.665	100.38
670.867	95.38
671.07	86.38
671.272	84.38
671.475	74.38
671.677	66.38
671.88	70.38
672.082	76.38
672.284	74.38
672.487	71.38
672.689	74.38
672.892	76.38
