Data from 1971.PennyLincolnUp.Lamp.En5.5.200Scan.071719.P1.Scan 2. Changed Angle._HRD10591_15-24-15-843.txt Node
Date: Thu Jul 18 15:24:15 EDT 2019
User: cochatt
Spectrometer: HR+D1059
Trigger mode: 1
Integration Time (sec): 1.000000E-1
Scans to average: 1
Electric dark correction enabled: true
Nonlinearity correction enabled: false
Boxcar width: 0
XAxis mode: Wavelengths
Number of Pixels in Spectrum: 2048
>>>>>Begin Spectral Data<<<<<
223.165	-13.94
223.4	-13.94
223.635	-13.94
223.869	-16.94
224.104	-25.94
224.338	-14.94
224.573	-16.94
224.808	-9.94
225.042	-0.94
225.277	-1.94
225.511	4.06
225.746	9.06
225.98	11.06
226.215	3.06
226.449	14.06
226.683	12.06
226.918	19.06
227.152	29.06
227.387	45.06
227.621	36.06
227.856	44.06
228.09	55.06
228.324	45.06
228.559	56.06
228.793	77.06
229.027	102.06
229.262	125.06
229.496	120.06
229.73	146.06
229.964	182.06
230.199	149.06
230.433	121.06
230.667	123.06
230.901	117.06
231.136	124.06
231.37	116.06
231.604	126.06
231.838	138.06
232.072	134.06
232.306	123.06
232.541	130.06
232.775	121.06
233.009	116.06
233.243	126.06
233.477	125.06
233.711	124.06
233.945	126.06
234.179	123.06
234.413	127.06
234.647	121.06
234.881	121.06
235.115	128.06
235.349	120.06
235.583	114.06
235.817	129.06
236.051	144.06
236.285	144.06
236.519	139.06
236.753	140.06
236.987	166.06
237.221	230.06
237.455	290.06
237.689	222.06
237.922	162.06
238.156	134.06
238.39	146.06
238.624	126.06
238.858	127.06
239.091	138.06
239.325	138.06
239.559	132.06
239.793	144.06
240.027	141.06
240.26	156.06
240.494	164.06
240.728	165.06
240.961	168.06
241.195	166.06
241.429	162.06
241.662	161.06
241.896	144.06
242.13	149.06
242.363	144.06
242.597	145.06
242.83	152.06
243.064	146.06
243.298	138.06
243.531	153.06
243.765	149.06
243.998	159.06
244.232	157.06
244.465	157.06
244.699	150.06
244.932	157.06
245.166	144.06
245.399	161.06
245.633	162.06
245.866	162.06
246.099	181.06
246.333	161.06
246.566	151.06
246.8	160.06
247.033	165.06
247.266	164.06
247.5	171.06
247.733	173.06
247.966	166.06
248.2	167.06
248.433	188.06
248.666	193.06
248.899	215.06
249.133	211.06
249.366	231.06
249.599	225.06
249.832	206.06
250.066	203.06
250.299	202.06
250.532	205.06
250.765	237.06
250.998	225.06
251.231	231.06
251.465	247.06
251.698	238.06
251.931	246.06
252.164	219.06
252.397	221.06
252.63	225.06
252.863	248.06
253.096	249.06
253.329	244.06
253.562	270.06
253.795	258.06
254.028	226.06
254.261	250.06
254.494	267.06
254.727	286.06
254.96	332.06
255.193	297.06
255.426	292.06
255.659	290.06
255.892	261.06
256.124	234.06
256.357	255.06
256.59	240.06
256.823	239.06
257.056	251.06
257.289	233.06
257.521	221.06
257.754	229.06
257.987	242.06
258.22	223.06
258.452	213.06
258.685	243.06
258.918	224.06
259.151	218.06
259.383	237.06
259.616	238.06
259.849	247.06
260.081	257.06
260.314	292.06
260.547	284.06
260.779	267.06
261.012	256.06
261.244	253.06
261.477	237.06
261.71	261.06
261.942	234.06
262.175	267.06
262.407	254.06
262.64	250.06
262.872	222.06
263.105	213.06
263.337	231.06
263.57	227.06
263.802	223.06
264.035	229.06
264.267	224.06
264.499	207.06
264.732	221.06
264.964	219.06
265.197	231.06
265.429	230.06
265.661	222.06
265.894	205.06
266.126	217.06
266.358	228.06
266.591	210.06
266.823	228.06
267.055	221.06
267.287	231.06
267.52	243.06
267.752	223.06
267.984	229.06
268.216	247.06
268.448	244.06
268.681	236.06
268.913	245.06
269.145	272.06
269.377	294.06
269.609	276.06
269.841	282.06
270.073	276.06
270.306	317.06
270.538	349.06
270.77	345.06
271.002	342.06
271.234	318.06
271.466	314.06
271.698	341.06
271.93	356.06
272.162	348.06
272.394	363.06
272.626	328.06
272.858	310.06
273.09	294.06
273.322	282.06
273.553	308.06
273.785	282.06
274.017	276.06
274.249	265.06
274.481	278.06
274.713	271.06
274.945	290.06
275.176	259.06
275.408	275.06
275.64	278.06
275.872	267.06
276.104	272.06
276.335	283.06
276.567	263.06
276.799	303.06
277.031	319.06
277.262	315.06
277.494	331.06
277.726	307.06
277.957	309.06
278.189	316.06
278.421	287.06
278.652	294.06
278.884	294.06
279.115	272.06
279.347	263.06
279.579	252.06
279.81	265.06
280.042	273.06
280.273	274.06
280.505	281.06
280.736	278.06
280.968	270.06
281.199	277.06
281.431	256.06
281.662	278.06
281.894	248.06
282.125	286.06
282.356	282.06
282.588	322.06
282.819	312.06
283.051	268.06
283.282	268.06
283.513	266.06
283.745	279.06
283.976	276.06
284.207	303.06
284.439	278.06
284.67	299.06
284.901	273.06
285.132	272.06
285.364	278.06
285.595	277.06
285.826	252.06
286.057	286.06
286.288	282.06
286.52	269.06
286.751	282.06
286.982	274.06
287.213	281.06
287.444	279.06
287.675	276.06
287.906	295.06
288.138	309.06
288.369	303.06
288.6	285.06
288.831	307.06
289.062	292.06
289.293	285.06
289.524	293.06
289.755	281.06
289.986	272.06
290.217	285.06
290.448	272.06
290.679	294.06
290.91	293.06
291.141	265.06
291.371	287.06
291.602	276.06
291.833	275.06
292.064	271.06
292.295	285.06
292.526	290.06
292.757	299.06
292.987	289.06
293.218	289.06
293.449	276.06
293.68	301.06
293.91	286.06
294.141	285.06
294.372	285.06
294.603	276.06
294.833	292.06
295.064	282.06
295.295	289.06
295.525	281.06
295.756	298.06
295.987	303.06
296.217	325.06
296.448	342.06
296.679	308.06
296.909	304.06
297.14	285.06
297.37	302.06
297.601	303.06
297.831	304.06
298.062	299.06
298.292	288.06
298.523	303.06
298.753	293.06
298.984	297.06
299.214	324.06
299.445	295.06
299.675	303.06
299.905	292.06
300.136	305.06
300.366	303.06
300.597	302.06
300.827	299.06
301.057	319.06
301.288	317.06
301.518	333.06
301.748	317.06
301.979	313.06
302.209	319.06
302.439	315.06
302.669	332.06
302.9	324.06
303.13	292.06
303.36	307.06
303.59	324.06
303.82	332.06
304.051	337.06
304.281	317.06
304.511	322.06
304.741	301.06
304.971	307.06
305.201	322.06
305.431	314.06
305.661	320.06
305.891	311.06
306.121	333.06
306.352	324.06
306.582	326.06
306.812	326.06
307.042	314.06
307.272	341.06
307.502	351.06
307.731	320.06
307.961	329.06
308.191	314.06
308.421	326.06
308.651	327.06
308.881	326.06
309.111	347.06
309.341	346.06
309.571	358.06
309.8	358.06
310.03	374.06
310.26	390.06
310.49	369.06
310.72	391.06
310.949	416.06
311.179	415.06
311.409	403.06
311.639	376.06
311.868	386.06
312.098	396.06
312.328	399.06
312.557	413.06
312.787	444.06
313.017	422.06
313.246	384.06
313.476	374.06
313.706	362.06
313.935	377.06
314.165	419.06
314.394	408.06
314.624	406.06
314.853	391.06
315.083	383.06
315.312	362.06
315.542	360.06
315.771	361.06
316.001	374.06
316.23	351.06
316.46	379.06
316.689	388.06
316.919	386.06
317.148	405.06
317.377	394.06
317.607	390.06
317.836	399.06
318.065	372.06
318.295	383.06
318.524	388.06
318.753	399.06
318.983	371.06
319.212	388.06
319.441	389.06
319.67	418.06
319.9	407.06
320.129	383.06
320.358	388.06
320.587	397.06
320.816	403.06
321.046	405.06
321.275	423.06
321.504	406.06
321.733	434.06
321.962	439.06
322.191	456.06
322.42	453.06
322.649	468.06
322.878	497.06
323.108	504.06
323.337	541.06
323.566	546.06
323.795	595.06
324.024	644.06
324.253	816.06
324.482	1206.06
324.71	1877.06
324.939	2661.06
325.168	2317.06
325.397	1215.06
325.626	797.06
325.855	640.06
326.084	570.06
326.313	579.06
326.542	582.06
326.77	635.06
326.999	759.06
327.228	1092.06
327.457	1623.06
327.686	1986.06
327.914	1326.06
328.143	877.06
328.372	765.06
328.6	692.06
328.829	642.06
329.058	664.06
329.287	681.06
329.515	628.06
329.744	590.06
329.972	547.06
330.201	599.06
330.43	651.06
330.658	679.06
330.887	715.06
331.115	709.06
331.344	592.06
331.572	543.06
331.801	546.06
332.03	536.06
332.258	502.06
332.486	484.06
332.715	451.06
332.943	455.06
333.172	482.06
333.4	457.06
333.629	494.06
333.857	518.06
334.085	501.06
334.314	521.06
334.542	559.06
334.771	571.06
334.999	520.06
335.227	501.06
335.455	470.06
335.684	468.06
335.912	451.06
336.14	447.06
336.369	442.06
336.597	459.06
336.825	464.06
337.053	477.06
337.281	431.06
337.51	431.06
337.738	445.06
337.966	460.06
338.194	462.06
338.422	447.06
338.65	424.06
338.878	428.06
339.106	430.06
339.334	450.06
339.562	412.06
339.79	438.06
340.018	440.06
340.246	427.06
340.474	442.06
340.702	450.06
340.93	440.06
341.158	424.06
341.386	436.06
341.614	448.06
341.842	432.06
342.07	446.06
342.298	428.06
342.526	419.06
342.754	417.06
342.981	400.06
343.209	412.06
343.437	438.06
343.665	432.06
343.893	431.06
344.12	422.06
344.348	414.06
344.576	428.06
344.804	465.06
345.031	460.06
345.259	494.06
345.487	470.06
345.714	464.06
345.942	451.06
346.17	452.06
346.397	428.06
346.625	437.06
346.853	431.06
347.08	428.06
347.308	449.06
347.535	451.06
347.763	426.06
347.99	446.06
348.218	438.06
348.445	448.06
348.673	451.06
348.9	437.06
349.128	437.06
349.355	432.06
349.583	416.06
349.81	414.06
350.037	428.06
350.265	429.06
350.492	407.06
350.72	422.06
350.947	432.06
351.174	429.06
351.402	454.06
351.629	415.06
351.856	456.06
352.083	453.06
352.311	456.06
352.538	469.06
352.765	475.06
352.992	462.06
353.22	425.06
353.447	454.06
353.674	454.06
353.901	413.06
354.128	392.06
354.355	404.06
354.583	405.06
354.81	400.06
355.037	391.06
355.264	380.06
355.491	386.06
355.718	402.06
355.945	386.06
356.172	407.06
356.399	408.06
356.626	395.06
356.853	392.06
357.08	385.06
357.307	405.06
357.534	422.06
357.761	418.06
357.988	405.06
358.215	407.06
358.441	392.06
358.668	402.06
358.895	417.06
359.122	408.06
359.349	432.06
359.576	451.06
359.802	476.06
360.029	516.06
360.256	531.06
360.483	498.06
360.709	436.06
360.936	434.06
361.163	446.06
361.39	451.06
361.616	446.06
361.843	442.06
362.07	434.06
362.296	467.06
362.523	453.06
362.749	445.06
362.976	455.06
363.203	420.06
363.429	402.06
363.656	439.06
363.882	414.06
364.109	426.06
364.335	420.06
364.562	417.06
364.788	420.06
365.015	446.06
365.241	413.06
365.468	418.06
365.694	435.06
365.92	418.06
366.147	439.06
366.373	413.06
366.599	412.06
366.826	419.06
367.052	408.06
367.278	398.06
367.505	419.06
367.731	431.06
367.957	416.06
368.184	420.06
368.41	421.06
368.636	437.06
368.862	439.06
369.089	427.06
369.315	398.06
369.541	436.06
369.767	420.06
369.993	427.06
370.219	411.06
370.445	415.06
370.672	429.06
370.898	406.06
371.124	430.06
371.35	427.06
371.576	406.06
371.802	410.06
372.028	408.06
372.254	404.06
372.48	411.06
372.706	418.06
372.932	408.06
373.158	395.06
373.384	423.06
373.61	404.06
373.835	418.06
374.061	432.06
374.287	422.06
374.513	425.06
374.739	408.06
374.965	421.06
375.191	406.06
375.416	407.06
375.642	417.06
375.868	409.06
376.094	431.06
376.319	403.06
376.545	392.06
376.771	404.06
376.997	405.06
377.222	412.06
377.448	408.06
377.674	413.06
377.899	397.06
378.125	383.06
378.35	415.06
378.576	398.06
378.802	394.06
379.027	430.06
379.253	393.06
379.478	378.06
379.704	400.06
379.929	422.06
380.155	413.06
380.38	404.06
380.606	408.06
380.831	424.06
381.057	408.06
381.282	420.06
381.507	413.06
381.733	410.06
381.958	431.06
382.184	414.06
382.409	406.06
382.634	417.06
382.86	416.06
383.085	407.06
383.31	422.06
383.535	420.06
383.761	435.06
383.986	438.06
384.211	429.06
384.436	416.06
384.662	413.06
384.887	448.06
385.112	419.06
385.337	454.06
385.562	428.06
385.787	420.06
386.013	444.06
386.238	440.06
386.463	471.06
386.688	434.06
386.913	426.06
387.138	441.06
387.363	441.06
387.588	455.06
387.813	414.06
388.038	423.06
388.263	448.06
388.488	458.06
388.713	448.06
388.938	452.06
389.163	485.06
389.387	458.06
389.612	424.06
389.837	450.06
390.062	445.06
390.287	447.06
390.512	442.06
390.736	427.06
390.961	442.06
391.186	429.06
391.411	455.06
391.636	464.06
391.86	449.06
392.085	465.06
392.31	464.06
392.534	461.06
392.759	469.06
392.984	462.06
393.208	465.06
393.433	450.06
393.658	442.06
393.882	464.06
394.107	454.06
394.331	448.06
394.556	456.06
394.78	451.06
395.005	456.06
395.229	429.06
395.454	452.06
395.678	474.06
395.903	496.06
396.127	511.06
396.352	482.06
396.576	481.06
396.801	464.06
397.025	491.06
397.249	476.06
397.474	486.06
397.698	472.06
397.922	485.06
398.147	501.06
398.371	523.06
398.595	468.06
398.82	485.06
399.044	516.06
399.268	517.06
399.492	541.06
399.717	551.06
399.941	574.06
400.165	617.06
400.389	611.06
400.613	567.06
400.837	534.06
401.062	518.06
401.286	535.06
401.51	510.06
401.734	493.06
401.958	487.06
402.182	533.06
402.406	544.06
402.63	542.06
402.854	528.06
403.078	540.06
403.302	552.06
403.526	558.06
403.75	527.06
403.974	511.06
404.198	543.06
404.422	529.06
404.645	552.06
404.869	570.06
405.093	578.06
405.317	630.06
405.541	671.06
405.765	597.06
405.988	562.06
406.212	560.06
406.436	613.06
406.66	632.06
406.883	593.06
407.107	607.06
407.331	630.06
407.555	737.06
407.778	738.06
408.002	690.06
408.226	600.06
408.449	592.06
408.673	603.06
408.896	632.06
409.12	699.06
409.344	655.06
409.567	594.06
409.791	559.06
410.014	564.06
410.238	559.06
410.461	547.06
410.685	547.06
410.908	564.06
411.132	594.06
411.355	654.06
411.578	627.06
411.802	578.06
412.025	548.06
412.249	542.06
412.472	592.06
412.695	632.06
412.919	588.06
413.142	564.06
413.365	535.06
413.589	528.06
413.812	540.06
414.035	524.06
414.258	503.06
414.482	506.06
414.705	502.06
414.928	529.06
415.151	498.06
415.374	501.06
415.597	521.06
415.821	521.06
416.044	520.06
416.267	491.06
416.49	509.06
416.713	516.06
416.936	511.06
417.159	512.06
417.382	540.06
417.605	538.06
417.828	546.06
418.051	543.06
418.274	552.06
418.497	524.06
418.72	519.06
418.943	520.06
419.166	541.06
419.389	566.06
419.611	550.06
419.834	562.06
420.057	564.06
420.28	573.06
420.503	558.06
420.726	564.06
420.948	595.06
421.171	612.06
421.394	667.06
421.617	570.06
421.839	572.06
422.062	563.06
422.285	565.06
422.507	673.06
422.73	710.06
422.953	709.06
423.175	613.06
423.398	587.06
423.621	574.06
423.843	618.06
424.066	622.06
424.288	584.06
424.511	638.06
424.733	684.06
424.956	768.06
425.178	764.06
425.401	723.06
425.623	764.06
425.846	670.06
426.068	623.06
426.291	593.06
426.513	641.06
426.735	639.06
426.958	701.06
427.18	774.06
427.402	882.06
427.625	989.06
427.847	909.06
428.069	790.06
428.292	700.06
428.514	648.06
428.736	607.06
428.958	597.06
429.181	599.06
429.403	539.06
429.625	571.06
429.847	620.06
430.069	694.06
430.292	652.06
430.514	619.06
430.736	553.06
430.958	572.06
431.18	554.06
431.402	540.06
431.624	540.06
431.846	538.06
432.068	543.06
432.29	532.06
432.512	526.06
432.734	555.06
432.956	562.06
433.178	554.06
433.4	555.06
433.622	540.06
433.844	521.06
434.066	509.06
434.287	538.06
434.509	556.06
434.731	547.06
434.953	529.06
435.175	566.06
435.397	616.06
435.618	613.06
435.84	658.06
436.062	777.06
436.284	867.06
436.505	739.06
436.727	660.06
436.949	606.06
437.17	610.06
437.392	603.06
437.614	590.06
437.835	647.06
438.057	746.06
438.278	854.06
438.5	843.06
438.721	920.06
438.943	882.06
439.165	744.06
439.386	664.06
439.608	635.06
439.829	670.06
440.05	675.06
440.272	738.06
440.493	679.06
440.715	635.06
440.936	602.06
441.158	602.06
441.379	579.06
441.6	598.06
441.822	638.06
442.043	664.06
442.264	786.06
442.486	786.06
442.707	672.06
442.928	651.06
443.149	655.06
443.371	690.06
443.592	748.06
443.813	824.06
444.034	878.06
444.255	717.06
444.476	655.06
444.698	637.06
444.919	590.06
445.14	739.06
445.361	682.06
445.582	664.06
445.803	775.06
446.024	850.06
446.245	875.06
446.466	802.06
446.687	723.06
446.908	641.06
447.129	590.06
447.35	582.06
447.571	588.06
447.792	591.06
448.013	571.06
448.234	608.06
448.455	686.06
448.675	781.06
448.896	908.06
449.117	783.06
449.338	756.06
449.559	857.06
449.779	955.06
450	778.06
450.221	655.06
450.442	606.06
450.662	592.06
450.883	588.06
451.104	622.06
451.324	614.06
451.545	576.06
451.766	548.06
451.986	546.06
452.207	533.06
452.428	536.06
452.648	529.06
452.869	534.06
453.089	532.06
453.31	538.06
453.53	559.06
453.751	539.06
453.971	536.06
454.192	563.06
454.412	535.06
454.633	534.06
454.853	519.06
455.073	518.06
455.294	559.06
455.514	657.06
455.734	641.06
455.955	538.06
456.175	507.06
456.395	502.06
456.616	503.06
456.836	468.06
457.056	470.06
457.276	484.06
457.497	478.06
457.717	518.06
457.937	503.06
458.157	499.06
458.377	494.06
458.598	540.06
458.818	607.06
459.038	694.06
459.258	716.06
459.478	611.06
459.698	569.06
459.918	520.06
460.138	536.06
460.358	519.06
460.578	519.06
460.798	542.06
461.018	544.06
461.238	548.06
461.458	537.06
461.678	521.06
461.898	534.06
462.118	516.06
462.338	535.06
462.558	539.06
462.777	532.06
462.997	538.06
463.217	533.06
463.437	538.06
463.657	548.06
463.876	569.06
464.096	566.06
464.316	555.06
464.536	583.06
464.755	549.06
464.975	580.06
465.195	639.06
465.414	746.06
465.634	658.06
465.854	635.06
466.073	602.06
466.293	560.06
466.512	527.06
466.732	522.06
466.951	543.06
467.171	518.06
467.391	529.06
467.61	525.06
467.829	551.06
468.049	558.06
468.268	532.06
468.488	528.06
468.707	538.06
468.927	509.06
469.146	506.06
469.365	502.06
469.585	503.06
469.804	522.06
470.023	528.06
470.243	539.06
470.462	548.06
470.681	580.06
470.901	548.06
471.12	553.06
471.339	526.06
471.558	536.06
471.777	534.06
471.997	543.06
472.216	571.06
472.435	576.06
472.654	594.06
472.873	543.06
473.092	530.06
473.311	526.06
473.53	528.06
473.749	560.06
473.968	604.06
474.187	736.06
474.406	766.06
474.625	621.06
474.844	575.06
475.063	555.06
475.282	549.06
475.501	556.06
475.72	553.06
475.939	527.06
476.158	543.06
476.377	536.06
476.596	574.06
476.814	574.06
477.033	582.06
477.252	566.06
477.471	564.06
477.69	578.06
477.908	568.06
478.127	595.06
478.346	566.06
478.564	593.06
478.783	594.06
479.002	611.06
479.22	618.06
479.439	612.06
479.658	643.06
479.876	674.06
480.095	662.06
480.313	655.06
480.532	633.06
480.751	655.06
480.969	677.06
481.188	721.06
481.406	795.06
481.624	705.06
481.843	644.06
482.061	644.06
482.28	629.06
482.498	654.06
482.717	646.06
482.935	648.06
483.153	651.06
483.372	633.06
483.59	635.06
483.808	637.06
484.027	646.06
484.245	631.06
484.463	647.06
484.681	648.06
484.9	651.06
485.118	660.06
485.336	664.06
485.554	678.06
485.772	694.06
485.99	685.06
486.209	692.06
486.427	676.06
486.645	701.06
486.863	741.06
487.081	693.06
487.299	713.06
487.517	704.06
487.735	710.06
487.953	703.06
488.171	686.06
488.389	704.06
488.607	703.06
488.825	703.06
489.043	691.06
489.261	694.06
489.479	691.06
489.696	703.06
489.914	730.06
490.132	725.06
490.35	732.06
490.568	762.06
490.786	743.06
491.003	756.06
491.221	785.06
491.439	788.06
491.657	778.06
491.874	792.06
492.092	815.06
492.31	815.06
492.527	842.06
492.745	800.06
492.963	852.06
493.18	824.06
493.398	841.06
493.615	846.06
493.833	856.06
494.05	824.06
494.268	851.06
494.485	851.06
494.703	833.06
494.92	862.06
495.138	842.06
495.355	834.06
495.573	855.06
495.79	856.06
496.008	869.06
496.225	842.06
496.442	845.06
496.66	856.06
496.877	866.06
497.094	830.06
497.312	859.06
497.529	844.06
497.746	878.06
497.963	884.06
498.181	891.06
498.398	869.06
498.615	894.06
498.832	904.06
499.049	898.06
499.267	928.06
499.484	924.06
499.701	943.06
499.918	956.06
500.135	995.06
500.352	1034.06
500.569	1042.06
500.786	1026.06
501.003	1015.06
501.22	1005.06
501.437	988.06
501.654	979.06
501.871	1021.06
502.088	962.06
502.305	927.06
502.522	906.06
502.739	894.06
502.956	875.06
503.172	867.06
503.389	873.06
503.606	855.06
503.823	863.06
504.04	866.06
504.256	827.06
504.473	811.06
504.69	804.06
504.907	795.06
505.123	813.06
505.34	818.06
505.557	824.06
505.773	804.06
505.99	826.06
506.207	791.06
506.423	820.06
506.64	810.06
506.856	800.06
507.073	805.06
507.289	755.06
507.506	797.06
507.722	824.06
507.939	861.06
508.155	836.06
508.372	799.06
508.588	782.06
508.805	815.06
509.021	797.06
509.238	784.06
509.454	807.06
509.67	810.06
509.887	798.06
510.103	803.06
510.319	792.06
510.536	912.06
510.752	1581.06
510.968	1277.06
511.184	854.06
511.401	764.06
511.617	778.06
511.833	778.06
512.049	745.06
512.265	741.06
512.481	751.06
512.698	753.06
512.914	749.06
513.13	732.06
513.346	742.06
513.562	754.06
513.778	758.06
513.994	787.06
514.21	782.06
514.426	795.06
514.642	886.06
514.858	888.06
515.074	956.06
515.29	1156.06
515.506	1799.06
515.721	1414.06
515.937	963.06
516.153	864.06
516.369	807.06
516.585	780.06
516.801	774.06
517.016	766.06
517.232	730.06
517.448	735.06
517.664	770.06
517.879	728.06
518.095	712.06
518.311	741.06
518.527	719.06
518.742	727.06
518.958	717.06
519.173	730.06
519.389	740.06
519.605	733.06
519.82	740.06
520.036	778.06
520.251	800.06
520.467	831.06
520.682	845.06
520.898	822.06
521.113	897.06
521.329	941.06
521.544	1102.06
521.76	1404.06
521.975	2320.06
522.19	2247.06
522.406	1228.06
522.621	915.06
522.836	829.06
523.052	726.06
523.267	722.06
523.482	674.06
523.698	706.06
523.913	715.06
524.128	684.06
524.343	667.06
524.559	668.06
524.774	647.06
524.989	641.06
525.204	648.06
525.419	669.06
525.634	596.06
525.849	626.06
526.064	630.06
526.28	622.06
526.495	603.06
526.71	600.06
526.925	599.06
527.14	602.06
527.355	569.06
527.57	598.06
527.785	605.06
527.999	582.06
528.214	604.06
528.429	592.06
528.644	594.06
528.859	605.06
529.074	613.06
529.289	634.06
529.503	744.06
529.718	721.06
529.933	655.06
530.148	631.06
530.363	594.06
530.577	591.06
530.792	583.06
531.007	587.06
531.221	586.06
531.436	597.06
531.651	558.06
531.865	576.06
532.08	575.06
532.295	584.06
532.509	572.06
532.724	570.06
532.938	526.06
533.153	539.06
533.367	551.06
533.582	571.06
533.796	543.06
534.011	559.06
534.225	541.06
534.44	540.06
534.654	550.06
534.868	548.06
535.083	555.06
535.297	562.06
535.511	568.06
535.726	572.06
535.94	569.06
536.154	554.06
536.369	554.06
536.583	553.06
536.797	547.06
537.011	544.06
537.225	541.06
537.44	538.06
537.654	552.06
537.868	553.06
538.082	536.06
538.296	528.06
538.51	534.06
538.724	529.06
538.938	529.06
539.153	559.06
539.367	547.06
539.581	548.06
539.795	530.06
540.009	509.06
540.222	536.06
540.436	520.06
540.65	528.06
540.864	543.06
541.078	574.06
541.292	562.06
541.506	540.06
541.72	540.06
541.934	535.06
542.147	548.06
542.361	546.06
542.575	526.06
542.789	534.06
543.002	535.06
543.216	545.06
543.43	547.06
543.644	505.06
543.857	513.06
544.071	531.06
544.285	523.06
544.498	545.06
544.712	548.06
544.925	511.06
545.139	532.06
545.352	510.06
545.566	522.06
545.779	506.06
545.993	513.06
546.206	528.06
546.42	518.06
546.633	514.06
546.847	528.06
547.06	502.06
547.274	508.06
547.487	507.06
547.7	517.06
547.914	508.06
548.127	508.06
548.34	498.06
548.554	504.06
548.767	508.06
548.98	492.06
549.193	508.06
549.407	496.06
549.62	505.06
549.833	499.06
550.046	494.06
550.259	504.06
550.473	480.06
550.686	484.06
550.899	496.06
551.112	484.06
551.325	474.06
551.538	490.06
551.751	499.06
551.964	490.06
552.177	482.06
552.39	471.06
552.603	498.06
552.816	487.06
553.029	494.06
553.242	510.06
553.455	509.06
553.667	513.06
553.88	532.06
554.093	488.06
554.306	510.06
554.519	470.06
554.732	480.06
554.944	493.06
555.157	476.06
555.37	474.06
555.583	474.06
555.795	472.06
556.008	476.06
556.221	471.06
556.433	456.06
556.646	454.06
556.859	452.06
557.071	442.06
557.284	463.06
557.496	444.06
557.709	447.06
557.921	479.06
558.134	451.06
558.346	468.06
558.559	452.06
558.771	460.06
558.984	456.06
559.196	450.06
559.409	432.06
559.621	448.06
559.833	439.06
560.046	430.06
560.258	454.06
560.47	437.06
560.683	458.06
560.895	434.06
561.107	460.06
561.32	413.06
561.532	433.06
561.744	435.06
561.956	435.06
562.168	438.06
562.381	457.06
562.593	469.06
562.805	452.06
563.017	440.06
563.229	448.06
563.441	445.06
563.653	428.06
563.865	424.06
564.077	428.06
564.289	447.06
564.501	444.06
564.713	475.06
564.925	454.06
565.137	467.06
565.349	461.06
565.561	446.06
565.773	439.06
565.985	471.06
566.197	482.06
566.408	481.06
566.62	513.06
566.832	488.06
567.044	484.06
567.255	493.06
567.467	492.06
567.679	515.06
567.891	483.06
568.102	494.06
568.314	483.06
568.526	478.06
568.737	461.06
568.949	455.06
569.161	462.06
569.372	458.06
569.584	426.06
569.795	429.06
570.007	433.06
570.218	512.06
570.43	508.06
570.641	438.06
570.853	416.06
571.064	436.06
571.276	420.06
571.487	414.06
571.698	418.06
571.91	407.06
572.121	396.06
572.333	425.06
572.544	374.06
572.755	386.06
572.966	409.06
573.178	386.06
573.389	390.06
573.6	377.06
573.811	382.06
574.023	385.06
574.234	383.06
574.445	379.06
574.656	387.06
574.867	383.06
575.078	365.06
575.289	372.06
575.501	380.06
575.712	392.06
575.923	376.06
576.134	370.06
576.345	358.06
576.556	378.06
576.767	373.06
576.978	381.06
577.188	385.06
577.399	388.06
577.61	361.06
577.821	378.06
578.032	355.06
578.243	412.06
578.454	711.06
578.665	522.06
578.875	379.06
579.086	360.06
579.297	348.06
579.508	362.06
579.718	353.06
579.929	350.06
580.14	357.06
580.35	327.06
580.561	342.06
580.772	354.06
580.982	330.06
581.193	353.06
581.403	331.06
581.614	365.06
581.825	340.06
582.035	332.06
582.246	357.06
582.456	337.06
582.667	344.06
582.877	341.06
583.087	346.06
583.298	328.06
583.508	348.06
583.719	347.06
583.929	339.06
584.139	340.06
584.35	340.06
584.56	337.06
584.77	339.06
584.981	333.06
585.191	323.06
585.401	326.06
585.611	315.06
585.821	327.06
586.032	342.06
586.242	328.06
586.452	310.06
586.662	312.06
586.872	329.06
587.082	332.06
587.292	348.06
587.502	342.06
587.713	307.06
587.923	340.06
588.133	320.06
588.343	327.06
588.553	322.06
588.762	331.06
588.972	330.06
589.182	325.06
589.392	322.06
589.602	328.06
589.812	300.06
590.022	309.06
590.232	326.06
590.441	330.06
590.651	340.06
590.861	321.06
591.071	335.06
591.281	312.06
591.49	322.06
591.7	333.06
591.91	328.06
592.119	312.06
592.329	347.06
592.539	332.06
592.748	335.06
592.958	333.06
593.167	318.06
593.377	344.06
593.587	322.06
593.796	322.06
594.006	323.06
594.215	321.06
594.424	330.06
594.634	339.06
594.843	331.06
595.053	315.06
595.262	334.06
595.472	321.06
595.681	316.06
595.89	334.06
596.1	297.06
596.309	306.06
596.518	310.06
596.727	312.06
596.937	308.06
597.146	302.06
597.355	294.06
597.564	291.06
597.774	307.06
597.983	289.06
598.192	294.06
598.401	297.06
598.61	300.06
598.819	292.06
599.028	288.06
599.237	300.06
599.446	284.06
599.655	287.06
599.864	293.06
600.073	286.06
600.282	298.06
600.491	286.06
600.7	270.06
600.909	305.06
601.118	269.06
601.327	299.06
601.536	280.06
601.745	280.06
601.953	292.06
602.162	296.06
602.371	295.06
602.58	285.06
602.789	276.06
602.997	282.06
603.206	303.06
603.415	271.06
603.623	285.06
603.832	283.06
604.041	278.06
604.249	287.06
604.458	271.06
604.666	270.06
604.875	284.06
605.084	266.06
605.292	270.06
605.501	271.06
605.709	276.06
605.918	280.06
606.126	283.06
606.334	268.06
606.543	267.06
606.751	278.06
606.96	276.06
607.168	284.06
607.376	276.06
607.585	292.06
607.793	286.06
608.001	273.06
608.21	267.06
608.418	266.06
608.626	298.06
608.834	285.06
609.043	287.06
609.251	265.06
609.459	262.06
609.667	262.06
609.875	279.06
610.083	275.06
610.291	278.06
610.499	273.06
610.707	280.06
610.916	282.06
611.124	267.06
611.332	282.06
611.54	294.06
611.748	292.06
611.955	270.06
612.163	267.06
612.371	280.06
612.579	279.06
612.787	282.06
612.995	264.06
613.203	269.06
613.411	274.06
613.618	247.06
613.826	272.06
614.034	270.06
614.242	265.06
614.449	261.06
614.657	277.06
614.865	250.06
615.072	263.06
615.28	266.06
615.488	250.06
615.695	264.06
615.903	257.06
616.111	254.06
616.318	278.06
616.526	262.06
616.733	274.06
616.941	275.06
617.148	277.06
617.356	254.06
617.563	252.06
617.771	285.06
617.978	272.06
618.185	247.06
618.393	263.06
618.6	278.06
618.807	272.06
619.015	249.06
619.222	252.06
619.429	248.06
619.637	270.06
619.844	237.06
620.051	237.06
620.258	255.06
620.466	254.06
620.673	248.06
620.88	242.06
621.087	259.06
621.294	229.06
621.501	249.06
621.708	262.06
621.915	245.06
622.122	227.06
622.329	266.06
622.536	254.06
622.743	247.06
622.95	240.06
623.157	251.06
623.364	242.06
623.571	251.06
623.778	240.06
623.985	258.06
624.192	214.06
624.399	256.06
624.606	243.06
624.812	239.06
625.019	232.06
625.226	250.06
625.433	236.06
625.639	226.06
625.846	239.06
626.053	224.06
626.259	227.06
626.466	230.06
626.673	231.06
626.879	235.06
627.086	237.06
627.293	236.06
627.499	222.06
627.706	224.06
627.912	222.06
628.119	238.06
628.325	223.06
628.532	237.06
628.738	218.06
628.945	212.06
629.151	219.06
629.357	225.06
629.564	226.06
629.77	218.06
629.976	235.06
630.183	222.06
630.389	227.06
630.595	228.06
630.802	222.06
631.008	203.06
631.214	225.06
631.42	216.06
631.627	210.06
631.833	198.06
632.039	205.06
632.245	228.06
632.451	198.06
632.657	212.06
632.863	211.06
633.069	198.06
633.275	218.06
633.481	207.06
633.688	186.06
633.893	195.06
634.099	192.06
634.305	197.06
634.511	194.06
634.717	209.06
634.923	191.06
635.129	191.06
635.335	205.06
635.541	207.06
635.747	204.06
635.952	182.06
636.158	199.06
636.364	211.06
636.57	219.06
636.775	213.06
636.981	198.06
637.187	191.06
637.392	191.06
637.598	188.06
637.804	208.06
638.009	198.06
638.215	202.06
638.421	201.06
638.626	192.06
638.832	207.06
639.037	188.06
639.243	198.06
639.448	182.06
639.654	185.06
639.859	191.06
640.065	191.06
640.27	175.06
640.475	175.06
640.681	190.06
640.886	194.06
641.091	198.06
641.297	187.06
641.502	187.06
641.707	191.06
641.913	198.06
642.118	186.06
642.323	190.06
642.528	181.06
642.733	185.06
642.939	177.06
643.144	177.06
643.349	208.06
643.554	181.06
643.759	181.06
643.964	167.06
644.169	180.06
644.374	198.06
644.579	194.06
644.784	187.06
644.989	190.06
645.194	164.06
645.399	180.06
645.604	187.06
645.809	189.06
646.014	191.06
646.219	180.06
646.423	170.06
646.628	183.06
646.833	178.06
647.038	173.06
647.243	183.06
647.447	166.06
647.652	184.06
647.857	160.06
648.062	189.06
648.266	173.06
648.471	175.06
648.676	166.06
648.88	166.06
649.085	184.06
649.289	186.06
649.494	196.06
649.698	192.06
649.903	198.06
650.107	181.06
650.312	187.06
650.516	180.06
650.721	182.06
650.925	149.06
651.13	168.06
651.334	151.06
651.539	165.06
651.743	154.06
651.947	166.06
652.152	145.06
652.356	141.06
652.56	145.06
652.764	146.06
652.969	155.06
653.173	154.06
653.377	135.06
653.581	143.06
653.785	154.06
653.99	152.06
654.194	145.06
654.398	138.06
654.602	141.06
654.806	160.06
655.01	143.06
655.214	154.06
655.418	132.06
655.622	124.06
655.826	146.06
656.03	134.06
656.234	130.06
656.438	138.06
656.642	122.06
656.846	125.06
657.049	121.06
657.253	136.06
657.457	132.06
657.661	122.06
657.865	130.06
658.068	114.06
658.272	112.06
658.476	116.06
658.68	101.06
658.883	116.06
659.087	92.06
659.291	114.06
659.494	107.06
659.698	99.06
659.901	106.06
660.105	96.06
660.309	84.06
660.512	95.06
660.716	100.06
660.919	95.06
661.123	96.06
661.326	92.06
661.53	88.06
661.733	99.06
661.936	101.06
662.14	97.06
662.343	90.06
662.546	81.06
662.75	96.06
662.953	92.06
663.156	78.06
663.36	84.06
663.563	92.06
663.766	92.06
663.969	93.06
664.173	86.06
664.376	85.06
664.579	78.06
664.782	88.06
664.985	82.06
665.188	94.06
665.391	93.06
665.594	90.06
665.797	81.06
666	74.06
666.203	83.06
666.406	90.06
666.609	80.06
666.812	92.06
667.015	85.06
667.218	76.06
667.421	85.06
667.624	92.06
667.827	92.06
668.03	83.06
668.232	80.06
668.435	77.06
668.638	81.06
668.841	81.06
669.043	78.06
669.246	79.06
669.449	74.06
669.651	78.06
669.854	90.06
670.057	86.06
670.259	79.06
670.462	93.06
670.665	90.06
670.867	82.06
671.07	82.06
671.272	91.06
671.475	82.06
671.677	101.06
671.88	95.06
672.082	79.06
672.284	83.06
672.487	86.06
672.689	88.06
672.892	83.06
