Data from 1971.PennyLincolnUp.Lamp.En5.5.200Scan.071719.P1._HRD10591_15-19-00-840.txt Node
Date: Thu Jul 18 15:19:00 EDT 2019
User: cochatt
Spectrometer: HR+D1059
Trigger mode: 1
Integration Time (sec): 1.000000E-1
Scans to average: 1
Electric dark correction enabled: true
Nonlinearity correction enabled: false
Boxcar width: 0
XAxis mode: Wavelengths
Number of Pixels in Spectrum: 2048
>>>>>Begin Spectral Data<<<<<
223.165	-27.31
223.4	-27.31
223.635	-27.31
223.869	-20.31
224.104	-20.31
224.338	-12.31
224.573	-25.31
224.808	-0.31
225.042	-14.31
225.277	3.69
225.511	-8.31
225.746	-8.31
225.98	3.69
226.215	12.69
226.449	24.69
226.683	17.69
226.918	39.69
227.152	34.69
227.387	40.69
227.621	16.69
227.856	39.69
228.09	54.69
228.324	49.69
228.559	53.69
228.793	57.69
229.027	66.69
229.262	91.69
229.496	109.69
229.73	120.69
229.964	133.69
230.199	100.69
230.433	116.69
230.667	92.69
230.901	101.69
231.136	104.69
231.37	95.69
231.604	92.69
231.838	106.69
232.072	111.69
232.306	103.69
232.541	119.69
232.775	112.69
233.009	117.69
233.243	116.69
233.477	108.69
233.711	123.69
233.945	107.69
234.179	117.69
234.413	117.69
234.647	99.69
234.881	124.69
235.115	122.69
235.349	121.69
235.583	123.69
235.817	132.69
236.051	120.69
236.285	116.69
236.519	117.69
236.753	117.69
236.987	148.69
237.221	185.69
237.455	200.69
237.689	170.69
237.922	139.69
238.156	126.69
238.39	124.69
238.624	130.69
238.858	126.69
239.091	109.69
239.325	128.69
239.559	123.69
239.793	118.69
240.027	134.69
240.26	128.69
240.494	160.69
240.728	144.69
240.961	148.69
241.195	131.69
241.429	137.69
241.662	130.69
241.896	119.69
242.13	130.69
242.363	137.69
242.597	140.69
242.83	137.69
243.064	130.69
243.298	135.69
243.531	150.69
243.765	134.69
243.998	141.69
244.232	122.69
244.465	164.69
244.699	159.69
244.932	138.69
245.166	139.69
245.399	150.69
245.633	159.69
245.866	155.69
246.099	137.69
246.333	133.69
246.566	145.69
246.8	144.69
247.033	168.69
247.266	155.69
247.5	154.69
247.733	169.69
247.966	156.69
248.2	161.69
248.433	175.69
248.666	175.69
248.899	196.69
249.133	191.69
249.366	189.69
249.599	194.69
249.832	188.69
250.066	180.69
250.299	184.69
250.532	192.69
250.765	195.69
250.998	233.69
251.231	220.69
251.465	228.69
251.698	199.69
251.931	212.69
252.164	188.69
252.397	206.69
252.63	192.69
252.863	200.69
253.096	214.69
253.329	236.69
253.562	234.69
253.795	220.69
254.028	226.69
254.261	239.69
254.494	221.69
254.727	241.69
254.96	275.69
255.193	244.69
255.426	267.69
255.659	215.69
255.892	231.69
256.124	222.69
256.357	223.69
256.59	224.69
256.823	223.69
257.056	214.69
257.289	211.69
257.521	221.69
257.754	217.69
257.987	210.69
258.22	201.69
258.452	205.69
258.685	196.69
258.918	235.69
259.151	223.69
259.383	216.69
259.616	210.69
259.849	220.69
260.081	226.69
260.314	239.69
260.547	246.69
260.779	247.69
261.012	233.69
261.244	217.69
261.477	220.69
261.71	228.69
261.942	221.69
262.175	211.69
262.407	235.69
262.64	208.69
262.872	207.69
263.105	223.69
263.337	211.69
263.57	211.69
263.802	197.69
264.035	221.69
264.267	212.69
264.499	227.69
264.732	226.69
264.964	215.69
265.197	209.69
265.429	218.69
265.661	212.69
265.894	220.69
266.126	216.69
266.358	211.69
266.591	222.69
266.823	210.69
267.055	219.69
267.287	223.69
267.52	220.69
267.752	245.69
267.984	221.69
268.216	210.69
268.448	229.69
268.681	244.69
268.913	242.69
269.145	279.69
269.377	265.69
269.609	275.69
269.841	260.69
270.073	281.69
270.306	279.69
270.538	317.69
270.77	331.69
271.002	295.69
271.234	290.69
271.466	289.69
271.698	302.69
271.93	303.69
272.162	305.69
272.394	331.69
272.626	309.69
272.858	296.69
273.09	296.69
273.322	263.69
273.553	273.69
273.785	263.69
274.017	276.69
274.249	264.69
274.481	266.69
274.713	268.69
274.945	265.69
275.176	276.69
275.408	263.69
275.64	262.69
275.872	257.69
276.104	269.69
276.335	269.69
276.567	280.69
276.799	260.69
277.031	299.69
277.262	313.69
277.494	311.69
277.726	310.69
277.957	285.69
278.189	289.69
278.421	277.69
278.652	273.69
278.884	265.69
279.115	279.69
279.347	273.69
279.579	272.69
279.81	266.69
280.042	265.69
280.273	271.69
280.505	293.69
280.736	269.69
280.968	273.69
281.199	262.69
281.431	269.69
281.662	285.69
281.894	268.69
282.125	277.69
282.356	269.69
282.588	308.69
282.819	304.69
283.051	275.69
283.282	286.69
283.513	289.69
283.745	294.69
283.976	294.69
284.207	305.69
284.439	291.69
284.67	283.69
284.901	275.69
285.132	276.69
285.364	294.69
285.595	304.69
285.826	284.69
286.057	281.69
286.288	273.69
286.52	287.69
286.751	282.69
286.982	285.69
287.213	300.69
287.444	277.69
287.675	294.69
287.906	282.69
288.138	284.69
288.369	288.69
288.6	303.69
288.831	267.69
289.062	313.69
289.293	288.69
289.524	291.69
289.755	297.69
289.986	312.69
290.217	283.69
290.448	292.69
290.679	291.69
290.91	307.69
291.141	286.69
291.371	286.69
291.602	281.69
291.833	283.69
292.064	275.69
292.295	289.69
292.526	297.69
292.757	301.69
292.987	288.69
293.218	294.69
293.449	293.69
293.68	298.69
293.91	292.69
294.141	282.69
294.372	297.69
294.603	304.69
294.833	301.69
295.064	295.69
295.295	292.69
295.525	309.69
295.756	307.69
295.987	292.69
296.217	329.69
296.448	327.69
296.679	296.69
296.909	311.69
297.14	294.69
297.37	300.69
297.601	304.69
297.831	303.69
298.062	293.69
298.292	321.69
298.523	313.69
298.753	320.69
298.984	300.69
299.214	312.69
299.445	307.69
299.675	316.69
299.905	325.69
300.136	315.69
300.366	304.69
300.597	317.69
300.827	310.69
301.057	343.69
301.288	327.69
301.518	327.69
301.748	321.69
301.979	296.69
302.209	325.69
302.439	322.69
302.669	339.69
302.9	333.69
303.13	324.69
303.36	310.69
303.59	340.69
303.82	344.69
304.051	329.69
304.281	318.69
304.511	349.69
304.741	335.69
304.971	342.69
305.201	323.69
305.431	335.69
305.661	337.69
305.891	324.69
306.121	317.69
306.352	323.69
306.582	320.69
306.812	330.69
307.042	330.69
307.272	324.69
307.502	338.69
307.731	355.69
307.961	335.69
308.191	346.69
308.421	338.69
308.651	327.69
308.881	351.69
309.111	347.69
309.341	341.69
309.571	359.69
309.8	346.69
310.03	357.69
310.26	368.69
310.49	387.69
310.72	378.69
310.949	383.69
311.179	388.69
311.409	369.69
311.639	356.69
311.868	381.69
312.098	368.69
312.328	392.69
312.557	386.69
312.787	395.69
313.017	398.69
313.246	397.69
313.476	369.69
313.706	375.69
313.935	383.69
314.165	398.69
314.394	392.69
314.624	379.69
314.853	374.69
315.083	380.69
315.312	383.69
315.542	356.69
315.771	381.69
316.001	383.69
316.23	370.69
316.46	372.69
316.689	358.69
316.919	391.69
317.148	368.69
317.377	395.69
317.607	389.69
317.836	380.69
318.065	375.69
318.295	383.69
318.524	373.69
318.753	362.69
318.983	383.69
319.212	382.69
319.441	380.69
319.67	407.69
319.9	380.69
320.129	372.69
320.358	397.69
320.587	385.69
320.816	406.69
321.046	387.69
321.275	399.69
321.504	398.69
321.733	409.69
321.962	401.69
322.191	422.69
322.42	422.69
322.649	458.69
322.878	427.69
323.108	447.69
323.337	472.69
323.566	516.69
323.795	531.69
324.024	568.69
324.253	685.69
324.482	922.69
324.71	1423.69
324.939	1867.69
325.168	1619.69
325.397	831.69
325.626	598.69
325.855	521.69
326.084	508.69
326.313	471.69
326.542	488.69
326.77	548.69
326.999	619.69
327.228	858.69
327.457	1221.69
327.686	1415.69
327.914	966.69
328.143	645.69
328.372	563.69
328.6	561.69
328.829	524.69
329.058	526.69
329.287	543.69
329.515	513.69
329.744	497.69
329.972	498.69
330.201	488.69
330.43	523.69
330.658	543.69
330.887	578.69
331.115	531.69
331.344	504.69
331.572	455.69
331.801	459.69
332.03	490.69
332.258	453.69
332.486	421.69
332.715	440.69
332.943	435.69
333.172	428.69
333.4	439.69
333.629	455.69
333.857	461.69
334.085	473.69
334.314	476.69
334.542	507.69
334.771	495.69
334.999	495.69
335.227	460.69
335.455	425.69
335.684	429.69
335.912	429.69
336.14	437.69
336.369	448.69
336.597	427.69
336.825	427.69
337.053	421.69
337.281	411.69
337.51	416.69
337.738	431.69
337.966	428.69
338.194	426.69
338.422	426.69
338.65	423.69
338.878	418.69
339.106	407.69
339.334	421.69
339.562	403.69
339.79	421.69
340.018	407.69
340.246	407.69
340.474	428.69
340.702	397.69
340.93	412.69
341.158	405.69
341.386	406.69
341.614	420.69
341.842	433.69
342.07	400.69
342.298	407.69
342.526	403.69
342.754	397.69
342.981	404.69
343.209	397.69
343.437	401.69
343.665	410.69
343.893	440.69
344.12	406.69
344.348	438.69
344.576	428.69
344.804	417.69
345.031	440.69
345.259	426.69
345.487	403.69
345.714	405.69
345.942	408.69
346.17	425.69
346.397	383.69
346.625	420.69
346.853	378.69
347.08	391.69
347.308	397.69
347.535	400.69
347.763	401.69
347.99	411.69
348.218	417.69
348.445	413.69
348.673	375.69
348.9	406.69
349.128	392.69
349.355	392.69
349.583	391.69
349.81	382.69
350.037	386.69
350.265	396.69
350.492	408.69
350.72	390.69
350.947	386.69
351.174	397.69
351.402	384.69
351.629	385.69
351.856	407.69
352.083	388.69
352.311	411.69
352.538	409.69
352.765	396.69
352.992	401.69
353.22	393.69
353.447	407.69
353.674	373.69
353.901	381.69
354.128	370.69
354.355	358.69
354.583	375.69
354.81	358.69
355.037	370.69
355.264	360.69
355.491	387.69
355.718	364.69
355.945	359.69
356.172	351.69
356.399	389.69
356.626	352.69
356.853	359.69
357.08	373.69
357.307	366.69
357.534	368.69
357.761	367.69
357.988	363.69
358.215	354.69
358.441	362.69
358.668	375.69
358.895	370.69
359.122	378.69
359.349	371.69
359.576	386.69
359.802	403.69
360.029	407.69
360.256	413.69
360.483	399.69
360.709	395.69
360.936	384.69
361.163	376.69
361.39	368.69
361.616	397.69
361.843	395.69
362.07	382.69
362.296	379.69
362.523	374.69
362.749	381.69
362.976	384.69
363.203	367.69
363.429	377.69
363.656	378.69
363.882	352.69
364.109	366.69
364.335	373.69
364.562	367.69
364.788	366.69
365.015	343.69
365.241	357.69
365.468	370.69
365.694	372.69
365.92	369.69
366.147	373.69
366.373	376.69
366.599	370.69
366.826	356.69
367.052	348.69
367.278	339.69
367.505	365.69
367.731	367.69
367.957	347.69
368.184	359.69
368.41	352.69
368.636	383.69
368.862	375.69
369.089	368.69
369.315	364.69
369.541	371.69
369.767	371.69
369.993	349.69
370.219	354.69
370.445	367.69
370.672	370.69
370.898	349.69
371.124	365.69
371.35	356.69
371.576	360.69
371.802	368.69
372.028	349.69
372.254	352.69
372.48	333.69
372.706	350.69
372.932	355.69
373.158	357.69
373.384	339.69
373.61	371.69
373.835	352.69
374.061	359.69
374.287	364.69
374.513	358.69
374.739	342.69
374.965	360.69
375.191	373.69
375.416	369.69
375.642	346.69
375.868	373.69
376.094	348.69
376.319	354.69
376.545	344.69
376.771	337.69
376.997	356.69
377.222	342.69
377.448	368.69
377.674	347.69
377.899	344.69
378.125	356.69
378.35	345.69
378.576	328.69
378.802	347.69
379.027	346.69
379.253	330.69
379.478	352.69
379.704	341.69
379.929	356.69
380.155	345.69
380.38	344.69
380.606	359.69
380.831	349.69
381.057	363.69
381.282	349.69
381.507	340.69
381.733	349.69
381.958	369.69
382.184	355.69
382.409	351.69
382.634	347.69
382.86	362.69
383.085	365.69
383.31	363.69
383.535	361.69
383.761	366.69
383.986	361.69
384.211	351.69
384.436	364.69
384.662	378.69
384.887	381.69
385.112	372.69
385.337	403.69
385.562	386.69
385.787	379.69
386.013	375.69
386.238	392.69
386.463	388.69
386.688	403.69
386.913	377.69
387.138	369.69
387.363	359.69
387.588	362.69
387.813	371.69
388.038	369.69
388.263	368.69
388.488	384.69
388.713	369.69
388.938	365.69
389.163	353.69
389.387	378.69
389.612	345.69
389.837	370.69
390.062	357.69
390.287	370.69
390.512	373.69
390.736	384.69
390.961	377.69
391.186	375.69
391.411	372.69
391.636	364.69
391.86	393.69
392.085	371.69
392.31	369.69
392.534	374.69
392.759	383.69
392.984	381.69
393.208	387.69
393.433	381.69
393.658	364.69
393.882	391.69
394.107	384.69
394.331	373.69
394.556	369.69
394.78	370.69
395.005	378.69
395.229	372.69
395.454	385.69
395.678	378.69
395.903	395.69
396.127	407.69
396.352	401.69
396.576	375.69
396.801	394.69
397.025	389.69
397.249	379.69
397.474	410.69
397.698	385.69
397.922	376.69
398.147	411.69
398.371	425.69
398.595	412.69
398.82	408.69
399.044	407.69
399.268	443.69
399.492	434.69
399.717	467.69
399.941	488.69
400.165	484.69
400.389	480.69
400.613	469.69
400.837	425.69
401.062	435.69
401.286	423.69
401.51	424.69
401.734	405.69
401.958	420.69
402.182	405.69
402.406	401.69
402.63	416.69
402.854	418.69
403.078	411.69
403.302	433.69
403.526	427.69
403.75	436.69
403.974	415.69
404.198	412.69
404.422	411.69
404.645	418.69
404.869	423.69
405.093	459.69
405.317	495.69
405.541	536.69
405.765	486.69
405.988	452.69
406.212	455.69
406.436	448.69
406.66	472.69
406.883	455.69
407.107	467.69
407.331	500.69
407.555	555.69
407.778	575.69
408.002	537.69
408.226	476.69
408.449	454.69
408.673	464.69
408.896	482.69
409.12	511.69
409.344	499.69
409.567	424.69
409.791	443.69
410.014	423.69
410.238	413.69
410.461	416.69
410.685	448.69
410.908	440.69
411.132	461.69
411.355	484.69
411.578	467.69
411.802	431.69
412.025	423.69
412.249	427.69
412.472	450.69
412.695	485.69
412.919	470.69
413.142	441.69
413.365	418.69
413.589	416.69
413.812	416.69
414.035	424.69
414.258	403.69
414.482	387.69
414.705	378.69
414.928	414.69
415.151	395.69
415.374	399.69
415.597	389.69
415.821	392.69
416.044	396.69
416.267	383.69
416.49	401.69
416.713	411.69
416.936	394.69
417.159	389.69
417.382	404.69
417.605	388.69
417.828	431.69
418.051	417.69
418.274	402.69
418.497	407.69
418.72	408.69
418.943	397.69
419.166	431.69
419.389	417.69
419.611	435.69
419.834	426.69
420.057	424.69
420.28	421.69
420.503	436.69
420.726	427.69
420.948	444.69
421.171	471.69
421.394	481.69
421.617	449.69
421.839	416.69
422.062	415.69
422.285	415.69
422.507	465.69
422.73	539.69
422.953	524.69
423.175	444.69
423.398	440.69
423.621	435.69
423.843	462.69
424.066	451.69
424.288	441.69
424.511	465.69
424.733	508.69
424.956	572.69
425.178	567.69
425.401	549.69
425.623	551.69
425.846	485.69
426.068	443.69
426.291	441.69
426.513	457.69
426.735	456.69
426.958	474.69
427.18	555.69
427.402	662.69
427.625	725.69
427.847	626.69
428.069	519.69
428.292	484.69
428.514	444.69
428.736	437.69
428.958	422.69
429.181	418.69
429.403	404.69
429.625	412.69
429.847	457.69
430.069	490.69
430.292	494.69
430.514	444.69
430.736	422.69
430.958	412.69
431.18	397.69
431.402	376.69
431.624	390.69
431.846	372.69
432.068	389.69
432.29	381.69
432.512	389.69
432.734	384.69
432.956	406.69
433.178	416.69
433.4	423.69
433.622	402.69
433.844	387.69
434.066	380.69
434.287	371.69
434.509	400.69
434.731	401.69
434.953	404.69
435.175	423.69
435.397	436.69
435.618	459.69
435.84	479.69
436.062	543.69
436.284	606.69
436.505	500.69
436.727	459.69
436.949	434.69
437.17	434.69
437.392	421.69
437.614	428.69
437.835	441.69
438.057	539.69
438.278	624.69
438.5	604.69
438.721	649.69
438.943	625.69
439.165	522.69
439.386	470.69
439.608	452.69
439.829	447.69
440.05	482.69
440.272	514.69
440.493	469.69
440.715	435.69
440.936	423.69
441.158	421.69
441.379	405.69
441.6	423.69
441.822	432.69
442.043	486.69
442.264	559.69
442.486	571.69
442.707	487.69
442.928	472.69
443.149	471.69
443.371	479.69
443.592	506.69
443.813	590.69
444.034	613.69
444.255	515.69
444.476	470.69
444.698	456.69
444.919	448.69
445.14	581.69
445.361	513.69
445.582	492.69
445.803	513.69
446.024	599.69
446.245	633.69
446.466	562.69
446.687	491.69
446.908	459.69
447.129	428.69
447.35	433.69
447.571	421.69
447.792	424.69
448.013	434.69
448.234	451.69
448.455	477.69
448.675	539.69
448.896	629.69
449.117	554.69
449.338	515.69
449.559	609.69
449.779	639.69
450	562.69
450.221	466.69
450.442	417.69
450.662	417.69
450.883	413.69
451.104	403.69
451.324	407.69
451.545	398.69
451.766	375.69
451.986	384.69
452.207	377.69
452.428	361.69
452.648	362.69
452.869	368.69
453.089	354.69
453.31	393.69
453.53	371.69
453.751	369.69
453.971	376.69
454.192	393.69
454.412	371.69
454.633	379.69
454.853	370.69
455.073	364.69
455.294	377.69
455.514	427.69
455.734	435.69
455.955	383.69
456.175	360.69
456.395	354.69
456.616	354.69
456.836	345.69
457.056	355.69
457.276	332.69
457.497	357.69
457.717	354.69
457.937	355.69
458.157	357.69
458.377	372.69
458.598	364.69
458.818	418.69
459.038	466.69
459.258	472.69
459.478	392.69
459.698	391.69
459.918	378.69
460.138	391.69
460.358	378.69
460.578	398.69
460.798	379.69
461.018	374.69
461.238	376.69
461.458	382.69
461.678	406.69
461.898	380.69
462.118	384.69
462.338	397.69
462.558	399.69
462.777	415.69
462.997	416.69
463.217	420.69
463.437	423.69
463.657	404.69
463.876	392.69
464.096	395.69
464.316	417.69
464.536	406.69
464.755	415.69
464.975	411.69
465.195	440.69
465.414	492.69
465.634	430.69
465.854	401.69
466.073	409.69
466.293	373.69
466.512	373.69
466.732	371.69
466.951	361.69
467.171	372.69
467.391	371.69
467.61	388.69
467.829	393.69
468.049	367.69
468.268	376.69
468.488	369.69
468.707	378.69
468.927	359.69
469.146	363.69
469.365	357.69
469.585	356.69
469.804	383.69
470.023	385.69
470.243	375.69
470.462	404.69
470.681	405.69
470.901	406.69
471.12	385.69
471.339	381.69
471.558	380.69
471.777	392.69
471.997	365.69
472.216	377.69
472.435	414.69
472.654	391.69
472.873	380.69
473.092	386.69
473.311	373.69
473.53	391.69
473.749	372.69
473.968	407.69
474.187	498.69
474.406	514.69
474.625	438.69
474.844	388.69
475.063	393.69
475.282	388.69
475.501	379.69
475.72	398.69
475.939	382.69
476.158	392.69
476.377	388.69
476.596	394.69
476.814	409.69
477.033	400.69
477.252	419.69
477.471	388.69
477.69	387.69
477.908	412.69
478.127	432.69
478.346	413.69
478.564	408.69
478.783	403.69
479.002	417.69
479.22	407.69
479.439	436.69
479.658	439.69
479.876	446.69
480.095	446.69
480.313	463.69
480.532	460.69
480.751	458.69
480.969	459.69
481.188	496.69
481.406	502.69
481.624	463.69
481.843	426.69
482.061	426.69
482.28	450.69
482.498	460.69
482.717	445.69
482.935	428.69
483.153	410.69
483.372	441.69
483.59	443.69
483.808	444.69
484.027	432.69
484.245	419.69
484.463	440.69
484.681	445.69
484.9	446.69
485.118	445.69
485.336	455.69
485.554	437.69
485.772	444.69
485.99	459.69
486.209	477.69
486.427	451.69
486.645	483.69
486.863	468.69
487.081	455.69
487.299	471.69
487.517	478.69
487.735	500.69
487.953	471.69
488.171	475.69
488.389	482.69
488.607	459.69
488.825	474.69
489.043	458.69
489.261	471.69
489.479	477.69
489.696	477.69
489.914	476.69
490.132	486.69
490.35	491.69
490.568	486.69
490.786	506.69
491.003	531.69
491.221	500.69
491.439	522.69
491.657	536.69
491.874	538.69
492.092	552.69
492.31	550.69
492.527	556.69
492.745	548.69
492.963	559.69
493.18	546.69
493.398	557.69
493.615	564.69
493.833	547.69
494.05	556.69
494.268	552.69
494.485	550.69
494.703	552.69
494.92	555.69
495.138	572.69
495.355	553.69
495.573	562.69
495.79	561.69
496.008	566.69
496.225	555.69
496.442	546.69
496.66	590.69
496.877	568.69
497.094	565.69
497.312	598.69
497.529	560.69
497.746	572.69
497.963	585.69
498.181	585.69
498.398	566.69
498.615	614.69
498.832	594.69
499.049	632.69
499.267	626.69
499.484	653.69
499.701	666.69
499.918	696.69
500.135	722.69
500.352	752.69
500.569	731.69
500.786	756.69
501.003	749.69
501.22	732.69
501.437	709.69
501.654	696.69
501.871	690.69
502.088	663.69
502.305	639.69
502.522	639.69
502.739	628.69
502.956	598.69
503.172	577.69
503.389	589.69
503.606	590.69
503.823	579.69
504.04	559.69
504.256	557.69
504.473	567.69
504.69	570.69
504.907	555.69
505.123	529.69
505.34	546.69
505.557	564.69
505.773	529.69
505.99	541.69
506.207	523.69
506.423	554.69
506.64	519.69
506.856	513.69
507.073	507.69
507.289	513.69
507.506	513.69
507.722	528.69
507.939	524.69
508.155	540.69
508.372	522.69
508.588	505.69
508.805	495.69
509.021	509.69
509.238	517.69
509.454	518.69
509.67	507.69
509.887	494.69
510.103	510.69
510.319	521.69
510.536	592.69
510.752	868.69
510.968	715.69
511.184	497.69
511.401	488.69
511.617	460.69
511.833	470.69
512.049	492.69
512.265	461.69
512.481	475.69
512.698	472.69
512.914	479.69
513.13	457.69
513.346	468.69
513.562	483.69
513.778	471.69
513.994	480.69
514.21	473.69
514.426	495.69
514.642	533.69
514.858	524.69
515.074	567.69
515.29	662.69
515.506	895.69
515.721	744.69
515.937	549.69
516.153	511.69
516.369	512.69
516.585	467.69
516.801	491.69
517.016	492.69
517.232	461.69
517.448	498.69
517.664	481.69
517.879	484.69
518.095	482.69
518.311	481.69
518.527	457.69
518.742	450.69
518.958	462.69
519.173	467.69
519.389	452.69
519.605	441.69
519.82	453.69
520.036	462.69
520.251	492.69
520.467	527.69
520.682	513.69
520.898	527.69
521.113	519.69
521.329	552.69
521.544	608.69
521.76	766.69
521.975	1136.69
522.19	1114.69
522.406	644.69
522.621	527.69
522.836	470.69
523.052	470.69
523.267	454.69
523.482	427.69
523.698	439.69
523.913	418.69
524.128	428.69
524.343	422.69
524.559	407.69
524.774	407.69
524.989	413.69
525.204	430.69
525.419	413.69
525.634	407.69
525.849	400.69
526.064	403.69
526.28	402.69
526.495	405.69
526.71	412.69
526.925	375.69
527.14	397.69
527.355	373.69
527.57	396.69
527.785	381.69
527.999	389.69
528.214	394.69
528.429	380.69
528.644	381.69
528.859	394.69
529.074	395.69
529.289	384.69
529.503	467.69
529.718	440.69
529.933	435.69
530.148	399.69
530.363	389.69
530.577	375.69
530.792	381.69
531.007	383.69
531.221	389.69
531.436	382.69
531.651	363.69
531.865	362.69
532.08	364.69
532.295	359.69
532.509	370.69
532.724	373.69
532.938	351.69
533.153	377.69
533.367	373.69
533.582	391.69
533.796	373.69
534.011	370.69
534.225	354.69
534.44	352.69
534.654	354.69
534.868	371.69
535.083	355.69
535.297	371.69
535.511	372.69
535.726	362.69
535.94	365.69
536.154	376.69
536.369	364.69
536.583	362.69
536.797	353.69
537.011	349.69
537.225	361.69
537.44	351.69
537.654	369.69
537.868	355.69
538.082	366.69
538.296	383.69
538.51	368.69
538.724	387.69
538.938	369.69
539.153	342.69
539.367	375.69
539.581	360.69
539.795	349.69
540.009	346.69
540.222	356.69
540.436	363.69
540.65	352.69
540.864	363.69
541.078	392.69
541.292	390.69
541.506	352.69
541.72	370.69
541.934	365.69
542.147	364.69
542.361	374.69
542.575	369.69
542.789	363.69
543.002	370.69
543.216	357.69
543.43	373.69
543.644	367.69
543.857	351.69
544.071	375.69
544.285	367.69
544.498	369.69
544.712	357.69
544.925	358.69
545.139	352.69
545.352	357.69
545.566	360.69
545.779	356.69
545.993	373.69
546.206	368.69
546.42	351.69
546.633	371.69
546.847	360.69
547.06	327.69
547.274	356.69
547.487	346.69
547.7	359.69
547.914	372.69
548.127	335.69
548.34	345.69
548.554	356.69
548.767	352.69
548.98	354.69
549.193	355.69
549.407	329.69
549.62	352.69
549.833	355.69
550.046	348.69
550.259	353.69
550.473	346.69
550.686	352.69
550.899	337.69
551.112	340.69
551.325	342.69
551.538	338.69
551.751	321.69
551.964	321.69
552.177	333.69
552.39	353.69
552.603	334.69
552.816	346.69
553.029	353.69
553.242	340.69
553.455	361.69
553.667	377.69
553.88	360.69
554.093	357.69
554.306	346.69
554.519	321.69
554.732	352.69
554.944	346.69
555.157	331.69
555.37	346.69
555.583	315.69
555.795	315.69
556.008	342.69
556.221	327.69
556.433	318.69
556.646	311.69
556.859	301.69
557.071	324.69
557.284	310.69
557.496	315.69
557.709	309.69
557.921	321.69
558.134	312.69
558.346	314.69
558.559	315.69
558.771	336.69
558.984	306.69
559.196	315.69
559.409	309.69
559.621	316.69
559.833	292.69
560.046	300.69
560.258	304.69
560.47	290.69
560.683	287.69
560.895	313.69
561.107	305.69
561.32	303.69
561.532	298.69
561.744	296.69
561.956	305.69
562.168	314.69
562.381	304.69
562.593	300.69
562.805	319.69
563.017	311.69
563.229	311.69
563.441	324.69
563.653	321.69
563.865	309.69
564.077	318.69
564.289	300.69
564.501	314.69
564.713	305.69
564.925	329.69
565.137	327.69
565.349	320.69
565.561	319.69
565.773	331.69
565.985	338.69
566.197	329.69
566.408	341.69
566.62	330.69
566.832	334.69
567.044	378.69
567.255	378.69
567.467	357.69
567.679	356.69
567.891	370.69
568.102	379.69
568.314	369.69
568.526	340.69
568.737	314.69
568.949	309.69
569.161	313.69
569.372	313.69
569.584	319.69
569.795	315.69
570.007	324.69
570.218	338.69
570.43	320.69
570.641	310.69
570.853	290.69
571.064	303.69
571.276	285.69
571.487	274.69
571.698	290.69
571.91	288.69
572.121	266.69
572.333	284.69
572.544	280.69
572.755	272.69
572.966	276.69
573.178	272.69
573.389	265.69
573.6	251.69
573.811	256.69
574.023	267.69
574.234	264.69
574.445	273.69
574.656	278.69
574.867	267.69
575.078	270.69
575.289	251.69
575.501	255.69
575.712	249.69
575.923	270.69
576.134	248.69
576.345	273.69
576.556	260.69
576.767	256.69
576.978	256.69
577.188	251.69
577.399	258.69
577.61	250.69
577.821	244.69
578.032	272.69
578.243	293.69
578.454	404.69
578.665	326.69
578.875	265.69
579.086	262.69
579.297	247.69
579.508	231.69
579.718	243.69
579.929	241.69
580.14	261.69
580.35	251.69
580.561	238.69
580.772	265.69
580.982	241.69
581.193	255.69
581.403	242.69
581.614	237.69
581.825	265.69
582.035	247.69
582.246	244.69
582.456	232.69
582.667	239.69
582.877	221.69
583.087	233.69
583.298	243.69
583.508	217.69
583.719	233.69
583.929	225.69
584.139	224.69
584.35	241.69
584.56	243.69
584.77	236.69
584.981	240.69
585.191	238.69
585.401	235.69
585.611	223.69
585.821	222.69
586.032	231.69
586.242	215.69
586.452	245.69
586.662	234.69
586.872	228.69
587.082	228.69
587.292	236.69
587.502	234.69
587.713	235.69
587.923	240.69
588.133	243.69
588.343	230.69
588.553	235.69
588.762	222.69
588.972	225.69
589.182	232.69
589.392	223.69
589.602	225.69
589.812	242.69
590.022	221.69
590.232	214.69
590.441	227.69
590.651	222.69
590.861	245.69
591.071	235.69
591.281	246.69
591.49	221.69
591.7	223.69
591.91	226.69
592.119	242.69
592.329	229.69
592.539	250.69
592.748	242.69
592.958	218.69
593.167	227.69
593.377	239.69
593.587	255.69
593.796	212.69
594.006	215.69
594.215	240.69
594.424	243.69
594.634	221.69
594.843	237.69
595.053	245.69
595.262	240.69
595.472	245.69
595.681	236.69
595.89	228.69
596.1	229.69
596.309	232.69
596.518	211.69
596.727	225.69
596.937	219.69
597.146	214.69
597.355	214.69
597.564	193.69
597.774	214.69
597.983	223.69
598.192	215.69
598.401	201.69
598.61	220.69
598.819	218.69
599.028	217.69
599.237	199.69
599.446	200.69
599.655	205.69
599.864	221.69
600.073	208.69
600.282	217.69
600.491	206.69
600.7	200.69
600.909	200.69
601.118	218.69
601.327	195.69
601.536	200.69
601.745	211.69
601.953	205.69
602.162	225.69
602.371	213.69
602.58	211.69
602.789	207.69
602.997	209.69
603.206	205.69
603.415	216.69
603.623	216.69
603.832	208.69
604.041	218.69
604.249	199.69
604.458	189.69
604.666	189.69
604.875	192.69
605.084	204.69
605.292	201.69
605.501	194.69
605.709	217.69
605.918	216.69
606.126	210.69
606.334	198.69
606.543	193.69
606.751	212.69
606.96	203.69
607.168	205.69
607.376	189.69
607.585	211.69
607.793	204.69
608.001	200.69
608.21	192.69
608.418	219.69
608.626	203.69
608.834	196.69
609.043	192.69
609.251	204.69
609.459	202.69
609.667	217.69
609.875	200.69
610.083	218.69
610.291	209.69
610.499	201.69
610.707	222.69
610.916	197.69
611.124	193.69
611.332	202.69
611.54	201.69
611.748	212.69
611.955	196.69
612.163	185.69
612.371	196.69
612.579	208.69
612.787	204.69
612.995	200.69
613.203	208.69
613.411	202.69
613.618	191.69
613.826	196.69
614.034	195.69
614.242	201.69
614.449	196.69
614.657	211.69
614.865	213.69
615.072	203.69
615.28	194.69
615.488	188.69
615.695	192.69
615.903	194.69
616.111	197.69
616.318	192.69
616.526	189.69
616.733	197.69
616.941	199.69
617.148	190.69
617.356	200.69
617.563	201.69
617.771	192.69
617.978	197.69
618.185	178.69
618.393	196.69
618.6	196.69
618.807	202.69
619.015	184.69
619.222	198.69
619.429	195.69
619.637	201.69
619.844	175.69
620.051	188.69
620.258	195.69
620.466	187.69
620.673	168.69
620.88	198.69
621.087	180.69
621.294	196.69
621.501	192.69
621.708	202.69
621.915	199.69
622.122	196.69
622.329	183.69
622.536	193.69
622.743	198.69
622.95	188.69
623.157	191.69
623.364	174.69
623.571	187.69
623.778	192.69
623.985	173.69
624.192	162.69
624.399	187.69
624.606	180.69
624.812	168.69
625.019	202.69
625.226	176.69
625.433	176.69
625.639	173.69
625.846	172.69
626.053	166.69
626.259	167.69
626.466	157.69
626.673	160.69
626.879	183.69
627.086	153.69
627.293	162.69
627.499	175.69
627.706	183.69
627.912	174.69
628.119	156.69
628.325	172.69
628.532	172.69
628.738	172.69
628.945	171.69
629.151	164.69
629.357	170.69
629.564	182.69
629.77	167.69
629.976	172.69
630.183	170.69
630.389	165.69
630.595	153.69
630.802	161.69
631.008	173.69
631.214	173.69
631.42	178.69
631.627	166.69
631.833	156.69
632.039	160.69
632.245	170.69
632.451	164.69
632.657	155.69
632.863	152.69
633.069	169.69
633.275	170.69
633.481	156.69
633.688	154.69
633.893	179.69
634.099	158.69
634.305	142.69
634.511	167.69
634.717	154.69
634.923	138.69
635.129	155.69
635.335	152.69
635.541	167.69
635.747	158.69
635.952	161.69
636.158	156.69
636.364	167.69
636.57	146.69
636.775	159.69
636.981	166.69
637.187	160.69
637.392	155.69
637.598	156.69
637.804	154.69
638.009	143.69
638.215	149.69
638.421	149.69
638.626	148.69
638.832	159.69
639.037	149.69
639.243	152.69
639.448	166.69
639.654	157.69
639.859	150.69
640.065	158.69
640.27	163.69
640.475	155.69
640.681	161.69
640.886	142.69
641.091	144.69
641.297	148.69
641.502	149.69
641.707	172.69
641.913	151.69
642.118	145.69
642.323	164.69
642.528	148.69
642.733	159.69
642.939	147.69
643.144	152.69
643.349	161.69
643.554	147.69
643.759	146.69
643.964	145.69
644.169	140.69
644.374	148.69
644.579	149.69
644.784	148.69
644.989	146.69
645.194	144.69
645.399	150.69
645.604	143.69
645.809	137.69
646.014	136.69
646.219	149.69
646.423	123.69
646.628	149.69
646.833	142.69
647.038	146.69
647.243	139.69
647.447	138.69
647.652	144.69
647.857	155.69
648.062	156.69
648.266	157.69
648.471	134.69
648.676	155.69
648.88	137.69
649.085	137.69
649.289	151.69
649.494	135.69
649.698	166.69
649.903	163.69
650.107	142.69
650.312	128.69
650.516	145.69
650.721	151.69
650.925	136.69
651.13	123.69
651.334	122.69
651.539	128.69
651.743	129.69
651.947	139.69
652.152	131.69
652.356	123.69
652.56	131.69
652.764	125.69
652.969	129.69
653.173	128.69
653.377	128.69
653.581	125.69
653.785	134.69
653.99	135.69
654.194	121.69
654.398	131.69
654.602	116.69
654.806	122.69
655.01	133.69
655.214	115.69
655.418	117.69
655.622	125.69
655.826	143.69
656.03	108.69
656.234	125.69
656.438	129.69
656.642	127.69
656.846	124.69
657.049	137.69
657.253	119.69
657.457	114.69
657.661	104.69
657.865	108.69
658.068	105.69
658.272	99.69
658.476	98.69
658.68	101.69
658.883	85.69
659.087	98.69
659.291	115.69
659.494	95.69
659.698	115.69
659.901	96.69
660.105	75.69
660.309	85.69
660.512	83.69
660.716	83.69
660.919	94.69
661.123	94.69
661.326	96.69
661.53	89.69
661.733	92.69
661.936	91.69
662.14	92.69
662.343	81.69
662.546	85.69
662.75	87.69
662.953	90.69
663.156	97.69
663.36	85.69
663.563	78.69
663.766	78.69
663.969	80.69
664.173	76.69
664.376	73.69
664.579	87.69
664.782	74.69
664.985	82.69
665.188	80.69
665.391	81.69
665.594	68.69
665.797	81.69
666	91.69
666.203	86.69
666.406	89.69
666.609	80.69
666.812	71.69
667.015	83.69
667.218	72.69
667.421	67.69
667.624	72.69
667.827	71.69
668.03	80.69
668.232	73.69
668.435	87.69
668.638	95.69
668.841	90.69
669.043	86.69
669.246	94.69
669.449	92.69
669.651	78.69
669.854	90.69
670.057	77.69
670.259	85.69
670.462	78.69
670.665	73.69
670.867	94.69
671.07	77.69
671.272	80.69
671.475	84.69
671.677	87.69
671.88	86.69
672.082	81.69
672.284	83.69
672.487	79.69
672.689	75.69
672.892	86.69
