Data from 1971.PennyLincolnUp.Lamp.En5.5.200Scan.071719.P1.Scan 2. Changed Angle._HRD10591_15-24-40-842.txt Node
Date: Thu Jul 18 15:24:40 EDT 2019
User: cochatt
Spectrometer: HR+D1059
Trigger mode: 1
Integration Time (sec): 1.000000E-1
Scans to average: 1
Electric dark correction enabled: true
Nonlinearity correction enabled: false
Boxcar width: 0
XAxis mode: Wavelengths
Number of Pixels in Spectrum: 2048
>>>>>Begin Spectral Data<<<<<
223.165	-10.31
223.4	-10.31
223.635	-10.31
223.869	-28.31
224.104	-16.31
224.338	-17.31
224.573	-8.31
224.808	5.69
225.042	-6.31
225.277	-6.31
225.511	5.69
225.746	-1.31
225.98	7.69
226.215	-8.31
226.449	9.69
226.683	23.69
226.918	17.69
227.152	32.69
227.387	26.69
227.621	40.69
227.856	43.69
228.09	46.69
228.324	63.69
228.559	64.69
228.793	85.69
229.027	111.69
229.262	129.69
229.496	125.69
229.73	175.69
229.964	199.69
230.199	148.69
230.433	127.69
230.667	147.69
230.901	138.69
231.136	119.69
231.37	109.69
231.604	131.69
231.838	124.69
232.072	109.69
232.306	111.69
232.541	119.69
232.775	101.69
233.009	104.69
233.243	126.69
233.477	116.69
233.711	131.69
233.945	113.69
234.179	127.69
234.413	109.69
234.647	128.69
234.881	127.69
235.115	132.69
235.349	125.69
235.583	133.69
235.817	138.69
236.051	140.69
236.285	151.69
236.519	136.69
236.753	145.69
236.987	178.69
237.221	212.69
237.455	281.69
237.689	204.69
237.922	160.69
238.156	135.69
238.39	132.69
238.624	119.69
238.858	137.69
239.091	155.69
239.325	144.69
239.559	127.69
239.793	137.69
240.027	143.69
240.26	149.69
240.494	181.69
240.728	155.69
240.961	167.69
241.195	166.69
241.429	159.69
241.662	149.69
241.896	153.69
242.13	163.69
242.363	141.69
242.597	138.69
242.83	156.69
243.064	138.69
243.298	144.69
243.531	142.69
243.765	151.69
243.998	149.69
244.232	153.69
244.465	159.69
244.699	153.69
244.932	160.69
245.166	140.69
245.399	170.69
245.633	160.69
245.866	156.69
246.099	158.69
246.333	161.69
246.566	160.69
246.8	168.69
247.033	159.69
247.266	183.69
247.5	179.69
247.733	176.69
247.966	191.69
248.2	196.69
248.433	179.69
248.666	199.69
248.899	199.69
249.133	226.69
249.366	240.69
249.599	233.69
249.832	208.69
250.066	196.69
250.299	199.69
250.532	216.69
250.765	231.69
250.998	250.69
251.231	267.69
251.465	233.69
251.698	224.69
251.931	230.69
252.164	221.69
252.397	235.69
252.63	229.69
252.863	241.69
253.096	250.69
253.329	242.69
253.562	260.69
253.795	246.69
254.028	256.69
254.261	257.69
254.494	252.69
254.727	292.69
254.96	332.69
255.193	319.69
255.426	285.69
255.659	274.69
255.892	272.69
256.124	274.69
256.357	249.69
256.59	261.69
256.823	243.69
257.056	245.69
257.289	236.69
257.521	251.69
257.754	235.69
257.987	227.69
258.22	227.69
258.452	224.69
258.685	233.69
258.918	214.69
259.151	213.69
259.383	231.69
259.616	241.69
259.849	237.69
260.081	253.69
260.314	276.69
260.547	271.69
260.779	283.69
261.012	261.69
261.244	249.69
261.477	253.69
261.71	244.69
261.942	247.69
262.175	245.69
262.407	260.69
262.64	237.69
262.872	221.69
263.105	221.69
263.337	221.69
263.57	206.69
263.802	218.69
264.035	235.69
264.267	237.69
264.499	209.69
264.732	233.69
264.964	218.69
265.197	221.69
265.429	212.69
265.661	212.69
265.894	212.69
266.126	224.69
266.358	241.69
266.591	233.69
266.823	228.69
267.055	246.69
267.287	249.69
267.52	210.69
267.752	218.69
267.984	246.69
268.216	245.69
268.448	247.69
268.681	234.69
268.913	270.69
269.145	264.69
269.377	289.69
269.609	303.69
269.841	279.69
270.073	289.69
270.306	317.69
270.538	336.69
270.77	357.69
271.002	337.69
271.234	326.69
271.466	340.69
271.698	353.69
271.93	364.69
272.162	355.69
272.394	351.69
272.626	343.69
272.858	320.69
273.09	304.69
273.322	310.69
273.553	302.69
273.785	279.69
274.017	271.69
274.249	283.69
274.481	303.69
274.713	288.69
274.945	279.69
275.176	274.69
275.408	293.69
275.64	298.69
275.872	270.69
276.104	275.69
276.335	288.69
276.567	290.69
276.799	293.69
277.031	340.69
277.262	327.69
277.494	337.69
277.726	344.69
277.957	336.69
278.189	307.69
278.421	295.69
278.652	283.69
278.884	271.69
279.115	290.69
279.347	273.69
279.579	282.69
279.81	272.69
280.042	268.69
280.273	242.69
280.505	279.69
280.736	256.69
280.968	264.69
281.199	256.69
281.431	271.69
281.662	287.69
281.894	268.69
282.125	265.69
282.356	311.69
282.588	322.69
282.819	313.69
283.051	292.69
283.282	278.69
283.513	289.69
283.745	288.69
283.976	292.69
284.207	278.69
284.439	279.69
284.67	283.69
284.901	284.69
285.132	282.69
285.364	292.69
285.595	272.69
285.826	278.69
286.057	273.69
286.288	273.69
286.52	275.69
286.751	262.69
286.982	301.69
287.213	295.69
287.444	273.69
287.675	284.69
287.906	299.69
288.138	303.69
288.369	304.69
288.6	319.69
288.831	281.69
289.062	305.69
289.293	334.69
289.524	286.69
289.755	285.69
289.986	283.69
290.217	290.69
290.448	272.69
290.679	281.69
290.91	294.69
291.141	283.69
291.371	277.69
291.602	272.69
291.833	292.69
292.064	286.69
292.295	315.69
292.526	295.69
292.757	296.69
292.987	289.69
293.218	291.69
293.449	299.69
293.68	298.69
293.91	286.69
294.141	291.69
294.372	297.69
294.603	282.69
294.833	299.69
295.064	319.69
295.295	286.69
295.525	297.69
295.756	301.69
295.987	293.69
296.217	320.69
296.448	383.69
296.679	320.69
296.909	308.69
297.14	293.69
297.37	294.69
297.601	292.69
297.831	297.69
298.062	295.69
298.292	296.69
298.523	311.69
298.753	296.69
298.984	311.69
299.214	310.69
299.445	296.69
299.675	309.69
299.905	332.69
300.136	317.69
300.366	301.69
300.597	311.69
300.827	300.69
301.057	317.69
301.288	325.69
301.518	333.69
301.748	317.69
301.979	318.69
302.209	319.69
302.439	321.69
302.669	316.69
302.9	333.69
303.13	312.69
303.36	319.69
303.59	324.69
303.82	334.69
304.051	335.69
304.281	333.69
304.511	319.69
304.741	319.69
304.971	316.69
305.201	328.69
305.431	329.69
305.661	327.69
305.891	345.69
306.121	329.69
306.352	345.69
306.582	355.69
306.812	336.69
307.042	330.69
307.272	337.69
307.502	323.69
307.731	330.69
307.961	344.69
308.191	334.69
308.421	342.69
308.651	341.69
308.881	351.69
309.111	353.69
309.341	355.69
309.571	372.69
309.8	369.69
310.03	381.69
310.26	391.69
310.49	407.69
310.72	398.69
310.949	428.69
311.179	423.69
311.409	395.69
311.639	393.69
311.868	394.69
312.098	389.69
312.328	415.69
312.557	432.69
312.787	441.69
313.017	428.69
313.246	416.69
313.476	412.69
313.706	411.69
313.935	410.69
314.165	422.69
314.394	448.69
314.624	404.69
314.853	422.69
315.083	403.69
315.312	391.69
315.542	392.69
315.771	422.69
316.001	406.69
316.23	402.69
316.46	384.69
316.689	373.69
316.919	385.69
317.148	422.69
317.377	411.69
317.607	400.69
317.836	404.69
318.065	397.69
318.295	407.69
318.524	401.69
318.753	385.69
318.983	397.69
319.212	395.69
319.441	407.69
319.67	407.69
319.9	419.69
320.129	402.69
320.358	401.69
320.587	401.69
320.816	411.69
321.046	423.69
321.275	446.69
321.504	433.69
321.733	419.69
321.962	426.69
322.191	460.69
322.42	471.69
322.649	485.69
322.878	491.69
323.108	488.69
323.337	549.69
323.566	604.69
323.795	607.69
324.024	671.69
324.253	871.69
324.482	1267.69
324.71	1964.69
324.939	2804.69
325.168	2432.69
325.397	1245.69
325.626	811.69
325.855	651.69
326.084	603.69
326.313	553.69
326.542	584.69
326.77	651.69
326.999	771.69
327.228	1103.69
327.457	1708.69
327.686	2133.69
327.914	1383.69
328.143	875.69
328.372	802.69
328.6	735.69
328.829	652.69
329.058	694.69
329.287	696.69
329.515	650.69
329.744	607.69
329.972	573.69
330.201	598.69
330.43	644.69
330.658	698.69
330.887	721.69
331.115	717.69
331.344	623.69
331.572	547.69
331.801	557.69
332.03	554.69
332.258	487.69
332.486	494.69
332.715	472.69
332.943	471.69
333.172	481.69
333.4	475.69
333.629	488.69
333.857	505.69
334.085	511.69
334.314	537.69
334.542	586.69
334.771	584.69
334.999	532.69
335.227	500.69
335.455	469.69
335.684	472.69
335.912	477.69
336.14	455.69
336.369	446.69
336.597	485.69
336.825	494.69
337.053	472.69
337.281	464.69
337.51	444.69
337.738	456.69
337.966	460.69
338.194	473.69
338.422	472.69
338.65	462.69
338.878	459.69
339.106	453.69
339.334	450.69
339.562	439.69
339.79	444.69
340.018	442.69
340.246	419.69
340.474	460.69
340.702	448.69
340.93	467.69
341.158	437.69
341.386	439.69
341.614	452.69
341.842	453.69
342.07	465.69
342.298	446.69
342.526	427.69
342.754	435.69
342.981	438.69
343.209	439.69
343.437	439.69
343.665	422.69
343.893	419.69
344.12	443.69
344.348	420.69
344.576	453.69
344.804	459.69
345.031	478.69
345.259	469.69
345.487	448.69
345.714	458.69
345.942	432.69
346.17	442.69
346.397	453.69
346.625	419.69
346.853	436.69
347.08	431.69
347.308	433.69
347.535	458.69
347.763	463.69
347.99	461.69
348.218	466.69
348.445	500.69
348.673	457.69
348.9	456.69
349.128	436.69
349.355	417.69
349.583	414.69
349.81	422.69
350.037	415.69
350.265	422.69
350.492	412.69
350.72	423.69
350.947	441.69
351.174	480.69
351.402	480.69
351.629	451.69
351.856	447.69
352.083	459.69
352.311	486.69
352.538	492.69
352.765	500.69
352.992	474.69
353.22	489.69
353.447	464.69
353.674	445.69
353.901	451.69
354.128	408.69
354.355	425.69
354.583	418.69
354.81	408.69
355.037	407.69
355.264	393.69
355.491	410.69
355.718	414.69
355.945	402.69
356.172	400.69
356.399	389.69
356.626	400.69
356.853	386.69
357.08	426.69
357.307	380.69
357.534	401.69
357.761	407.69
357.988	411.69
358.215	418.69
358.441	402.69
358.668	420.69
358.895	407.69
359.122	413.69
359.349	436.69
359.576	460.69
359.802	494.69
360.029	528.69
360.256	551.69
360.483	517.69
360.709	484.69
360.936	473.69
361.163	461.69
361.39	460.69
361.616	461.69
361.843	460.69
362.07	460.69
362.296	449.69
362.523	442.69
362.749	443.69
362.976	442.69
363.203	432.69
363.429	453.69
363.656	433.69
363.882	428.69
364.109	421.69
364.335	421.69
364.562	449.69
364.788	430.69
365.015	431.69
365.241	432.69
365.468	421.69
365.694	435.69
365.92	445.69
366.147	432.69
366.373	438.69
366.599	414.69
366.826	400.69
367.052	399.69
367.278	439.69
367.505	407.69
367.731	421.69
367.957	422.69
368.184	418.69
368.41	414.69
368.636	429.69
368.862	444.69
369.089	442.69
369.315	425.69
369.541	412.69
369.767	447.69
369.993	435.69
370.219	431.69
370.445	427.69
370.672	422.69
370.898	406.69
371.124	437.69
371.35	423.69
371.576	410.69
371.802	394.69
372.028	422.69
372.254	435.69
372.48	400.69
372.706	443.69
372.932	417.69
373.158	419.69
373.384	413.69
373.61	423.69
373.835	412.69
374.061	440.69
374.287	419.69
374.513	427.69
374.739	428.69
374.965	410.69
375.191	402.69
375.416	408.69
375.642	423.69
375.868	412.69
376.094	435.69
376.319	409.69
376.545	407.69
376.771	410.69
376.997	407.69
377.222	407.69
377.448	415.69
377.674	406.69
377.899	409.69
378.125	421.69
378.35	437.69
378.576	421.69
378.802	403.69
379.027	417.69
379.253	407.69
379.478	414.69
379.704	418.69
379.929	407.69
380.155	417.69
380.38	421.69
380.606	409.69
380.831	445.69
381.057	442.69
381.282	424.69
381.507	415.69
381.733	411.69
381.958	423.69
382.184	419.69
382.409	455.69
382.634	433.69
382.86	415.69
383.085	440.69
383.31	433.69
383.535	437.69
383.761	428.69
383.986	447.69
384.211	439.69
384.436	413.69
384.662	428.69
384.887	437.69
385.112	451.69
385.337	448.69
385.562	449.69
385.787	458.69
386.013	466.69
386.238	458.69
386.463	476.69
386.688	444.69
386.913	439.69
387.138	461.69
387.363	447.69
387.588	479.69
387.813	455.69
388.038	445.69
388.263	443.69
388.488	447.69
388.713	448.69
388.938	471.69
389.163	480.69
389.387	451.69
389.612	441.69
389.837	452.69
390.062	463.69
390.287	442.69
390.512	457.69
390.736	421.69
390.961	449.69
391.186	445.69
391.411	446.69
391.636	465.69
391.86	476.69
392.085	459.69
392.31	459.69
392.534	467.69
392.759	468.69
392.984	468.69
393.208	448.69
393.433	457.69
393.658	456.69
393.882	459.69
394.107	460.69
394.331	448.69
394.556	431.69
394.78	457.69
395.005	443.69
395.229	447.69
395.454	463.69
395.678	487.69
395.903	473.69
396.127	513.69
396.352	512.69
396.576	519.69
396.801	483.69
397.025	472.69
397.249	471.69
397.474	484.69
397.698	477.69
397.922	513.69
398.147	551.69
398.371	518.69
398.595	501.69
398.82	502.69
399.044	527.69
399.268	513.69
399.492	560.69
399.717	571.69
399.941	603.69
400.165	624.69
400.389	637.69
400.613	586.69
400.837	573.69
401.062	550.69
401.286	529.69
401.51	538.69
401.734	518.69
401.958	522.69
402.182	543.69
402.406	561.69
402.63	550.69
402.854	543.69
403.078	513.69
403.302	541.69
403.526	544.69
403.75	555.69
403.974	544.69
404.198	540.69
404.422	560.69
404.645	559.69
404.869	552.69
405.093	582.69
405.317	643.69
405.541	661.69
405.765	633.69
405.988	606.69
406.212	617.69
406.436	627.69
406.66	635.69
406.883	619.69
407.107	612.69
407.331	649.69
407.555	762.69
407.778	729.69
408.002	683.69
408.226	631.69
408.449	625.69
408.673	635.69
408.896	647.69
409.12	644.69
409.344	645.69
409.567	604.69
409.791	580.69
410.014	572.69
410.238	541.69
410.461	563.69
410.685	562.69
410.908	579.69
411.132	632.69
411.355	677.69
411.578	638.69
411.802	580.69
412.025	553.69
412.249	591.69
412.472	605.69
412.695	615.69
412.919	611.69
413.142	570.69
413.365	554.69
413.589	524.69
413.812	540.69
414.035	516.69
414.258	507.69
414.482	503.69
414.705	523.69
414.928	521.69
415.151	518.69
415.374	511.69
415.597	534.69
415.821	528.69
416.044	536.69
416.267	540.69
416.49	528.69
416.713	494.69
416.936	527.69
417.159	535.69
417.382	529.69
417.605	542.69
417.828	544.69
418.051	580.69
418.274	561.69
418.497	531.69
418.72	544.69
418.943	525.69
419.166	544.69
419.389	579.69
419.611	557.69
419.834	561.69
420.057	558.69
420.28	552.69
420.503	562.69
420.726	583.69
420.948	586.69
421.171	655.69
421.394	655.69
421.617	600.69
421.839	566.69
422.062	567.69
422.285	567.69
422.507	657.69
422.73	723.69
422.953	714.69
423.175	603.69
423.398	602.69
423.621	603.69
423.843	607.69
424.066	619.69
424.288	616.69
424.511	647.69
424.733	699.69
424.956	789.69
425.178	766.69
425.401	753.69
425.623	777.69
425.846	675.69
426.068	653.69
426.291	623.69
426.513	624.69
426.735	638.69
426.958	693.69
427.18	776.69
427.402	936.69
427.625	1039.69
427.847	944.69
428.069	792.69
428.292	704.69
428.514	657.69
428.736	612.69
428.958	608.69
429.181	583.69
429.403	603.69
429.625	602.69
429.847	631.69
430.069	716.69
430.292	703.69
430.514	603.69
430.736	589.69
430.958	583.69
431.18	573.69
431.402	547.69
431.624	537.69
431.846	551.69
432.068	534.69
432.29	550.69
432.512	545.69
432.734	563.69
432.956	544.69
433.178	586.69
433.4	587.69
433.622	575.69
433.844	549.69
434.066	551.69
434.287	526.69
434.509	559.69
434.731	582.69
434.953	554.69
435.175	574.69
435.397	606.69
435.618	603.69
435.84	667.69
436.062	798.69
436.284	874.69
436.505	769.69
436.727	667.69
436.949	627.69
437.17	609.69
437.392	583.69
437.614	617.69
437.835	672.69
438.057	764.69
438.278	880.69
438.5	910.69
438.721	963.69
438.943	906.69
439.165	757.69
439.386	675.69
439.608	643.69
439.829	655.69
440.05	699.69
440.272	766.69
440.493	685.69
440.715	650.69
440.936	619.69
441.158	616.69
441.379	607.69
441.6	611.69
441.822	648.69
442.043	688.69
442.264	782.69
442.486	835.69
442.707	697.69
442.928	643.69
443.149	666.69
443.371	665.69
443.592	722.69
443.813	823.69
444.034	887.69
444.255	735.69
444.476	679.69
444.698	639.69
444.919	636.69
445.14	751.69
445.361	703.69
445.582	668.69
445.803	785.69
446.024	915.69
446.245	899.69
446.466	815.69
446.687	728.69
446.908	659.69
447.129	619.69
447.35	622.69
447.571	625.69
447.792	574.69
448.013	601.69
448.234	615.69
448.455	678.69
448.675	828.69
448.896	933.69
449.117	799.69
449.338	771.69
449.559	873.69
449.779	934.69
450	787.69
450.221	654.69
450.442	617.69
450.662	602.69
450.883	621.69
451.104	629.69
451.324	622.69
451.545	602.69
451.766	557.69
451.986	540.69
452.207	521.69
452.428	519.69
452.648	552.69
452.869	539.69
453.089	551.69
453.31	569.69
453.53	556.69
453.751	533.69
453.971	547.69
454.192	555.69
454.412	566.69
454.633	539.69
454.853	529.69
455.073	521.69
455.294	566.69
455.514	637.69
455.734	641.69
455.955	527.69
456.175	485.69
456.395	523.69
456.616	499.69
456.836	492.69
457.056	496.69
457.276	483.69
457.497	494.69
457.717	500.69
457.937	479.69
458.157	503.69
458.377	488.69
458.598	543.69
458.818	611.69
459.038	728.69
459.258	723.69
459.478	637.69
459.698	570.69
459.918	557.69
460.138	527.69
460.358	525.69
460.578	537.69
460.798	545.69
461.018	556.69
461.238	536.69
461.458	535.69
461.678	522.69
461.898	527.69
462.118	537.69
462.338	545.69
462.558	560.69
462.777	542.69
462.997	537.69
463.217	562.69
463.437	560.69
463.657	569.69
463.876	552.69
464.096	543.69
464.316	567.69
464.536	571.69
464.755	589.69
464.975	596.69
465.195	654.69
465.414	789.69
465.634	689.69
465.854	599.69
466.073	574.69
466.293	589.69
466.512	571.69
466.732	539.69
466.951	539.69
467.171	525.69
467.391	532.69
467.61	548.69
467.829	575.69
468.049	565.69
468.268	548.69
468.488	555.69
468.707	536.69
468.927	524.69
469.146	524.69
469.365	505.69
469.585	511.69
469.804	531.69
470.023	551.69
470.243	551.69
470.462	553.69
470.681	592.69
470.901	575.69
471.12	541.69
471.339	555.69
471.558	572.69
471.777	556.69
471.997	537.69
472.216	539.69
472.435	588.69
472.654	579.69
472.873	542.69
473.092	553.69
473.311	533.69
473.53	537.69
473.749	558.69
473.968	620.69
474.187	730.69
474.406	749.69
474.625	613.69
474.844	572.69
475.063	566.69
475.282	544.69
475.501	549.69
475.72	555.69
475.939	553.69
476.158	549.69
476.377	584.69
476.596	551.69
476.814	577.69
477.033	584.69
477.252	571.69
477.471	584.69
477.69	568.69
477.908	593.69
478.127	608.69
478.346	570.69
478.564	596.69
478.783	596.69
479.002	622.69
479.22	644.69
479.439	637.69
479.658	655.69
479.876	686.69
480.095	666.69
480.313	700.69
480.532	691.69
480.751	663.69
480.969	687.69
481.188	753.69
481.406	782.69
481.624	714.69
481.843	663.69
482.061	669.69
482.28	667.69
482.498	626.69
482.717	677.69
482.935	664.69
483.153	647.69
483.372	644.69
483.59	653.69
483.808	651.69
484.027	636.69
484.245	637.69
484.463	643.69
484.681	667.69
484.9	645.69
485.118	641.69
485.336	665.69
485.554	680.69
485.772	681.69
485.99	677.69
486.209	691.69
486.427	684.69
486.645	708.69
486.863	743.69
487.081	719.69
487.299	692.69
487.517	704.69
487.735	702.69
487.953	719.69
488.171	704.69
488.389	699.69
488.607	710.69
488.825	705.69
489.043	709.69
489.261	736.69
489.479	747.69
489.696	717.69
489.914	720.69
490.132	759.69
490.35	732.69
490.568	762.69
490.786	773.69
491.003	779.69
491.221	796.69
491.439	809.69
491.657	798.69
491.874	838.69
492.092	858.69
492.31	864.69
492.527	840.69
492.745	807.69
492.963	847.69
493.18	876.69
493.398	858.69
493.615	873.69
493.833	874.69
494.05	831.69
494.268	855.69
494.485	857.69
494.703	845.69
494.92	862.69
495.138	870.69
495.355	865.69
495.573	863.69
495.79	867.69
496.008	839.69
496.225	867.69
496.442	855.69
496.66	869.69
496.877	860.69
497.094	866.69
497.312	851.69
497.529	857.69
497.746	859.69
497.963	862.69
498.181	921.69
498.398	882.69
498.615	922.69
498.832	939.69
499.049	920.69
499.267	953.69
499.484	951.69
499.701	956.69
499.918	990.69
500.135	1005.69
500.352	1035.69
500.569	1032.69
500.786	1056.69
501.003	1055.69
501.22	1034.69
501.437	1003.69
501.654	991.69
501.871	992.69
502.088	984.69
502.305	964.69
502.522	941.69
502.739	900.69
502.956	880.69
503.172	892.69
503.389	868.69
503.606	888.69
503.823	878.69
504.04	872.69
504.256	843.69
504.473	861.69
504.69	845.69
504.907	826.69
505.123	839.69
505.34	826.69
505.557	832.69
505.773	810.69
505.99	830.69
506.207	825.69
506.423	824.69
506.64	811.69
506.856	812.69
507.073	809.69
507.289	815.69
507.506	822.69
507.722	844.69
507.939	893.69
508.155	837.69
508.372	803.69
508.588	813.69
508.805	776.69
509.021	791.69
509.238	808.69
509.454	819.69
509.67	831.69
509.887	790.69
510.103	799.69
510.319	821.69
510.536	926.69
510.752	1615.69
510.968	1308.69
511.184	846.69
511.401	791.69
511.617	773.69
511.833	749.69
512.049	748.69
512.265	750.69
512.481	763.69
512.698	759.69
512.914	765.69
513.13	747.69
513.346	744.69
513.562	754.69
513.778	752.69
513.994	785.69
514.21	759.69
514.426	813.69
514.642	907.69
514.858	956.69
515.074	959.69
515.29	1197.69
515.506	1851.69
515.721	1472.69
515.937	990.69
516.153	877.69
516.369	826.69
516.585	774.69
516.801	789.69
517.016	760.69
517.232	789.69
517.448	752.69
517.664	757.69
517.879	739.69
518.095	779.69
518.311	766.69
518.527	730.69
518.742	777.69
518.958	753.69
519.173	750.69
519.389	723.69
519.605	750.69
519.82	746.69
520.036	797.69
520.251	828.69
520.467	866.69
520.682	845.69
520.898	874.69
521.113	921.69
521.329	959.69
521.544	1115.69
521.76	1452.69
521.975	2474.69
522.19	2378.69
522.406	1267.69
522.621	935.69
522.836	824.69
523.052	759.69
523.267	753.69
523.482	725.69
523.698	687.69
523.913	692.69
524.128	707.69
524.343	676.69
524.559	675.69
524.774	663.69
524.989	640.69
525.204	668.69
525.419	671.69
525.634	642.69
525.849	651.69
526.064	660.69
526.28	609.69
526.495	607.69
526.71	612.69
526.925	621.69
527.14	622.69
527.355	598.69
527.57	613.69
527.785	611.69
527.999	611.69
528.214	615.69
528.429	593.69
528.644	616.69
528.859	611.69
529.074	605.69
529.289	646.69
529.503	761.69
529.718	729.69
529.933	648.69
530.148	623.69
530.363	625.69
530.577	618.69
530.792	599.69
531.007	575.69
531.221	615.69
531.436	571.69
531.651	580.69
531.865	592.69
532.08	594.69
532.295	553.69
532.509	574.69
532.724	589.69
532.938	572.69
533.153	561.69
533.367	562.69
533.582	569.69
533.796	580.69
534.011	554.69
534.225	573.69
534.44	550.69
534.654	548.69
534.868	546.69
535.083	537.69
535.297	532.69
535.511	560.69
535.726	593.69
535.94	572.69
536.154	566.69
536.369	549.69
536.583	556.69
536.797	551.69
537.011	551.69
537.225	535.69
537.44	535.69
537.654	559.69
537.868	539.69
538.082	536.69
538.296	545.69
538.51	551.69
538.724	557.69
538.938	547.69
539.153	556.69
539.367	579.69
539.581	580.69
539.795	544.69
540.009	539.69
540.222	543.69
540.436	549.69
540.65	548.69
540.864	547.69
541.078	558.69
541.292	576.69
541.506	567.69
541.72	551.69
541.934	519.69
542.147	567.69
542.361	566.69
542.575	556.69
542.789	519.69
543.002	527.69
543.216	518.69
543.43	535.69
543.644	523.69
543.857	553.69
544.071	548.69
544.285	524.69
544.498	539.69
544.712	516.69
544.925	528.69
545.139	534.69
545.352	517.69
545.566	545.69
545.779	520.69
545.993	528.69
546.206	505.69
546.42	532.69
546.633	527.69
546.847	514.69
547.06	503.69
547.274	496.69
547.487	523.69
547.7	521.69
547.914	522.69
548.127	506.69
548.34	516.69
548.554	517.69
548.767	522.69
548.98	500.69
549.193	521.69
549.407	499.69
549.62	524.69
549.833	503.69
550.046	476.69
550.259	475.69
550.473	477.69
550.686	499.69
550.899	476.69
551.112	483.69
551.325	496.69
551.538	495.69
551.751	488.69
551.964	503.69
552.177	515.69
552.39	482.69
552.603	493.69
552.816	494.69
553.029	506.69
553.242	499.69
553.455	499.69
553.667	552.69
553.88	517.69
554.093	522.69
554.306	515.69
554.519	502.69
554.732	503.69
554.944	489.69
555.157	475.69
555.37	476.69
555.583	490.69
555.795	485.69
556.008	478.69
556.221	461.69
556.433	460.69
556.646	439.69
556.859	464.69
557.071	479.69
557.284	455.69
557.496	450.69
557.709	459.69
557.921	473.69
558.134	447.69
558.346	439.69
558.559	451.69
558.771	452.69
558.984	446.69
559.196	427.69
559.409	442.69
559.621	417.69
559.833	449.69
560.046	458.69
560.258	445.69
560.47	443.69
560.683	446.69
560.895	450.69
561.107	440.69
561.32	455.69
561.532	462.69
561.744	440.69
561.956	446.69
562.168	448.69
562.381	454.69
562.593	477.69
562.805	447.69
563.017	439.69
563.229	469.69
563.441	460.69
563.653	449.69
563.865	448.69
564.077	453.69
564.289	464.69
564.501	455.69
564.713	436.69
564.925	472.69
565.137	478.69
565.349	457.69
565.561	467.69
565.773	467.69
565.985	484.69
566.197	463.69
566.408	484.69
566.62	483.69
566.832	496.69
567.044	513.69
567.255	491.69
567.467	497.69
567.679	500.69
567.891	507.69
568.102	526.69
568.314	488.69
568.526	487.69
568.737	476.69
568.949	472.69
569.161	461.69
569.372	448.69
569.584	421.69
569.795	455.69
570.007	448.69
570.218	515.69
570.43	503.69
570.641	433.69
570.853	428.69
571.064	426.69
571.276	413.69
571.487	428.69
571.698	406.69
571.91	431.69
572.121	397.69
572.333	383.69
572.544	401.69
572.755	402.69
572.966	389.69
573.178	412.69
573.389	399.69
573.6	386.69
573.811	375.69
574.023	391.69
574.234	406.69
574.445	363.69
574.656	397.69
574.867	369.69
575.078	383.69
575.289	380.69
575.501	388.69
575.712	382.69
575.923	393.69
576.134	383.69
576.345	378.69
576.556	391.69
576.767	375.69
576.978	379.69
577.188	389.69
577.399	387.69
577.61	371.69
577.821	368.69
578.032	375.69
578.243	420.69
578.454	743.69
578.665	550.69
578.875	383.69
579.086	379.69
579.297	372.69
579.508	359.69
579.718	350.69
579.929	346.69
580.14	359.69
580.35	345.69
580.561	359.69
580.772	329.69
580.982	362.69
581.193	352.69
581.403	351.69
581.614	350.69
581.825	340.69
582.035	346.69
582.246	347.69
582.456	327.69
582.667	328.69
582.877	361.69
583.087	349.69
583.298	361.69
583.508	355.69
583.719	324.69
583.929	360.69
584.139	361.69
584.35	336.69
584.56	339.69
584.77	348.69
584.981	337.69
585.191	325.69
585.401	324.69
585.611	342.69
585.821	341.69
586.032	344.69
586.242	336.69
586.452	332.69
586.662	341.69
586.872	345.69
587.082	342.69
587.292	325.69
587.502	339.69
587.713	345.69
587.923	336.69
588.133	308.69
588.343	320.69
588.553	337.69
588.762	325.69
588.972	328.69
589.182	333.69
589.392	329.69
589.602	324.69
589.812	329.69
590.022	331.69
590.232	330.69
590.441	331.69
590.651	347.69
590.861	319.69
591.071	337.69
591.281	338.69
591.49	344.69
591.7	336.69
591.91	319.69
592.119	312.69
592.329	330.69
592.539	323.69
592.748	307.69
592.958	321.69
593.167	342.69
593.377	339.69
593.587	340.69
593.796	329.69
594.006	323.69
594.215	327.69
594.424	316.69
594.634	332.69
594.843	319.69
595.053	348.69
595.262	332.69
595.472	333.69
595.681	335.69
595.89	324.69
596.1	316.69
596.309	300.69
596.518	323.69
596.727	328.69
596.937	307.69
597.146	310.69
597.355	317.69
597.564	325.69
597.774	308.69
597.983	301.69
598.192	299.69
598.401	299.69
598.61	308.69
598.819	299.69
599.028	303.69
599.237	305.69
599.446	300.69
599.655	308.69
599.864	295.69
600.073	293.69
600.282	288.69
600.491	297.69
600.7	315.69
600.909	289.69
601.118	304.69
601.327	297.69
601.536	293.69
601.745	296.69
601.953	301.69
602.162	294.69
602.371	271.69
602.58	284.69
602.789	271.69
602.997	298.69
603.206	291.69
603.415	296.69
603.623	251.69
603.832	275.69
604.041	271.69
604.249	284.69
604.458	289.69
604.666	267.69
604.875	276.69
605.084	298.69
605.292	297.69
605.501	282.69
605.709	303.69
605.918	276.69
606.126	289.69
606.334	286.69
606.543	283.69
606.751	277.69
606.96	271.69
607.168	273.69
607.376	282.69
607.585	300.69
607.793	271.69
608.001	285.69
608.21	290.69
608.418	265.69
608.626	269.69
608.834	262.69
609.043	293.69
609.251	287.69
609.459	270.69
609.667	272.69
609.875	287.69
610.083	277.69
610.291	277.69
610.499	281.69
610.707	278.69
610.916	279.69
611.124	283.69
611.332	285.69
611.54	298.69
611.748	279.69
611.955	273.69
612.163	272.69
612.371	273.69
612.579	252.69
612.787	261.69
612.995	273.69
613.203	260.69
613.411	287.69
613.618	272.69
613.826	277.69
614.034	265.69
614.242	263.69
614.449	258.69
614.657	263.69
614.865	276.69
615.072	261.69
615.28	273.69
615.488	261.69
615.695	271.69
615.903	264.69
616.111	271.69
616.318	279.69
616.526	288.69
616.733	272.69
616.941	273.69
617.148	257.69
617.356	271.69
617.563	267.69
617.771	270.69
617.978	265.69
618.185	263.69
618.393	264.69
618.6	254.69
618.807	264.69
619.015	271.69
619.222	252.69
619.429	264.69
619.637	267.69
619.844	247.69
620.051	261.69
620.258	257.69
620.466	258.69
620.673	243.69
620.88	245.69
621.087	245.69
621.294	262.69
621.501	225.69
621.708	264.69
621.915	246.69
622.122	255.69
622.329	256.69
622.536	257.69
622.743	248.69
622.95	264.69
623.157	263.69
623.364	267.69
623.571	254.69
623.778	264.69
623.985	243.69
624.192	247.69
624.399	247.69
624.606	243.69
624.812	247.69
625.019	231.69
625.226	235.69
625.433	251.69
625.639	224.69
625.846	228.69
626.053	248.69
626.259	222.69
626.466	229.69
626.673	239.69
626.879	245.69
627.086	227.69
627.293	239.69
627.499	226.69
627.706	229.69
627.912	222.69
628.119	238.69
628.325	245.69
628.532	227.69
628.738	209.69
628.945	233.69
629.151	228.69
629.357	227.69
629.564	233.69
629.77	214.69
629.976	216.69
630.183	222.69
630.389	241.69
630.595	216.69
630.802	227.69
631.008	204.69
631.214	218.69
631.42	227.69
631.627	223.69
631.833	216.69
632.039	211.69
632.245	213.69
632.451	212.69
632.657	222.69
632.863	223.69
633.069	220.69
633.275	211.69
633.481	215.69
633.688	217.69
633.893	228.69
634.099	213.69
634.305	215.69
634.511	200.69
634.717	223.69
634.923	203.69
635.129	209.69
635.335	209.69
635.541	197.69
635.747	204.69
635.952	209.69
636.158	191.69
636.364	200.69
636.57	213.69
636.775	200.69
636.981	203.69
637.187	205.69
637.392	227.69
637.598	207.69
637.804	220.69
638.009	202.69
638.215	185.69
638.421	191.69
638.626	197.69
638.832	198.69
639.037	185.69
639.243	187.69
639.448	201.69
639.654	185.69
639.859	198.69
640.065	208.69
640.27	185.69
640.475	182.69
640.681	177.69
640.886	197.69
641.091	191.69
641.297	185.69
641.502	180.69
641.707	191.69
641.913	202.69
642.118	192.69
642.323	179.69
642.528	193.69
642.733	193.69
642.939	193.69
643.144	187.69
643.349	195.69
643.554	200.69
643.759	187.69
643.964	175.69
644.169	186.69
644.374	172.69
644.579	177.69
644.784	185.69
644.989	183.69
645.194	188.69
645.399	182.69
645.604	186.69
645.809	182.69
646.014	199.69
646.219	197.69
646.423	206.69
646.628	195.69
646.833	198.69
647.038	187.69
647.243	181.69
647.447	181.69
647.652	176.69
647.857	198.69
648.062	189.69
648.266	179.69
648.471	177.69
648.676	170.69
648.88	180.69
649.085	179.69
649.289	185.69
649.494	176.69
649.698	200.69
649.903	203.69
650.107	205.69
650.312	180.69
650.516	175.69
650.721	183.69
650.925	183.69
651.13	162.69
651.334	172.69
651.539	156.69
651.743	150.69
651.947	155.69
652.152	179.69
652.356	154.69
652.56	171.69
652.764	166.69
652.969	150.69
653.173	139.69
653.377	137.69
653.581	154.69
653.785	149.69
653.99	162.69
654.194	153.69
654.398	151.69
654.602	141.69
654.806	152.69
655.01	158.69
655.214	143.69
655.418	155.69
655.622	132.69
655.826	145.69
656.03	150.69
656.234	132.69
656.438	140.69
656.642	144.69
656.846	131.69
657.049	129.69
657.253	135.69
657.457	125.69
657.661	123.69
657.865	121.69
658.068	120.69
658.272	128.69
658.476	109.69
658.68	112.69
658.883	100.69
659.087	105.69
659.291	112.69
659.494	108.69
659.698	105.69
659.901	97.69
660.105	105.69
660.309	112.69
660.512	96.69
660.716	112.69
660.919	104.69
661.123	98.69
661.326	97.69
661.53	93.69
661.733	82.69
661.936	91.69
662.14	104.69
662.343	95.69
662.546	93.69
662.75	89.69
662.953	91.69
663.156	87.69
663.36	89.69
663.563	92.69
663.766	79.69
663.969	85.69
664.173	93.69
664.376	92.69
664.579	87.69
664.782	91.69
664.985	83.69
665.188	92.69
665.391	95.69
665.594	94.69
665.797	82.69
666	83.69
666.203	85.69
666.406	81.69
666.609	90.69
666.812	85.69
667.015	80.69
667.218	94.69
667.421	87.69
667.624	86.69
667.827	69.69
668.03	73.69
668.232	85.69
668.435	91.69
668.638	90.69
668.841	88.69
669.043	86.69
669.246	69.69
669.449	85.69
669.651	73.69
669.854	83.69
670.057	94.69
670.259	86.69
670.462	84.69
670.665	85.69
670.867	67.69
671.07	75.69
671.272	85.69
671.475	91.69
671.677	88.69
671.88	86.69
672.082	88.69
672.284	89.69
672.487	85.69
672.689	80.69
672.892	96.69
