Data from 1971.PennyLincolnUp.Lamp.En5.5.200Scan.071719.P1.Scan 2. Changed Angle._HRD10591_15-24-11-842.txt Node
Date: Thu Jul 18 15:24:11 EDT 2019
User: cochatt
Spectrometer: HR+D1059
Trigger mode: 1
Integration Time (sec): 1.000000E-1
Scans to average: 1
Electric dark correction enabled: true
Nonlinearity correction enabled: false
Boxcar width: 0
XAxis mode: Wavelengths
Number of Pixels in Spectrum: 2048
>>>>>Begin Spectral Data<<<<<
223.165	-11.62
223.4	-11.62
223.635	-11.62
223.869	-20.62
224.104	-21.62
224.338	-7.62
224.573	-8.62
224.808	-12.62
225.042	-2.62
225.277	-18.62
225.511	1.38
225.746	5.38
225.98	-10.62
226.215	21.38
226.449	22.38
226.683	22.38
226.918	20.38
227.152	21.38
227.387	39.38
227.621	45.38
227.856	41.38
228.09	46.38
228.324	62.38
228.559	43.38
228.793	95.38
229.027	108.38
229.262	122.38
229.496	133.38
229.73	149.38
229.964	180.38
230.199	136.38
230.433	140.38
230.667	132.38
230.901	117.38
231.136	121.38
231.37	121.38
231.604	121.38
231.838	116.38
232.072	136.38
232.306	118.38
232.541	108.38
232.775	128.38
233.009	112.38
233.243	121.38
233.477	133.38
233.711	103.38
233.945	128.38
234.179	123.38
234.413	129.38
234.647	125.38
234.881	129.38
235.115	112.38
235.349	124.38
235.583	143.38
235.817	131.38
236.051	136.38
236.285	138.38
236.519	146.38
236.753	155.38
236.987	155.38
237.221	200.38
237.455	254.38
237.689	211.38
237.922	168.38
238.156	141.38
238.39	138.38
238.624	126.38
238.858	134.38
239.091	124.38
239.325	153.38
239.559	144.38
239.793	143.38
240.027	144.38
240.26	166.38
240.494	176.38
240.728	182.38
240.961	155.38
241.195	156.38
241.429	140.38
241.662	137.38
241.896	150.38
242.13	135.38
242.363	157.38
242.597	140.38
242.83	149.38
243.064	136.38
243.298	143.38
243.531	151.38
243.765	145.38
243.998	142.38
244.232	143.38
244.465	152.38
244.699	146.38
244.932	134.38
245.166	149.38
245.399	151.38
245.633	140.38
245.866	157.38
246.099	143.38
246.333	158.38
246.566	146.38
246.8	153.38
247.033	174.38
247.266	164.38
247.5	176.38
247.733	180.38
247.966	176.38
248.2	190.38
248.433	197.38
248.666	185.38
248.899	194.38
249.133	215.38
249.366	235.38
249.599	220.38
249.832	184.38
250.066	213.38
250.299	197.38
250.532	192.38
250.765	213.38
250.998	238.38
251.231	255.38
251.465	230.38
251.698	225.38
251.931	206.38
252.164	208.38
252.397	223.38
252.63	227.38
252.863	229.38
253.096	224.38
253.329	250.38
253.562	246.38
253.795	256.38
254.028	238.38
254.261	256.38
254.494	253.38
254.727	291.38
254.96	316.38
255.193	287.38
255.426	279.38
255.659	268.38
255.892	251.38
256.124	237.38
256.357	262.38
256.59	253.38
256.823	251.38
257.056	234.38
257.289	253.38
257.521	232.38
257.754	234.38
257.987	198.38
258.22	231.38
258.452	223.38
258.685	217.38
258.918	227.38
259.151	214.38
259.383	231.38
259.616	225.38
259.849	233.38
260.081	244.38
260.314	269.38
260.547	276.38
260.779	269.38
261.012	258.38
261.244	260.38
261.477	230.38
261.71	233.38
261.942	243.38
262.175	260.38
262.407	257.38
262.64	215.38
262.872	212.38
263.105	228.38
263.337	227.38
263.57	230.38
263.802	224.38
264.035	207.38
264.267	232.38
264.499	205.38
264.732	217.38
264.964	230.38
265.197	229.38
265.429	224.38
265.661	219.38
265.894	211.38
266.126	222.38
266.358	211.38
266.591	229.38
266.823	228.38
267.055	236.38
267.287	225.38
267.52	239.38
267.752	246.38
267.984	211.38
268.216	236.38
268.448	241.38
268.681	244.38
268.913	254.38
269.145	262.38
269.377	301.38
269.609	277.38
269.841	266.38
270.073	292.38
270.306	300.38
270.538	338.38
270.77	309.38
271.002	322.38
271.234	311.38
271.466	331.38
271.698	337.38
271.93	322.38
272.162	335.38
272.394	349.38
272.626	331.38
272.858	290.38
273.09	288.38
273.322	282.38
273.553	259.38
273.785	286.38
274.017	272.38
274.249	255.38
274.481	287.38
274.713	279.38
274.945	283.38
275.176	284.38
275.408	284.38
275.64	274.38
275.872	275.38
276.104	271.38
276.335	271.38
276.567	285.38
276.799	283.38
277.031	314.38
277.262	314.38
277.494	313.38
277.726	315.38
277.957	291.38
278.189	299.38
278.421	277.38
278.652	272.38
278.884	270.38
279.115	285.38
279.347	263.38
279.579	271.38
279.81	268.38
280.042	260.38
280.273	289.38
280.505	265.38
280.736	269.38
280.968	280.38
281.199	251.38
281.431	270.38
281.662	284.38
281.894	257.38
282.125	260.38
282.356	277.38
282.588	305.38
282.819	293.38
283.051	278.38
283.282	268.38
283.513	266.38
283.745	296.38
283.976	281.38
284.207	278.38
284.439	291.38
284.67	298.38
284.901	284.38
285.132	286.38
285.364	278.38
285.595	265.38
285.826	258.38
286.057	267.38
286.288	275.38
286.52	289.38
286.751	279.38
286.982	275.38
287.213	288.38
287.444	280.38
287.675	285.38
287.906	296.38
288.138	301.38
288.369	304.38
288.6	287.38
288.831	285.38
289.062	296.38
289.293	277.38
289.524	282.38
289.755	297.38
289.986	285.38
290.217	299.38
290.448	286.38
290.679	285.38
290.91	293.38
291.141	287.38
291.371	281.38
291.602	297.38
291.833	286.38
292.064	301.38
292.295	291.38
292.526	286.38
292.757	288.38
292.987	274.38
293.218	277.38
293.449	295.38
293.68	291.38
293.91	284.38
294.141	288.38
294.372	281.38
294.603	279.38
294.833	284.38
295.064	285.38
295.295	294.38
295.525	277.38
295.756	291.38
295.987	300.38
296.217	343.38
296.448	321.38
296.679	311.38
296.909	288.38
297.14	270.38
297.37	295.38
297.601	281.38
297.831	305.38
298.062	285.38
298.292	295.38
298.523	303.38
298.753	296.38
298.984	292.38
299.214	302.38
299.445	312.38
299.675	317.38
299.905	314.38
300.136	316.38
300.366	286.38
300.597	303.38
300.827	311.38
301.057	304.38
301.288	309.38
301.518	323.38
301.748	318.38
301.979	320.38
302.209	315.38
302.439	311.38
302.669	312.38
302.9	338.38
303.13	305.38
303.36	324.38
303.59	316.38
303.82	322.38
304.051	318.38
304.281	305.38
304.511	305.38
304.741	313.38
304.971	318.38
305.201	317.38
305.431	333.38
305.661	317.38
305.891	336.38
306.121	304.38
306.352	332.38
306.582	336.38
306.812	338.38
307.042	323.38
307.272	325.38
307.502	351.38
307.731	332.38
307.961	313.38
308.191	325.38
308.421	340.38
308.651	342.38
308.881	337.38
309.111	346.38
309.341	355.38
309.571	377.38
309.8	369.38
310.03	389.38
310.26	385.38
310.49	368.38
310.72	409.38
310.949	406.38
311.179	437.38
311.409	393.38
311.639	368.38
311.868	379.38
312.098	385.38
312.328	389.38
312.557	412.38
312.787	425.38
313.017	424.38
313.246	413.38
313.476	383.38
313.706	373.38
313.935	398.38
314.165	401.38
314.394	415.38
314.624	405.38
314.853	391.38
315.083	398.38
315.312	384.38
315.542	378.38
315.771	365.38
316.001	356.38
316.23	371.38
316.46	364.38
316.689	371.38
316.919	367.38
317.148	407.38
317.377	396.38
317.607	389.38
317.836	406.38
318.065	382.38
318.295	362.38
318.524	375.38
318.753	397.38
318.983	375.38
319.212	384.38
319.441	398.38
319.67	398.38
319.9	385.38
320.129	381.38
320.358	381.38
320.587	392.38
320.816	396.38
321.046	411.38
321.275	407.38
321.504	394.38
321.733	417.38
321.962	425.38
322.191	451.38
322.42	467.38
322.649	478.38
322.878	499.38
323.108	483.38
323.337	519.38
323.566	567.38
323.795	604.38
324.024	664.38
324.253	769.38
324.482	1187.38
324.71	1851.38
324.939	2634.38
325.168	2265.38
325.397	1206.38
325.626	774.38
325.855	632.38
326.084	565.38
326.313	580.38
326.542	559.38
326.77	622.38
326.999	768.38
327.228	1038.38
327.457	1612.38
327.686	1961.38
327.914	1356.38
328.143	866.38
328.372	751.38
328.6	699.38
328.829	670.38
329.058	658.38
329.287	680.38
329.515	599.38
329.744	543.38
329.972	555.38
330.201	589.38
330.43	621.38
330.658	674.38
330.887	707.38
331.115	691.38
331.344	543.38
331.572	541.38
331.801	550.38
332.03	549.38
332.258	522.38
332.486	502.38
332.715	472.38
332.943	466.38
333.172	455.38
333.4	473.38
333.629	469.38
333.857	495.38
334.085	516.38
334.314	493.38
334.542	544.38
334.771	565.38
334.999	529.38
335.227	483.38
335.455	469.38
335.684	473.38
335.912	441.38
336.14	437.38
336.369	443.38
336.597	467.38
336.825	460.38
337.053	451.38
337.281	437.38
337.51	434.38
337.738	430.38
337.966	433.38
338.194	447.38
338.422	436.38
338.65	438.38
338.878	439.38
339.106	436.38
339.334	419.38
339.562	433.38
339.79	422.38
340.018	412.38
340.246	439.38
340.474	439.38
340.702	434.38
340.93	433.38
341.158	421.38
341.386	444.38
341.614	434.38
341.842	430.38
342.07	433.38
342.298	439.38
342.526	424.38
342.754	412.38
342.981	431.38
343.209	428.38
343.437	422.38
343.665	410.38
343.893	437.38
344.12	429.38
344.348	435.38
344.576	424.38
344.804	454.38
345.031	465.38
345.259	472.38
345.487	456.38
345.714	430.38
345.942	429.38
346.17	437.38
346.397	424.38
346.625	402.38
346.853	428.38
347.08	418.38
347.308	433.38
347.535	458.38
347.763	453.38
347.99	464.38
348.218	428.38
348.445	461.38
348.673	469.38
348.9	449.38
349.128	432.38
349.355	435.38
349.583	425.38
349.81	422.38
350.037	424.38
350.265	414.38
350.492	405.38
350.72	431.38
350.947	406.38
351.174	429.38
351.402	455.38
351.629	453.38
351.856	444.38
352.083	465.38
352.311	466.38
352.538	451.38
352.765	476.38
352.992	461.38
353.22	437.38
353.447	428.38
353.674	412.38
353.901	422.38
354.128	414.38
354.355	402.38
354.583	402.38
354.81	385.38
355.037	411.38
355.264	409.38
355.491	390.38
355.718	391.38
355.945	399.38
356.172	401.38
356.399	405.38
356.626	379.38
356.853	390.38
357.08	386.38
357.307	399.38
357.534	385.38
357.761	400.38
357.988	404.38
358.215	402.38
358.441	413.38
358.668	387.38
358.895	403.38
359.122	425.38
359.349	432.38
359.576	443.38
359.802	466.38
360.029	513.38
360.256	528.38
360.483	501.38
360.709	445.38
360.936	462.38
361.163	453.38
361.39	443.38
361.616	429.38
361.843	430.38
362.07	437.38
362.296	452.38
362.523	429.38
362.749	440.38
362.976	424.38
363.203	423.38
363.429	425.38
363.656	414.38
363.882	439.38
364.109	410.38
364.335	419.38
364.562	407.38
364.788	401.38
365.015	431.38
365.241	432.38
365.468	422.38
365.694	427.38
365.92	444.38
366.147	431.38
366.373	417.38
366.599	413.38
366.826	416.38
367.052	410.38
367.278	413.38
367.505	431.38
367.731	429.38
367.957	412.38
368.184	410.38
368.41	422.38
368.636	428.38
368.862	428.38
369.089	404.38
369.315	456.38
369.541	430.38
369.767	420.38
369.993	433.38
370.219	424.38
370.445	412.38
370.672	429.38
370.898	419.38
371.124	400.38
371.35	403.38
371.576	405.38
371.802	407.38
372.028	397.38
372.254	420.38
372.48	415.38
372.706	417.38
372.932	406.38
373.158	384.38
373.384	425.38
373.61	425.38
373.835	405.38
374.061	412.38
374.287	412.38
374.513	407.38
374.739	444.38
374.965	419.38
375.191	409.38
375.416	389.38
375.642	394.38
375.868	413.38
376.094	417.38
376.319	412.38
376.545	428.38
376.771	405.38
376.997	391.38
377.222	414.38
377.448	419.38
377.674	416.38
377.899	402.38
378.125	421.38
378.35	387.38
378.576	409.38
378.802	423.38
379.027	410.38
379.253	421.38
379.478	399.38
379.704	411.38
379.929	409.38
380.155	408.38
380.38	419.38
380.606	422.38
380.831	424.38
381.057	419.38
381.282	419.38
381.507	404.38
381.733	419.38
381.958	407.38
382.184	414.38
382.409	427.38
382.634	402.38
382.86	437.38
383.085	435.38
383.31	440.38
383.535	432.38
383.761	437.38
383.986	447.38
384.211	411.38
384.436	422.38
384.662	413.38
384.887	426.38
385.112	423.38
385.337	447.38
385.562	447.38
385.787	444.38
386.013	470.38
386.238	464.38
386.463	444.38
386.688	441.38
386.913	454.38
387.138	449.38
387.363	435.38
387.588	463.38
387.813	429.38
388.038	440.38
388.263	447.38
388.488	442.38
388.713	444.38
388.938	439.38
389.163	436.38
389.387	448.38
389.612	448.38
389.837	446.38
390.062	427.38
390.287	433.38
390.512	435.38
390.736	451.38
390.961	447.38
391.186	456.38
391.411	459.38
391.636	462.38
391.86	451.38
392.085	467.38
392.31	467.38
392.534	451.38
392.759	447.38
392.984	469.38
393.208	457.38
393.433	462.38
393.658	451.38
393.882	447.38
394.107	451.38
394.331	446.38
394.556	465.38
394.78	468.38
395.005	432.38
395.229	452.38
395.454	461.38
395.678	444.38
395.903	461.38
396.127	505.38
396.352	508.38
396.576	476.38
396.801	478.38
397.025	480.38
397.249	456.38
397.474	461.38
397.698	475.38
397.922	493.38
398.147	524.38
398.371	510.38
398.595	501.38
398.82	501.38
399.044	508.38
399.268	500.38
399.492	558.38
399.717	572.38
399.941	580.38
400.165	635.38
400.389	643.38
400.613	568.38
400.837	555.38
401.062	521.38
401.286	528.38
401.51	508.38
401.734	527.38
401.958	526.38
402.182	529.38
402.406	553.38
402.63	523.38
402.854	530.38
403.078	543.38
403.302	538.38
403.526	549.38
403.75	545.38
403.974	539.38
404.198	541.38
404.422	564.38
404.645	555.38
404.869	550.38
405.093	580.38
405.317	613.38
405.541	684.38
405.765	616.38
405.988	574.38
406.212	597.38
406.436	612.38
406.66	622.38
406.883	605.38
407.107	640.38
407.331	652.38
407.555	708.38
407.778	727.38
408.002	668.38
408.226	611.38
408.449	586.38
408.673	596.38
408.896	629.38
409.12	684.38
409.344	641.38
409.567	560.38
409.791	538.38
410.014	540.38
410.238	539.38
410.461	540.38
410.685	557.38
410.908	568.38
411.132	584.38
411.355	617.38
411.578	591.38
411.802	561.38
412.025	557.38
412.249	552.38
412.472	583.38
412.695	637.38
412.919	583.38
413.142	576.38
413.365	565.38
413.589	548.38
413.812	534.38
414.035	531.38
414.258	505.38
414.482	507.38
414.705	519.38
414.928	521.38
415.151	523.38
415.374	513.38
415.597	525.38
415.821	488.38
416.044	511.38
416.267	517.38
416.49	513.38
416.713	524.38
416.936	521.38
417.159	517.38
417.382	537.38
417.605	528.38
417.828	571.38
418.051	558.38
418.274	535.38
418.497	533.38
418.72	542.38
418.943	522.38
419.166	535.38
419.389	547.38
419.611	553.38
419.834	547.38
420.057	549.38
420.28	550.38
420.503	545.38
420.726	536.38
420.948	567.38
421.171	607.38
421.394	644.38
421.617	587.38
421.839	549.38
422.062	554.38
422.285	575.38
422.507	652.38
422.73	709.38
422.953	683.38
423.175	612.38
423.398	569.38
423.621	594.38
423.843	601.38
424.066	605.38
424.288	595.38
424.511	623.38
424.733	692.38
424.956	777.38
425.178	734.38
425.401	774.38
425.623	774.38
425.846	639.38
426.068	623.38
426.291	605.38
426.513	605.38
426.735	645.38
426.958	667.38
427.18	758.38
427.402	919.38
427.625	995.38
427.847	902.38
428.069	783.38
428.292	685.38
428.514	608.38
428.736	588.38
428.958	589.38
429.181	581.38
429.403	577.38
429.625	584.38
429.847	646.38
430.069	694.38
430.292	697.38
430.514	591.38
430.736	573.38
430.958	568.38
431.18	552.38
431.402	529.38
431.624	522.38
431.846	521.38
432.068	523.38
432.29	532.38
432.512	520.38
432.734	541.38
432.956	524.38
433.178	571.38
433.4	571.38
433.622	548.38
433.844	554.38
434.066	524.38
434.287	526.38
434.509	527.38
434.731	541.38
434.953	553.38
435.175	571.38
435.397	605.38
435.618	653.38
435.84	679.38
436.062	790.38
436.284	827.38
436.505	716.38
436.727	641.38
436.949	599.38
437.17	581.38
437.392	607.38
437.614	586.38
437.835	638.38
438.057	759.38
438.278	849.38
438.5	862.38
438.721	901.38
438.943	878.38
439.165	718.38
439.386	639.38
439.608	659.38
439.829	647.38
440.05	692.38
440.272	702.38
440.493	677.38
440.715	628.38
440.936	615.38
441.158	591.38
441.379	585.38
441.6	588.38
441.822	625.38
442.043	669.38
442.264	775.38
442.486	821.38
442.707	695.38
442.928	629.38
443.149	664.38
443.371	657.38
443.592	716.38
443.813	807.38
444.034	848.38
444.255	709.38
444.476	639.38
444.698	636.38
444.919	618.38
445.14	707.38
445.361	665.38
445.582	683.38
445.803	746.38
446.024	864.38
446.245	878.38
446.466	823.38
446.687	688.38
446.908	636.38
447.129	610.38
447.35	582.38
447.571	581.38
447.792	590.38
448.013	586.38
448.234	606.38
448.455	670.38
448.675	793.38
448.896	903.38
449.117	764.38
449.338	778.38
449.559	867.38
449.779	929.38
450	777.38
450.221	664.38
450.442	603.38
450.662	591.38
450.883	567.38
451.104	616.38
451.324	602.38
451.545	566.38
451.766	545.38
451.986	537.38
452.207	521.38
452.428	506.38
452.648	520.38
452.869	539.38
453.089	535.38
453.31	527.38
453.53	540.38
453.751	519.38
453.971	504.38
454.192	551.38
454.412	529.38
454.633	528.38
454.853	533.38
455.073	506.38
455.294	541.38
455.514	636.38
455.734	599.38
455.955	524.38
456.175	496.38
456.395	499.38
456.616	491.38
456.836	489.38
457.056	472.38
457.276	475.38
457.497	465.38
457.717	483.38
457.937	493.38
458.157	494.38
458.377	519.38
458.598	550.38
458.818	633.38
459.038	709.38
459.258	715.38
459.478	622.38
459.698	563.38
459.918	539.38
460.138	535.38
460.358	535.38
460.578	534.38
460.798	525.38
461.018	527.38
461.238	526.38
461.458	519.38
461.678	529.38
461.898	514.38
462.118	529.38
462.338	548.38
462.558	535.38
462.777	551.38
462.997	540.38
463.217	558.38
463.437	535.38
463.657	549.38
463.876	548.38
464.096	560.38
464.316	525.38
464.536	555.38
464.755	557.38
464.975	588.38
465.195	623.38
465.414	758.38
465.634	664.38
465.854	587.38
466.073	565.38
466.293	537.38
466.512	561.38
466.732	521.38
466.951	520.38
467.171	515.38
467.391	537.38
467.61	559.38
467.829	554.38
468.049	527.38
468.268	537.38
468.488	518.38
468.707	495.38
468.927	517.38
469.146	519.38
469.365	506.38
469.585	515.38
469.804	554.38
470.023	525.38
470.243	543.38
470.462	536.38
470.681	561.38
470.901	575.38
471.12	558.38
471.339	553.38
471.558	526.38
471.777	539.38
471.997	512.38
472.216	569.38
472.435	593.38
472.654	572.38
472.873	550.38
473.092	519.38
473.311	524.38
473.53	541.38
473.749	551.38
473.968	588.38
474.187	710.38
474.406	731.38
474.625	615.38
474.844	594.38
475.063	550.38
475.282	566.38
475.501	534.38
475.72	542.38
475.939	550.38
476.158	568.38
476.377	552.38
476.596	531.38
476.814	553.38
477.033	605.38
477.252	567.38
477.471	539.38
477.69	542.38
477.908	568.38
478.127	553.38
478.346	599.38
478.564	583.38
478.783	615.38
479.002	616.38
479.22	591.38
479.439	599.38
479.658	637.38
479.876	636.38
480.095	670.38
480.313	682.38
480.532	663.38
480.751	643.38
480.969	656.38
481.188	735.38
481.406	819.38
481.624	712.38
481.843	664.38
482.061	656.38
482.28	664.38
482.498	671.38
482.717	652.38
482.935	655.38
483.153	649.38
483.372	657.38
483.59	633.38
483.808	627.38
484.027	634.38
484.245	622.38
484.463	641.38
484.681	650.38
484.9	647.38
485.118	643.38
485.336	677.38
485.554	661.38
485.772	653.38
485.99	665.38
486.209	647.38
486.427	661.38
486.645	670.38
486.863	722.38
487.081	686.38
487.299	693.38
487.517	691.38
487.735	681.38
487.953	700.38
488.171	693.38
488.389	692.38
488.607	711.38
488.825	687.38
489.043	727.38
489.261	709.38
489.479	723.38
489.696	708.38
489.914	712.38
490.132	737.38
490.35	735.38
490.568	728.38
490.786	753.38
491.003	779.38
491.221	779.38
491.439	790.38
491.657	785.38
491.874	821.38
492.092	810.38
492.31	847.38
492.527	809.38
492.745	821.38
492.963	835.38
493.18	855.38
493.398	860.38
493.615	839.38
493.833	827.38
494.05	834.38
494.268	820.38
494.485	813.38
494.703	815.38
494.92	833.38
495.138	836.38
495.355	841.38
495.573	845.38
495.79	838.38
496.008	863.38
496.225	853.38
496.442	837.38
496.66	835.38
496.877	830.38
497.094	847.38
497.312	826.38
497.529	852.38
497.746	846.38
497.963	884.38
498.181	900.38
498.398	897.38
498.615	889.38
498.832	891.38
499.049	919.38
499.267	922.38
499.484	925.38
499.701	943.38
499.918	961.38
500.135	980.38
500.352	1020.38
500.569	1022.38
500.786	1062.38
501.003	1039.38
501.22	1037.38
501.437	999.38
501.654	992.38
501.871	1012.38
502.088	945.38
502.305	937.38
502.522	900.38
502.739	876.38
502.956	848.38
503.172	869.38
503.389	850.38
503.606	844.38
503.823	878.38
504.04	832.38
504.256	844.38
504.473	843.38
504.69	823.38
504.907	822.38
505.123	792.38
505.34	817.38
505.557	794.38
505.773	805.38
505.99	803.38
506.207	831.38
506.423	806.38
506.64	781.38
506.856	791.38
507.073	790.38
507.289	792.38
507.506	772.38
507.722	780.38
507.939	838.38
508.155	797.38
508.372	807.38
508.588	764.38
508.805	752.38
509.021	775.38
509.238	804.38
509.454	787.38
509.67	797.38
509.887	739.38
510.103	777.38
510.319	781.38
510.536	894.38
510.752	1550.38
510.968	1285.38
511.184	829.38
511.401	774.38
511.617	752.38
511.833	759.38
512.049	735.38
512.265	744.38
512.481	750.38
512.698	708.38
512.914	727.38
513.13	721.38
513.346	731.38
513.562	743.38
513.778	714.38
513.994	738.38
514.21	788.38
514.426	794.38
514.642	880.38
514.858	890.38
515.074	929.38
515.29	1188.38
515.506	1759.38
515.721	1435.38
515.937	936.38
516.153	853.38
516.369	791.38
516.585	755.38
516.801	780.38
517.016	741.38
517.232	751.38
517.448	730.38
517.664	734.38
517.879	714.38
518.095	741.38
518.311	742.38
518.527	739.38
518.742	719.38
518.958	721.38
519.173	707.38
519.389	725.38
519.605	736.38
519.82	745.38
520.036	751.38
520.251	805.38
520.467	840.38
520.682	842.38
520.898	837.38
521.113	870.38
521.329	969.38
521.544	1120.38
521.76	1414.38
521.975	2368.38
522.19	2311.38
522.406	1220.38
522.621	906.38
522.836	772.38
523.052	756.38
523.267	725.38
523.482	696.38
523.698	686.38
523.913	682.38
524.128	712.38
524.343	647.38
524.559	677.38
524.774	636.38
524.989	655.38
525.204	645.38
525.419	660.38
525.634	640.38
525.849	644.38
526.064	622.38
526.28	614.38
526.495	616.38
526.71	595.38
526.925	592.38
527.14	573.38
527.355	592.38
527.57	600.38
527.785	596.38
527.999	609.38
528.214	609.38
528.429	612.38
528.644	598.38
528.859	567.38
529.074	596.38
529.289	630.38
529.503	726.38
529.718	732.38
529.933	623.38
530.148	593.38
530.363	618.38
530.577	593.38
530.792	599.38
531.007	569.38
531.221	580.38
531.436	573.38
531.651	564.38
531.865	574.38
532.08	584.38
532.295	569.38
532.509	557.38
532.724	554.38
532.938	573.38
533.153	555.38
533.367	527.38
533.582	539.38
533.796	556.38
534.011	529.38
534.225	559.38
534.44	538.38
534.654	533.38
534.868	536.38
535.083	533.38
535.297	547.38
535.511	549.38
535.726	572.38
535.94	557.38
536.154	579.38
536.369	554.38
536.583	539.38
536.797	522.38
537.011	539.38
537.225	519.38
537.44	537.38
537.654	520.38
537.868	527.38
538.082	534.38
538.296	535.38
538.51	538.38
538.724	529.38
538.938	559.38
539.153	533.38
539.367	564.38
539.581	519.38
539.795	553.38
540.009	539.38
540.222	531.38
540.436	521.38
540.65	533.38
540.864	553.38
541.078	548.38
541.292	555.38
541.506	559.38
541.72	534.38
541.934	559.38
542.147	557.38
542.361	543.38
542.575	519.38
542.789	537.38
543.002	519.38
543.216	527.38
543.43	520.38
543.644	535.38
543.857	498.38
544.071	521.38
544.285	547.38
544.498	522.38
544.712	514.38
544.925	524.38
545.139	520.38
545.352	520.38
545.566	521.38
545.779	526.38
545.993	511.38
546.206	510.38
546.42	506.38
546.633	517.38
546.847	525.38
547.06	515.38
547.274	524.38
547.487	522.38
547.7	492.38
547.914	503.38
548.127	494.38
548.34	477.38
548.554	515.38
548.767	507.38
548.98	501.38
549.193	493.38
549.407	497.38
549.62	501.38
549.833	502.38
550.046	508.38
550.259	493.38
550.473	470.38
550.686	478.38
550.899	495.38
551.112	483.38
551.325	468.38
551.538	481.38
551.751	491.38
551.964	488.38
552.177	480.38
552.39	503.38
552.603	485.38
552.816	505.38
553.029	491.38
553.242	501.38
553.455	498.38
553.667	540.38
553.88	543.38
554.093	507.38
554.306	493.38
554.519	497.38
554.732	495.38
554.944	474.38
555.157	495.38
555.37	507.38
555.583	483.38
555.795	490.38
556.008	478.38
556.221	451.38
556.433	454.38
556.646	459.38
556.859	444.38
557.071	451.38
557.284	457.38
557.496	453.38
557.709	448.38
557.921	456.38
558.134	456.38
558.346	424.38
558.559	454.38
558.771	440.38
558.984	447.38
559.196	438.38
559.409	442.38
559.621	454.38
559.833	436.38
560.046	438.38
560.258	424.38
560.47	446.38
560.683	453.38
560.895	459.38
561.107	431.38
561.32	431.38
561.532	448.38
561.744	435.38
561.956	432.38
562.168	420.38
562.381	426.38
562.593	451.38
562.805	425.38
563.017	435.38
563.229	428.38
563.441	450.38
563.653	448.38
563.865	445.38
564.077	454.38
564.289	426.38
564.501	441.38
564.713	446.38
564.925	460.38
565.137	468.38
565.349	460.38
565.561	472.38
565.773	452.38
565.985	474.38
566.197	471.38
566.408	476.38
566.62	492.38
566.832	494.38
567.044	505.38
567.255	481.38
567.467	516.38
567.679	484.38
567.891	520.38
568.102	517.38
568.314	485.38
568.526	478.38
568.737	473.38
568.949	475.38
569.161	439.38
569.372	451.38
569.584	433.38
569.795	443.38
570.007	444.38
570.218	499.38
570.43	487.38
570.641	422.38
570.853	435.38
571.064	422.38
571.276	423.38
571.487	405.38
571.698	421.38
571.91	396.38
572.121	393.38
572.333	406.38
572.544	393.38
572.755	390.38
572.966	368.38
573.178	377.38
573.389	391.38
573.6	392.38
573.811	391.38
574.023	387.38
574.234	368.38
574.445	385.38
574.656	405.38
574.867	372.38
575.078	381.38
575.289	359.38
575.501	358.38
575.712	374.38
575.923	360.38
576.134	361.38
576.345	364.38
576.556	383.38
576.767	363.38
576.978	364.38
577.188	361.38
577.399	361.38
577.61	374.38
577.821	347.38
578.032	363.38
578.243	432.38
578.454	736.38
578.665	532.38
578.875	389.38
579.086	385.38
579.297	380.38
579.508	362.38
579.718	352.38
579.929	339.38
580.14	343.38
580.35	329.38
580.561	349.38
580.772	348.38
580.982	351.38
581.193	334.38
581.403	347.38
581.614	335.38
581.825	345.38
582.035	352.38
582.246	346.38
582.456	333.38
582.667	352.38
582.877	360.38
583.087	349.38
583.298	342.38
583.508	342.38
583.719	340.38
583.929	327.38
584.139	334.38
584.35	343.38
584.56	325.38
584.77	351.38
584.981	330.38
585.191	329.38
585.401	350.38
585.611	323.38
585.821	317.38
586.032	333.38
586.242	356.38
586.452	330.38
586.662	315.38
586.872	319.38
587.082	337.38
587.292	332.38
587.502	326.38
587.713	333.38
587.923	318.38
588.133	343.38
588.343	315.38
588.553	328.38
588.762	310.38
588.972	315.38
589.182	322.38
589.392	327.38
589.602	320.38
589.812	324.38
590.022	327.38
590.232	325.38
590.441	342.38
590.651	332.38
590.861	334.38
591.071	351.38
591.281	329.38
591.49	348.38
591.7	320.38
591.91	334.38
592.119	324.38
592.329	333.38
592.539	339.38
592.748	330.38
592.958	313.38
593.167	313.38
593.377	315.38
593.587	341.38
593.796	317.38
594.006	313.38
594.215	327.38
594.424	308.38
594.634	321.38
594.843	325.38
595.053	329.38
595.262	323.38
595.472	319.38
595.681	309.38
595.89	299.38
596.1	312.38
596.309	299.38
596.518	310.38
596.727	307.38
596.937	304.38
597.146	307.38
597.355	322.38
597.564	326.38
597.774	310.38
597.983	293.38
598.192	285.38
598.401	309.38
598.61	309.38
598.819	326.38
599.028	301.38
599.237	295.38
599.446	279.38
599.655	298.38
599.864	310.38
600.073	297.38
600.282	310.38
600.491	296.38
600.7	299.38
600.909	292.38
601.118	281.38
601.327	279.38
601.536	290.38
601.745	296.38
601.953	293.38
602.162	276.38
602.371	302.38
602.58	297.38
602.789	281.38
602.997	274.38
603.206	284.38
603.415	311.38
603.623	297.38
603.832	280.38
604.041	278.38
604.249	270.38
604.458	283.38
604.666	274.38
604.875	273.38
605.084	267.38
605.292	290.38
605.501	271.38
605.709	283.38
605.918	271.38
606.126	284.38
606.334	270.38
606.543	285.38
606.751	290.38
606.96	268.38
607.168	273.38
607.376	281.38
607.585	284.38
607.793	280.38
608.001	267.38
608.21	264.38
608.418	280.38
608.626	288.38
608.834	283.38
609.043	279.38
609.251	267.38
609.459	283.38
609.667	279.38
609.875	281.38
610.083	278.38
610.291	283.38
610.499	270.38
610.707	269.38
610.916	267.38
611.124	270.38
611.332	288.38
611.54	273.38
611.748	280.38
611.955	292.38
612.163	275.38
612.371	301.38
612.579	278.38
612.787	259.38
612.995	254.38
613.203	265.38
613.411	278.38
613.618	265.38
613.826	277.38
614.034	267.38
614.242	275.38
614.449	271.38
614.657	255.38
614.865	280.38
615.072	262.38
615.28	280.38
615.488	275.38
615.695	269.38
615.903	271.38
616.111	270.38
616.318	277.38
616.526	263.38
616.733	274.38
616.941	265.38
617.148	273.38
617.356	260.38
617.563	262.38
617.771	278.38
617.978	246.38
618.185	264.38
618.393	252.38
618.6	273.38
618.807	255.38
619.015	260.38
619.222	257.38
619.429	242.38
619.637	265.38
619.844	264.38
620.051	251.38
620.258	251.38
620.466	240.38
620.673	239.38
620.88	216.38
621.087	240.38
621.294	263.38
621.501	259.38
621.708	246.38
621.915	255.38
622.122	263.38
622.329	251.38
622.536	266.38
622.743	254.38
622.95	237.38
623.157	232.38
623.364	239.38
623.571	230.38
623.778	236.38
623.985	236.38
624.192	238.38
624.399	246.38
624.606	231.38
624.812	243.38
625.019	234.38
625.226	229.38
625.433	238.38
625.639	249.38
625.846	228.38
626.053	228.38
626.259	220.38
626.466	231.38
626.673	232.38
626.879	219.38
627.086	228.38
627.293	223.38
627.499	224.38
627.706	223.38
627.912	217.38
628.119	240.38
628.325	218.38
628.532	225.38
628.738	229.38
628.945	220.38
629.151	205.38
629.357	237.38
629.564	226.38
629.77	230.38
629.976	210.38
630.183	212.38
630.389	231.38
630.595	220.38
630.802	217.38
631.008	215.38
631.214	220.38
631.42	216.38
631.627	221.38
631.833	204.38
632.039	202.38
632.245	211.38
632.451	223.38
632.657	230.38
632.863	206.38
633.069	210.38
633.275	204.38
633.481	202.38
633.688	190.38
633.893	209.38
634.099	207.38
634.305	208.38
634.511	204.38
634.717	207.38
634.923	195.38
635.129	216.38
635.335	199.38
635.541	214.38
635.747	185.38
635.952	200.38
636.158	202.38
636.364	209.38
636.57	197.38
636.775	200.38
636.981	190.38
637.187	204.38
637.392	205.38
637.598	196.38
637.804	178.38
638.009	179.38
638.215	202.38
638.421	212.38
638.626	203.38
638.832	199.38
639.037	203.38
639.243	196.38
639.448	191.38
639.654	200.38
639.859	193.38
640.065	194.38
640.27	203.38
640.475	172.38
640.681	184.38
640.886	195.38
641.091	195.38
641.297	200.38
641.502	188.38
641.707	197.38
641.913	181.38
642.118	182.38
642.323	183.38
642.528	189.38
642.733	196.38
642.939	181.38
643.144	204.38
643.349	198.38
643.554	181.38
643.759	181.38
643.964	177.38
644.169	189.38
644.374	174.38
644.579	196.38
644.784	175.38
644.989	172.38
645.194	189.38
645.399	160.38
645.604	197.38
645.809	181.38
646.014	193.38
646.219	199.38
646.423	188.38
646.628	177.38
646.833	181.38
647.038	181.38
647.243	181.38
647.447	183.38
647.652	200.38
647.857	187.38
648.062	195.38
648.266	166.38
648.471	186.38
648.676	176.38
648.88	190.38
649.085	204.38
649.289	199.38
649.494	182.38
649.698	193.38
649.903	195.38
650.107	187.38
650.312	187.38
650.516	163.38
650.721	179.38
650.925	168.38
651.13	183.38
651.334	171.38
651.539	156.38
651.743	151.38
651.947	166.38
652.152	183.38
652.356	155.38
652.56	157.38
652.764	173.38
652.969	153.38
653.173	139.38
653.377	150.38
653.581	148.38
653.785	145.38
653.99	148.38
654.194	152.38
654.398	135.38
654.602	152.38
654.806	141.38
655.01	161.38
655.214	158.38
655.418	149.38
655.622	126.38
655.826	135.38
656.03	128.38
656.234	128.38
656.438	135.38
656.642	151.38
656.846	139.38
657.049	129.38
657.253	131.38
657.457	133.38
657.661	118.38
657.865	115.38
658.068	127.38
658.272	114.38
658.476	120.38
658.68	101.38
658.883	126.38
659.087	112.38
659.291	106.38
659.494	107.38
659.698	113.38
659.901	111.38
660.105	93.38
660.309	99.38
660.512	96.38
660.716	99.38
660.919	67.38
661.123	103.38
661.326	99.38
661.53	88.38
661.733	86.38
661.936	90.38
662.14	97.38
662.343	99.38
662.546	84.38
662.75	96.38
662.953	87.38
663.156	92.38
663.36	103.38
663.563	85.38
663.766	91.38
663.969	84.38
664.173	86.38
664.376	76.38
664.579	107.38
664.782	86.38
664.985	102.38
665.188	104.38
665.391	93.38
665.594	106.38
665.797	89.38
666	90.38
666.203	84.38
666.406	94.38
666.609	81.38
666.812	107.38
667.015	86.38
667.218	95.38
667.421	89.38
667.624	83.38
667.827	86.38
668.03	91.38
668.232	79.38
668.435	78.38
668.638	77.38
668.841	89.38
669.043	84.38
669.246	90.38
669.449	76.38
669.651	87.38
669.854	94.38
670.057	85.38
670.259	68.38
670.462	84.38
670.665	88.38
670.867	83.38
671.07	83.38
671.272	88.38
671.475	81.38
671.677	95.38
671.88	84.38
672.082	93.38
672.284	92.38
672.487	88.38
672.689	76.38
672.892	84.38
