Data from 1971.PennyLincolnUp.Lamp.En5.5.200Scan.071719.P1._HRD10591_15-20-19-841.txt Node
Date: Thu Jul 18 15:20:19 EDT 2019
User: cochatt
Spectrometer: HR+D1059
Trigger mode: 1
Integration Time (sec): 1.000000E-1
Scans to average: 1
Electric dark correction enabled: true
Nonlinearity correction enabled: false
Boxcar width: 0
XAxis mode: Wavelengths
Number of Pixels in Spectrum: 2048
>>>>>Begin Spectral Data<<<<<
223.165	-12.12
223.4	-12.12
223.635	-12.12
223.869	-10.12
224.104	-12.12
224.338	-17.12
224.573	-18.12
224.808	-18.12
225.042	-13.12
225.277	-6.12
225.511	-12.12
225.746	5.88
225.98	5.88
226.215	1.88
226.449	14.88
226.683	23.88
226.918	35.88
227.152	30.88
227.387	25.88
227.621	52.88
227.856	42.88
228.09	53.88
228.324	63.88
228.559	58.88
228.793	86.88
229.027	98.88
229.262	95.88
229.496	114.88
229.73	104.88
229.964	129.88
230.199	143.88
230.433	126.88
230.667	110.88
230.901	102.88
231.136	113.88
231.37	114.88
231.604	108.88
231.838	106.88
232.072	113.88
232.306	111.88
232.541	120.88
232.775	99.88
233.009	92.88
233.243	111.88
233.477	114.88
233.711	109.88
233.945	117.88
234.179	116.88
234.413	104.88
234.647	115.88
234.881	118.88
235.115	105.88
235.349	101.88
235.583	119.88
235.817	117.88
236.051	132.88
236.285	119.88
236.519	122.88
236.753	116.88
236.987	155.88
237.221	174.88
237.455	205.88
237.689	161.88
237.922	147.88
238.156	129.88
238.39	119.88
238.624	131.88
238.858	126.88
239.091	129.88
239.325	127.88
239.559	125.88
239.793	120.88
240.027	129.88
240.26	131.88
240.494	151.88
240.728	157.88
240.961	144.88
241.195	142.88
241.429	149.88
241.662	130.88
241.896	125.88
242.13	138.88
242.363	127.88
242.597	142.88
242.83	143.88
243.064	123.88
243.298	135.88
243.531	128.88
243.765	150.88
243.998	126.88
244.232	147.88
244.465	154.88
244.699	131.88
244.932	133.88
245.166	132.88
245.399	149.88
245.633	153.88
245.866	138.88
246.099	147.88
246.333	157.88
246.566	142.88
246.8	159.88
247.033	159.88
247.266	165.88
247.5	171.88
247.733	164.88
247.966	158.88
248.2	172.88
248.433	181.88
248.666	177.88
248.899	183.88
249.133	183.88
249.366	208.88
249.599	199.88
249.832	180.88
250.066	186.88
250.299	180.88
250.532	184.88
250.765	203.88
250.998	225.88
251.231	223.88
251.465	204.88
251.698	206.88
251.931	204.88
252.164	219.88
252.397	205.88
252.63	199.88
252.863	232.88
253.096	205.88
253.329	227.88
253.562	226.88
253.795	222.88
254.028	218.88
254.261	244.88
254.494	226.88
254.727	275.88
254.96	286.88
255.193	271.88
255.426	242.88
255.659	243.88
255.892	233.88
256.124	239.88
256.357	222.88
256.59	237.88
256.823	222.88
257.056	214.88
257.289	220.88
257.521	218.88
257.754	220.88
257.987	233.88
258.22	222.88
258.452	200.88
258.685	207.88
258.918	221.88
259.151	211.88
259.383	236.88
259.616	230.88
259.849	245.88
260.081	235.88
260.314	241.88
260.547	273.88
260.779	248.88
261.012	241.88
261.244	235.88
261.477	232.88
261.71	225.88
261.942	215.88
262.175	243.88
262.407	226.88
262.64	209.88
262.872	217.88
263.105	220.88
263.337	233.88
263.57	213.88
263.802	219.88
264.035	211.88
264.267	202.88
264.499	226.88
264.732	231.88
264.964	242.88
265.197	226.88
265.429	228.88
265.661	221.88
265.894	214.88
266.126	213.88
266.358	217.88
266.591	239.88
266.823	229.88
267.055	227.88
267.287	245.88
267.52	217.88
267.752	222.88
267.984	226.88
268.216	242.88
268.448	227.88
268.681	254.88
268.913	253.88
269.145	287.88
269.377	285.88
269.609	295.88
269.841	249.88
270.073	293.88
270.306	302.88
270.538	322.88
270.77	316.88
271.002	305.88
271.234	290.88
271.466	299.88
271.698	311.88
271.93	329.88
272.162	319.88
272.394	325.88
272.626	314.88
272.858	309.88
273.09	277.88
273.322	285.88
273.553	280.88
273.785	278.88
274.017	259.88
274.249	270.88
274.481	277.88
274.713	272.88
274.945	277.88
275.176	277.88
275.408	276.88
275.64	282.88
275.872	284.88
276.104	274.88
276.335	279.88
276.567	289.88
276.799	303.88
277.031	295.88
277.262	343.88
277.494	319.88
277.726	341.88
277.957	310.88
278.189	278.88
278.421	289.88
278.652	294.88
278.884	282.88
279.115	271.88
279.347	277.88
279.579	293.88
279.81	266.88
280.042	271.88
280.273	269.88
280.505	291.88
280.736	270.88
280.968	286.88
281.199	264.88
281.431	263.88
281.662	253.88
281.894	273.88
282.125	267.88
282.356	290.88
282.588	318.88
282.819	298.88
283.051	286.88
283.282	291.88
283.513	290.88
283.745	280.88
283.976	284.88
284.207	284.88
284.439	298.88
284.67	300.88
284.901	305.88
285.132	269.88
285.364	297.88
285.595	289.88
285.826	286.88
286.057	280.88
286.288	291.88
286.52	300.88
286.751	299.88
286.982	309.88
287.213	299.88
287.444	289.88
287.675	296.88
287.906	302.88
288.138	298.88
288.369	288.88
288.6	292.88
288.831	310.88
289.062	293.88
289.293	297.88
289.524	297.88
289.755	301.88
289.986	268.88
290.217	296.88
290.448	303.88
290.679	301.88
290.91	302.88
291.141	294.88
291.371	307.88
291.602	299.88
291.833	301.88
292.064	288.88
292.295	301.88
292.526	301.88
292.757	294.88
292.987	295.88
293.218	309.88
293.449	303.88
293.68	295.88
293.91	295.88
294.141	298.88
294.372	291.88
294.603	315.88
294.833	285.88
295.064	287.88
295.295	309.88
295.525	279.88
295.756	295.88
295.987	309.88
296.217	335.88
296.448	342.88
296.679	305.88
296.909	295.88
297.14	311.88
297.37	311.88
297.601	296.88
297.831	309.88
298.062	304.88
298.292	316.88
298.523	317.88
298.753	322.88
298.984	317.88
299.214	302.88
299.445	297.88
299.675	314.88
299.905	321.88
300.136	311.88
300.366	311.88
300.597	323.88
300.827	312.88
301.057	334.88
301.288	329.88
301.518	319.88
301.748	329.88
301.979	320.88
302.209	339.88
302.439	334.88
302.669	332.88
302.9	319.88
303.13	331.88
303.36	337.88
303.59	336.88
303.82	337.88
304.051	351.88
304.281	335.88
304.511	315.88
304.741	324.88
304.971	343.88
305.201	338.88
305.431	329.88
305.661	329.88
305.891	363.88
306.121	329.88
306.352	346.88
306.582	342.88
306.812	340.88
307.042	344.88
307.272	327.88
307.502	326.88
307.731	340.88
307.961	334.88
308.191	365.88
308.421	352.88
308.651	346.88
308.881	340.88
309.111	366.88
309.341	347.88
309.571	344.88
309.8	358.88
310.03	383.88
310.26	383.88
310.49	400.88
310.72	391.88
310.949	387.88
311.179	388.88
311.409	397.88
311.639	381.88
311.868	370.88
312.098	372.88
312.328	389.88
312.557	393.88
312.787	411.88
313.017	396.88
313.246	391.88
313.476	396.88
313.706	369.88
313.935	384.88
314.165	404.88
314.394	401.88
314.624	386.88
314.853	381.88
315.083	389.88
315.312	383.88
315.542	369.88
315.771	382.88
316.001	363.88
316.23	365.88
316.46	377.88
316.689	390.88
316.919	389.88
317.148	377.88
317.377	372.88
317.607	377.88
317.836	387.88
318.065	376.88
318.295	362.88
318.524	385.88
318.753	387.88
318.983	394.88
319.212	389.88
319.441	401.88
319.67	405.88
319.9	402.88
320.129	374.88
320.358	378.88
320.587	395.88
320.816	403.88
321.046	407.88
321.275	404.88
321.504	400.88
321.733	418.88
321.962	433.88
322.191	437.88
322.42	439.88
322.649	427.88
322.878	454.88
323.108	455.88
323.337	473.88
323.566	493.88
323.795	532.88
324.024	589.88
324.253	716.88
324.482	985.88
324.71	1480.88
324.939	2011.88
325.168	1703.88
325.397	903.88
325.626	636.88
325.855	534.88
326.084	495.88
326.313	512.88
326.542	487.88
326.77	548.88
326.999	648.88
327.228	864.88
327.457	1286.88
327.686	1469.88
327.914	1013.88
328.143	691.88
328.372	605.88
328.6	581.88
328.829	559.88
329.058	549.88
329.287	572.88
329.515	551.88
329.744	512.88
329.972	493.88
330.201	542.88
330.43	551.88
330.658	576.88
330.887	591.88
331.115	592.88
331.344	518.88
331.572	495.88
331.801	485.88
332.03	474.88
332.258	470.88
332.486	465.88
332.715	449.88
332.943	446.88
333.172	465.88
333.4	447.88
333.629	463.88
333.857	477.88
334.085	467.88
334.314	479.88
334.542	486.88
334.771	513.88
334.999	467.88
335.227	445.88
335.455	433.88
335.684	449.88
335.912	436.88
336.14	443.88
336.369	425.88
336.597	463.88
336.825	431.88
337.053	423.88
337.281	420.88
337.51	402.88
337.738	435.88
337.966	434.88
338.194	439.88
338.422	424.88
338.65	417.88
338.878	412.88
339.106	431.88
339.334	414.88
339.562	414.88
339.79	413.88
340.018	405.88
340.246	421.88
340.474	423.88
340.702	406.88
340.93	415.88
341.158	414.88
341.386	413.88
341.614	437.88
341.842	406.88
342.07	394.88
342.298	411.88
342.526	422.88
342.754	399.88
342.981	387.88
343.209	402.88
343.437	422.88
343.665	423.88
343.893	407.88
344.12	433.88
344.348	420.88
344.576	412.88
344.804	428.88
345.031	428.88
345.259	429.88
345.487	428.88
345.714	406.88
345.942	408.88
346.17	399.88
346.397	395.88
346.625	405.88
346.853	415.88
347.08	393.88
347.308	407.88
347.535	402.88
347.763	418.88
347.99	393.88
348.218	419.88
348.445	413.88
348.673	406.88
348.9	414.88
349.128	391.88
349.355	386.88
349.583	382.88
349.81	394.88
350.037	374.88
350.265	377.88
350.492	378.88
350.72	381.88
350.947	387.88
351.174	383.88
351.402	410.88
351.629	388.88
351.856	398.88
352.083	401.88
352.311	394.88
352.538	415.88
352.765	417.88
352.992	396.88
353.22	407.88
353.447	396.88
353.674	403.88
353.901	390.88
354.128	374.88
354.355	381.88
354.583	381.88
354.81	363.88
355.037	361.88
355.264	369.88
355.491	371.88
355.718	351.88
355.945	354.88
356.172	352.88
356.399	377.88
356.626	361.88
356.853	364.88
357.08	360.88
357.307	366.88
357.534	362.88
357.761	370.88
357.988	373.88
358.215	359.88
358.441	375.88
358.668	365.88
358.895	366.88
359.122	374.88
359.349	383.88
359.576	395.88
359.802	403.88
360.029	433.88
360.256	426.88
360.483	405.88
360.709	381.88
360.936	387.88
361.163	373.88
361.39	379.88
361.616	382.88
361.843	389.88
362.07	379.88
362.296	389.88
362.523	393.88
362.749	388.88
362.976	370.88
363.203	375.88
363.429	362.88
363.656	353.88
363.882	359.88
364.109	372.88
364.335	355.88
364.562	382.88
364.788	371.88
365.015	346.88
365.241	361.88
365.468	373.88
365.694	357.88
365.92	355.88
366.147	373.88
366.373	352.88
366.599	355.88
366.826	360.88
367.052	374.88
367.278	355.88
367.505	373.88
367.731	358.88
367.957	373.88
368.184	352.88
368.41	361.88
368.636	368.88
368.862	363.88
369.089	363.88
369.315	343.88
369.541	370.88
369.767	363.88
369.993	369.88
370.219	366.88
370.445	383.88
370.672	365.88
370.898	361.88
371.124	358.88
371.35	358.88
371.576	363.88
371.802	369.88
372.028	383.88
372.254	351.88
372.48	355.88
372.706	357.88
372.932	363.88
373.158	374.88
373.384	366.88
373.61	362.88
373.835	352.88
374.061	371.88
374.287	347.88
374.513	349.88
374.739	364.88
374.965	356.88
375.191	351.88
375.416	353.88
375.642	340.88
375.868	355.88
376.094	366.88
376.319	350.88
376.545	358.88
376.771	378.88
376.997	344.88
377.222	369.88
377.448	349.88
377.674	342.88
377.899	341.88
378.125	357.88
378.35	351.88
378.576	325.88
378.802	361.88
379.027	343.88
379.253	343.88
379.478	341.88
379.704	339.88
379.929	351.88
380.155	331.88
380.38	343.88
380.606	359.88
380.831	350.88
381.057	360.88
381.282	332.88
381.507	346.88
381.733	359.88
381.958	360.88
382.184	341.88
382.409	346.88
382.634	354.88
382.86	358.88
383.085	365.88
383.31	347.88
383.535	340.88
383.761	355.88
383.986	359.88
384.211	354.88
384.436	360.88
384.662	376.88
384.887	365.88
385.112	377.88
385.337	364.88
385.562	369.88
385.787	358.88
386.013	385.88
386.238	375.88
386.463	371.88
386.688	369.88
386.913	385.88
387.138	392.88
387.363	373.88
387.588	394.88
387.813	367.88
388.038	356.88
388.263	369.88
388.488	377.88
388.713	363.88
388.938	373.88
389.163	381.88
389.387	379.88
389.612	385.88
389.837	363.88
390.062	378.88
390.287	379.88
390.512	384.88
390.736	360.88
390.961	373.88
391.186	373.88
391.411	394.88
391.636	359.88
391.86	383.88
392.085	365.88
392.31	364.88
392.534	372.88
392.759	391.88
392.984	366.88
393.208	363.88
393.433	363.88
393.658	363.88
393.882	383.88
394.107	359.88
394.331	361.88
394.556	360.88
394.78	359.88
395.005	381.88
395.229	377.88
395.454	374.88
395.678	382.88
395.903	387.88
396.127	385.88
396.352	396.88
396.576	382.88
396.801	389.88
397.025	374.88
397.249	366.88
397.474	385.88
397.698	386.88
397.922	387.88
398.147	392.88
398.371	410.88
398.595	391.88
398.82	417.88
399.044	429.88
399.268	406.88
399.492	447.88
399.717	474.88
399.941	468.88
400.165	487.88
400.389	542.88
400.613	464.88
400.837	422.88
401.062	431.88
401.286	422.88
401.51	430.88
401.734	414.88
401.958	399.88
402.182	411.88
402.406	435.88
402.63	412.88
402.854	407.88
403.078	410.88
403.302	417.88
403.526	420.88
403.75	423.88
403.974	424.88
404.198	408.88
404.422	409.88
404.645	435.88
404.869	431.88
405.093	441.88
405.317	498.88
405.541	505.88
405.765	456.88
405.988	465.88
406.212	461.88
406.436	452.88
406.66	488.88
406.883	459.88
407.107	468.88
407.331	509.88
407.555	569.88
407.778	556.88
408.002	529.88
408.226	465.88
408.449	465.88
408.673	471.88
408.896	484.88
409.12	541.88
409.344	488.88
409.567	430.88
409.791	421.88
410.014	440.88
410.238	429.88
410.461	425.88
410.685	434.88
410.908	439.88
411.132	465.88
411.355	486.88
411.578	462.88
411.802	442.88
412.025	426.88
412.249	435.88
412.472	459.88
412.695	464.88
412.919	450.88
413.142	419.88
413.365	428.88
413.589	421.88
413.812	389.88
414.035	387.88
414.258	408.88
414.482	391.88
414.705	381.88
414.928	373.88
415.151	380.88
415.374	392.88
415.597	374.88
415.821	413.88
416.044	397.88
416.267	411.88
416.49	393.88
416.713	385.88
416.936	394.88
417.159	400.88
417.382	407.88
417.605	412.88
417.828	397.88
418.051	422.88
418.274	413.88
418.497	407.88
418.72	378.88
418.943	413.88
419.166	415.88
419.389	421.88
419.611	427.88
419.834	413.88
420.057	410.88
420.28	423.88
420.503	405.88
420.726	408.88
420.948	414.88
421.171	466.88
421.394	497.88
421.617	433.88
421.839	410.88
422.062	420.88
422.285	421.88
422.507	482.88
422.73	535.88
422.953	521.88
423.175	454.88
423.398	440.88
423.621	450.88
423.843	473.88
424.066	463.88
424.288	454.88
424.511	470.88
424.733	524.88
424.956	577.88
425.178	555.88
425.401	546.88
425.623	554.88
425.846	476.88
426.068	464.88
426.291	433.88
426.513	436.88
426.735	464.88
426.958	501.88
427.18	578.88
427.402	679.88
427.625	734.88
427.847	628.88
428.069	549.88
428.292	498.88
428.514	444.88
428.736	437.88
428.958	427.88
429.181	415.88
429.403	411.88
429.625	415.88
429.847	470.88
430.069	493.88
430.292	500.88
430.514	449.88
430.736	429.88
430.958	428.88
431.18	390.88
431.402	386.88
431.624	384.88
431.846	388.88
432.068	379.88
432.29	391.88
432.512	381.88
432.734	392.88
432.956	407.88
433.178	420.88
433.4	402.88
433.622	394.88
433.844	399.88
434.066	364.88
434.287	383.88
434.509	395.88
434.731	388.88
434.953	432.88
435.175	404.88
435.397	430.88
435.618	450.88
435.84	487.88
436.062	553.88
436.284	618.88
436.505	497.88
436.727	465.88
436.949	444.88
437.17	435.88
437.392	417.88
437.614	453.88
437.835	460.88
438.057	522.88
438.278	617.88
438.5	606.88
438.721	653.88
438.943	630.88
439.165	512.88
439.386	472.88
439.608	456.88
439.829	468.88
440.05	497.88
440.272	526.88
440.493	481.88
440.715	454.88
440.936	443.88
441.158	426.88
441.379	416.88
441.6	441.88
441.822	444.88
442.043	474.88
442.264	559.88
442.486	573.88
442.707	505.88
442.928	472.88
443.149	495.88
443.371	486.88
443.592	535.88
443.813	594.88
444.034	621.88
444.255	524.88
444.476	486.88
444.698	454.88
444.919	471.88
445.14	543.88
445.361	511.88
445.582	497.88
445.803	542.88
446.024	631.88
446.245	645.88
446.466	563.88
446.687	494.88
446.908	450.88
447.129	447.88
447.35	405.88
447.571	429.88
447.792	419.88
448.013	412.88
448.234	431.88
448.455	480.88
448.675	561.88
448.896	656.88
449.117	557.88
449.338	533.88
449.559	614.88
449.779	673.88
450	546.88
450.221	454.88
450.442	439.88
450.662	412.88
450.883	407.88
451.104	423.88
451.324	402.88
451.545	405.88
451.766	401.88
451.986	371.88
452.207	350.88
452.428	379.88
452.648	374.88
452.869	366.88
453.089	374.88
453.31	371.88
453.53	377.88
453.751	371.88
453.971	386.88
454.192	359.88
454.412	365.88
454.633	380.88
454.853	379.88
455.073	355.88
455.294	413.88
455.514	461.88
455.734	418.88
455.955	383.88
456.175	352.88
456.395	352.88
456.616	349.88
456.836	335.88
457.056	327.88
457.276	327.88
457.497	354.88
457.717	343.88
457.937	359.88
458.157	374.88
458.377	365.88
458.598	380.88
458.818	418.88
459.038	485.88
459.258	489.88
459.478	420.88
459.698	385.88
459.918	387.88
460.138	351.88
460.358	383.88
460.578	375.88
460.798	401.88
461.018	399.88
461.238	377.88
461.458	386.88
461.678	381.88
461.898	381.88
462.118	390.88
462.338	390.88
462.558	390.88
462.777	388.88
462.997	410.88
463.217	398.88
463.437	398.88
463.657	389.88
463.876	400.88
464.096	419.88
464.316	387.88
464.536	392.88
464.755	427.88
464.975	418.88
465.195	441.88
465.414	513.88
465.634	427.88
465.854	412.88
466.073	402.88
466.293	381.88
466.512	370.88
466.732	380.88
466.951	366.88
467.171	369.88
467.391	375.88
467.61	359.88
467.829	387.88
468.049	367.88
468.268	375.88
468.488	357.88
468.707	364.88
468.927	356.88
469.146	362.88
469.365	366.88
469.585	366.88
469.804	365.88
470.023	370.88
470.243	385.88
470.462	390.88
470.681	379.88
470.901	389.88
471.12	383.88
471.339	377.88
471.558	376.88
471.777	377.88
471.997	393.88
472.216	378.88
472.435	386.88
472.654	405.88
472.873	371.88
473.092	391.88
473.311	381.88
473.53	363.88
473.749	391.88
473.968	424.88
474.187	531.88
474.406	531.88
474.625	431.88
474.844	395.88
475.063	397.88
475.282	376.88
475.501	390.88
475.72	396.88
475.939	373.88
476.158	395.88
476.377	385.88
476.596	386.88
476.814	389.88
477.033	369.88
477.252	403.88
477.471	400.88
477.69	396.88
477.908	401.88
478.127	413.88
478.346	407.88
478.564	413.88
478.783	399.88
479.002	417.88
479.22	439.88
479.439	436.88
479.658	450.88
479.876	450.88
480.095	461.88
480.313	479.88
480.532	459.88
480.751	430.88
480.969	458.88
481.188	483.88
481.406	519.88
481.624	479.88
481.843	462.88
482.061	444.88
482.28	443.88
482.498	437.88
482.717	433.88
482.935	439.88
483.153	427.88
483.372	431.88
483.59	435.88
483.808	438.88
484.027	445.88
484.245	429.88
484.463	444.88
484.681	454.88
484.9	441.88
485.118	445.88
485.336	449.88
485.554	459.88
485.772	444.88
485.99	457.88
486.209	459.88
486.427	452.88
486.645	471.88
486.863	466.88
487.081	466.88
487.299	473.88
487.517	449.88
487.735	453.88
487.953	473.88
488.171	458.88
488.389	478.88
488.607	473.88
488.825	493.88
489.043	455.88
489.261	461.88
489.479	457.88
489.696	477.88
489.914	491.88
490.132	494.88
490.35	501.88
490.568	502.88
490.786	503.88
491.003	507.88
491.221	506.88
491.439	533.88
491.657	516.88
491.874	562.88
492.092	563.88
492.31	546.88
492.527	568.88
492.745	551.88
492.963	562.88
493.18	553.88
493.398	580.88
493.615	558.88
493.833	568.88
494.05	571.88
494.268	578.88
494.485	543.88
494.703	565.88
494.92	544.88
495.138	553.88
495.355	545.88
495.573	545.88
495.79	575.88
496.008	574.88
496.225	561.88
496.442	570.88
496.66	591.88
496.877	542.88
497.094	551.88
497.312	562.88
497.529	571.88
497.746	579.88
497.963	584.88
498.181	609.88
498.398	587.88
498.615	602.88
498.832	607.88
499.049	628.88
499.267	657.88
499.484	643.88
499.701	665.88
499.918	665.88
500.135	717.88
500.352	734.88
500.569	747.88
500.786	726.88
501.003	756.88
501.22	734.88
501.437	692.88
501.654	675.88
501.871	706.88
502.088	637.88
502.305	641.88
502.522	621.88
502.739	611.88
502.956	601.88
503.172	571.88
503.389	586.88
503.606	570.88
503.823	576.88
504.04	564.88
504.256	560.88
504.473	526.88
504.69	571.88
504.907	533.88
505.123	531.88
505.34	528.88
505.557	538.88
505.773	526.88
505.99	534.88
506.207	523.88
506.423	551.88
506.64	535.88
506.856	509.88
507.073	513.88
507.289	503.88
507.506	531.88
507.722	531.88
507.939	532.88
508.155	527.88
508.372	517.88
508.588	487.88
508.805	473.88
509.021	515.88
509.238	507.88
509.454	512.88
509.67	499.88
509.887	533.88
510.103	501.88
510.319	518.88
510.536	595.88
510.752	893.88
510.968	712.88
511.184	499.88
511.401	473.88
511.617	482.88
511.833	492.88
512.049	479.88
512.265	478.88
512.481	502.88
512.698	481.88
512.914	474.88
513.13	464.88
513.346	450.88
513.562	464.88
513.778	455.88
513.994	464.88
514.21	487.88
514.426	499.88
514.642	542.88
514.858	548.88
515.074	592.88
515.29	674.88
515.506	983.88
515.721	802.88
515.937	565.88
516.153	532.88
516.369	501.88
516.585	505.88
516.801	498.88
517.016	477.88
517.232	489.88
517.448	487.88
517.664	493.88
517.879	515.88
518.095	500.88
518.311	485.88
518.527	463.88
518.742	477.88
518.958	469.88
519.173	464.88
519.389	487.88
519.605	489.88
519.82	484.88
520.036	489.88
520.251	507.88
520.467	520.88
520.682	490.88
520.898	509.88
521.113	541.88
521.329	569.88
521.544	634.88
521.76	792.88
521.975	1236.88
522.19	1166.88
522.406	681.88
522.621	517.88
522.836	499.88
523.052	469.88
523.267	482.88
523.482	438.88
523.698	431.88
523.913	439.88
524.128	447.88
524.343	433.88
524.559	419.88
524.774	411.88
524.989	435.88
525.204	434.88
525.419	430.88
525.634	409.88
525.849	433.88
526.064	417.88
526.28	411.88
526.495	381.88
526.71	387.88
526.925	381.88
527.14	408.88
527.355	375.88
527.57	383.88
527.785	388.88
527.999	357.88
528.214	387.88
528.429	389.88
528.644	394.88
528.859	383.88
529.074	407.88
529.289	421.88
529.503	457.88
529.718	449.88
529.933	412.88
530.148	381.88
530.363	396.88
530.577	365.88
530.792	380.88
531.007	371.88
531.221	391.88
531.436	389.88
531.651	371.88
531.865	346.88
532.08	366.88
532.295	362.88
532.509	359.88
532.724	374.88
532.938	363.88
533.153	373.88
533.367	369.88
533.582	377.88
533.796	378.88
534.011	373.88
534.225	364.88
534.44	361.88
534.654	366.88
534.868	372.88
535.083	363.88
535.297	366.88
535.511	362.88
535.726	386.88
535.94	389.88
536.154	389.88
536.369	377.88
536.583	366.88
536.797	369.88
537.011	375.88
537.225	361.88
537.44	360.88
537.654	339.88
537.868	340.88
538.082	347.88
538.296	354.88
538.51	357.88
538.724	378.88
538.938	375.88
539.153	364.88
539.367	381.88
539.581	363.88
539.795	353.88
540.009	345.88
540.222	345.88
540.436	355.88
540.65	358.88
540.864	363.88
541.078	365.88
541.292	379.88
541.506	373.88
541.72	356.88
541.934	387.88
542.147	379.88
542.361	370.88
542.575	357.88
542.789	379.88
543.002	365.88
543.216	361.88
543.43	366.88
543.644	361.88
543.857	364.88
544.071	348.88
544.285	361.88
544.498	347.88
544.712	374.88
544.925	362.88
545.139	364.88
545.352	382.88
545.566	361.88
545.779	366.88
545.993	364.88
546.206	392.88
546.42	375.88
546.633	365.88
546.847	354.88
547.06	359.88
547.274	367.88
547.487	347.88
547.7	347.88
547.914	347.88
548.127	333.88
548.34	342.88
548.554	364.88
548.767	358.88
548.98	350.88
549.193	351.88
549.407	352.88
549.62	360.88
549.833	352.88
550.046	332.88
550.259	342.88
550.473	350.88
550.686	339.88
550.899	333.88
551.112	339.88
551.325	336.88
551.538	329.88
551.751	317.88
551.964	335.88
552.177	323.88
552.39	348.88
552.603	326.88
552.816	329.88
553.029	335.88
553.242	348.88
553.455	369.88
553.667	364.88
553.88	352.88
554.093	355.88
554.306	335.88
554.519	342.88
554.732	336.88
554.944	335.88
555.157	325.88
555.37	341.88
555.583	339.88
555.795	320.88
556.008	321.88
556.221	298.88
556.433	327.88
556.646	297.88
556.859	317.88
557.071	322.88
557.284	332.88
557.496	319.88
557.709	311.88
557.921	312.88
558.134	300.88
558.346	327.88
558.559	311.88
558.771	308.88
558.984	336.88
559.196	329.88
559.409	297.88
559.621	321.88
559.833	307.88
560.046	311.88
560.258	316.88
560.47	302.88
560.683	318.88
560.895	305.88
561.107	283.88
561.32	281.88
561.532	300.88
561.744	311.88
561.956	319.88
562.168	305.88
562.381	305.88
562.593	294.88
562.805	306.88
563.017	322.88
563.229	313.88
563.441	317.88
563.653	312.88
563.865	307.88
564.077	321.88
564.289	319.88
564.501	307.88
564.713	319.88
564.925	311.88
565.137	335.88
565.349	331.88
565.561	319.88
565.773	303.88
565.985	317.88
566.197	334.88
566.408	341.88
566.62	356.88
566.832	345.88
567.044	345.88
567.255	346.88
567.467	353.88
567.679	361.88
567.891	359.88
568.102	363.88
568.314	357.88
568.526	350.88
568.737	341.88
568.949	315.88
569.161	319.88
569.372	314.88
569.584	314.88
569.795	318.88
570.007	301.88
570.218	335.88
570.43	325.88
570.641	305.88
570.853	291.88
571.064	289.88
571.276	282.88
571.487	278.88
571.698	295.88
571.91	270.88
572.121	289.88
572.333	271.88
572.544	273.88
572.755	284.88
572.966	271.88
573.178	279.88
573.389	286.88
573.6	264.88
573.811	266.88
574.023	262.88
574.234	268.88
574.445	249.88
574.656	259.88
574.867	257.88
575.078	277.88
575.289	257.88
575.501	236.88
575.712	241.88
575.923	267.88
576.134	239.88
576.345	248.88
576.556	269.88
576.767	260.88
576.978	252.88
577.188	259.88
577.399	238.88
577.61	234.88
577.821	252.88
578.032	261.88
578.243	299.88
578.454	442.88
578.665	337.88
578.875	259.88
579.086	259.88
579.297	233.88
579.508	233.88
579.718	252.88
579.929	235.88
580.14	234.88
580.35	236.88
580.561	250.88
580.772	269.88
580.982	243.88
581.193	238.88
581.403	236.88
581.614	232.88
581.825	230.88
582.035	232.88
582.246	227.88
582.456	232.88
582.667	229.88
582.877	235.88
583.087	243.88
583.298	252.88
583.508	229.88
583.719	229.88
583.929	237.88
584.139	227.88
584.35	229.88
584.56	234.88
584.77	229.88
584.981	220.88
585.191	233.88
585.401	234.88
585.611	227.88
585.821	223.88
586.032	229.88
586.242	225.88
586.452	240.88
586.662	233.88
586.872	225.88
587.082	230.88
587.292	243.88
587.502	249.88
587.713	230.88
587.923	217.88
588.133	231.88
588.343	218.88
588.553	218.88
588.762	233.88
588.972	233.88
589.182	226.88
589.392	250.88
589.602	236.88
589.812	233.88
590.022	225.88
590.232	221.88
590.441	236.88
590.651	219.88
590.861	221.88
591.071	224.88
591.281	230.88
591.49	220.88
591.7	233.88
591.91	228.88
592.119	236.88
592.329	226.88
592.539	244.88
592.748	223.88
592.958	230.88
593.167	241.88
593.377	242.88
593.587	254.88
593.796	231.88
594.006	250.88
594.215	243.88
594.424	227.88
594.634	241.88
594.843	225.88
595.053	231.88
595.262	225.88
595.472	233.88
595.681	225.88
595.89	226.88
596.1	219.88
596.309	209.88
596.518	223.88
596.727	210.88
596.937	228.88
597.146	225.88
597.355	233.88
597.564	209.88
597.774	225.88
597.983	219.88
598.192	226.88
598.401	219.88
598.61	213.88
598.819	202.88
599.028	189.88
599.237	205.88
599.446	218.88
599.655	203.88
599.864	201.88
600.073	194.88
600.282	196.88
600.491	218.88
600.7	211.88
600.909	187.88
601.118	207.88
601.327	223.88
601.536	209.88
601.745	225.88
601.953	207.88
602.162	211.88
602.371	210.88
602.58	211.88
602.789	201.88
602.997	193.88
603.206	199.88
603.415	210.88
603.623	197.88
603.832	217.88
604.041	182.88
604.249	194.88
604.458	181.88
604.666	183.88
604.875	189.88
605.084	196.88
605.292	205.88
605.501	198.88
605.709	211.88
605.918	195.88
606.126	211.88
606.334	206.88
606.543	214.88
606.751	189.88
606.96	187.88
607.168	190.88
607.376	198.88
607.585	217.88
607.793	192.88
608.001	194.88
608.21	173.88
608.418	198.88
608.626	206.88
608.834	183.88
609.043	191.88
609.251	197.88
609.459	206.88
609.667	210.88
609.875	209.88
610.083	199.88
610.291	198.88
610.499	199.88
610.707	187.88
610.916	206.88
611.124	207.88
611.332	214.88
611.54	206.88
611.748	207.88
611.955	206.88
612.163	196.88
612.371	207.88
612.579	203.88
612.787	203.88
612.995	207.88
613.203	199.88
613.411	190.88
613.618	225.88
613.826	207.88
614.034	186.88
614.242	198.88
614.449	204.88
614.657	199.88
614.865	206.88
615.072	197.88
615.28	198.88
615.488	203.88
615.695	205.88
615.903	198.88
616.111	201.88
616.318	191.88
616.526	201.88
616.733	199.88
616.941	201.88
617.148	206.88
617.356	203.88
617.563	184.88
617.771	181.88
617.978	189.88
618.185	189.88
618.393	200.88
618.6	190.88
618.807	185.88
619.015	183.88
619.222	186.88
619.429	186.88
619.637	195.88
619.844	186.88
620.051	179.88
620.258	166.88
620.466	189.88
620.673	185.88
620.88	172.88
621.087	191.88
621.294	180.88
621.501	190.88
621.708	184.88
621.915	188.88
622.122	202.88
622.329	186.88
622.536	201.88
622.743	197.88
622.95	187.88
623.157	190.88
623.364	186.88
623.571	193.88
623.778	186.88
623.985	210.88
624.192	192.88
624.399	166.88
624.606	166.88
624.812	173.88
625.019	183.88
625.226	163.88
625.433	179.88
625.639	162.88
625.846	190.88
626.053	168.88
626.259	165.88
626.466	180.88
626.673	172.88
626.879	174.88
627.086	172.88
627.293	157.88
627.499	173.88
627.706	163.88
627.912	171.88
628.119	171.88
628.325	178.88
628.532	177.88
628.738	180.88
628.945	171.88
629.151	177.88
629.357	180.88
629.564	165.88
629.77	185.88
629.976	174.88
630.183	171.88
630.389	162.88
630.595	172.88
630.802	165.88
631.008	173.88
631.214	166.88
631.42	170.88
631.627	167.88
631.833	167.88
632.039	169.88
632.245	181.88
632.451	165.88
632.657	170.88
632.863	163.88
633.069	158.88
633.275	159.88
633.481	173.88
633.688	163.88
633.893	158.88
634.099	169.88
634.305	147.88
634.511	161.88
634.717	163.88
634.923	156.88
635.129	161.88
635.335	161.88
635.541	151.88
635.747	148.88
635.952	159.88
636.158	172.88
636.364	152.88
636.57	166.88
636.775	152.88
636.981	162.88
637.187	163.88
637.392	153.88
637.598	163.88
637.804	138.88
638.009	155.88
638.215	155.88
638.421	159.88
638.626	179.88
638.832	151.88
639.037	150.88
639.243	150.88
639.448	147.88
639.654	153.88
639.859	165.88
640.065	155.88
640.27	160.88
640.475	154.88
640.681	142.88
640.886	149.88
641.091	169.88
641.297	147.88
641.502	152.88
641.707	156.88
641.913	149.88
642.118	136.88
642.323	149.88
642.528	157.88
642.733	144.88
642.939	148.88
643.144	138.88
643.349	143.88
643.554	143.88
643.759	152.88
643.964	150.88
644.169	138.88
644.374	148.88
644.579	146.88
644.784	156.88
644.989	157.88
645.194	155.88
645.399	157.88
645.604	150.88
645.809	151.88
646.014	134.88
646.219	143.88
646.423	141.88
646.628	134.88
646.833	154.88
647.038	151.88
647.243	150.88
647.447	140.88
647.652	149.88
647.857	155.88
648.062	150.88
648.266	163.88
648.471	153.88
648.676	151.88
648.88	132.88
649.085	140.88
649.289	156.88
649.494	148.88
649.698	157.88
649.903	168.88
650.107	156.88
650.312	144.88
650.516	138.88
650.721	138.88
650.925	131.88
651.13	143.88
651.334	125.88
651.539	137.88
651.743	138.88
651.947	134.88
652.152	142.88
652.356	138.88
652.56	127.88
652.764	133.88
652.969	130.88
653.173	116.88
653.377	138.88
653.581	140.88
653.785	126.88
653.99	125.88
654.194	116.88
654.398	132.88
654.602	137.88
654.806	146.88
655.01	137.88
655.214	123.88
655.418	125.88
655.622	127.88
655.826	102.88
656.03	117.88
656.234	117.88
656.438	143.88
656.642	116.88
656.846	122.88
657.049	118.88
657.253	129.88
657.457	125.88
657.661	110.88
657.865	95.88
658.068	118.88
658.272	101.88
658.476	116.88
658.68	103.88
658.883	95.88
659.087	86.88
659.291	111.88
659.494	93.88
659.698	93.88
659.901	95.88
660.105	98.88
660.309	87.88
660.512	91.88
660.716	100.88
660.919	83.88
661.123	98.88
661.326	95.88
661.53	89.88
661.733	89.88
661.936	97.88
662.14	83.88
662.343	72.88
662.546	84.88
662.75	85.88
662.953	86.88
663.156	78.88
663.36	87.88
663.563	90.88
663.766	85.88
663.969	86.88
664.173	83.88
664.376	77.88
664.579	95.88
664.782	83.88
664.985	79.88
665.188	102.88
665.391	92.88
665.594	83.88
665.797	88.88
666	78.88
666.203	74.88
666.406	84.88
666.609	88.88
666.812	102.88
667.015	91.88
667.218	77.88
667.421	75.88
667.624	87.88
667.827	82.88
668.03	84.88
668.232	75.88
668.435	81.88
668.638	75.88
668.841	93.88
669.043	82.88
669.246	77.88
669.449	73.88
669.651	76.88
669.854	71.88
670.057	65.88
670.259	74.88
670.462	95.88
670.665	91.88
670.867	97.88
671.07	91.88
671.272	79.88
671.475	102.88
671.677	83.88
671.88	79.88
672.082	86.88
672.284	82.88
672.487	81.88
672.689	91.88
672.892	84.88
