Data from 1971.PennyLincolnUp.Lamp.En5.5.200Scan.071719.P1._HRD10591_15-20-04-841.txt Node
Date: Thu Jul 18 15:20:04 EDT 2019
User: cochatt
Spectrometer: HR+D1059
Trigger mode: 1
Integration Time (sec): 1.000000E-1
Scans to average: 1
Electric dark correction enabled: true
Nonlinearity correction enabled: false
Boxcar width: 0
XAxis mode: Wavelengths
Number of Pixels in Spectrum: 2048
>>>>>Begin Spectral Data<<<<<
223.165	-12.62
223.4	-12.62
223.635	-12.62
223.869	-25.62
224.104	-16.62
224.338	-14.62
224.573	-13.62
224.808	-14.62
225.042	-4.62
225.277	-6.62
225.511	-3.62
225.746	10.38
225.98	-11.62
226.215	15.38
226.449	15.38
226.683	20.38
226.918	25.38
227.152	37.38
227.387	47.38
227.621	37.38
227.856	41.38
228.09	56.38
228.324	51.38
228.559	53.38
228.793	69.38
229.027	119.38
229.262	99.38
229.496	113.38
229.73	128.38
229.964	126.38
230.199	100.38
230.433	121.38
230.667	107.38
230.901	124.38
231.136	111.38
231.37	113.38
231.604	98.38
231.838	101.38
232.072	104.38
232.306	112.38
232.541	101.38
232.775	124.38
233.009	110.38
233.243	113.38
233.477	104.38
233.711	121.38
233.945	111.38
234.179	117.38
234.413	106.38
234.647	108.38
234.881	112.38
235.115	117.38
235.349	125.38
235.583	102.38
235.817	124.38
236.051	123.38
236.285	126.38
236.519	116.38
236.753	131.38
236.987	125.38
237.221	185.38
237.455	200.38
237.689	183.38
237.922	147.38
238.156	129.38
238.39	123.38
238.624	129.38
238.858	122.38
239.091	124.38
239.325	118.38
239.559	120.38
239.793	133.38
240.027	131.38
240.26	150.38
240.494	147.38
240.728	158.38
240.961	152.38
241.195	138.38
241.429	131.38
241.662	133.38
241.896	142.38
242.13	133.38
242.363	124.38
242.597	141.38
242.83	127.38
243.064	151.38
243.298	159.38
243.531	137.38
243.765	153.38
243.998	138.38
244.232	147.38
244.465	140.38
244.699	138.38
244.932	153.38
245.166	147.38
245.399	154.38
245.633	146.38
245.866	146.38
246.099	132.38
246.333	151.38
246.566	159.38
246.8	154.38
247.033	160.38
247.266	156.38
247.5	161.38
247.733	175.38
247.966	167.38
248.2	163.38
248.433	172.38
248.666	194.38
248.899	193.38
249.133	204.38
249.366	213.38
249.599	195.38
249.832	191.38
250.066	205.38
250.299	198.38
250.532	187.38
250.765	210.38
250.998	229.38
251.231	238.38
251.465	223.38
251.698	221.38
251.931	203.38
252.164	196.38
252.397	212.38
252.63	215.38
252.863	223.38
253.096	233.38
253.329	224.38
253.562	227.38
253.795	231.38
254.028	227.38
254.261	210.38
254.494	226.38
254.727	282.38
254.96	290.38
255.193	281.38
255.426	280.38
255.659	246.38
255.892	246.38
256.124	228.38
256.357	240.38
256.59	223.38
256.823	233.38
257.056	213.38
257.289	206.38
257.521	214.38
257.754	236.38
257.987	221.38
258.22	224.38
258.452	217.38
258.685	225.38
258.918	207.38
259.151	230.38
259.383	230.38
259.616	243.38
259.849	227.38
260.081	235.38
260.314	256.38
260.547	278.38
260.779	273.38
261.012	252.38
261.244	234.38
261.477	245.38
261.71	223.38
261.942	237.38
262.175	248.38
262.407	243.38
262.64	241.38
262.872	214.38
263.105	219.38
263.337	205.38
263.57	235.38
263.802	234.38
264.035	209.38
264.267	212.38
264.499	224.38
264.732	228.38
264.964	220.38
265.197	232.38
265.429	239.38
265.661	215.38
265.894	232.38
266.126	228.38
266.358	247.38
266.591	225.38
266.823	216.38
267.055	241.38
267.287	245.38
267.52	244.38
267.752	230.38
267.984	248.38
268.216	228.38
268.448	238.38
268.681	247.38
268.913	268.38
269.145	283.38
269.377	281.38
269.609	288.38
269.841	292.38
270.073	292.38
270.306	322.38
270.538	326.38
270.77	325.38
271.002	315.38
271.234	297.38
271.466	314.38
271.698	333.38
271.93	342.38
272.162	349.38
272.394	327.38
272.626	326.38
272.858	315.38
273.09	298.38
273.322	292.38
273.553	282.38
273.785	297.38
274.017	268.38
274.249	292.38
274.481	280.38
274.713	287.38
274.945	283.38
275.176	295.38
275.408	270.38
275.64	279.38
275.872	287.38
276.104	271.38
276.335	294.38
276.567	280.38
276.799	287.38
277.031	308.38
277.262	318.38
277.494	311.38
277.726	310.38
277.957	306.38
278.189	292.38
278.421	300.38
278.652	297.38
278.884	280.38
279.115	288.38
279.347	292.38
279.579	287.38
279.81	281.38
280.042	283.38
280.273	281.38
280.505	274.38
280.736	271.38
280.968	286.38
281.199	293.38
281.431	308.38
281.662	300.38
281.894	272.38
282.125	280.38
282.356	299.38
282.588	306.38
282.819	330.38
283.051	297.38
283.282	280.38
283.513	288.38
283.745	296.38
283.976	299.38
284.207	299.38
284.439	292.38
284.67	307.38
284.901	306.38
285.132	301.38
285.364	287.38
285.595	297.38
285.826	290.38
286.057	284.38
286.288	310.38
286.52	299.38
286.751	281.38
286.982	295.38
287.213	304.38
287.444	273.38
287.675	315.38
287.906	300.38
288.138	329.38
288.369	315.38
288.6	331.38
288.831	314.38
289.062	304.38
289.293	313.38
289.524	305.38
289.755	298.38
289.986	311.38
290.217	300.38
290.448	342.38
290.679	292.38
290.91	305.38
291.141	305.38
291.371	300.38
291.602	318.38
291.833	306.38
292.064	306.38
292.295	290.38
292.526	318.38
292.757	303.38
292.987	308.38
293.218	313.38
293.449	307.38
293.68	305.38
293.91	307.38
294.141	295.38
294.372	283.38
294.603	320.38
294.833	315.38
295.064	304.38
295.295	297.38
295.525	319.38
295.756	307.38
295.987	310.38
296.217	339.38
296.448	328.38
296.679	330.38
296.909	325.38
297.14	300.38
297.37	329.38
297.601	308.38
297.831	300.38
298.062	307.38
298.292	315.38
298.523	325.38
298.753	315.38
298.984	304.38
299.214	323.38
299.445	319.38
299.675	299.38
299.905	321.38
300.136	333.38
300.366	323.38
300.597	320.38
300.827	337.38
301.057	332.38
301.288	339.38
301.518	339.38
301.748	339.38
301.979	330.38
302.209	344.38
302.439	353.38
302.669	332.38
302.9	345.38
303.13	346.38
303.36	344.38
303.59	321.38
303.82	329.38
304.051	350.38
304.281	349.38
304.511	336.38
304.741	355.38
304.971	346.38
305.201	324.38
305.431	330.38
305.661	346.38
305.891	339.38
306.121	348.38
306.352	340.38
306.582	353.38
306.812	362.38
307.042	363.38
307.272	348.38
307.502	358.38
307.731	351.38
307.961	343.38
308.191	359.38
308.421	343.38
308.651	352.38
308.881	372.38
309.111	351.38
309.341	351.38
309.571	363.38
309.8	380.38
310.03	387.38
310.26	387.38
310.49	402.38
310.72	393.38
310.949	419.38
311.179	405.38
311.409	378.38
311.639	393.38
311.868	396.38
312.098	386.38
312.328	397.38
312.557	405.38
312.787	419.38
313.017	415.38
313.246	408.38
313.476	378.38
313.706	399.38
313.935	387.38
314.165	409.38
314.394	411.38
314.624	395.38
314.853	394.38
315.083	404.38
315.312	403.38
315.542	389.38
315.771	384.38
316.001	404.38
316.23	390.38
316.46	391.38
316.689	387.38
316.919	399.38
317.148	393.38
317.377	385.38
317.607	410.38
317.836	403.38
318.065	394.38
318.295	379.38
318.524	389.38
318.753	400.38
318.983	392.38
319.212	403.38
319.441	403.38
319.67	388.38
319.9	395.38
320.129	397.38
320.358	407.38
320.587	401.38
320.816	395.38
321.046	435.38
321.275	410.38
321.504	415.38
321.733	413.38
321.962	423.38
322.191	443.38
322.42	464.38
322.649	471.38
322.878	477.38
323.108	481.38
323.337	491.38
323.566	514.38
323.795	558.38
324.024	603.38
324.253	716.38
324.482	1023.38
324.71	1497.38
324.939	2083.38
325.168	1750.38
325.397	953.38
325.626	643.38
325.855	550.38
326.084	535.38
326.313	515.38
326.542	525.38
326.77	561.38
326.999	663.38
327.228	901.38
327.457	1344.38
327.686	1536.38
327.914	1028.38
328.143	687.38
328.372	611.38
328.6	561.38
328.829	573.38
329.058	566.38
329.287	573.38
329.515	541.38
329.744	511.38
329.972	507.38
330.201	530.38
330.43	535.38
330.658	603.38
330.887	568.38
331.115	587.38
331.344	535.38
331.572	503.38
331.801	490.38
332.03	495.38
332.258	488.38
332.486	474.38
332.715	467.38
332.943	460.38
333.172	464.38
333.4	449.38
333.629	466.38
333.857	476.38
334.085	468.38
334.314	491.38
334.542	540.38
334.771	537.38
334.999	504.38
335.227	485.38
335.455	437.38
335.684	443.38
335.912	447.38
336.14	454.38
336.369	432.38
336.597	451.38
336.825	449.38
337.053	436.38
337.281	451.38
337.51	416.38
337.738	435.38
337.966	459.38
338.194	437.38
338.422	450.38
338.65	429.38
338.878	436.38
339.106	428.38
339.334	431.38
339.562	431.38
339.79	442.38
340.018	426.38
340.246	407.38
340.474	438.38
340.702	437.38
340.93	423.38
341.158	428.38
341.386	438.38
341.614	423.38
341.842	433.38
342.07	407.38
342.298	428.38
342.526	413.38
342.754	410.38
342.981	417.38
343.209	423.38
343.437	409.38
343.665	423.38
343.893	426.38
344.12	423.38
344.348	441.38
344.576	421.38
344.804	442.38
345.031	447.38
345.259	447.38
345.487	449.38
345.714	444.38
345.942	406.38
346.17	408.38
346.397	421.38
346.625	402.38
346.853	418.38
347.08	410.38
347.308	429.38
347.535	423.38
347.763	403.38
347.99	407.38
348.218	438.38
348.445	421.38
348.673	439.38
348.9	404.38
349.128	406.38
349.355	412.38
349.583	403.38
349.81	385.38
350.037	408.38
350.265	394.38
350.492	395.38
350.72	395.38
350.947	392.38
351.174	414.38
351.402	438.38
351.629	431.38
351.856	397.38
352.083	410.38
352.311	427.38
352.538	429.38
352.765	438.38
352.992	411.38
353.22	395.38
353.447	400.38
353.674	408.38
353.901	371.38
354.128	380.38
354.355	390.38
354.583	379.38
354.81	379.38
355.037	392.38
355.264	365.38
355.491	384.38
355.718	363.38
355.945	383.38
356.172	370.38
356.399	360.38
356.626	375.38
356.853	375.38
357.08	364.38
357.307	385.38
357.534	372.38
357.761	372.38
357.988	372.38
358.215	378.38
358.441	370.38
358.668	375.38
358.895	383.38
359.122	377.38
359.349	385.38
359.576	391.38
359.802	440.38
360.029	437.38
360.256	451.38
360.483	401.38
360.709	415.38
360.936	395.38
361.163	403.38
361.39	405.38
361.616	397.38
361.843	376.38
362.07	411.38
362.296	378.38
362.523	406.38
362.749	390.38
362.976	379.38
363.203	397.38
363.429	383.38
363.656	375.38
363.882	384.38
364.109	379.38
364.335	393.38
364.562	372.38
364.788	385.38
365.015	365.38
365.241	371.38
365.468	373.38
365.694	372.38
365.92	387.38
366.147	380.38
366.373	380.38
366.599	359.38
366.826	343.38
367.052	356.38
367.278	372.38
367.505	362.38
367.731	369.38
367.957	375.38
368.184	379.38
368.41	382.38
368.636	405.38
368.862	401.38
369.089	385.38
369.315	380.38
369.541	378.38
369.767	375.38
369.993	365.38
370.219	376.38
370.445	380.38
370.672	348.38
370.898	375.38
371.124	377.38
371.35	362.38
371.576	360.38
371.802	374.38
372.028	371.38
372.254	381.38
372.48	375.38
372.706	371.38
372.932	355.38
373.158	379.38
373.384	389.38
373.61	378.38
373.835	374.38
374.061	378.38
374.287	375.38
374.513	388.38
374.739	381.38
374.965	380.38
375.191	375.38
375.416	371.38
375.642	372.38
375.868	367.38
376.094	370.38
376.319	352.38
376.545	362.38
376.771	362.38
376.997	358.38
377.222	353.38
377.448	364.38
377.674	350.38
377.899	359.38
378.125	355.38
378.35	354.38
378.576	380.38
378.802	347.38
379.027	373.38
379.253	348.38
379.478	354.38
379.704	360.38
379.929	367.38
380.155	371.38
380.38	373.38
380.606	370.38
380.831	369.38
381.057	364.38
381.282	354.38
381.507	358.38
381.733	362.38
381.958	351.38
382.184	358.38
382.409	352.38
382.634	373.38
382.86	379.38
383.085	360.38
383.31	359.38
383.535	374.38
383.761	348.38
383.986	357.38
384.211	368.38
384.436	379.38
384.662	381.38
384.887	371.38
385.112	368.38
385.337	391.38
385.562	393.38
385.787	389.38
386.013	417.38
386.238	377.38
386.463	385.38
386.688	385.38
386.913	378.38
387.138	377.38
387.363	373.38
387.588	391.38
387.813	365.38
388.038	375.38
388.263	389.38
388.488	378.38
388.713	377.38
388.938	379.38
389.163	371.38
389.387	382.38
389.612	370.38
389.837	381.38
390.062	386.38
390.287	377.38
390.512	375.38
390.736	368.38
390.961	378.38
391.186	375.38
391.411	376.38
391.636	379.38
391.86	388.38
392.085	390.38
392.31	376.38
392.534	390.38
392.759	384.38
392.984	384.38
393.208	387.38
393.433	382.38
393.658	387.38
393.882	373.38
394.107	372.38
394.331	369.38
394.556	376.38
394.78	375.38
395.005	382.38
395.229	379.38
395.454	396.38
395.678	369.38
395.903	407.38
396.127	410.38
396.352	420.38
396.576	392.38
396.801	401.38
397.025	403.38
397.249	390.38
397.474	400.38
397.698	412.38
397.922	432.38
398.147	421.38
398.371	421.38
398.595	411.38
398.82	416.38
399.044	423.38
399.268	455.38
399.492	485.38
399.717	483.38
399.941	499.38
400.165	533.38
400.389	523.38
400.613	496.38
400.837	450.38
401.062	438.38
401.286	411.38
401.51	422.38
401.734	400.38
401.958	431.38
402.182	424.38
402.406	425.38
402.63	433.38
402.854	438.38
403.078	439.38
403.302	464.38
403.526	434.38
403.75	458.38
403.974	481.38
404.198	425.38
404.422	440.38
404.645	454.38
404.869	454.38
405.093	481.38
405.317	495.38
405.541	525.38
405.765	481.38
405.988	455.38
406.212	476.38
406.436	471.38
406.66	490.38
406.883	464.38
407.107	497.38
407.331	521.38
407.555	575.38
407.778	589.38
408.002	514.38
408.226	472.38
408.449	472.38
408.673	492.38
408.896	496.38
409.12	523.38
409.344	524.38
409.567	433.38
409.791	441.38
410.014	436.38
410.238	459.38
410.461	423.38
410.685	434.38
410.908	455.38
411.132	483.38
411.355	492.38
411.578	497.38
411.802	446.38
412.025	423.38
412.249	433.38
412.472	468.38
412.695	491.38
412.919	473.38
413.142	440.38
413.365	431.38
413.589	428.38
413.812	410.38
414.035	410.38
414.258	439.38
414.482	413.38
414.705	393.38
414.928	424.38
415.151	406.38
415.374	400.38
415.597	402.38
415.821	388.38
416.044	397.38
416.267	412.38
416.49	411.38
416.713	381.38
416.936	396.38
417.159	404.38
417.382	408.38
417.605	408.38
417.828	424.38
418.051	411.38
418.274	443.38
418.497	394.38
418.72	387.38
418.943	403.38
419.166	424.38
419.389	454.38
419.611	416.38
419.834	457.38
420.057	425.38
420.28	431.38
420.503	435.38
420.726	447.38
420.948	452.38
421.171	480.38
421.394	504.38
421.617	447.38
421.839	409.38
422.062	418.38
422.285	438.38
422.507	505.38
422.73	554.38
422.953	531.38
423.175	464.38
423.398	449.38
423.621	443.38
423.843	460.38
424.066	471.38
424.288	472.38
424.511	468.38
424.733	547.38
424.956	607.38
425.178	568.38
425.401	573.38
425.623	587.38
425.846	488.38
426.068	470.38
426.291	471.38
426.513	462.38
426.735	487.38
426.958	516.38
427.18	583.38
427.402	687.38
427.625	753.38
427.847	653.38
428.069	577.38
428.292	483.38
428.514	444.38
428.736	441.38
428.958	443.38
429.181	420.38
429.403	415.38
429.625	443.38
429.847	446.38
430.069	523.38
430.292	520.38
430.514	413.38
430.736	417.38
430.958	419.38
431.18	419.38
431.402	405.38
431.624	405.38
431.846	403.38
432.068	392.38
432.29	404.38
432.512	403.38
432.734	408.38
432.956	417.38
433.178	419.38
433.4	412.38
433.622	421.38
433.844	414.38
434.066	392.38
434.287	383.38
434.509	404.38
434.731	420.38
434.953	407.38
435.175	439.38
435.397	452.38
435.618	484.38
435.84	491.38
436.062	569.38
436.284	613.38
436.505	519.38
436.727	471.38
436.949	466.38
437.17	436.38
437.392	450.38
437.614	437.38
437.835	473.38
438.057	540.38
438.278	645.38
438.5	645.38
438.721	691.38
438.943	628.38
439.165	516.38
439.386	485.38
439.608	471.38
439.829	471.38
440.05	500.38
440.272	535.38
440.493	529.38
440.715	453.38
440.936	438.38
441.158	424.38
441.379	412.38
441.6	464.38
441.822	470.38
442.043	492.38
442.264	585.38
442.486	596.38
442.707	503.38
442.928	481.38
443.149	484.38
443.371	500.38
443.592	532.38
443.813	592.38
444.034	659.38
444.255	527.38
444.476	492.38
444.698	465.38
444.919	458.38
445.14	566.38
445.361	531.38
445.582	513.38
445.803	554.38
446.024	643.38
446.245	651.38
446.466	599.38
446.687	522.38
446.908	472.38
447.129	445.38
447.35	428.38
447.571	434.38
447.792	414.38
448.013	419.38
448.234	443.38
448.455	503.38
448.675	592.38
448.896	668.38
449.117	596.38
449.338	558.38
449.559	649.38
449.779	688.38
450	563.38
450.221	465.38
450.442	421.38
450.662	437.38
450.883	431.38
451.104	420.38
451.324	410.38
451.545	411.38
451.766	401.38
451.986	383.38
452.207	377.38
452.428	392.38
452.648	384.38
452.869	380.38
453.089	380.38
453.31	401.38
453.53	387.38
453.751	383.38
453.971	379.38
454.192	402.38
454.412	398.38
454.633	382.38
454.853	374.38
455.073	381.38
455.294	423.38
455.514	431.38
455.734	436.38
455.955	401.38
456.175	378.38
456.395	378.38
456.616	355.38
456.836	360.38
457.056	354.38
457.276	354.38
457.497	363.38
457.717	348.38
457.937	364.38
458.157	363.38
458.377	376.38
458.598	404.38
458.818	435.38
459.038	473.38
459.258	500.38
459.478	445.38
459.698	412.38
459.918	399.38
460.138	386.38
460.358	395.38
460.578	387.38
460.798	380.38
461.018	402.38
461.238	392.38
461.458	379.38
461.678	409.38
461.898	410.38
462.118	386.38
462.338	420.38
462.558	415.38
462.777	420.38
462.997	426.38
463.217	409.38
463.437	434.38
463.657	415.38
463.876	421.38
464.096	415.38
464.316	416.38
464.536	422.38
464.755	432.38
464.975	418.38
465.195	458.38
465.414	511.38
465.634	453.38
465.854	435.38
466.073	404.38
466.293	386.38
466.512	375.38
466.732	383.38
466.951	390.38
467.171	377.38
467.391	385.38
467.61	401.38
467.829	412.38
468.049	394.38
468.268	393.38
468.488	364.38
468.707	383.38
468.927	377.38
469.146	372.38
469.365	388.38
469.585	390.38
469.804	387.38
470.023	372.38
470.243	389.38
470.462	395.38
470.681	422.38
470.901	420.38
471.12	396.38
471.339	402.38
471.558	391.38
471.777	388.38
471.997	395.38
472.216	404.38
472.435	391.38
472.654	403.38
472.873	375.38
473.092	390.38
473.311	377.38
473.53	403.38
473.749	416.38
473.968	438.38
474.187	545.38
474.406	535.38
474.625	463.38
474.844	420.38
475.063	402.38
475.282	401.38
475.501	393.38
475.72	409.38
475.939	369.38
476.158	410.38
476.377	405.38
476.596	400.38
476.814	399.38
477.033	409.38
477.252	411.38
477.471	412.38
477.69	420.38
477.908	405.38
478.127	412.38
478.346	438.38
478.564	437.38
478.783	435.38
479.002	458.38
479.22	444.38
479.439	429.38
479.658	475.38
479.876	473.38
480.095	453.38
480.313	499.38
480.532	489.38
480.751	467.38
480.969	482.38
481.188	509.38
481.406	531.38
481.624	490.38
481.843	460.38
482.061	473.38
482.28	469.38
482.498	454.38
482.717	444.38
482.935	433.38
483.153	448.38
483.372	469.38
483.59	439.38
483.808	447.38
484.027	467.38
484.245	447.38
484.463	443.38
484.681	471.38
484.9	438.38
485.118	468.38
485.336	449.38
485.554	461.38
485.772	459.38
485.99	456.38
486.209	481.38
486.427	497.38
486.645	486.38
486.863	483.38
487.081	497.38
487.299	474.38
487.517	489.38
487.735	508.38
487.953	490.38
488.171	531.38
488.389	494.38
488.607	504.38
488.825	492.38
489.043	492.38
489.261	492.38
489.479	517.38
489.696	520.38
489.914	488.38
490.132	504.38
490.35	509.38
490.568	514.38
490.786	520.38
491.003	533.38
491.221	518.38
491.439	557.38
491.657	565.38
491.874	556.38
492.092	574.38
492.31	585.38
492.527	570.38
492.745	571.38
492.963	547.38
493.18	567.38
493.398	579.38
493.615	584.38
493.833	577.38
494.05	608.38
494.268	591.38
494.485	587.38
494.703	577.38
494.92	572.38
495.138	592.38
495.355	597.38
495.573	585.38
495.79	588.38
496.008	615.38
496.225	585.38
496.442	577.38
496.66	581.38
496.877	563.38
497.094	565.38
497.312	583.38
497.529	606.38
497.746	611.38
497.963	620.38
498.181	632.38
498.398	601.38
498.615	630.38
498.832	633.38
499.049	639.38
499.267	650.38
499.484	702.38
499.701	698.38
499.918	695.38
500.135	724.38
500.352	758.38
500.569	746.38
500.786	771.38
501.003	742.38
501.22	740.38
501.437	711.38
501.654	714.38
501.871	718.38
502.088	699.38
502.305	661.38
502.522	668.38
502.739	602.38
502.956	593.38
503.172	573.38
503.389	599.38
503.606	587.38
503.823	573.38
504.04	587.38
504.256	560.38
504.473	569.38
504.69	560.38
504.907	573.38
505.123	572.38
505.34	536.38
505.557	579.38
505.773	559.38
505.99	553.38
506.207	565.38
506.423	571.38
506.64	574.38
506.856	544.38
507.073	540.38
507.289	540.38
507.506	543.38
507.722	533.38
507.939	537.38
508.155	533.38
508.372	525.38
508.588	516.38
508.805	514.38
509.021	540.38
509.238	525.38
509.454	573.38
509.67	539.38
509.887	539.38
510.103	530.38
510.319	538.38
510.536	590.38
510.752	935.38
510.968	733.38
511.184	531.38
511.401	499.38
511.617	505.38
511.833	495.38
512.049	483.38
512.265	481.38
512.481	484.38
512.698	477.38
512.914	485.38
513.13	489.38
513.346	500.38
513.562	490.38
513.778	482.38
513.994	488.38
514.21	511.38
514.426	535.38
514.642	545.38
514.858	548.38
515.074	609.38
515.29	705.38
515.506	985.38
515.721	791.38
515.937	572.38
516.153	535.38
516.369	526.38
516.585	518.38
516.801	506.38
517.016	483.38
517.232	488.38
517.448	511.38
517.664	485.38
517.879	513.38
518.095	490.38
518.311	481.38
518.527	490.38
518.742	479.38
518.958	477.38
519.173	474.38
519.389	492.38
519.605	492.38
519.82	504.38
520.036	485.38
520.251	503.38
520.467	519.38
520.682	533.38
520.898	527.38
521.113	548.38
521.329	586.38
521.544	648.38
521.76	813.38
521.975	1255.38
522.19	1193.38
522.406	732.38
522.621	548.38
522.836	509.38
523.052	492.38
523.267	471.38
523.482	461.38
523.698	471.38
523.913	442.38
524.128	434.38
524.343	453.38
524.559	449.38
524.774	425.38
524.989	421.38
525.204	420.38
525.419	459.38
525.634	411.38
525.849	405.38
526.064	448.38
526.28	393.38
526.495	409.38
526.71	411.38
526.925	405.38
527.14	413.38
527.355	395.38
527.57	401.38
527.785	408.38
527.999	415.38
528.214	400.38
528.429	397.38
528.644	412.38
528.859	392.38
529.074	418.38
529.289	421.38
529.503	480.38
529.718	454.38
529.933	443.38
530.148	406.38
530.363	404.38
530.577	408.38
530.792	386.38
531.007	387.38
531.221	403.38
531.436	403.38
531.651	390.38
531.865	392.38
532.08	398.38
532.295	371.38
532.509	385.38
532.724	387.38
532.938	387.38
533.153	383.38
533.367	369.38
533.582	392.38
533.796	376.38
534.011	373.38
534.225	371.38
534.44	374.38
534.654	372.38
534.868	375.38
535.083	376.38
535.297	392.38
535.511	380.38
535.726	379.38
535.94	392.38
536.154	385.38
536.369	392.38
536.583	359.38
536.797	357.38
537.011	355.38
537.225	373.38
537.44	387.38
537.654	370.38
537.868	360.38
538.082	379.38
538.296	360.38
538.51	379.38
538.724	377.38
538.938	364.38
539.153	375.38
539.367	379.38
539.581	386.38
539.795	387.38
540.009	385.38
540.222	370.38
540.436	373.38
540.65	359.38
540.864	386.38
541.078	391.38
541.292	388.38
541.506	382.38
541.72	394.38
541.934	384.38
542.147	379.38
542.361	391.38
542.575	375.38
542.789	380.38
543.002	370.38
543.216	363.38
543.43	365.38
543.644	383.38
543.857	383.38
544.071	413.38
544.285	392.38
544.498	404.38
544.712	381.38
544.925	355.38
545.139	355.38
545.352	349.38
545.566	373.38
545.779	364.38
545.993	387.38
546.206	391.38
546.42	378.38
546.633	357.38
546.847	359.38
547.06	378.38
547.274	369.38
547.487	369.38
547.7	352.38
547.914	352.38
548.127	385.38
548.34	356.38
548.554	355.38
548.767	382.38
548.98	365.38
549.193	367.38
549.407	351.38
549.62	345.38
549.833	347.38
550.046	364.38
550.259	354.38
550.473	368.38
550.686	371.38
550.899	337.38
551.112	325.38
551.325	346.38
551.538	355.38
551.751	330.38
551.964	336.38
552.177	346.38
552.39	356.38
552.603	376.38
552.816	358.38
553.029	356.38
553.242	358.38
553.455	353.38
553.667	362.38
553.88	365.38
554.093	376.38
554.306	382.38
554.519	361.38
554.732	349.38
554.944	347.38
555.157	337.38
555.37	350.38
555.583	326.38
555.795	333.38
556.008	324.38
556.221	338.38
556.433	336.38
556.646	326.38
556.859	318.38
557.071	325.38
557.284	309.38
557.496	317.38
557.709	325.38
557.921	330.38
558.134	296.38
558.346	313.38
558.559	315.38
558.771	331.38
558.984	331.38
559.196	325.38
559.409	331.38
559.621	328.38
559.833	308.38
560.046	307.38
560.258	284.38
560.47	315.38
560.683	324.38
560.895	315.38
561.107	305.38
561.32	322.38
561.532	333.38
561.744	317.38
561.956	318.38
562.168	314.38
562.381	315.38
562.593	329.38
562.805	306.38
563.017	325.38
563.229	322.38
563.441	304.38
563.653	321.38
563.865	303.38
564.077	315.38
564.289	308.38
564.501	314.38
564.713	312.38
564.925	297.38
565.137	345.38
565.349	328.38
565.561	342.38
565.773	352.38
565.985	334.38
566.197	340.38
566.408	338.38
566.62	356.38
566.832	380.38
567.044	372.38
567.255	333.38
567.467	377.38
567.679	364.38
567.891	387.38
568.102	385.38
568.314	373.38
568.526	349.38
568.737	341.38
568.949	351.38
569.161	329.38
569.372	323.38
569.584	329.38
569.795	321.38
570.007	327.38
570.218	331.38
570.43	328.38
570.641	319.38
570.853	288.38
571.064	297.38
571.276	312.38
571.487	298.38
571.698	289.38
571.91	290.38
572.121	295.38
572.333	293.38
572.544	288.38
572.755	283.38
572.966	273.38
573.178	293.38
573.389	265.38
573.6	270.38
573.811	267.38
574.023	270.38
574.234	276.38
574.445	284.38
574.656	289.38
574.867	277.38
575.078	280.38
575.289	241.38
575.501	261.38
575.712	257.38
575.923	253.38
576.134	272.38
576.345	257.38
576.556	260.38
576.767	263.38
576.978	271.38
577.188	268.38
577.399	259.38
577.61	261.38
577.821	251.38
578.032	253.38
578.243	290.38
578.454	433.38
578.665	346.38
578.875	268.38
579.086	261.38
579.297	264.38
579.508	245.38
579.718	271.38
579.929	257.38
580.14	235.38
580.35	239.38
580.561	250.38
580.772	259.38
580.982	255.38
581.193	255.38
581.403	247.38
581.614	239.38
581.825	251.38
582.035	249.38
582.246	237.38
582.456	250.38
582.667	233.38
582.877	239.38
583.087	233.38
583.298	242.38
583.508	258.38
583.719	233.38
583.929	235.38
584.139	211.38
584.35	218.38
584.56	248.38
584.77	250.38
584.981	216.38
585.191	225.38
585.401	236.38
585.611	239.38
585.821	237.38
586.032	237.38
586.242	231.38
586.452	246.38
586.662	242.38
586.872	236.38
587.082	240.38
587.292	225.38
587.502	238.38
587.713	246.38
587.923	226.38
588.133	234.38
588.343	229.38
588.553	231.38
588.762	224.38
588.972	233.38
589.182	241.38
589.392	238.38
589.602	227.38
589.812	214.38
590.022	213.38
590.232	218.38
590.441	220.38
590.651	232.38
590.861	243.38
591.071	236.38
591.281	226.38
591.49	233.38
591.7	229.38
591.91	219.38
592.119	233.38
592.329	234.38
592.539	254.38
592.748	228.38
592.958	246.38
593.167	257.38
593.377	226.38
593.587	255.38
593.796	245.38
594.006	236.38
594.215	236.38
594.424	240.38
594.634	242.38
594.843	242.38
595.053	253.38
595.262	227.38
595.472	229.38
595.681	218.38
595.89	228.38
596.1	245.38
596.309	232.38
596.518	217.38
596.727	223.38
596.937	209.38
597.146	221.38
597.355	213.38
597.564	224.38
597.774	213.38
597.983	222.38
598.192	200.38
598.401	209.38
598.61	207.38
598.819	208.38
599.028	219.38
599.237	226.38
599.446	227.38
599.655	210.38
599.864	222.38
600.073	215.38
600.282	212.38
600.491	214.38
600.7	201.38
600.909	208.38
601.118	208.38
601.327	223.38
601.536	216.38
601.745	205.38
601.953	217.38
602.162	208.38
602.371	201.38
602.58	212.38
602.789	217.38
602.997	210.38
603.206	223.38
603.415	205.38
603.623	198.38
603.832	199.38
604.041	213.38
604.249	207.38
604.458	202.38
604.666	199.38
604.875	215.38
605.084	207.38
605.292	206.38
605.501	201.38
605.709	211.38
605.918	210.38
606.126	199.38
606.334	199.38
606.543	204.38
606.751	212.38
606.96	210.38
607.168	209.38
607.376	211.38
607.585	208.38
607.793	197.38
608.001	195.38
608.21	208.38
608.418	196.38
608.626	205.38
608.834	204.38
609.043	205.38
609.251	216.38
609.459	196.38
609.667	201.38
609.875	220.38
610.083	218.38
610.291	192.38
610.499	191.38
610.707	202.38
610.916	221.38
611.124	220.38
611.332	208.38
611.54	208.38
611.748	220.38
611.955	218.38
612.163	192.38
612.371	201.38
612.579	196.38
612.787	190.38
612.995	194.38
613.203	217.38
613.411	194.38
613.618	193.38
613.826	215.38
614.034	204.38
614.242	201.38
614.449	213.38
614.657	197.38
614.865	205.38
615.072	180.38
615.28	199.38
615.488	212.38
615.695	208.38
615.903	201.38
616.111	202.38
616.318	200.38
616.526	207.38
616.733	211.38
616.941	205.38
617.148	192.38
617.356	191.38
617.563	185.38
617.771	193.38
617.978	205.38
618.185	192.38
618.393	191.38
618.6	208.38
618.807	204.38
619.015	202.38
619.222	199.38
619.429	193.38
619.637	183.38
619.844	180.38
620.051	195.38
620.258	190.38
620.466	173.38
620.673	172.38
620.88	163.38
621.087	187.38
621.294	178.38
621.501	172.38
621.708	177.38
621.915	189.38
622.122	179.38
622.329	180.38
622.536	200.38
622.743	202.38
622.95	185.38
623.157	186.38
623.364	180.38
623.571	189.38
623.778	200.38
623.985	187.38
624.192	179.38
624.399	183.38
624.606	184.38
624.812	177.38
625.019	163.38
625.226	185.38
625.433	176.38
625.639	192.38
625.846	188.38
626.053	183.38
626.259	184.38
626.466	170.38
626.673	173.38
626.879	161.38
627.086	166.38
627.293	175.38
627.499	169.38
627.706	185.38
627.912	171.38
628.119	166.38
628.325	186.38
628.532	166.38
628.738	177.38
628.945	164.38
629.151	184.38
629.357	175.38
629.564	170.38
629.77	163.38
629.976	167.38
630.183	172.38
630.389	175.38
630.595	187.38
630.802	168.38
631.008	171.38
631.214	178.38
631.42	162.38
631.627	152.38
631.833	175.38
632.039	170.38
632.245	168.38
632.451	163.38
632.657	158.38
632.863	149.38
633.069	158.38
633.275	163.38
633.481	157.38
633.688	149.38
633.893	158.38
634.099	146.38
634.305	173.38
634.511	156.38
634.717	166.38
634.923	155.38
635.129	145.38
635.335	155.38
635.541	158.38
635.747	145.38
635.952	153.38
636.158	153.38
636.364	157.38
636.57	153.38
636.775	168.38
636.981	160.38
637.187	168.38
637.392	159.38
637.598	155.38
637.804	165.38
638.009	163.38
638.215	168.38
638.421	168.38
638.626	161.38
638.832	159.38
639.037	162.38
639.243	155.38
639.448	162.38
639.654	151.38
639.859	156.38
640.065	148.38
640.27	148.38
640.475	144.38
640.681	136.38
640.886	156.38
641.091	151.38
641.297	161.38
641.502	151.38
641.707	147.38
641.913	150.38
642.118	155.38
642.323	144.38
642.528	152.38
642.733	141.38
642.939	163.38
643.144	148.38
643.349	154.38
643.554	144.38
643.759	140.38
643.964	141.38
644.169	147.38
644.374	152.38
644.579	146.38
644.784	140.38
644.989	143.38
645.194	153.38
645.399	154.38
645.604	147.38
645.809	159.38
646.014	124.38
646.219	136.38
646.423	142.38
646.628	141.38
646.833	157.38
647.038	147.38
647.243	145.38
647.447	145.38
647.652	151.38
647.857	124.38
648.062	149.38
648.266	134.38
648.471	154.38
648.676	144.38
648.88	147.38
649.085	149.38
649.289	134.38
649.494	155.38
649.698	168.38
649.903	147.38
650.107	135.38
650.312	145.38
650.516	160.38
650.721	140.38
650.925	131.38
651.13	147.38
651.334	135.38
651.539	129.38
651.743	133.38
651.947	133.38
652.152	124.38
652.356	131.38
652.56	129.38
652.764	128.38
652.969	139.38
653.173	119.38
653.377	123.38
653.581	127.38
653.785	125.38
653.99	140.38
654.194	136.38
654.398	136.38
654.602	126.38
654.806	129.38
655.01	131.38
655.214	119.38
655.418	121.38
655.622	109.38
655.826	120.38
656.03	127.38
656.234	119.38
656.438	115.38
656.642	113.38
656.846	124.38
657.049	119.38
657.253	118.38
657.457	91.38
657.661	112.38
657.865	101.38
658.068	112.38
658.272	113.38
658.476	87.38
658.68	111.38
658.883	106.38
659.087	91.38
659.291	106.38
659.494	115.38
659.698	85.38
659.901	78.38
660.105	90.38
660.309	88.38
660.512	103.38
660.716	97.38
660.919	83.38
661.123	69.38
661.326	90.38
661.53	81.38
661.733	88.38
661.936	95.38
662.14	69.38
662.343	94.38
662.546	81.38
662.75	81.38
662.953	96.38
663.156	88.38
663.36	84.38
663.563	79.38
663.766	72.38
663.969	88.38
664.173	90.38
664.376	71.38
664.579	74.38
664.782	76.38
664.985	77.38
665.188	80.38
665.391	74.38
665.594	67.38
665.797	76.38
666	80.38
666.203	73.38
666.406	68.38
666.609	98.38
666.812	87.38
667.015	76.38
667.218	77.38
667.421	89.38
667.624	86.38
667.827	82.38
668.03	87.38
668.232	86.38
668.435	93.38
668.638	74.38
668.841	97.38
669.043	63.38
669.246	77.38
669.449	80.38
669.651	91.38
669.854	72.38
670.057	83.38
670.259	80.38
670.462	78.38
670.665	78.38
670.867	84.38
671.07	82.38
671.272	77.38
671.475	86.38
671.677	75.38
671.88	76.38
672.082	77.38
672.284	93.38
672.487	77.38
672.689	85.38
672.892	89.38
