Data from 1971.PennyLincolnUp.Lamp.En5.5.200Scan.071719.P1.Scan 2. Changed Angle._HRD10591_15-24-25-842.txt Node
Date: Thu Jul 18 15:24:25 EDT 2019
User: cochatt
Spectrometer: HR+D1059
Trigger mode: 1
Integration Time (sec): 1.000000E-1
Scans to average: 1
Electric dark correction enabled: true
Nonlinearity correction enabled: false
Boxcar width: 0
XAxis mode: Wavelengths
Number of Pixels in Spectrum: 2048
>>>>>Begin Spectral Data<<<<<
223.165	-17.94
223.4	-17.94
223.635	-17.94
223.869	-24.94
224.104	-20.94
224.338	-20.94
224.573	-6.94
224.808	-20.94
225.042	-15.94
225.277	-12.94
225.511	6.06
225.746	7.06
225.98	0.06
226.215	16.06
226.449	24.06
226.683	29.06
226.918	33.06
227.152	26.06
227.387	35.06
227.621	31.06
227.856	38.06
228.09	55.06
228.324	61.06
228.559	55.06
228.793	69.06
229.027	111.06
229.262	110.06
229.496	143.06
229.73	152.06
229.964	183.06
230.199	155.06
230.433	138.06
230.667	134.06
230.901	135.06
231.136	122.06
231.37	126.06
231.604	108.06
231.838	112.06
232.072	113.06
232.306	142.06
232.541	115.06
232.775	115.06
233.009	127.06
233.243	128.06
233.477	132.06
233.711	120.06
233.945	116.06
234.179	124.06
234.413	121.06
234.647	128.06
234.881	121.06
235.115	134.06
235.349	112.06
235.583	135.06
235.817	124.06
236.051	135.06
236.285	135.06
236.519	121.06
236.753	142.06
236.987	155.06
237.221	204.06
237.455	285.06
237.689	229.06
237.922	169.06
238.156	153.06
238.39	135.06
238.624	140.06
238.858	134.06
239.091	130.06
239.325	143.06
239.559	134.06
239.793	139.06
240.027	166.06
240.26	173.06
240.494	174.06
240.728	179.06
240.961	189.06
241.195	164.06
241.429	157.06
241.662	141.06
241.896	140.06
242.13	147.06
242.363	150.06
242.597	159.06
242.83	151.06
243.064	137.06
243.298	138.06
243.531	124.06
243.765	152.06
243.998	153.06
244.232	156.06
244.465	162.06
244.699	154.06
244.932	160.06
245.166	157.06
245.399	141.06
245.633	148.06
245.866	171.06
246.099	154.06
246.333	147.06
246.566	166.06
246.8	155.06
247.033	172.06
247.266	174.06
247.5	171.06
247.733	174.06
247.966	191.06
248.2	188.06
248.433	202.06
248.666	194.06
248.899	204.06
249.133	227.06
249.366	246.06
249.599	230.06
249.832	201.06
250.066	215.06
250.299	204.06
250.532	213.06
250.765	230.06
250.998	252.06
251.231	269.06
251.465	264.06
251.698	226.06
251.931	219.06
252.164	219.06
252.397	217.06
252.63	230.06
252.863	228.06
253.096	237.06
253.329	270.06
253.562	263.06
253.795	249.06
254.028	254.06
254.261	247.06
254.494	253.06
254.727	292.06
254.96	329.06
255.193	305.06
255.426	272.06
255.659	248.06
255.892	274.06
256.124	262.06
256.357	279.06
256.59	256.06
256.823	253.06
257.056	228.06
257.289	218.06
257.521	232.06
257.754	228.06
257.987	231.06
258.22	239.06
258.452	227.06
258.685	229.06
258.918	232.06
259.151	240.06
259.383	242.06
259.616	242.06
259.849	239.06
260.081	247.06
260.314	283.06
260.547	299.06
260.779	268.06
261.012	261.06
261.244	260.06
261.477	254.06
261.71	238.06
261.942	249.06
262.175	261.06
262.407	250.06
262.64	236.06
262.872	240.06
263.105	214.06
263.337	240.06
263.57	234.06
263.802	235.06
264.035	228.06
264.267	253.06
264.499	232.06
264.732	217.06
264.964	218.06
265.197	211.06
265.429	219.06
265.661	237.06
265.894	236.06
266.126	222.06
266.358	227.06
266.591	214.06
266.823	225.06
267.055	241.06
267.287	254.06
267.52	235.06
267.752	232.06
267.984	236.06
268.216	239.06
268.448	239.06
268.681	254.06
268.913	257.06
269.145	283.06
269.377	322.06
269.609	313.06
269.841	313.06
270.073	295.06
270.306	325.06
270.538	340.06
270.77	356.06
271.002	357.06
271.234	333.06
271.466	357.06
271.698	348.06
271.93	348.06
272.162	365.06
272.394	348.06
272.626	356.06
272.858	337.06
273.09	311.06
273.322	324.06
273.553	310.06
273.785	299.06
274.017	261.06
274.249	291.06
274.481	283.06
274.713	292.06
274.945	301.06
275.176	272.06
275.408	293.06
275.64	288.06
275.872	271.06
276.104	284.06
276.335	288.06
276.567	301.06
276.799	322.06
277.031	333.06
277.262	349.06
277.494	356.06
277.726	325.06
277.957	320.06
278.189	296.06
278.421	308.06
278.652	278.06
278.884	301.06
279.115	284.06
279.347	281.06
279.579	273.06
279.81	283.06
280.042	283.06
280.273	265.06
280.505	273.06
280.736	281.06
280.968	271.06
281.199	283.06
281.431	286.06
281.662	282.06
281.894	264.06
282.125	279.06
282.356	294.06
282.588	309.06
282.819	328.06
283.051	293.06
283.282	298.06
283.513	282.06
283.745	277.06
283.976	289.06
284.207	288.06
284.439	304.06
284.67	272.06
284.901	279.06
285.132	283.06
285.364	285.06
285.595	289.06
285.826	273.06
286.057	297.06
286.288	300.06
286.52	298.06
286.751	280.06
286.982	284.06
287.213	282.06
287.444	286.06
287.675	294.06
287.906	301.06
288.138	309.06
288.369	300.06
288.6	320.06
288.831	310.06
289.062	303.06
289.293	284.06
289.524	272.06
289.755	319.06
289.986	280.06
290.217	304.06
290.448	285.06
290.679	286.06
290.91	308.06
291.141	281.06
291.371	299.06
291.602	297.06
291.833	300.06
292.064	291.06
292.295	291.06
292.526	296.06
292.757	302.06
292.987	311.06
293.218	304.06
293.449	316.06
293.68	307.06
293.91	297.06
294.141	298.06
294.372	300.06
294.603	277.06
294.833	283.06
295.064	280.06
295.295	291.06
295.525	295.06
295.756	288.06
295.987	324.06
296.217	336.06
296.448	357.06
296.679	311.06
296.909	319.06
297.14	316.06
297.37	309.06
297.601	296.06
297.831	302.06
298.062	301.06
298.292	315.06
298.523	305.06
298.753	319.06
298.984	313.06
299.214	316.06
299.445	319.06
299.675	295.06
299.905	309.06
300.136	320.06
300.366	324.06
300.597	325.06
300.827	305.06
301.057	320.06
301.288	334.06
301.518	349.06
301.748	339.06
301.979	303.06
302.209	326.06
302.439	334.06
302.669	341.06
302.9	318.06
303.13	328.06
303.36	323.06
303.59	328.06
303.82	350.06
304.051	336.06
304.281	335.06
304.511	323.06
304.741	312.06
304.971	326.06
305.201	319.06
305.431	344.06
305.661	328.06
305.891	323.06
306.121	344.06
306.352	331.06
306.582	352.06
306.812	345.06
307.042	331.06
307.272	345.06
307.502	343.06
307.731	334.06
307.961	344.06
308.191	345.06
308.421	328.06
308.651	336.06
308.881	356.06
309.111	355.06
309.341	353.06
309.571	368.06
309.8	398.06
310.03	359.06
310.26	387.06
310.49	395.06
310.72	414.06
310.949	424.06
311.179	441.06
311.409	405.06
311.639	415.06
311.868	399.06
312.098	385.06
312.328	411.06
312.557	430.06
312.787	460.06
313.017	446.06
313.246	414.06
313.476	404.06
313.706	409.06
313.935	403.06
314.165	422.06
314.394	439.06
314.624	456.06
314.853	416.06
315.083	399.06
315.312	382.06
315.542	397.06
315.771	387.06
316.001	374.06
316.23	393.06
316.46	380.06
316.689	389.06
316.919	395.06
317.148	406.06
317.377	427.06
317.607	402.06
317.836	411.06
318.065	393.06
318.295	412.06
318.524	387.06
318.753	387.06
318.983	393.06
319.212	392.06
319.441	406.06
319.67	417.06
319.9	418.06
320.129	395.06
320.358	387.06
320.587	420.06
320.816	408.06
321.046	432.06
321.275	400.06
321.504	418.06
321.733	440.06
321.962	451.06
322.191	447.06
322.42	503.06
322.649	476.06
322.878	511.06
323.108	529.06
323.337	537.06
323.566	599.06
323.795	631.06
324.024	691.06
324.253	898.06
324.482	1286.06
324.71	1989.06
324.939	2943.06
325.168	2489.06
325.397	1283.06
325.626	832.06
325.855	667.06
326.084	601.06
326.313	582.06
326.542	580.06
326.77	637.06
326.999	811.06
327.228	1184.06
327.457	1785.06
327.686	2176.06
327.914	1428.06
328.143	923.06
328.372	787.06
328.6	720.06
328.829	679.06
329.058	713.06
329.287	688.06
329.515	663.06
329.744	601.06
329.972	585.06
330.201	629.06
330.43	668.06
330.658	711.06
330.887	748.06
331.115	709.06
331.344	607.06
331.572	563.06
331.801	556.06
332.03	547.06
332.258	527.06
332.486	504.06
332.715	472.06
332.943	482.06
333.172	478.06
333.4	487.06
333.629	496.06
333.857	511.06
334.085	551.06
334.314	545.06
334.542	570.06
334.771	601.06
334.999	565.06
335.227	511.06
335.455	468.06
335.684	494.06
335.912	478.06
336.14	457.06
336.369	455.06
336.597	485.06
336.825	487.06
337.053	457.06
337.281	470.06
337.51	458.06
337.738	461.06
337.966	448.06
338.194	482.06
338.422	472.06
338.65	471.06
338.878	475.06
339.106	430.06
339.334	441.06
339.562	430.06
339.79	410.06
340.018	441.06
340.246	441.06
340.474	473.06
340.702	469.06
340.93	467.06
341.158	458.06
341.386	447.06
341.614	463.06
341.842	465.06
342.07	449.06
342.298	475.06
342.526	447.06
342.754	431.06
342.981	448.06
343.209	428.06
343.437	436.06
343.665	437.06
343.893	441.06
344.12	444.06
344.348	444.06
344.576	452.06
344.804	468.06
345.031	464.06
345.259	517.06
345.487	503.06
345.714	487.06
345.942	470.06
346.17	467.06
346.397	442.06
346.625	439.06
346.853	427.06
347.08	445.06
347.308	449.06
347.535	460.06
347.763	480.06
347.99	461.06
348.218	453.06
348.445	467.06
348.673	468.06
348.9	448.06
349.128	436.06
349.355	445.06
349.583	433.06
349.81	432.06
350.037	430.06
350.265	443.06
350.492	442.06
350.72	432.06
350.947	434.06
351.174	451.06
351.402	454.06
351.629	459.06
351.856	462.06
352.083	465.06
352.311	479.06
352.538	487.06
352.765	491.06
352.992	476.06
353.22	455.06
353.447	492.06
353.674	454.06
353.901	435.06
354.128	453.06
354.355	417.06
354.583	414.06
354.81	423.06
355.037	393.06
355.264	420.06
355.491	405.06
355.718	393.06
355.945	397.06
356.172	423.06
356.399	423.06
356.626	410.06
356.853	413.06
357.08	428.06
357.307	440.06
357.534	407.06
357.761	421.06
357.988	422.06
358.215	402.06
358.441	409.06
358.668	392.06
358.895	433.06
359.122	439.06
359.349	460.06
359.576	462.06
359.802	511.06
360.029	548.06
360.256	545.06
360.483	523.06
360.709	471.06
360.936	471.06
361.163	448.06
361.39	454.06
361.616	473.06
361.843	450.06
362.07	448.06
362.296	489.06
362.523	467.06
362.749	464.06
362.976	464.06
363.203	444.06
363.429	431.06
363.656	435.06
363.882	435.06
364.109	440.06
364.335	441.06
364.562	432.06
364.788	439.06
365.015	447.06
365.241	448.06
365.468	443.06
365.694	441.06
365.92	431.06
366.147	451.06
366.373	434.06
366.599	432.06
366.826	465.06
367.052	430.06
367.278	416.06
367.505	439.06
367.731	439.06
367.957	442.06
368.184	439.06
368.41	437.06
368.636	454.06
368.862	461.06
369.089	462.06
369.315	445.06
369.541	422.06
369.767	419.06
369.993	423.06
370.219	438.06
370.445	410.06
370.672	441.06
370.898	423.06
371.124	408.06
371.35	441.06
371.576	420.06
371.802	421.06
372.028	431.06
372.254	416.06
372.48	424.06
372.706	416.06
372.932	440.06
373.158	435.06
373.384	416.06
373.61	425.06
373.835	440.06
374.061	453.06
374.287	408.06
374.513	424.06
374.739	424.06
374.965	415.06
375.191	432.06
375.416	425.06
375.642	434.06
375.868	445.06
376.094	441.06
376.319	424.06
376.545	414.06
376.771	431.06
376.997	386.06
377.222	415.06
377.448	430.06
377.674	425.06
377.899	421.06
378.125	421.06
378.35	416.06
378.576	416.06
378.802	416.06
379.027	414.06
379.253	424.06
379.478	401.06
379.704	425.06
379.929	432.06
380.155	412.06
380.38	436.06
380.606	424.06
380.831	428.06
381.057	443.06
381.282	431.06
381.507	416.06
381.733	416.06
381.958	424.06
382.184	437.06
382.409	448.06
382.634	449.06
382.86	433.06
383.085	450.06
383.31	435.06
383.535	428.06
383.761	435.06
383.986	426.06
384.211	448.06
384.436	443.06
384.662	447.06
384.887	458.06
385.112	439.06
385.337	432.06
385.562	461.06
385.787	436.06
386.013	471.06
386.238	475.06
386.463	453.06
386.688	451.06
386.913	446.06
387.138	448.06
387.363	450.06
387.588	477.06
387.813	448.06
388.038	451.06
388.263	446.06
388.488	466.06
388.713	464.06
388.938	455.06
389.163	448.06
389.387	483.06
389.612	453.06
389.837	445.06
390.062	466.06
390.287	441.06
390.512	443.06
390.736	456.06
390.961	447.06
391.186	463.06
391.411	445.06
391.636	481.06
391.86	463.06
392.085	468.06
392.31	461.06
392.534	486.06
392.759	464.06
392.984	475.06
393.208	472.06
393.433	473.06
393.658	468.06
393.882	481.06
394.107	461.06
394.331	481.06
394.556	445.06
394.78	460.06
395.005	464.06
395.229	460.06
395.454	481.06
395.678	488.06
395.903	530.06
396.127	504.06
396.352	507.06
396.576	504.06
396.801	484.06
397.025	468.06
397.249	486.06
397.474	478.06
397.698	496.06
397.922	526.06
398.147	522.06
398.371	526.06
398.595	508.06
398.82	496.06
399.044	532.06
399.268	547.06
399.492	542.06
399.717	563.06
399.941	595.06
400.165	636.06
400.389	650.06
400.613	599.06
400.837	563.06
401.062	540.06
401.286	544.06
401.51	533.06
401.734	524.06
401.958	536.06
402.182	540.06
402.406	544.06
402.63	544.06
402.854	555.06
403.078	540.06
403.302	535.06
403.526	563.06
403.75	555.06
403.974	554.06
404.198	542.06
404.422	560.06
404.645	564.06
404.869	538.06
405.093	598.06
405.317	651.06
405.541	665.06
405.765	645.06
405.988	581.06
406.212	624.06
406.436	640.06
406.66	645.06
406.883	607.06
407.107	635.06
407.331	676.06
407.555	733.06
407.778	731.06
408.002	685.06
408.226	654.06
408.449	624.06
408.673	604.06
408.896	648.06
409.12	711.06
409.344	665.06
409.567	586.06
409.791	574.06
410.014	573.06
410.238	548.06
410.461	551.06
410.685	574.06
410.908	595.06
411.132	624.06
411.355	652.06
411.578	632.06
411.802	607.06
412.025	578.06
412.249	550.06
412.472	590.06
412.695	655.06
412.919	629.06
413.142	561.06
413.365	563.06
413.589	570.06
413.812	541.06
414.035	541.06
414.258	538.06
414.482	501.06
414.705	523.06
414.928	508.06
415.151	543.06
415.374	528.06
415.597	505.06
415.821	521.06
416.044	515.06
416.267	517.06
416.49	548.06
416.713	509.06
416.936	539.06
417.159	538.06
417.382	546.06
417.605	549.06
417.828	558.06
418.051	575.06
418.274	574.06
418.497	539.06
418.72	563.06
418.943	529.06
419.166	553.06
419.389	583.06
419.611	585.06
419.834	598.06
420.057	537.06
420.28	593.06
420.503	571.06
420.726	554.06
420.948	628.06
421.171	622.06
421.394	663.06
421.617	629.06
421.839	577.06
422.062	605.06
422.285	580.06
422.507	653.06
422.73	751.06
422.953	739.06
423.175	644.06
423.398	612.06
423.621	621.06
423.843	616.06
424.066	620.06
424.288	630.06
424.511	669.06
424.733	734.06
424.956	796.06
425.178	775.06
425.401	750.06
425.623	816.06
425.846	688.06
426.068	656.06
426.291	647.06
426.513	630.06
426.735	651.06
426.958	715.06
427.18	776.06
427.402	933.06
427.625	1062.06
427.847	938.06
428.069	831.06
428.292	719.06
428.514	653.06
428.736	629.06
428.958	609.06
429.181	585.06
429.403	589.06
429.625	613.06
429.847	639.06
430.069	733.06
430.292	750.06
430.514	623.06
430.736	599.06
430.958	575.06
431.18	571.06
431.402	577.06
431.624	558.06
431.846	549.06
432.068	551.06
432.29	523.06
432.512	527.06
432.734	586.06
432.956	565.06
433.178	564.06
433.4	578.06
433.622	569.06
433.844	550.06
434.066	552.06
434.287	532.06
434.509	547.06
434.731	559.06
434.953	563.06
435.175	605.06
435.397	629.06
435.618	633.06
435.84	699.06
436.062	793.06
436.284	887.06
436.505	741.06
436.727	669.06
436.949	622.06
437.17	595.06
437.392	606.06
437.614	629.06
437.835	673.06
438.057	790.06
438.278	927.06
438.5	919.06
438.721	963.06
438.943	932.06
439.165	755.06
439.386	699.06
439.608	673.06
439.829	684.06
440.05	731.06
440.272	782.06
440.493	727.06
440.715	645.06
440.936	640.06
441.158	609.06
441.379	589.06
441.6	632.06
441.822	636.06
442.043	705.06
442.264	808.06
442.486	832.06
442.707	714.06
442.928	677.06
443.149	676.06
443.371	714.06
443.592	773.06
443.813	852.06
444.034	907.06
444.255	779.06
444.476	679.06
444.698	653.06
444.919	651.06
445.14	750.06
445.361	720.06
445.582	699.06
445.803	783.06
446.024	905.06
446.245	923.06
446.466	841.06
446.687	713.06
446.908	670.06
447.129	643.06
447.35	611.06
447.571	601.06
447.792	619.06
448.013	618.06
448.234	615.06
448.455	704.06
448.675	845.06
448.896	947.06
449.117	823.06
449.338	765.06
449.559	892.06
449.779	991.06
450	799.06
450.221	693.06
450.442	644.06
450.662	617.06
450.883	618.06
451.104	637.06
451.324	613.06
451.545	598.06
451.766	556.06
451.986	551.06
452.207	561.06
452.428	537.06
452.648	552.06
452.869	531.06
453.089	552.06
453.31	563.06
453.53	576.06
453.751	550.06
453.971	537.06
454.192	566.06
454.412	571.06
454.633	565.06
454.853	510.06
455.073	516.06
455.294	579.06
455.514	647.06
455.734	650.06
455.955	548.06
456.175	496.06
456.395	474.06
456.616	500.06
456.836	506.06
457.056	493.06
457.276	466.06
457.497	491.06
457.717	488.06
457.937	514.06
458.157	509.06
458.377	532.06
458.598	553.06
458.818	641.06
459.038	751.06
459.258	750.06
459.478	647.06
459.698	593.06
459.918	551.06
460.138	537.06
460.358	546.06
460.578	550.06
460.798	567.06
461.018	542.06
461.238	532.06
461.458	525.06
461.678	549.06
461.898	530.06
462.118	531.06
462.338	527.06
462.558	554.06
462.777	572.06
462.997	571.06
463.217	565.06
463.437	552.06
463.657	570.06
463.876	567.06
464.096	583.06
464.316	556.06
464.536	565.06
464.755	574.06
464.975	591.06
465.195	672.06
465.414	791.06
465.634	678.06
465.854	597.06
466.073	587.06
466.293	560.06
466.512	537.06
466.732	525.06
466.951	535.06
467.171	544.06
467.391	559.06
467.61	565.06
467.829	579.06
468.049	548.06
468.268	568.06
468.488	556.06
468.707	552.06
468.927	549.06
469.146	521.06
469.365	540.06
469.585	546.06
469.804	541.06
470.023	561.06
470.243	567.06
470.462	575.06
470.681	585.06
470.901	589.06
471.12	566.06
471.339	557.06
471.558	571.06
471.777	544.06
471.997	560.06
472.216	561.06
472.435	606.06
472.654	598.06
472.873	555.06
473.092	547.06
473.311	557.06
473.53	550.06
473.749	565.06
473.968	619.06
474.187	752.06
474.406	784.06
474.625	620.06
474.844	582.06
475.063	565.06
475.282	551.06
475.501	569.06
475.72	559.06
475.939	560.06
476.158	583.06
476.377	575.06
476.596	565.06
476.814	591.06
477.033	577.06
477.252	587.06
477.471	606.06
477.69	583.06
477.908	601.06
478.127	624.06
478.346	590.06
478.564	603.06
478.783	602.06
479.002	593.06
479.22	633.06
479.439	652.06
479.658	664.06
479.876	654.06
480.095	657.06
480.313	709.06
480.532	674.06
480.751	661.06
480.969	694.06
481.188	751.06
481.406	836.06
481.624	728.06
481.843	707.06
482.061	665.06
482.28	664.06
482.498	663.06
482.717	655.06
482.935	636.06
483.153	633.06
483.372	650.06
483.59	661.06
483.808	658.06
484.027	653.06
484.245	672.06
484.463	647.06
484.681	682.06
484.9	675.06
485.118	682.06
485.336	667.06
485.554	682.06
485.772	657.06
485.99	668.06
486.209	683.06
486.427	677.06
486.645	672.06
486.863	740.06
487.081	749.06
487.299	740.06
487.517	725.06
487.735	721.06
487.953	714.06
488.171	725.06
488.389	699.06
488.607	720.06
488.825	709.06
489.043	722.06
489.261	697.06
489.479	727.06
489.696	725.06
489.914	751.06
490.132	731.06
490.35	777.06
490.568	771.06
490.786	772.06
491.003	763.06
491.221	809.06
491.439	839.06
491.657	848.06
491.874	821.06
492.092	844.06
492.31	855.06
492.527	834.06
492.745	863.06
492.963	859.06
493.18	860.06
493.398	876.06
493.615	878.06
493.833	877.06
494.05	852.06
494.268	887.06
494.485	864.06
494.703	879.06
494.92	863.06
495.138	862.06
495.355	886.06
495.573	869.06
495.79	889.06
496.008	884.06
496.225	869.06
496.442	855.06
496.66	874.06
496.877	899.06
497.094	891.06
497.312	888.06
497.529	897.06
497.746	878.06
497.963	897.06
498.181	932.06
498.398	931.06
498.615	947.06
498.832	952.06
499.049	933.06
499.267	947.06
499.484	954.06
499.701	992.06
499.918	1000.06
500.135	1041.06
500.352	1048.06
500.569	1065.06
500.786	1069.06
501.003	1069.06
501.22	1057.06
501.437	1054.06
501.654	1039.06
501.871	1057.06
502.088	1028.06
502.305	997.06
502.522	943.06
502.739	934.06
502.956	897.06
503.172	897.06
503.389	896.06
503.606	899.06
503.823	893.06
504.04	917.06
504.256	885.06
504.473	852.06
504.69	849.06
504.907	853.06
505.123	850.06
505.34	851.06
505.557	829.06
505.773	857.06
505.99	833.06
506.207	849.06
506.423	823.06
506.64	843.06
506.856	817.06
507.073	839.06
507.289	819.06
507.506	793.06
507.722	838.06
507.939	865.06
508.155	837.06
508.372	823.06
508.588	802.06
508.805	831.06
509.021	809.06
509.238	825.06
509.454	800.06
509.67	821.06
509.887	795.06
510.103	805.06
510.319	847.06
510.536	949.06
510.752	1657.06
510.968	1347.06
511.184	883.06
511.401	810.06
511.617	797.06
511.833	792.06
512.049	762.06
512.265	750.06
512.481	778.06
512.698	754.06
512.914	788.06
513.13	785.06
513.346	757.06
513.562	758.06
513.778	755.06
513.994	779.06
514.21	795.06
514.426	852.06
514.642	901.06
514.858	963.06
515.074	1029.06
515.29	1254.06
515.506	1903.06
515.721	1529.06
515.937	992.06
516.153	864.06
516.369	830.06
516.585	831.06
516.801	781.06
517.016	803.06
517.232	773.06
517.448	740.06
517.664	785.06
517.879	775.06
518.095	782.06
518.311	755.06
518.527	751.06
518.742	757.06
518.958	746.06
519.173	744.06
519.389	743.06
519.605	763.06
519.82	763.06
520.036	796.06
520.251	833.06
520.467	881.06
520.682	862.06
520.898	884.06
521.113	907.06
521.329	960.06
521.544	1154.06
521.76	1524.06
521.975	2512.06
522.19	2457.06
522.406	1307.06
522.621	951.06
522.836	849.06
523.052	779.06
523.267	748.06
523.482	732.06
523.698	721.06
523.913	717.06
524.128	711.06
524.343	711.06
524.559	677.06
524.774	663.06
524.989	652.06
525.204	683.06
525.419	664.06
525.634	671.06
525.849	648.06
526.064	642.06
526.28	615.06
526.495	612.06
526.71	599.06
526.925	604.06
527.14	620.06
527.355	612.06
527.57	596.06
527.785	602.06
527.999	601.06
528.214	609.06
528.429	627.06
528.644	613.06
528.859	619.06
529.074	625.06
529.289	653.06
529.503	793.06
529.718	761.06
529.933	673.06
530.148	645.06
530.363	627.06
530.577	612.06
530.792	599.06
531.007	611.06
531.221	600.06
531.436	596.06
531.651	566.06
531.865	568.06
532.08	577.06
532.295	589.06
532.509	560.06
532.724	582.06
532.938	560.06
533.153	584.06
533.367	546.06
533.582	557.06
533.796	590.06
534.011	549.06
534.225	568.06
534.44	547.06
534.654	572.06
534.868	555.06
535.083	558.06
535.297	567.06
535.511	553.06
535.726	598.06
535.94	567.06
536.154	571.06
536.369	583.06
536.583	569.06
536.797	538.06
537.011	556.06
537.225	549.06
537.44	556.06
537.654	542.06
537.868	560.06
538.082	521.06
538.296	556.06
538.51	533.06
538.724	541.06
538.938	563.06
539.153	550.06
539.367	545.06
539.581	568.06
539.795	565.06
540.009	548.06
540.222	527.06
540.436	552.06
540.65	552.06
540.864	542.06
541.078	576.06
541.292	575.06
541.506	537.06
541.72	552.06
541.934	560.06
542.147	541.06
542.361	525.06
542.575	545.06
542.789	539.06
543.002	543.06
543.216	529.06
543.43	558.06
543.644	528.06
543.857	547.06
544.071	535.06
544.285	529.06
544.498	559.06
544.712	549.06
544.925	551.06
545.139	524.06
545.352	525.06
545.566	518.06
545.779	526.06
545.993	534.06
546.206	543.06
546.42	505.06
546.633	536.06
546.847	511.06
547.06	525.06
547.274	509.06
547.487	515.06
547.7	517.06
547.914	519.06
548.127	508.06
548.34	518.06
548.554	519.06
548.767	526.06
548.98	525.06
549.193	516.06
549.407	515.06
549.62	513.06
549.833	490.06
550.046	509.06
550.259	508.06
550.473	508.06
550.686	486.06
550.899	513.06
551.112	494.06
551.325	516.06
551.538	502.06
551.751	481.06
551.964	499.06
552.177	502.06
552.39	491.06
552.603	496.06
552.816	522.06
553.029	515.06
553.242	509.06
553.455	509.06
553.667	543.06
553.88	522.06
554.093	535.06
554.306	523.06
554.519	519.06
554.732	487.06
554.944	488.06
555.157	497.06
555.37	492.06
555.583	497.06
555.795	482.06
556.008	480.06
556.221	482.06
556.433	475.06
556.646	457.06
556.859	453.06
557.071	457.06
557.284	452.06
557.496	466.06
557.709	450.06
557.921	484.06
558.134	475.06
558.346	474.06
558.559	462.06
558.771	468.06
558.984	474.06
559.196	469.06
559.409	452.06
559.621	451.06
559.833	441.06
560.046	462.06
560.258	453.06
560.47	443.06
560.683	475.06
560.895	446.06
561.107	454.06
561.32	445.06
561.532	455.06
561.744	460.06
561.956	442.06
562.168	451.06
562.381	453.06
562.593	444.06
562.805	446.06
563.017	443.06
563.229	464.06
563.441	443.06
563.653	452.06
563.865	467.06
564.077	461.06
564.289	456.06
564.501	453.06
564.713	468.06
564.925	472.06
565.137	463.06
565.349	469.06
565.561	480.06
565.773	468.06
565.985	453.06
566.197	481.06
566.408	496.06
566.62	496.06
566.832	505.06
567.044	501.06
567.255	522.06
567.467	502.06
567.679	511.06
567.891	525.06
568.102	522.06
568.314	487.06
568.526	509.06
568.737	500.06
568.949	485.06
569.161	462.06
569.372	455.06
569.584	474.06
569.795	453.06
570.007	442.06
570.218	539.06
570.43	494.06
570.641	446.06
570.853	408.06
571.064	426.06
571.276	427.06
571.487	423.06
571.698	413.06
571.91	419.06
572.121	427.06
572.333	411.06
572.544	404.06
572.755	390.06
572.966	411.06
573.178	411.06
573.389	396.06
573.6	381.06
573.811	392.06
574.023	417.06
574.234	400.06
574.445	385.06
574.656	397.06
574.867	388.06
575.078	385.06
575.289	394.06
575.501	387.06
575.712	364.06
575.923	377.06
576.134	373.06
576.345	367.06
576.556	379.06
576.767	384.06
576.978	374.06
577.188	374.06
577.399	380.06
577.61	377.06
577.821	409.06
578.032	376.06
578.243	447.06
578.454	749.06
578.665	551.06
578.875	381.06
579.086	352.06
579.297	364.06
579.508	359.06
579.718	358.06
579.929	367.06
580.14	356.06
580.35	346.06
580.561	356.06
580.772	359.06
580.982	347.06
581.193	338.06
581.403	333.06
581.614	355.06
581.825	355.06
582.035	334.06
582.246	359.06
582.456	355.06
582.667	363.06
582.877	343.06
583.087	355.06
583.298	379.06
583.508	347.06
583.719	339.06
583.929	345.06
584.139	354.06
584.35	351.06
584.56	348.06
584.77	350.06
584.981	356.06
585.191	334.06
585.401	345.06
585.611	343.06
585.821	349.06
586.032	330.06
586.242	346.06
586.452	357.06
586.662	347.06
586.872	362.06
587.082	333.06
587.292	336.06
587.502	351.06
587.713	350.06
587.923	336.06
588.133	344.06
588.343	332.06
588.553	331.06
588.762	337.06
588.972	350.06
589.182	333.06
589.392	347.06
589.602	334.06
589.812	341.06
590.022	326.06
590.232	336.06
590.441	344.06
590.651	342.06
590.861	333.06
591.071	340.06
591.281	319.06
591.49	347.06
591.7	329.06
591.91	336.06
592.119	311.06
592.329	342.06
592.539	336.06
592.748	346.06
592.958	340.06
593.167	318.06
593.377	343.06
593.587	340.06
593.796	320.06
594.006	347.06
594.215	346.06
594.424	345.06
594.634	341.06
594.843	310.06
595.053	313.06
595.262	320.06
595.472	330.06
595.681	328.06
595.89	309.06
596.1	328.06
596.309	314.06
596.518	290.06
596.727	311.06
596.937	317.06
597.146	318.06
597.355	315.06
597.564	302.06
597.774	316.06
597.983	315.06
598.192	310.06
598.401	314.06
598.61	284.06
598.819	307.06
599.028	311.06
599.237	304.06
599.446	322.06
599.655	308.06
599.864	292.06
600.073	298.06
600.282	301.06
600.491	299.06
600.7	291.06
600.909	294.06
601.118	301.06
601.327	308.06
601.536	318.06
601.745	307.06
601.953	299.06
602.162	301.06
602.371	273.06
602.58	278.06
602.789	286.06
602.997	297.06
603.206	280.06
603.415	280.06
603.623	290.06
603.832	289.06
604.041	288.06
604.249	269.06
604.458	281.06
604.666	270.06
604.875	281.06
605.084	303.06
605.292	277.06
605.501	281.06
605.709	277.06
605.918	271.06
606.126	295.06
606.334	302.06
606.543	298.06
606.751	300.06
606.96	282.06
607.168	269.06
607.376	285.06
607.585	294.06
607.793	280.06
608.001	286.06
608.21	262.06
608.418	277.06
608.626	292.06
608.834	284.06
609.043	277.06
609.251	273.06
609.459	288.06
609.667	273.06
609.875	267.06
610.083	279.06
610.291	271.06
610.499	272.06
610.707	285.06
610.916	280.06
611.124	287.06
611.332	281.06
611.54	300.06
611.748	297.06
611.955	281.06
612.163	273.06
612.371	269.06
612.579	268.06
612.787	269.06
612.995	292.06
613.203	287.06
613.411	279.06
613.618	285.06
613.826	278.06
614.034	268.06
614.242	272.06
614.449	303.06
614.657	264.06
614.865	263.06
615.072	294.06
615.28	261.06
615.488	262.06
615.695	275.06
615.903	283.06
616.111	269.06
616.318	276.06
616.526	264.06
616.733	264.06
616.941	272.06
617.148	250.06
617.356	271.06
617.563	272.06
617.771	261.06
617.978	270.06
618.185	250.06
618.393	274.06
618.6	271.06
618.807	263.06
619.015	292.06
619.222	250.06
619.429	268.06
619.637	259.06
619.844	264.06
620.051	265.06
620.258	263.06
620.466	256.06
620.673	251.06
620.88	247.06
621.087	260.06
621.294	263.06
621.501	261.06
621.708	268.06
621.915	262.06
622.122	267.06
622.329	264.06
622.536	247.06
622.743	249.06
622.95	232.06
623.157	243.06
623.364	242.06
623.571	238.06
623.778	240.06
623.985	239.06
624.192	248.06
624.399	246.06
624.606	248.06
624.812	255.06
625.019	248.06
625.226	264.06
625.433	263.06
625.639	235.06
625.846	261.06
626.053	231.06
626.259	230.06
626.466	222.06
626.673	222.06
626.879	237.06
627.086	237.06
627.293	230.06
627.499	249.06
627.706	224.06
627.912	245.06
628.119	227.06
628.325	231.06
628.532	220.06
628.738	231.06
628.945	250.06
629.151	245.06
629.357	231.06
629.564	220.06
629.77	238.06
629.976	229.06
630.183	220.06
630.389	209.06
630.595	218.06
630.802	221.06
631.008	215.06
631.214	207.06
631.42	222.06
631.627	220.06
631.833	224.06
632.039	214.06
632.245	215.06
632.451	220.06
632.657	213.06
632.863	224.06
633.069	206.06
633.275	209.06
633.481	200.06
633.688	210.06
633.893	220.06
634.099	205.06
634.305	211.06
634.511	208.06
634.717	216.06
634.923	203.06
635.129	208.06
635.335	212.06
635.541	205.06
635.747	203.06
635.952	225.06
636.158	216.06
636.364	220.06
636.57	205.06
636.775	205.06
636.981	214.06
637.187	207.06
637.392	217.06
637.598	203.06
637.804	222.06
638.009	204.06
638.215	195.06
638.421	204.06
638.626	199.06
638.832	221.06
639.037	187.06
639.243	208.06
639.448	208.06
639.654	202.06
639.859	208.06
640.065	200.06
640.27	209.06
640.475	197.06
640.681	193.06
640.886	202.06
641.091	198.06
641.297	207.06
641.502	188.06
641.707	201.06
641.913	186.06
642.118	196.06
642.323	201.06
642.528	187.06
642.733	185.06
642.939	173.06
643.144	194.06
643.349	183.06
643.554	183.06
643.759	180.06
643.964	192.06
644.169	189.06
644.374	207.06
644.579	189.06
644.784	177.06
644.989	177.06
645.194	185.06
645.399	193.06
645.604	193.06
645.809	175.06
646.014	193.06
646.219	180.06
646.423	185.06
646.628	198.06
646.833	176.06
647.038	186.06
647.243	170.06
647.447	188.06
647.652	188.06
647.857	180.06
648.062	193.06
648.266	180.06
648.471	183.06
648.676	186.06
648.88	186.06
649.085	181.06
649.289	187.06
649.494	204.06
649.698	206.06
649.903	218.06
650.107	196.06
650.312	188.06
650.516	182.06
650.721	173.06
650.925	179.06
651.13	174.06
651.334	166.06
651.539	181.06
651.743	161.06
651.947	168.06
652.152	149.06
652.356	161.06
652.56	169.06
652.764	163.06
652.969	149.06
653.173	164.06
653.377	153.06
653.581	151.06
653.785	148.06
653.99	152.06
654.194	146.06
654.398	165.06
654.602	139.06
654.806	141.06
655.01	161.06
655.214	161.06
655.418	136.06
655.622	136.06
655.826	149.06
656.03	135.06
656.234	148.06
656.438	131.06
656.642	139.06
656.846	143.06
657.049	141.06
657.253	127.06
657.457	124.06
657.661	133.06
657.865	109.06
658.068	112.06
658.272	124.06
658.476	110.06
658.68	109.06
658.883	120.06
659.087	115.06
659.291	107.06
659.494	115.06
659.698	114.06
659.901	104.06
660.105	93.06
660.309	84.06
660.512	83.06
660.716	104.06
660.919	80.06
661.123	109.06
661.326	92.06
661.53	80.06
661.733	105.06
661.936	97.06
662.14	85.06
662.343	91.06
662.546	88.06
662.75	88.06
662.953	85.06
663.156	86.06
663.36	107.06
663.563	80.06
663.766	96.06
663.969	89.06
664.173	79.06
664.376	95.06
664.579	89.06
664.782	83.06
664.985	94.06
665.188	86.06
665.391	83.06
665.594	85.06
665.797	105.06
666	80.06
666.203	83.06
666.406	85.06
666.609	93.06
666.812	75.06
667.015	71.06
667.218	96.06
667.421	79.06
667.624	84.06
667.827	84.06
668.03	97.06
668.232	91.06
668.435	89.06
668.638	86.06
668.841	99.06
669.043	62.06
669.246	79.06
669.449	95.06
669.651	77.06
669.854	98.06
670.057	85.06
670.259	85.06
670.462	84.06
670.665	79.06
670.867	82.06
671.07	93.06
671.272	89.06
671.475	87.06
671.677	74.06
671.88	83.06
672.082	80.06
672.284	84.06
672.487	79.06
672.689	87.06
672.892	75.06
