Data from 1971.PennyLincolnUp.Lamp.En5.5.200Scan.071719.P1._HRD10591_15-19-18-841.txt Node
Date: Thu Jul 18 15:19:18 EDT 2019
User: cochatt
Spectrometer: HR+D1059
Trigger mode: 1
Integration Time (sec): 1.000000E-1
Scans to average: 1
Electric dark correction enabled: true
Nonlinearity correction enabled: false
Boxcar width: 0
XAxis mode: Wavelengths
Number of Pixels in Spectrum: 2048
>>>>>Begin Spectral Data<<<<<
223.165	-20.94
223.4	-20.94
223.635	-20.94
223.869	-13.94
224.104	-5.94
224.338	-14.94
224.573	-10.94
224.808	-15.94
225.042	-14.94
225.277	-1.94
225.511	-5.94
225.746	1.06
225.98	16.06
226.215	14.06
226.449	24.06
226.683	14.06
226.918	13.06
227.152	23.06
227.387	29.06
227.621	41.06
227.856	51.06
228.09	44.06
228.324	50.06
228.559	48.06
228.793	66.06
229.027	93.06
229.262	93.06
229.496	104.06
229.73	117.06
229.964	135.06
230.199	129.06
230.433	103.06
230.667	111.06
230.901	102.06
231.136	100.06
231.37	111.06
231.604	104.06
231.838	112.06
232.072	113.06
232.306	113.06
232.541	114.06
232.775	111.06
233.009	121.06
233.243	121.06
233.477	116.06
233.711	111.06
233.945	109.06
234.179	125.06
234.413	111.06
234.647	114.06
234.881	124.06
235.115	121.06
235.349	119.06
235.583	122.06
235.817	119.06
236.051	111.06
236.285	118.06
236.519	118.06
236.753	131.06
236.987	140.06
237.221	185.06
237.455	218.06
237.689	173.06
237.922	144.06
238.156	142.06
238.39	135.06
238.624	128.06
238.858	125.06
239.091	126.06
239.325	120.06
239.559	118.06
239.793	136.06
240.027	129.06
240.26	130.06
240.494	137.06
240.728	142.06
240.961	156.06
241.195	130.06
241.429	141.06
241.662	132.06
241.896	129.06
242.13	133.06
242.363	135.06
242.597	144.06
242.83	144.06
243.064	139.06
243.298	142.06
243.531	145.06
243.765	135.06
243.998	139.06
244.232	140.06
244.465	142.06
244.699	128.06
244.932	140.06
245.166	142.06
245.399	150.06
245.633	138.06
245.866	146.06
246.099	146.06
246.333	150.06
246.566	162.06
246.8	143.06
247.033	147.06
247.266	148.06
247.5	157.06
247.733	176.06
247.966	172.06
248.2	174.06
248.433	176.06
248.666	184.06
248.899	166.06
249.133	201.06
249.366	217.06
249.599	192.06
249.832	206.06
250.066	184.06
250.299	185.06
250.532	189.06
250.765	205.06
250.998	218.06
251.231	225.06
251.465	223.06
251.698	208.06
251.931	212.06
252.164	210.06
252.397	183.06
252.63	198.06
252.863	205.06
253.096	215.06
253.329	219.06
253.562	222.06
253.795	220.06
254.028	208.06
254.261	215.06
254.494	229.06
254.727	264.06
254.96	280.06
255.193	258.06
255.426	255.06
255.659	235.06
255.892	238.06
256.124	236.06
256.357	227.06
256.59	221.06
256.823	215.06
257.056	206.06
257.289	219.06
257.521	211.06
257.754	218.06
257.987	213.06
258.22	214.06
258.452	212.06
258.685	200.06
258.918	213.06
259.151	210.06
259.383	201.06
259.616	248.06
259.849	230.06
260.081	244.06
260.314	247.06
260.547	252.06
260.779	247.06
261.012	232.06
261.244	228.06
261.477	209.06
261.71	237.06
261.942	234.06
262.175	236.06
262.407	231.06
262.64	210.06
262.872	221.06
263.105	227.06
263.337	210.06
263.57	215.06
263.802	219.06
264.035	225.06
264.267	223.06
264.499	207.06
264.732	203.06
264.964	227.06
265.197	212.06
265.429	227.06
265.661	230.06
265.894	215.06
266.126	199.06
266.358	240.06
266.591	225.06
266.823	235.06
267.055	230.06
267.287	232.06
267.52	231.06
267.752	221.06
267.984	235.06
268.216	217.06
268.448	259.06
268.681	246.06
268.913	254.06
269.145	263.06
269.377	252.06
269.609	286.06
269.841	273.06
270.073	264.06
270.306	303.06
270.538	306.06
270.77	314.06
271.002	327.06
271.234	295.06
271.466	299.06
271.698	304.06
271.93	328.06
272.162	328.06
272.394	317.06
272.626	302.06
272.858	302.06
273.09	286.06
273.322	285.06
273.553	265.06
273.785	265.06
274.017	277.06
274.249	292.06
274.481	273.06
274.713	266.06
274.945	279.06
275.176	276.06
275.408	266.06
275.64	271.06
275.872	268.06
276.104	273.06
276.335	257.06
276.567	286.06
276.799	280.06
277.031	320.06
277.262	311.06
277.494	328.06
277.726	314.06
277.957	306.06
278.189	299.06
278.421	288.06
278.652	276.06
278.884	279.06
279.115	273.06
279.347	278.06
279.579	250.06
279.81	284.06
280.042	282.06
280.273	271.06
280.505	280.06
280.736	282.06
280.968	272.06
281.199	272.06
281.431	262.06
281.662	268.06
281.894	278.06
282.125	273.06
282.356	308.06
282.588	314.06
282.819	303.06
283.051	286.06
283.282	281.06
283.513	272.06
283.745	275.06
283.976	303.06
284.207	273.06
284.439	296.06
284.67	292.06
284.901	278.06
285.132	293.06
285.364	271.06
285.595	289.06
285.826	297.06
286.057	287.06
286.288	285.06
286.52	293.06
286.751	295.06
286.982	285.06
287.213	293.06
287.444	289.06
287.675	308.06
287.906	297.06
288.138	315.06
288.369	295.06
288.6	303.06
288.831	295.06
289.062	291.06
289.293	300.06
289.524	289.06
289.755	294.06
289.986	302.06
290.217	300.06
290.448	298.06
290.679	284.06
290.91	282.06
291.141	306.06
291.371	300.06
291.602	299.06
291.833	322.06
292.064	311.06
292.295	286.06
292.526	284.06
292.757	303.06
292.987	297.06
293.218	294.06
293.449	297.06
293.68	297.06
293.91	281.06
294.141	278.06
294.372	313.06
294.603	303.06
294.833	284.06
295.064	288.06
295.295	298.06
295.525	301.06
295.756	296.06
295.987	337.06
296.217	324.06
296.448	317.06
296.679	309.06
296.909	317.06
297.14	301.06
297.37	302.06
297.601	296.06
297.831	292.06
298.062	311.06
298.292	314.06
298.523	312.06
298.753	313.06
298.984	316.06
299.214	312.06
299.445	324.06
299.675	321.06
299.905	300.06
300.136	317.06
300.366	320.06
300.597	316.06
300.827	325.06
301.057	324.06
301.288	353.06
301.518	333.06
301.748	314.06
301.979	322.06
302.209	335.06
302.439	338.06
302.669	333.06
302.9	327.06
303.13	298.06
303.36	335.06
303.59	346.06
303.82	337.06
304.051	325.06
304.281	323.06
304.511	343.06
304.741	328.06
304.971	331.06
305.201	323.06
305.431	340.06
305.661	325.06
305.891	336.06
306.121	343.06
306.352	354.06
306.582	342.06
306.812	349.06
307.042	324.06
307.272	342.06
307.502	344.06
307.731	342.06
307.961	337.06
308.191	340.06
308.421	332.06
308.651	316.06
308.881	346.06
309.111	354.06
309.341	349.06
309.571	353.06
309.8	353.06
310.03	329.06
310.26	361.06
310.49	360.06
310.72	362.06
310.949	382.06
311.179	380.06
311.409	369.06
311.639	376.06
311.868	365.06
312.098	374.06
312.328	368.06
312.557	407.06
312.787	399.06
313.017	387.06
313.246	389.06
313.476	376.06
313.706	382.06
313.935	370.06
314.165	382.06
314.394	412.06
314.624	398.06
314.853	393.06
315.083	380.06
315.312	379.06
315.542	378.06
315.771	378.06
316.001	368.06
316.23	372.06
316.46	363.06
316.689	380.06
316.919	362.06
317.148	396.06
317.377	388.06
317.607	398.06
317.836	386.06
318.065	380.06
318.295	371.06
318.524	380.06
318.753	383.06
318.983	376.06
319.212	388.06
319.441	370.06
319.67	376.06
319.9	374.06
320.129	381.06
320.358	383.06
320.587	378.06
320.816	411.06
321.046	385.06
321.275	394.06
321.504	396.06
321.733	390.06
321.962	407.06
322.191	386.06
322.42	428.06
322.649	420.06
322.878	427.06
323.108	458.06
323.337	472.06
323.566	478.06
323.795	497.06
324.024	553.06
324.253	660.06
324.482	958.06
324.71	1370.06
324.939	1846.06
325.168	1592.06
325.397	866.06
325.626	608.06
325.855	520.06
326.084	498.06
326.313	488.06
326.542	486.06
326.77	522.06
326.999	622.06
327.228	840.06
327.457	1218.06
327.686	1361.06
327.914	926.06
328.143	652.06
328.372	588.06
328.6	556.06
328.829	517.06
329.058	560.06
329.287	534.06
329.515	505.06
329.744	494.06
329.972	472.06
330.201	520.06
330.43	528.06
330.658	535.06
330.887	560.06
331.115	538.06
331.344	473.06
331.572	489.06
331.801	486.06
332.03	476.06
332.258	470.06
332.486	441.06
332.715	429.06
332.943	436.06
333.172	438.06
333.4	434.06
333.629	460.06
333.857	446.06
334.085	455.06
334.314	490.06
334.542	487.06
334.771	513.06
334.999	472.06
335.227	453.06
335.455	441.06
335.684	437.06
335.912	431.06
336.14	403.06
336.369	439.06
336.597	461.06
336.825	436.06
337.053	424.06
337.281	422.06
337.51	416.06
337.738	420.06
337.966	410.06
338.194	427.06
338.422	458.06
338.65	402.06
338.878	402.06
339.106	414.06
339.334	412.06
339.562	413.06
339.79	409.06
340.018	418.06
340.246	383.06
340.474	415.06
340.702	415.06
340.93	419.06
341.158	399.06
341.386	413.06
341.614	404.06
341.842	409.06
342.07	402.06
342.298	394.06
342.526	398.06
342.754	408.06
342.981	390.06
343.209	384.06
343.437	424.06
343.665	409.06
343.893	414.06
344.12	408.06
344.348	410.06
344.576	419.06
344.804	428.06
345.031	416.06
345.259	422.06
345.487	418.06
345.714	417.06
345.942	396.06
346.17	380.06
346.397	401.06
346.625	397.06
346.853	405.06
347.08	399.06
347.308	389.06
347.535	411.06
347.763	392.06
347.99	383.06
348.218	408.06
348.445	396.06
348.673	410.06
348.9	391.06
349.128	411.06
349.355	386.06
349.583	348.06
349.81	382.06
350.037	382.06
350.265	363.06
350.492	380.06
350.72	378.06
350.947	382.06
351.174	392.06
351.402	409.06
351.629	406.06
351.856	366.06
352.083	395.06
352.311	388.06
352.538	391.06
352.765	374.06
352.992	396.06
353.22	406.06
353.447	360.06
353.674	395.06
353.901	406.06
354.128	360.06
354.355	381.06
354.583	388.06
354.81	361.06
355.037	364.06
355.264	371.06
355.491	362.06
355.718	374.06
355.945	360.06
356.172	376.06
356.399	372.06
356.626	374.06
356.853	361.06
357.08	360.06
357.307	355.06
357.534	361.06
357.761	370.06
357.988	363.06
358.215	360.06
358.441	346.06
358.668	369.06
358.895	366.06
359.122	383.06
359.349	364.06
359.576	390.06
359.802	394.06
360.029	410.06
360.256	414.06
360.483	400.06
360.709	391.06
360.936	380.06
361.163	385.06
361.39	384.06
361.616	396.06
361.843	398.06
362.07	390.06
362.296	372.06
362.523	380.06
362.749	363.06
362.976	360.06
363.203	374.06
363.429	359.06
363.656	351.06
363.882	376.06
364.109	367.06
364.335	369.06
364.562	359.06
364.788	353.06
365.015	368.06
365.241	355.06
365.468	358.06
365.694	350.06
365.92	359.06
366.147	358.06
366.373	347.06
366.599	338.06
366.826	351.06
367.052	353.06
367.278	365.06
367.505	358.06
367.731	349.06
367.957	364.06
368.184	362.06
368.41	361.06
368.636	369.06
368.862	353.06
369.089	357.06
369.315	362.06
369.541	366.06
369.767	363.06
369.993	368.06
370.219	376.06
370.445	343.06
370.672	351.06
370.898	369.06
371.124	356.06
371.35	344.06
371.576	364.06
371.802	341.06
372.028	347.06
372.254	346.06
372.48	368.06
372.706	353.06
372.932	339.06
373.158	340.06
373.384	369.06
373.61	357.06
373.835	351.06
374.061	348.06
374.287	361.06
374.513	353.06
374.739	369.06
374.965	348.06
375.191	338.06
375.416	368.06
375.642	358.06
375.868	377.06
376.094	363.06
376.319	344.06
376.545	347.06
376.771	346.06
376.997	358.06
377.222	341.06
377.448	355.06
377.674	338.06
377.899	348.06
378.125	342.06
378.35	339.06
378.576	347.06
378.802	339.06
379.027	347.06
379.253	359.06
379.478	333.06
379.704	344.06
379.929	349.06
380.155	341.06
380.38	356.06
380.606	362.06
380.831	358.06
381.057	360.06
381.282	344.06
381.507	338.06
381.733	335.06
381.958	361.06
382.184	356.06
382.409	353.06
382.634	341.06
382.86	366.06
383.085	362.06
383.31	361.06
383.535	352.06
383.761	347.06
383.986	364.06
384.211	349.06
384.436	378.06
384.662	357.06
384.887	367.06
385.112	352.06
385.337	349.06
385.562	387.06
385.787	359.06
386.013	364.06
386.238	374.06
386.463	345.06
386.688	384.06
386.913	370.06
387.138	370.06
387.363	354.06
387.588	358.06
387.813	368.06
388.038	380.06
388.263	377.06
388.488	356.06
388.713	380.06
388.938	387.06
389.163	373.06
389.387	385.06
389.612	359.06
389.837	368.06
390.062	361.06
390.287	359.06
390.512	381.06
390.736	366.06
390.961	359.06
391.186	364.06
391.411	377.06
391.636	367.06
391.86	383.06
392.085	380.06
392.31	377.06
392.534	376.06
392.759	387.06
392.984	381.06
393.208	380.06
393.433	384.06
393.658	393.06
393.882	375.06
394.107	380.06
394.331	375.06
394.556	365.06
394.78	364.06
395.005	387.06
395.229	369.06
395.454	376.06
395.678	375.06
395.903	392.06
396.127	398.06
396.352	398.06
396.576	394.06
396.801	370.06
397.025	388.06
397.249	408.06
397.474	379.06
397.698	403.06
397.922	409.06
398.147	398.06
398.371	411.06
398.595	401.06
398.82	408.06
399.044	424.06
399.268	438.06
399.492	442.06
399.717	472.06
399.941	472.06
400.165	502.06
400.389	516.06
400.613	448.06
400.837	397.06
401.062	408.06
401.286	408.06
401.51	420.06
401.734	401.06
401.958	399.06
402.182	422.06
402.406	425.06
402.63	421.06
402.854	426.06
403.078	427.06
403.302	407.06
403.526	424.06
403.75	448.06
403.974	434.06
404.198	428.06
404.422	439.06
404.645	408.06
404.869	434.06
405.093	460.06
405.317	487.06
405.541	508.06
405.765	457.06
405.988	437.06
406.212	437.06
406.436	460.06
406.66	464.06
406.883	466.06
407.107	466.06
407.331	475.06
407.555	536.06
407.778	550.06
408.002	498.06
408.226	461.06
408.449	465.06
408.673	466.06
408.896	490.06
409.12	494.06
409.344	490.06
409.567	449.06
409.791	406.06
410.014	399.06
410.238	412.06
410.461	428.06
410.685	426.06
410.908	428.06
411.132	472.06
411.355	486.06
411.578	472.06
411.802	446.06
412.025	412.06
412.249	430.06
412.472	454.06
412.695	441.06
412.919	471.06
413.142	430.06
413.365	401.06
413.589	410.06
413.812	424.06
414.035	398.06
414.258	402.06
414.482	387.06
414.705	388.06
414.928	395.06
415.151	384.06
415.374	383.06
415.597	390.06
415.821	390.06
416.044	392.06
416.267	410.06
416.49	370.06
416.713	365.06
416.936	379.06
417.159	382.06
417.382	393.06
417.605	397.06
417.828	401.06
418.051	404.06
418.274	414.06
418.497	385.06
418.72	386.06
418.943	399.06
419.166	406.06
419.389	415.06
419.611	424.06
419.834	410.06
420.057	412.06
420.28	431.06
420.503	447.06
420.726	420.06
420.948	443.06
421.171	464.06
421.394	484.06
421.617	441.06
421.839	430.06
422.062	415.06
422.285	442.06
422.507	474.06
422.73	538.06
422.953	517.06
423.175	478.06
423.398	427.06
423.621	417.06
423.843	448.06
424.066	442.06
424.288	437.06
424.511	457.06
424.733	503.06
424.956	552.06
425.178	530.06
425.401	528.06
425.623	533.06
425.846	474.06
426.068	443.06
426.291	451.06
426.513	429.06
426.735	444.06
426.958	498.06
427.18	560.06
427.402	637.06
427.625	686.06
427.847	626.06
428.069	534.06
428.292	468.06
428.514	441.06
428.736	432.06
428.958	418.06
429.181	406.06
429.403	402.06
429.625	408.06
429.847	462.06
430.069	506.06
430.292	477.06
430.514	452.06
430.736	410.06
430.958	402.06
431.18	398.06
431.402	398.06
431.624	380.06
431.846	373.06
432.068	376.06
432.29	374.06
432.512	381.06
432.734	401.06
432.956	410.06
433.178	404.06
433.4	397.06
433.622	384.06
433.844	384.06
434.066	381.06
434.287	410.06
434.509	390.06
434.731	389.06
434.953	401.06
435.175	418.06
435.397	427.06
435.618	430.06
435.84	461.06
436.062	538.06
436.284	596.06
436.505	498.06
436.727	452.06
436.949	417.06
437.17	406.06
437.392	412.06
437.614	422.06
437.835	436.06
438.057	521.06
438.278	590.06
438.5	593.06
438.721	649.06
438.943	624.06
439.165	497.06
439.386	457.06
439.608	449.06
439.829	455.06
440.05	476.06
440.272	501.06
440.493	455.06
440.715	429.06
440.936	434.06
441.158	409.06
441.379	416.06
441.6	406.06
441.822	446.06
442.043	478.06
442.264	533.06
442.486	571.06
442.707	481.06
442.928	457.06
443.149	429.06
443.371	474.06
443.592	527.06
443.813	554.06
444.034	607.06
444.255	519.06
444.476	471.06
444.698	438.06
444.919	440.06
445.14	562.06
445.361	504.06
445.582	484.06
445.803	547.06
446.024	598.06
446.245	583.06
446.466	567.06
446.687	489.06
446.908	436.06
447.129	427.06
447.35	400.06
447.571	423.06
447.792	408.06
448.013	415.06
448.234	432.06
448.455	484.06
448.675	558.06
448.896	646.06
449.117	549.06
449.338	532.06
449.559	602.06
449.779	670.06
450	540.06
450.221	467.06
450.442	410.06
450.662	388.06
450.883	397.06
451.104	414.06
451.324	395.06
451.545	372.06
451.766	369.06
451.986	380.06
452.207	352.06
452.428	362.06
452.648	370.06
452.869	356.06
453.089	380.06
453.31	376.06
453.53	388.06
453.751	364.06
453.971	372.06
454.192	360.06
454.412	356.06
454.633	381.06
454.853	360.06
455.073	358.06
455.294	379.06
455.514	438.06
455.734	438.06
455.955	380.06
456.175	332.06
456.395	334.06
456.616	341.06
456.836	328.06
457.056	335.06
457.276	334.06
457.497	349.06
457.717	334.06
457.937	356.06
458.157	338.06
458.377	349.06
458.598	370.06
458.818	410.06
459.038	465.06
459.258	484.06
459.478	425.06
459.698	390.06
459.918	384.06
460.138	404.06
460.358	372.06
460.578	357.06
460.798	376.06
461.018	360.06
461.238	383.06
461.458	372.06
461.678	386.06
461.898	373.06
462.118	362.06
462.338	384.06
462.558	382.06
462.777	397.06
462.997	416.06
463.217	413.06
463.437	406.06
463.657	400.06
463.876	396.06
464.096	388.06
464.316	399.06
464.536	396.06
464.755	406.06
464.975	415.06
465.195	432.06
465.414	492.06
465.634	415.06
465.854	386.06
466.073	392.06
466.293	384.06
466.512	367.06
466.732	362.06
466.951	374.06
467.171	384.06
467.391	389.06
467.61	384.06
467.829	382.06
468.049	371.06
468.268	371.06
468.488	379.06
468.707	367.06
468.927	372.06
469.146	382.06
469.365	369.06
469.585	373.06
469.804	380.06
470.023	367.06
470.243	388.06
470.462	397.06
470.681	390.06
470.901	378.06
471.12	367.06
471.339	377.06
471.558	380.06
471.777	381.06
471.997	376.06
472.216	363.06
472.435	392.06
472.654	388.06
472.873	381.06
473.092	397.06
473.311	357.06
473.53	367.06
473.749	385.06
473.968	438.06
474.187	495.06
474.406	504.06
474.625	422.06
474.844	389.06
475.063	400.06
475.282	388.06
475.501	370.06
475.72	389.06
475.939	379.06
476.158	368.06
476.377	381.06
476.596	392.06
476.814	403.06
477.033	393.06
477.252	402.06
477.471	393.06
477.69	392.06
477.908	419.06
478.127	425.06
478.346	407.06
478.564	432.06
478.783	391.06
479.002	416.06
479.22	406.06
479.439	415.06
479.658	436.06
479.876	436.06
480.095	436.06
480.313	448.06
480.532	438.06
480.751	453.06
480.969	439.06
481.188	499.06
481.406	500.06
481.624	464.06
481.843	454.06
482.061	417.06
482.28	433.06
482.498	436.06
482.717	438.06
482.935	464.06
483.153	433.06
483.372	445.06
483.59	436.06
483.808	439.06
484.027	434.06
484.245	428.06
484.463	441.06
484.681	433.06
484.9	448.06
485.118	452.06
485.336	463.06
485.554	463.06
485.772	427.06
485.99	431.06
486.209	440.06
486.427	451.06
486.645	462.06
486.863	465.06
487.081	487.06
487.299	462.06
487.517	462.06
487.735	451.06
487.953	465.06
488.171	484.06
488.389	455.06
488.607	475.06
488.825	472.06
489.043	473.06
489.261	475.06
489.479	464.06
489.696	492.06
489.914	480.06
490.132	460.06
490.35	492.06
490.568	502.06
490.786	491.06
491.003	502.06
491.221	489.06
491.439	526.06
491.657	520.06
491.874	522.06
492.092	510.06
492.31	540.06
492.527	539.06
492.745	548.06
492.963	547.06
493.18	543.06
493.398	540.06
493.615	544.06
493.833	536.06
494.05	554.06
494.268	550.06
494.485	537.06
494.703	560.06
494.92	546.06
495.138	541.06
495.355	551.06
495.573	564.06
495.79	570.06
496.008	566.06
496.225	552.06
496.442	573.06
496.66	544.06
496.877	558.06
497.094	542.06
497.312	571.06
497.529	576.06
497.746	581.06
497.963	572.06
498.181	584.06
498.398	593.06
498.615	593.06
498.832	608.06
499.049	624.06
499.267	618.06
499.484	652.06
499.701	660.06
499.918	684.06
500.135	710.06
500.352	724.06
500.569	754.06
500.786	733.06
501.003	738.06
501.22	686.06
501.437	673.06
501.654	691.06
501.871	683.06
502.088	659.06
502.305	629.06
502.522	612.06
502.739	612.06
502.956	592.06
503.172	586.06
503.389	569.06
503.606	587.06
503.823	575.06
504.04	569.06
504.256	520.06
504.473	556.06
504.69	544.06
504.907	543.06
505.123	546.06
505.34	544.06
505.557	493.06
505.773	534.06
505.99	559.06
506.207	534.06
506.423	533.06
506.64	521.06
506.856	501.06
507.073	522.06
507.289	540.06
507.506	504.06
507.722	548.06
507.939	521.06
508.155	504.06
508.372	522.06
508.588	498.06
508.805	506.06
509.021	530.06
509.238	502.06
509.454	511.06
509.67	517.06
509.887	521.06
510.103	502.06
510.319	502.06
510.536	577.06
510.752	897.06
510.968	711.06
511.184	500.06
511.401	494.06
511.617	465.06
511.833	480.06
512.049	452.06
512.265	467.06
512.481	471.06
512.698	473.06
512.914	447.06
513.13	455.06
513.346	468.06
513.562	461.06
513.778	462.06
513.994	485.06
514.21	493.06
514.426	495.06
514.642	510.06
514.858	543.06
515.074	561.06
515.29	648.06
515.506	934.06
515.721	748.06
515.937	544.06
516.153	506.06
516.369	492.06
516.585	485.06
516.801	485.06
517.016	501.06
517.232	484.06
517.448	490.06
517.664	483.06
517.879	485.06
518.095	486.06
518.311	476.06
518.527	473.06
518.742	452.06
518.958	450.06
519.173	481.06
519.389	492.06
519.605	454.06
519.82	466.06
520.036	465.06
520.251	490.06
520.467	500.06
520.682	485.06
520.898	523.06
521.113	518.06
521.329	576.06
521.544	622.06
521.76	779.06
521.975	1175.06
522.19	1116.06
522.406	650.06
522.621	522.06
522.836	466.06
523.052	480.06
523.267	423.06
523.482	438.06
523.698	420.06
523.913	451.06
524.128	451.06
524.343	430.06
524.559	420.06
524.774	384.06
524.989	406.06
525.204	429.06
525.419	412.06
525.634	427.06
525.849	385.06
526.064	398.06
526.28	405.06
526.495	395.06
526.71	382.06
526.925	380.06
527.14	403.06
527.355	397.06
527.57	369.06
527.785	402.06
527.999	392.06
528.214	386.06
528.429	378.06
528.644	382.06
528.859	397.06
529.074	416.06
529.289	401.06
529.503	446.06
529.718	450.06
529.933	424.06
530.148	380.06
530.363	389.06
530.577	378.06
530.792	375.06
531.007	384.06
531.221	366.06
531.436	367.06
531.651	377.06
531.865	370.06
532.08	369.06
532.295	358.06
532.509	360.06
532.724	349.06
532.938	368.06
533.153	377.06
533.367	362.06
533.582	365.06
533.796	373.06
534.011	362.06
534.225	356.06
534.44	353.06
534.654	345.06
534.868	364.06
535.083	361.06
535.297	351.06
535.511	360.06
535.726	384.06
535.94	376.06
536.154	366.06
536.369	351.06
536.583	369.06
536.797	360.06
537.011	357.06
537.225	358.06
537.44	348.06
537.654	375.06
537.868	358.06
538.082	361.06
538.296	368.06
538.51	360.06
538.724	365.06
538.938	357.06
539.153	370.06
539.367	384.06
539.581	370.06
539.795	359.06
540.009	360.06
540.222	348.06
540.436	370.06
540.65	365.06
540.864	366.06
541.078	377.06
541.292	382.06
541.506	385.06
541.72	367.06
541.934	354.06
542.147	353.06
542.361	357.06
542.575	366.06
542.789	366.06
543.002	362.06
543.216	370.06
543.43	374.06
543.644	369.06
543.857	387.06
544.071	341.06
544.285	353.06
544.498	356.06
544.712	342.06
544.925	373.06
545.139	363.06
545.352	354.06
545.566	364.06
545.779	356.06
545.993	352.06
546.206	355.06
546.42	364.06
546.633	360.06
546.847	338.06
547.06	349.06
547.274	361.06
547.487	337.06
547.7	358.06
547.914	364.06
548.127	360.06
548.34	373.06
548.554	350.06
548.767	361.06
548.98	344.06
549.193	359.06
549.407	353.06
549.62	361.06
549.833	346.06
550.046	359.06
550.259	354.06
550.473	354.06
550.686	352.06
550.899	343.06
551.112	342.06
551.325	340.06
551.538	330.06
551.751	327.06
551.964	341.06
552.177	337.06
552.39	326.06
552.603	332.06
552.816	360.06
553.029	331.06
553.242	351.06
553.455	341.06
553.667	370.06
553.88	370.06
554.093	361.06
554.306	360.06
554.519	342.06
554.732	336.06
554.944	344.06
555.157	341.06
555.37	314.06
555.583	329.06
555.795	332.06
556.008	337.06
556.221	318.06
556.433	334.06
556.646	324.06
556.859	319.06
557.071	316.06
557.284	321.06
557.496	324.06
557.709	327.06
557.921	321.06
558.134	309.06
558.346	317.06
558.559	305.06
558.771	327.06
558.984	287.06
559.196	305.06
559.409	293.06
559.621	308.06
559.833	303.06
560.046	288.06
560.258	321.06
560.47	305.06
560.683	312.06
560.895	301.06
561.107	283.06
561.32	300.06
561.532	321.06
561.744	310.06
561.956	320.06
562.168	316.06
562.381	317.06
562.593	308.06
562.805	313.06
563.017	297.06
563.229	316.06
563.441	322.06
563.653	304.06
563.865	314.06
564.077	328.06
564.289	312.06
564.501	317.06
564.713	320.06
564.925	330.06
565.137	326.06
565.349	322.06
565.561	345.06
565.773	345.06
565.985	315.06
566.197	338.06
566.408	325.06
566.62	341.06
566.832	367.06
567.044	343.06
567.255	364.06
567.467	369.06
567.679	370.06
567.891	376.06
568.102	366.06
568.314	356.06
568.526	336.06
568.737	332.06
568.949	320.06
569.161	305.06
569.372	300.06
569.584	314.06
569.795	317.06
570.007	326.06
570.218	303.06
570.43	331.06
570.641	287.06
570.853	308.06
571.064	286.06
571.276	289.06
571.487	293.06
571.698	308.06
571.91	279.06
572.121	284.06
572.333	292.06
572.544	260.06
572.755	272.06
572.966	278.06
573.178	286.06
573.389	275.06
573.6	280.06
573.811	274.06
574.023	264.06
574.234	236.06
574.445	253.06
574.656	258.06
574.867	262.06
575.078	280.06
575.289	261.06
575.501	256.06
575.712	263.06
575.923	263.06
576.134	256.06
576.345	257.06
576.556	258.06
576.767	276.06
576.978	266.06
577.188	266.06
577.399	250.06
577.61	239.06
577.821	253.06
578.032	247.06
578.243	292.06
578.454	420.06
578.665	342.06
578.875	254.06
579.086	245.06
579.297	254.06
579.508	249.06
579.718	258.06
579.929	270.06
580.14	243.06
580.35	249.06
580.561	234.06
580.772	239.06
580.982	237.06
581.193	253.06
581.403	244.06
581.614	245.06
581.825	231.06
582.035	239.06
582.246	242.06
582.456	262.06
582.667	239.06
582.877	229.06
583.087	229.06
583.298	241.06
583.508	232.06
583.719	230.06
583.929	252.06
584.139	214.06
584.35	228.06
584.56	238.06
584.77	250.06
584.981	233.06
585.191	247.06
585.401	246.06
585.611	236.06
585.821	227.06
586.032	238.06
586.242	231.06
586.452	227.06
586.662	214.06
586.872	249.06
587.082	237.06
587.292	230.06
587.502	241.06
587.713	233.06
587.923	249.06
588.133	234.06
588.343	232.06
588.553	229.06
588.762	238.06
588.972	236.06
589.182	236.06
589.392	242.06
589.602	226.06
589.812	231.06
590.022	226.06
590.232	237.06
590.441	248.06
590.651	214.06
590.861	224.06
591.071	230.06
591.281	218.06
591.49	230.06
591.7	230.06
591.91	229.06
592.119	236.06
592.329	232.06
592.539	258.06
592.748	251.06
592.958	230.06
593.167	244.06
593.377	246.06
593.587	239.06
593.796	223.06
594.006	240.06
594.215	235.06
594.424	224.06
594.634	238.06
594.843	252.06
595.053	236.06
595.262	252.06
595.472	233.06
595.681	246.06
595.89	237.06
596.1	237.06
596.309	220.06
596.518	220.06
596.727	245.06
596.937	220.06
597.146	240.06
597.355	223.06
597.564	210.06
597.774	226.06
597.983	216.06
598.192	217.06
598.401	218.06
598.61	231.06
598.819	224.06
599.028	221.06
599.237	224.06
599.446	210.06
599.655	215.06
599.864	198.06
600.073	208.06
600.282	204.06
600.491	197.06
600.7	203.06
600.909	209.06
601.118	219.06
601.327	208.06
601.536	209.06
601.745	220.06
601.953	212.06
602.162	202.06
602.371	214.06
602.58	219.06
602.789	216.06
602.997	211.06
603.206	225.06
603.415	205.06
603.623	201.06
603.832	220.06
604.041	216.06
604.249	193.06
604.458	199.06
604.666	194.06
604.875	190.06
605.084	207.06
605.292	212.06
605.501	210.06
605.709	204.06
605.918	197.06
606.126	211.06
606.334	209.06
606.543	207.06
606.751	208.06
606.96	209.06
607.168	190.06
607.376	197.06
607.585	196.06
607.793	200.06
608.001	194.06
608.21	196.06
608.418	204.06
608.626	203.06
608.834	214.06
609.043	214.06
609.251	199.06
609.459	219.06
609.667	226.06
609.875	195.06
610.083	208.06
610.291	204.06
610.499	201.06
610.707	199.06
610.916	202.06
611.124	215.06
611.332	203.06
611.54	218.06
611.748	216.06
611.955	196.06
612.163	210.06
612.371	200.06
612.579	197.06
612.787	201.06
612.995	184.06
613.203	223.06
613.411	192.06
613.618	198.06
613.826	212.06
614.034	201.06
614.242	204.06
614.449	201.06
614.657	207.06
614.865	201.06
615.072	193.06
615.28	200.06
615.488	188.06
615.695	201.06
615.903	202.06
616.111	205.06
616.318	215.06
616.526	201.06
616.733	207.06
616.941	195.06
617.148	199.06
617.356	206.06
617.563	200.06
617.771	182.06
617.978	192.06
618.185	182.06
618.393	185.06
618.6	206.06
618.807	192.06
619.015	170.06
619.222	190.06
619.429	196.06
619.637	203.06
619.844	191.06
620.051	184.06
620.258	188.06
620.466	197.06
620.673	190.06
620.88	207.06
621.087	210.06
621.294	184.06
621.501	184.06
621.708	175.06
621.915	168.06
622.122	190.06
622.329	190.06
622.536	193.06
622.743	186.06
622.95	184.06
623.157	188.06
623.364	164.06
623.571	184.06
623.778	189.06
623.985	209.06
624.192	181.06
624.399	186.06
624.606	196.06
624.812	192.06
625.019	183.06
625.226	176.06
625.433	172.06
625.639	176.06
625.846	181.06
626.053	182.06
626.259	187.06
626.466	170.06
626.673	185.06
626.879	170.06
627.086	180.06
627.293	176.06
627.499	173.06
627.706	170.06
627.912	182.06
628.119	181.06
628.325	174.06
628.532	178.06
628.738	184.06
628.945	167.06
629.151	171.06
629.357	184.06
629.564	167.06
629.77	172.06
629.976	165.06
630.183	157.06
630.389	174.06
630.595	184.06
630.802	167.06
631.008	182.06
631.214	155.06
631.42	169.06
631.627	176.06
631.833	163.06
632.039	177.06
632.245	146.06
632.451	158.06
632.657	169.06
632.863	163.06
633.069	151.06
633.275	176.06
633.481	155.06
633.688	181.06
633.893	164.06
634.099	157.06
634.305	153.06
634.511	166.06
634.717	158.06
634.923	149.06
635.129	149.06
635.335	150.06
635.541	166.06
635.747	157.06
635.952	158.06
636.158	156.06
636.364	145.06
636.57	162.06
636.775	149.06
636.981	158.06
637.187	166.06
637.392	169.06
637.598	161.06
637.804	150.06
638.009	151.06
638.215	164.06
638.421	152.06
638.626	147.06
638.832	168.06
639.037	141.06
639.243	162.06
639.448	142.06
639.654	161.06
639.859	158.06
640.065	159.06
640.27	170.06
640.475	148.06
640.681	156.06
640.886	147.06
641.091	163.06
641.297	158.06
641.502	139.06
641.707	153.06
641.913	140.06
642.118	160.06
642.323	147.06
642.528	141.06
642.733	135.06
642.939	150.06
643.144	151.06
643.349	144.06
643.554	142.06
643.759	152.06
643.964	150.06
644.169	141.06
644.374	143.06
644.579	161.06
644.784	157.06
644.989	150.06
645.194	142.06
645.399	146.06
645.604	140.06
645.809	156.06
646.014	151.06
646.219	150.06
646.423	148.06
646.628	154.06
646.833	150.06
647.038	161.06
647.243	154.06
647.447	158.06
647.652	174.06
647.857	153.06
648.062	148.06
648.266	161.06
648.471	150.06
648.676	142.06
648.88	154.06
649.085	161.06
649.289	145.06
649.494	138.06
649.698	163.06
649.903	172.06
650.107	154.06
650.312	138.06
650.516	136.06
650.721	158.06
650.925	140.06
651.13	133.06
651.334	128.06
651.539	142.06
651.743	140.06
651.947	125.06
652.152	135.06
652.356	131.06
652.56	132.06
652.764	137.06
652.969	136.06
653.173	128.06
653.377	130.06
653.581	133.06
653.785	123.06
653.99	152.06
654.194	120.06
654.398	131.06
654.602	134.06
654.806	125.06
655.01	131.06
655.214	132.06
655.418	126.06
655.622	117.06
655.826	118.06
656.03	132.06
656.234	136.06
656.438	118.06
656.642	126.06
656.846	133.06
657.049	136.06
657.253	138.06
657.457	106.06
657.661	117.06
657.865	104.06
658.068	104.06
658.272	91.06
658.476	100.06
658.68	98.06
658.883	102.06
659.087	94.06
659.291	111.06
659.494	87.06
659.698	108.06
659.901	104.06
660.105	87.06
660.309	97.06
660.512	95.06
660.716	91.06
660.919	86.06
661.123	97.06
661.326	89.06
661.53	94.06
661.733	84.06
661.936	85.06
662.14	93.06
662.343	89.06
662.546	90.06
662.75	77.06
662.953	77.06
663.156	94.06
663.36	88.06
663.563	88.06
663.766	94.06
663.969	85.06
664.173	86.06
664.376	79.06
664.579	100.06
664.782	99.06
664.985	89.06
665.188	107.06
665.391	94.06
665.594	91.06
665.797	76.06
666	81.06
666.203	76.06
666.406	87.06
666.609	82.06
666.812	80.06
667.015	63.06
667.218	94.06
667.421	96.06
667.624	102.06
667.827	82.06
668.03	84.06
668.232	83.06
668.435	82.06
668.638	77.06
668.841	95.06
669.043	94.06
669.246	93.06
669.449	89.06
669.651	81.06
669.854	89.06
670.057	95.06
670.259	89.06
670.462	78.06
670.665	83.06
670.867	101.06
671.07	79.06
671.272	98.06
671.475	75.06
671.677	80.06
671.88	89.06
672.082	84.06
672.284	92.06
672.487	88.06
672.689	77.06
672.892	78.06
