Data from 1971.PennyLincolnUp.Lamp.En5.5.200Scan.071719.P1._HRD10591_15-19-35-842.txt Node
Date: Thu Jul 18 15:19:35 EDT 2019
User: cochatt
Spectrometer: HR+D1059
Trigger mode: 1
Integration Time (sec): 1.000000E-1
Scans to average: 1
Electric dark correction enabled: true
Nonlinearity correction enabled: false
Boxcar width: 0
XAxis mode: Wavelengths
Number of Pixels in Spectrum: 2048
>>>>>Begin Spectral Data<<<<<
223.165	-10.12
223.4	-10.12
223.635	-10.12
223.869	-20.12
224.104	-27.12
224.338	-9.12
224.573	-15.12
224.808	3.88
225.042	-16.12
225.277	-10.12
225.511	-15.12
225.746	-1.12
225.98	1.88
226.215	22.88
226.449	17.88
226.683	25.88
226.918	18.88
227.152	32.88
227.387	30.88
227.621	33.88
227.856	48.88
228.09	42.88
228.324	49.88
228.559	60.88
228.793	75.88
229.027	100.88
229.262	105.88
229.496	119.88
229.73	124.88
229.964	141.88
230.199	116.88
230.433	119.88
230.667	128.88
230.901	126.88
231.136	122.88
231.37	99.88
231.604	116.88
231.838	110.88
232.072	104.88
232.306	101.88
232.541	100.88
232.775	92.88
233.009	113.88
233.243	113.88
233.477	121.88
233.711	120.88
233.945	120.88
234.179	119.88
234.413	109.88
234.647	122.88
234.881	120.88
235.115	126.88
235.349	125.88
235.583	110.88
235.817	120.88
236.051	126.88
236.285	127.88
236.519	136.88
236.753	125.88
236.987	141.88
237.221	172.88
237.455	216.88
237.689	182.88
237.922	140.88
238.156	140.88
238.39	133.88
238.624	133.88
238.858	121.88
239.091	126.88
239.325	133.88
239.559	129.88
239.793	123.88
240.027	128.88
240.26	130.88
240.494	159.88
240.728	145.88
240.961	146.88
241.195	141.88
241.429	135.88
241.662	142.88
241.896	142.88
242.13	136.88
242.363	133.88
242.597	126.88
242.83	133.88
243.064	144.88
243.298	139.88
243.531	138.88
243.765	144.88
243.998	144.88
244.232	118.88
244.465	137.88
244.699	150.88
244.932	139.88
245.166	152.88
245.399	142.88
245.633	147.88
245.866	142.88
246.099	156.88
246.333	155.88
246.566	156.88
246.8	161.88
247.033	166.88
247.266	170.88
247.5	166.88
247.733	180.88
247.966	179.88
248.2	158.88
248.433	166.88
248.666	184.88
248.899	192.88
249.133	181.88
249.366	218.88
249.599	205.88
249.832	170.88
250.066	196.88
250.299	180.88
250.532	187.88
250.765	194.88
250.998	233.88
251.231	234.88
251.465	220.88
251.698	205.88
251.931	212.88
252.164	198.88
252.397	214.88
252.63	211.88
252.863	221.88
253.096	222.88
253.329	223.88
253.562	231.88
253.795	232.88
254.028	235.88
254.261	228.88
254.494	225.88
254.727	267.88
254.96	276.88
255.193	277.88
255.426	246.88
255.659	233.88
255.892	248.88
256.124	249.88
256.357	228.88
256.59	244.88
256.823	232.88
257.056	218.88
257.289	230.88
257.521	221.88
257.754	231.88
257.987	230.88
258.22	219.88
258.452	222.88
258.685	220.88
258.918	219.88
259.151	203.88
259.383	243.88
259.616	244.88
259.849	215.88
260.081	238.88
260.314	272.88
260.547	270.88
260.779	252.88
261.012	246.88
261.244	220.88
261.477	233.88
261.71	233.88
261.942	234.88
262.175	249.88
262.407	218.88
262.64	222.88
262.872	227.88
263.105	230.88
263.337	219.88
263.57	235.88
263.802	224.88
264.035	211.88
264.267	204.88
264.499	221.88
264.732	216.88
264.964	209.88
265.197	216.88
265.429	216.88
265.661	223.88
265.894	233.88
266.126	232.88
266.358	225.88
266.591	226.88
266.823	239.88
267.055	233.88
267.287	238.88
267.52	252.88
267.752	240.88
267.984	242.88
268.216	239.88
268.448	254.88
268.681	237.88
268.913	280.88
269.145	279.88
269.377	278.88
269.609	264.88
269.841	273.88
270.073	290.88
270.306	296.88
270.538	309.88
270.77	334.88
271.002	301.88
271.234	311.88
271.466	313.88
271.698	319.88
271.93	313.88
272.162	327.88
272.394	331.88
272.626	316.88
272.858	314.88
273.09	288.88
273.322	262.88
273.553	270.88
273.785	282.88
274.017	264.88
274.249	270.88
274.481	294.88
274.713	282.88
274.945	277.88
275.176	286.88
275.408	280.88
275.64	287.88
275.872	264.88
276.104	264.88
276.335	289.88
276.567	273.88
276.799	297.88
277.031	305.88
277.262	314.88
277.494	321.88
277.726	316.88
277.957	301.88
278.189	304.88
278.421	280.88
278.652	287.88
278.884	277.88
279.115	275.88
279.347	283.88
279.579	282.88
279.81	270.88
280.042	297.88
280.273	289.88
280.505	270.88
280.736	286.88
280.968	286.88
281.199	288.88
281.431	294.88
281.662	281.88
281.894	287.88
282.125	279.88
282.356	291.88
282.588	298.88
282.819	306.88
283.051	277.88
283.282	281.88
283.513	286.88
283.745	279.88
283.976	290.88
284.207	303.88
284.439	293.88
284.67	308.88
284.901	278.88
285.132	282.88
285.364	283.88
285.595	293.88
285.826	286.88
286.057	307.88
286.288	297.88
286.52	300.88
286.751	297.88
286.982	303.88
287.213	286.88
287.444	306.88
287.675	296.88
287.906	306.88
288.138	309.88
288.369	300.88
288.6	328.88
288.831	319.88
289.062	315.88
289.293	286.88
289.524	295.88
289.755	308.88
289.986	288.88
290.217	284.88
290.448	301.88
290.679	302.88
290.91	299.88
291.141	304.88
291.371	315.88
291.602	272.88
291.833	288.88
292.064	291.88
292.295	298.88
292.526	301.88
292.757	296.88
292.987	288.88
293.218	295.88
293.449	289.88
293.68	287.88
293.91	301.88
294.141	300.88
294.372	300.88
294.603	309.88
294.833	296.88
295.064	284.88
295.295	298.88
295.525	308.88
295.756	304.88
295.987	316.88
296.217	328.88
296.448	325.88
296.679	328.88
296.909	297.88
297.14	312.88
297.37	293.88
297.601	291.88
297.831	309.88
298.062	323.88
298.292	296.88
298.523	305.88
298.753	320.88
298.984	306.88
299.214	316.88
299.445	313.88
299.675	325.88
299.905	320.88
300.136	319.88
300.366	333.88
300.597	332.88
300.827	319.88
301.057	311.88
301.288	327.88
301.518	326.88
301.748	328.88
301.979	346.88
302.209	339.88
302.439	333.88
302.669	344.88
302.9	335.88
303.13	321.88
303.36	336.88
303.59	323.88
303.82	333.88
304.051	337.88
304.281	323.88
304.511	328.88
304.741	333.88
304.971	347.88
305.201	341.88
305.431	321.88
305.661	337.88
305.891	355.88
306.121	345.88
306.352	341.88
306.582	358.88
306.812	344.88
307.042	357.88
307.272	332.88
307.502	337.88
307.731	348.88
307.961	344.88
308.191	358.88
308.421	347.88
308.651	340.88
308.881	345.88
309.111	347.88
309.341	393.88
309.571	360.88
309.8	372.88
310.03	373.88
310.26	394.88
310.49	383.88
310.72	390.88
310.949	392.88
311.179	393.88
311.409	383.88
311.639	376.88
311.868	378.88
312.098	398.88
312.328	396.88
312.557	399.88
312.787	424.88
313.017	422.88
313.246	402.88
313.476	377.88
313.706	393.88
313.935	387.88
314.165	388.88
314.394	386.88
314.624	393.88
314.853	403.88
315.083	394.88
315.312	384.88
315.542	380.88
315.771	373.88
316.001	398.88
316.23	382.88
316.46	379.88
316.689	389.88
316.919	382.88
317.148	382.88
317.377	386.88
317.607	383.88
317.836	405.88
318.065	381.88
318.295	405.88
318.524	393.88
318.753	403.88
318.983	400.88
319.212	392.88
319.441	381.88
319.67	380.88
319.9	385.88
320.129	387.88
320.358	408.88
320.587	409.88
320.816	395.88
321.046	397.88
321.275	416.88
321.504	408.88
321.733	408.88
321.962	411.88
322.191	432.88
322.42	428.88
322.649	452.88
322.878	438.88
323.108	450.88
323.337	478.88
323.566	495.88
323.795	513.88
324.024	569.88
324.253	680.88
324.482	945.88
324.71	1405.88
324.939	1895.88
325.168	1616.88
325.397	872.88
325.626	616.88
325.855	529.88
326.084	540.88
326.313	497.88
326.542	507.88
326.77	564.88
326.999	658.88
327.228	875.88
327.457	1292.88
327.686	1428.88
327.914	948.88
328.143	670.88
328.372	596.88
328.6	554.88
328.829	528.88
329.058	570.88
329.287	561.88
329.515	541.88
329.744	505.88
329.972	508.88
330.201	502.88
330.43	546.88
330.658	553.88
330.887	576.88
331.115	562.88
331.344	512.88
331.572	482.88
331.801	477.88
332.03	487.88
332.258	454.88
332.486	471.88
332.715	460.88
332.943	445.88
333.172	459.88
333.4	456.88
333.629	454.88
333.857	495.88
334.085	488.88
334.314	487.88
334.542	514.88
334.771	504.88
334.999	481.88
335.227	471.88
335.455	452.88
335.684	456.88
335.912	449.88
336.14	449.88
336.369	450.88
336.597	453.88
336.825	450.88
337.053	423.88
337.281	434.88
337.51	424.88
337.738	424.88
337.966	417.88
338.194	419.88
338.422	426.88
338.65	421.88
338.878	461.88
339.106	422.88
339.334	441.88
339.562	402.88
339.79	427.88
340.018	419.88
340.246	424.88
340.474	428.88
340.702	409.88
340.93	433.88
341.158	420.88
341.386	428.88
341.614	428.88
341.842	399.88
342.07	422.88
342.298	422.88
342.526	434.88
342.754	411.88
342.981	398.88
343.209	398.88
343.437	411.88
343.665	428.88
343.893	432.88
344.12	432.88
344.348	413.88
344.576	414.88
344.804	426.88
345.031	433.88
345.259	441.88
345.487	433.88
345.714	416.88
345.942	403.88
346.17	394.88
346.397	416.88
346.625	416.88
346.853	398.88
347.08	384.88
347.308	414.88
347.535	418.88
347.763	397.88
347.99	403.88
348.218	391.88
348.445	426.88
348.673	405.88
348.9	380.88
349.128	410.88
349.355	394.88
349.583	407.88
349.81	402.88
350.037	398.88
350.265	392.88
350.492	386.88
350.72	378.88
350.947	369.88
351.174	392.88
351.402	398.88
351.629	401.88
351.856	406.88
352.083	404.88
352.311	411.88
352.538	410.88
352.765	403.88
352.992	393.88
353.22	413.88
353.447	415.88
353.674	370.88
353.901	363.88
354.128	382.88
354.355	395.88
354.583	392.88
354.81	389.88
355.037	405.88
355.264	364.88
355.491	360.88
355.718	373.88
355.945	382.88
356.172	368.88
356.399	378.88
356.626	367.88
356.853	382.88
357.08	384.88
357.307	370.88
357.534	371.88
357.761	373.88
357.988	376.88
358.215	378.88
358.441	373.88
358.668	370.88
358.895	390.88
359.122	369.88
359.349	393.88
359.576	396.88
359.802	425.88
360.029	422.88
360.256	430.88
360.483	420.88
360.709	385.88
360.936	393.88
361.163	384.88
361.39	385.88
361.616	398.88
361.843	391.88
362.07	385.88
362.296	388.88
362.523	381.88
362.749	396.88
362.976	390.88
363.203	391.88
363.429	369.88
363.656	393.88
363.882	358.88
364.109	379.88
364.335	396.88
364.562	364.88
364.788	381.88
365.015	388.88
365.241	375.88
365.468	390.88
365.694	389.88
365.92	394.88
366.147	358.88
366.373	380.88
366.599	347.88
366.826	357.88
367.052	384.88
367.278	368.88
367.505	362.88
367.731	369.88
367.957	372.88
368.184	352.88
368.41	380.88
368.636	394.88
368.862	384.88
369.089	377.88
369.315	388.88
369.541	357.88
369.767	366.88
369.993	370.88
370.219	361.88
370.445	375.88
370.672	377.88
370.898	365.88
371.124	359.88
371.35	362.88
371.576	361.88
371.802	366.88
372.028	361.88
372.254	384.88
372.48	356.88
372.706	376.88
372.932	357.88
373.158	359.88
373.384	368.88
373.61	361.88
373.835	370.88
374.061	366.88
374.287	369.88
374.513	372.88
374.739	374.88
374.965	354.88
375.191	381.88
375.416	379.88
375.642	361.88
375.868	358.88
376.094	364.88
376.319	369.88
376.545	363.88
376.771	377.88
376.997	355.88
377.222	380.88
377.448	362.88
377.674	364.88
377.899	362.88
378.125	343.88
378.35	346.88
378.576	373.88
378.802	350.88
379.027	342.88
379.253	378.88
379.478	376.88
379.704	365.88
379.929	374.88
380.155	353.88
380.38	348.88
380.606	350.88
380.831	353.88
381.057	365.88
381.282	366.88
381.507	342.88
381.733	354.88
381.958	356.88
382.184	350.88
382.409	381.88
382.634	364.88
382.86	348.88
383.085	338.88
383.31	368.88
383.535	380.88
383.761	348.88
383.986	372.88
384.211	366.88
384.436	370.88
384.662	359.88
384.887	372.88
385.112	382.88
385.337	375.88
385.562	388.88
385.787	363.88
386.013	381.88
386.238	416.88
386.463	379.88
386.688	392.88
386.913	386.88
387.138	378.88
387.363	393.88
387.588	398.88
387.813	381.88
388.038	380.88
388.263	390.88
388.488	394.88
388.713	358.88
388.938	370.88
389.163	368.88
389.387	390.88
389.612	388.88
389.837	389.88
390.062	369.88
390.287	372.88
390.512	352.88
390.736	384.88
390.961	382.88
391.186	372.88
391.411	364.88
391.636	386.88
391.86	381.88
392.085	378.88
392.31	376.88
392.534	380.88
392.759	402.88
392.984	383.88
393.208	389.88
393.433	378.88
393.658	374.88
393.882	375.88
394.107	369.88
394.331	360.88
394.556	376.88
394.78	380.88
395.005	392.88
395.229	372.88
395.454	381.88
395.678	389.88
395.903	420.88
396.127	401.88
396.352	436.88
396.576	385.88
396.801	398.88
397.025	399.88
397.249	398.88
397.474	401.88
397.698	392.88
397.922	416.88
398.147	427.88
398.371	423.88
398.595	424.88
398.82	402.88
399.044	424.88
399.268	452.88
399.492	474.88
399.717	481.88
399.941	490.88
400.165	519.88
400.389	513.88
400.613	475.88
400.837	458.88
401.062	424.88
401.286	426.88
401.51	408.88
401.734	414.88
401.958	405.88
402.182	425.88
402.406	434.88
402.63	432.88
402.854	417.88
403.078	432.88
403.302	441.88
403.526	450.88
403.75	424.88
403.974	438.88
404.198	426.88
404.422	430.88
404.645	454.88
404.869	436.88
405.093	476.88
405.317	502.88
405.541	500.88
405.765	481.88
405.988	460.88
406.212	465.88
406.436	481.88
406.66	470.88
406.883	462.88
407.107	472.88
407.331	500.88
407.555	540.88
407.778	554.88
408.002	518.88
408.226	469.88
408.449	483.88
408.673	466.88
408.896	487.88
409.12	544.88
409.344	464.88
409.567	456.88
409.791	447.88
410.014	424.88
410.238	430.88
410.461	436.88
410.685	427.88
410.908	446.88
411.132	468.88
411.355	489.88
411.578	488.88
411.802	434.88
412.025	421.88
412.249	447.88
412.472	442.88
412.695	477.88
412.919	480.88
413.142	437.88
413.365	428.88
413.589	415.88
413.812	425.88
414.035	414.88
414.258	427.88
414.482	413.88
414.705	414.88
414.928	379.88
415.151	410.88
415.374	406.88
415.597	399.88
415.821	415.88
416.044	392.88
416.267	440.88
416.49	406.88
416.713	403.88
416.936	412.88
417.159	396.88
417.382	420.88
417.605	400.88
417.828	410.88
418.051	436.88
418.274	425.88
418.497	423.88
418.72	414.88
418.943	418.88
419.166	424.88
419.389	447.88
419.611	451.88
419.834	423.88
420.057	451.88
420.28	443.88
420.503	439.88
420.726	423.88
420.948	444.88
421.171	459.88
421.394	492.88
421.617	452.88
421.839	412.88
422.062	440.88
422.285	448.88
422.507	478.88
422.73	526.88
422.953	505.88
423.175	471.88
423.398	447.88
423.621	452.88
423.843	467.88
424.066	440.88
424.288	445.88
424.511	474.88
424.733	542.88
424.956	557.88
425.178	550.88
425.401	544.88
425.623	561.88
425.846	494.88
426.068	466.88
426.291	469.88
426.513	463.88
426.735	482.88
426.958	509.88
427.18	556.88
427.402	654.88
427.625	731.88
427.847	625.88
428.069	538.88
428.292	514.88
428.514	461.88
428.736	432.88
428.958	414.88
429.181	401.88
429.403	424.88
429.625	423.88
429.847	457.88
430.069	489.88
430.292	509.88
430.514	432.88
430.736	409.88
430.958	413.88
431.18	402.88
431.402	392.88
431.624	383.88
431.846	390.88
432.068	377.88
432.29	394.88
432.512	400.88
432.734	407.88
432.956	406.88
433.178	416.88
433.4	409.88
433.622	399.88
433.844	393.88
434.066	403.88
434.287	389.88
434.509	418.88
434.731	398.88
434.953	404.88
435.175	431.88
435.397	448.88
435.618	452.88
435.84	473.88
436.062	545.88
436.284	604.88
436.505	518.88
436.727	448.88
436.949	422.88
437.17	438.88
437.392	433.88
437.614	436.88
437.835	467.88
438.057	544.88
438.278	608.88
438.5	608.88
438.721	666.88
438.943	616.88
439.165	514.88
439.386	485.88
439.608	462.88
439.829	447.88
440.05	472.88
440.272	504.88
440.493	464.88
440.715	450.88
440.936	432.88
441.158	424.88
441.379	423.88
441.6	427.88
441.822	451.88
442.043	466.88
442.264	551.88
442.486	582.88
442.707	504.88
442.928	456.88
443.149	476.88
443.371	484.88
443.592	522.88
443.813	592.88
444.034	636.88
444.255	508.88
444.476	471.88
444.698	470.88
444.919	451.88
445.14	577.88
445.361	531.88
445.582	509.88
445.803	550.88
446.024	604.88
446.245	610.88
446.466	585.88
446.687	485.88
446.908	450.88
447.129	431.88
447.35	445.88
447.571	423.88
447.792	418.88
448.013	421.88
448.234	446.88
448.455	473.88
448.675	572.88
448.896	632.88
449.117	560.88
449.338	510.88
449.559	627.88
449.779	704.88
450	559.88
450.221	465.88
450.442	440.88
450.662	419.88
450.883	431.88
451.104	431.88
451.324	418.88
451.545	397.88
451.766	408.88
451.986	397.88
452.207	386.88
452.428	382.88
452.648	384.88
452.869	383.88
453.089	375.88
453.31	386.88
453.53	357.88
453.751	365.88
453.971	376.88
454.192	396.88
454.412	373.88
454.633	368.88
454.853	372.88
455.073	377.88
455.294	388.88
455.514	450.88
455.734	426.88
455.955	378.88
456.175	368.88
456.395	344.88
456.616	357.88
456.836	341.88
457.056	354.88
457.276	356.88
457.497	355.88
457.717	361.88
457.937	360.88
458.157	374.88
458.377	374.88
458.598	379.88
458.818	431.88
459.038	480.88
459.258	492.88
459.478	403.88
459.698	416.88
459.918	384.88
460.138	376.88
460.358	391.88
460.578	386.88
460.798	393.88
461.018	390.88
461.238	393.88
461.458	389.88
461.678	395.88
461.898	394.88
462.118	413.88
462.338	394.88
462.558	387.88
462.777	406.88
462.997	434.88
463.217	448.88
463.437	432.88
463.657	412.88
463.876	424.88
464.096	416.88
464.316	406.88
464.536	416.88
464.755	418.88
464.975	406.88
465.195	454.88
465.414	487.88
465.634	424.88
465.854	393.88
466.073	405.88
466.293	373.88
466.512	378.88
466.732	384.88
466.951	380.88
467.171	390.88
467.391	388.88
467.61	395.88
467.829	393.88
468.049	378.88
468.268	389.88
468.488	387.88
468.707	381.88
468.927	357.88
469.146	365.88
469.365	377.88
469.585	371.88
469.804	384.88
470.023	388.88
470.243	384.88
470.462	380.88
470.681	400.88
470.901	386.88
471.12	383.88
471.339	367.88
471.558	396.88
471.777	406.88
471.997	380.88
472.216	395.88
472.435	394.88
472.654	401.88
472.873	373.88
473.092	388.88
473.311	398.88
473.53	389.88
473.749	397.88
473.968	429.88
474.187	527.88
474.406	524.88
474.625	445.88
474.844	390.88
475.063	392.88
475.282	404.88
475.501	382.88
475.72	393.88
475.939	405.88
476.158	407.88
476.377	398.88
476.596	377.88
476.814	392.88
477.033	413.88
477.252	421.88
477.471	413.88
477.69	400.88
477.908	409.88
478.127	403.88
478.346	413.88
478.564	436.88
478.783	422.88
479.002	420.88
479.22	424.88
479.439	465.88
479.658	439.88
479.876	455.88
480.095	456.88
480.313	457.88
480.532	489.88
480.751	447.88
480.969	456.88
481.188	501.88
481.406	496.88
481.624	492.88
481.843	442.88
482.061	432.88
482.28	428.88
482.498	465.88
482.717	420.88
482.935	460.88
483.153	459.88
483.372	433.88
483.59	461.88
483.808	430.88
484.027	442.88
484.245	453.88
484.463	448.88
484.681	446.88
484.9	455.88
485.118	453.88
485.336	450.88
485.554	454.88
485.772	464.88
485.99	462.88
486.209	441.88
486.427	444.88
486.645	461.88
486.863	475.88
487.081	484.88
487.299	478.88
487.517	490.88
487.735	467.88
487.953	469.88
488.171	489.88
488.389	469.88
488.607	486.88
488.825	462.88
489.043	492.88
489.261	479.88
489.479	469.88
489.696	480.88
489.914	492.88
490.132	501.88
490.35	526.88
490.568	509.88
490.786	487.88
491.003	524.88
491.221	541.88
491.439	552.88
491.657	550.88
491.874	524.88
492.092	571.88
492.31	538.88
492.527	558.88
492.745	576.88
492.963	568.88
493.18	555.88
493.398	574.88
493.615	573.88
493.833	584.88
494.05	566.88
494.268	570.88
494.485	567.88
494.703	575.88
494.92	574.88
495.138	557.88
495.355	560.88
495.573	575.88
495.79	580.88
496.008	571.88
496.225	573.88
496.442	572.88
496.66	564.88
496.877	543.88
497.094	564.88
497.312	574.88
497.529	576.88
497.746	583.88
497.963	582.88
498.181	594.88
498.398	585.88
498.615	609.88
498.832	636.88
499.049	605.88
499.267	652.88
499.484	644.88
499.701	694.88
499.918	666.88
500.135	745.88
500.352	730.88
500.569	764.88
500.786	770.88
501.003	749.88
501.22	726.88
501.437	693.88
501.654	708.88
501.871	678.88
502.088	673.88
502.305	644.88
502.522	616.88
502.739	611.88
502.956	577.88
503.172	583.88
503.389	582.88
503.606	574.88
503.823	582.88
504.04	573.88
504.256	573.88
504.473	545.88
504.69	562.88
504.907	556.88
505.123	569.88
505.34	534.88
505.557	551.88
505.773	548.88
505.99	564.88
506.207	547.88
506.423	538.88
506.64	553.88
506.856	517.88
507.073	527.88
507.289	529.88
507.506	555.88
507.722	514.88
507.939	536.88
508.155	545.88
508.372	518.88
508.588	494.88
508.805	511.88
509.021	529.88
509.238	523.88
509.454	527.88
509.67	529.88
509.887	517.88
510.103	521.88
510.319	525.88
510.536	599.88
510.752	892.88
510.968	698.88
511.184	514.88
511.401	478.88
511.617	482.88
511.833	469.88
512.049	474.88
512.265	478.88
512.481	478.88
512.698	491.88
512.914	473.88
513.13	481.88
513.346	464.88
513.562	486.88
513.778	481.88
513.994	478.88
514.21	482.88
514.426	505.88
514.642	512.88
514.858	548.88
515.074	581.88
515.29	673.88
515.506	932.88
515.721	751.88
515.937	554.88
516.153	537.88
516.369	524.88
516.585	516.88
516.801	498.88
517.016	468.88
517.232	477.88
517.448	505.88
517.664	491.88
517.879	494.88
518.095	474.88
518.311	483.88
518.527	475.88
518.742	502.88
518.958	470.88
519.173	479.88
519.389	469.88
519.605	482.88
519.82	494.88
520.036	482.88
520.251	492.88
520.467	518.88
520.682	497.88
520.898	522.88
521.113	526.88
521.329	587.88
521.544	629.88
521.76	752.88
521.975	1238.88
522.19	1156.88
522.406	668.88
522.621	550.88
522.836	489.88
523.052	484.88
523.267	471.88
523.482	449.88
523.698	422.88
523.913	431.88
524.128	438.88
524.343	433.88
524.559	424.88
524.774	411.88
524.989	413.88
525.204	423.88
525.419	417.88
525.634	415.88
525.849	416.88
526.064	407.88
526.28	401.88
526.495	388.88
526.71	392.88
526.925	379.88
527.14	397.88
527.355	399.88
527.57	394.88
527.785	398.88
527.999	399.88
528.214	395.88
528.429	394.88
528.644	405.88
528.859	387.88
529.074	405.88
529.289	432.88
529.503	469.88
529.718	435.88
529.933	409.88
530.148	404.88
530.363	395.88
530.577	397.88
530.792	385.88
531.007	388.88
531.221	374.88
531.436	385.88
531.651	395.88
531.865	366.88
532.08	377.88
532.295	367.88
532.509	377.88
532.724	346.88
532.938	376.88
533.153	388.88
533.367	377.88
533.582	376.88
533.796	387.88
534.011	364.88
534.225	377.88
534.44	381.88
534.654	365.88
534.868	362.88
535.083	360.88
535.297	358.88
535.511	383.88
535.726	394.88
535.94	384.88
536.154	364.88
536.369	374.88
536.583	358.88
536.797	374.88
537.011	356.88
537.225	379.88
537.44	369.88
537.654	368.88
537.868	350.88
538.082	367.88
538.296	365.88
538.51	356.88
538.724	368.88
538.938	362.88
539.153	398.88
539.367	368.88
539.581	375.88
539.795	357.88
540.009	361.88
540.222	361.88
540.436	356.88
540.65	350.88
540.864	356.88
541.078	362.88
541.292	385.88
541.506	381.88
541.72	358.88
541.934	386.88
542.147	383.88
542.361	380.88
542.575	360.88
542.789	366.88
543.002	357.88
543.216	382.88
543.43	378.88
543.644	372.88
543.857	377.88
544.071	381.88
544.285	384.88
544.498	372.88
544.712	368.88
544.925	378.88
545.139	384.88
545.352	356.88
545.566	357.88
545.779	377.88
545.993	360.88
546.206	386.88
546.42	359.88
546.633	358.88
546.847	359.88
547.06	354.88
547.274	340.88
547.487	365.88
547.7	356.88
547.914	367.88
548.127	358.88
548.34	372.88
548.554	357.88
548.767	350.88
548.98	344.88
549.193	363.88
549.407	353.88
549.62	340.88
549.833	367.88
550.046	344.88
550.259	358.88
550.473	364.88
550.686	347.88
550.899	346.88
551.112	345.88
551.325	337.88
551.538	341.88
551.751	325.88
551.964	343.88
552.177	354.88
552.39	351.88
552.603	346.88
552.816	336.88
553.029	343.88
553.242	347.88
553.455	362.88
553.667	368.88
553.88	374.88
554.093	356.88
554.306	357.88
554.519	345.88
554.732	343.88
554.944	354.88
555.157	353.88
555.37	334.88
555.583	330.88
555.795	328.88
556.008	324.88
556.221	325.88
556.433	324.88
556.646	322.88
556.859	313.88
557.071	332.88
557.284	327.88
557.496	317.88
557.709	322.88
557.921	323.88
558.134	318.88
558.346	310.88
558.559	317.88
558.771	323.88
558.984	321.88
559.196	321.88
559.409	296.88
559.621	312.88
559.833	313.88
560.046	304.88
560.258	302.88
560.47	296.88
560.683	318.88
560.895	316.88
561.107	295.88
561.32	316.88
561.532	300.88
561.744	321.88
561.956	324.88
562.168	317.88
562.381	314.88
562.593	310.88
562.805	321.88
563.017	302.88
563.229	314.88
563.441	319.88
563.653	310.88
563.865	324.88
564.077	319.88
564.289	287.88
564.501	329.88
564.713	335.88
564.925	328.88
565.137	343.88
565.349	334.88
565.561	321.88
565.773	331.88
565.985	347.88
566.197	356.88
566.408	353.88
566.62	358.88
566.832	332.88
567.044	367.88
567.255	358.88
567.467	347.88
567.679	370.88
567.891	363.88
568.102	372.88
568.314	382.88
568.526	347.88
568.737	333.88
568.949	349.88
569.161	349.88
569.372	313.88
569.584	301.88
569.795	314.88
570.007	288.88
570.218	332.88
570.43	328.88
570.641	311.88
570.853	290.88
571.064	311.88
571.276	288.88
571.487	287.88
571.698	305.88
571.91	297.88
572.121	288.88
572.333	283.88
572.544	282.88
572.755	271.88
572.966	262.88
573.178	280.88
573.389	269.88
573.6	265.88
573.811	267.88
574.023	253.88
574.234	258.88
574.445	259.88
574.656	253.88
574.867	270.88
575.078	248.88
575.289	263.88
575.501	272.88
575.712	253.88
575.923	252.88
576.134	263.88
576.345	267.88
576.556	242.88
576.767	242.88
576.978	262.88
577.188	277.88
577.399	268.88
577.61	268.88
577.821	268.88
578.032	267.88
578.243	288.88
578.454	444.88
578.665	313.88
578.875	249.88
579.086	246.88
579.297	246.88
579.508	257.88
579.718	247.88
579.929	271.88
580.14	229.88
580.35	249.88
580.561	237.88
580.772	229.88
580.982	250.88
581.193	230.88
581.403	239.88
581.614	254.88
581.825	245.88
582.035	242.88
582.246	248.88
582.456	247.88
582.667	257.88
582.877	238.88
583.087	228.88
583.298	250.88
583.508	226.88
583.719	233.88
583.929	238.88
584.139	232.88
584.35	228.88
584.56	246.88
584.77	238.88
584.981	242.88
585.191	234.88
585.401	239.88
585.611	233.88
585.821	238.88
586.032	240.88
586.242	229.88
586.452	227.88
586.662	243.88
586.872	234.88
587.082	226.88
587.292	224.88
587.502	214.88
587.713	246.88
587.923	237.88
588.133	244.88
588.343	244.88
588.553	224.88
588.762	235.88
588.972	233.88
589.182	236.88
589.392	233.88
589.602	242.88
589.812	223.88
590.022	233.88
590.232	231.88
590.441	216.88
590.651	232.88
590.861	232.88
591.071	244.88
591.281	235.88
591.49	214.88
591.7	236.88
591.91	227.88
592.119	219.88
592.329	245.88
592.539	260.88
592.748	245.88
592.958	256.88
593.167	237.88
593.377	230.88
593.587	250.88
593.796	235.88
594.006	232.88
594.215	247.88
594.424	247.88
594.634	238.88
594.843	240.88
595.053	220.88
595.262	230.88
595.472	219.88
595.681	222.88
595.89	216.88
596.1	217.88
596.309	234.88
596.518	225.88
596.727	225.88
596.937	218.88
597.146	241.88
597.355	217.88
597.564	231.88
597.774	219.88
597.983	241.88
598.192	223.88
598.401	230.88
598.61	218.88
598.819	226.88
599.028	225.88
599.237	216.88
599.446	214.88
599.655	212.88
599.864	209.88
600.073	225.88
600.282	202.88
600.491	210.88
600.7	213.88
600.909	233.88
601.118	207.88
601.327	212.88
601.536	206.88
601.745	224.88
601.953	221.88
602.162	214.88
602.371	214.88
602.58	214.88
602.789	208.88
602.997	204.88
603.206	213.88
603.415	204.88
603.623	216.88
603.832	213.88
604.041	224.88
604.249	200.88
604.458	196.88
604.666	200.88
604.875	201.88
605.084	204.88
605.292	228.88
605.501	197.88
605.709	228.88
605.918	203.88
606.126	203.88
606.334	195.88
606.543	199.88
606.751	235.88
606.96	211.88
607.168	210.88
607.376	223.88
607.585	209.88
607.793	213.88
608.001	209.88
608.21	206.88
608.418	223.88
608.626	205.88
608.834	188.88
609.043	215.88
609.251	209.88
609.459	205.88
609.667	210.88
609.875	220.88
610.083	187.88
610.291	201.88
610.499	202.88
610.707	196.88
610.916	205.88
611.124	202.88
611.332	213.88
611.54	218.88
611.748	209.88
611.955	206.88
612.163	214.88
612.371	222.88
612.579	205.88
612.787	190.88
612.995	215.88
613.203	209.88
613.411	210.88
613.618	196.88
613.826	205.88
614.034	195.88
614.242	197.88
614.449	194.88
614.657	213.88
614.865	201.88
615.072	200.88
615.28	194.88
615.488	213.88
615.695	201.88
615.903	196.88
616.111	186.88
616.318	208.88
616.526	196.88
616.733	209.88
616.941	210.88
617.148	226.88
617.356	194.88
617.563	212.88
617.771	198.88
617.978	190.88
618.185	190.88
618.393	184.88
618.6	207.88
618.807	194.88
619.015	208.88
619.222	208.88
619.429	204.88
619.637	188.88
619.844	198.88
620.051	196.88
620.258	185.88
620.466	198.88
620.673	204.88
620.88	175.88
621.087	194.88
621.294	191.88
621.501	193.88
621.708	185.88
621.915	173.88
622.122	192.88
622.329	203.88
622.536	199.88
622.743	191.88
622.95	181.88
623.157	171.88
623.364	188.88
623.571	207.88
623.778	185.88
623.985	182.88
624.192	180.88
624.399	189.88
624.606	185.88
624.812	184.88
625.019	200.88
625.226	190.88
625.433	193.88
625.639	178.88
625.846	171.88
626.053	187.88
626.259	181.88
626.466	172.88
626.673	170.88
626.879	160.88
627.086	186.88
627.293	183.88
627.499	180.88
627.706	178.88
627.912	160.88
628.119	174.88
628.325	184.88
628.532	187.88
628.738	178.88
628.945	182.88
629.151	178.88
629.357	179.88
629.564	175.88
629.77	174.88
629.976	171.88
630.183	184.88
630.389	177.88
630.595	187.88
630.802	161.88
631.008	193.88
631.214	163.88
631.42	166.88
631.627	164.88
631.833	168.88
632.039	166.88
632.245	174.88
632.451	165.88
632.657	145.88
632.863	167.88
633.069	166.88
633.275	162.88
633.481	161.88
633.688	162.88
633.893	181.88
634.099	168.88
634.305	161.88
634.511	162.88
634.717	158.88
634.923	156.88
635.129	156.88
635.335	160.88
635.541	152.88
635.747	158.88
635.952	142.88
636.158	145.88
636.364	161.88
636.57	164.88
636.775	160.88
636.981	161.88
637.187	176.88
637.392	150.88
637.598	144.88
637.804	171.88
638.009	170.88
638.215	145.88
638.421	152.88
638.626	159.88
638.832	144.88
639.037	161.88
639.243	156.88
639.448	152.88
639.654	148.88
639.859	166.88
640.065	151.88
640.27	150.88
640.475	152.88
640.681	158.88
640.886	151.88
641.091	144.88
641.297	149.88
641.502	168.88
641.707	160.88
641.913	152.88
642.118	157.88
642.323	149.88
642.528	152.88
642.733	158.88
642.939	164.88
643.144	166.88
643.349	148.88
643.554	149.88
643.759	145.88
643.964	140.88
644.169	154.88
644.374	135.88
644.579	152.88
644.784	157.88
644.989	152.88
645.194	155.88
645.399	150.88
645.604	151.88
645.809	154.88
646.014	141.88
646.219	153.88
646.423	158.88
646.628	146.88
646.833	151.88
647.038	143.88
647.243	154.88
647.447	154.88
647.652	160.88
647.857	147.88
648.062	148.88
648.266	146.88
648.471	164.88
648.676	148.88
648.88	148.88
649.085	151.88
649.289	143.88
649.494	138.88
649.698	158.88
649.903	169.88
650.107	180.88
650.312	137.88
650.516	156.88
650.721	165.88
650.925	122.88
651.13	145.88
651.334	145.88
651.539	137.88
651.743	147.88
651.947	147.88
652.152	133.88
652.356	138.88
652.56	127.88
652.764	135.88
652.969	142.88
653.173	136.88
653.377	136.88
653.581	126.88
653.785	109.88
653.99	126.88
654.194	137.88
654.398	134.88
654.602	137.88
654.806	137.88
655.01	135.88
655.214	131.88
655.418	137.88
655.622	118.88
655.826	128.88
656.03	119.88
656.234	119.88
656.438	137.88
656.642	127.88
656.846	123.88
657.049	127.88
657.253	122.88
657.457	128.88
657.661	124.88
657.865	119.88
658.068	111.88
658.272	106.88
658.476	96.88
658.68	102.88
658.883	110.88
659.087	109.88
659.291	103.88
659.494	104.88
659.698	91.88
659.901	115.88
660.105	96.88
660.309	92.88
660.512	98.88
660.716	105.88
660.919	90.88
661.123	96.88
661.326	97.88
661.53	95.88
661.733	90.88
661.936	101.88
662.14	99.88
662.343	86.88
662.546	88.88
662.75	86.88
662.953	80.88
663.156	57.88
663.36	85.88
663.563	89.88
663.766	83.88
663.969	98.88
664.173	81.88
664.376	84.88
664.579	92.88
664.782	89.88
664.985	95.88
665.188	86.88
665.391	79.88
665.594	93.88
665.797	82.88
666	91.88
666.203	80.88
666.406	85.88
666.609	86.88
666.812	102.88
667.015	91.88
667.218	78.88
667.421	78.88
667.624	80.88
667.827	87.88
668.03	85.88
668.232	82.88
668.435	78.88
668.638	91.88
668.841	89.88
669.043	75.88
669.246	76.88
669.449	77.88
669.651	83.88
669.854	83.88
670.057	74.88
670.259	77.88
670.462	94.88
670.665	91.88
670.867	105.88
671.07	79.88
671.272	79.88
671.475	93.88
671.677	102.88
671.88	98.88
672.082	88.88
672.284	105.88
672.487	92.88
672.689	74.88
672.892	77.88
