Data from 1971.PennyLincolnUp.Lamp.En5.5.200Scan.071719.P1.Scan 2. Changed Angle._HRD10591_15-23-11-842.txt Node
Date: Thu Jul 18 15:23:11 EDT 2019
User: cochatt
Spectrometer: HR+D1059
Trigger mode: 1
Integration Time (sec): 1.000000E-1
Scans to average: 1
Electric dark correction enabled: true
Nonlinearity correction enabled: false
Boxcar width: 0
XAxis mode: Wavelengths
Number of Pixels in Spectrum: 2048
>>>>>Begin Spectral Data<<<<<
223.165	-15.31
223.4	-15.31
223.635	-15.31
223.869	-7.31
224.104	-11.31
224.338	-18.31
224.573	-20.31
224.808	-12.31
225.042	-9.31
225.277	-9.31
225.511	-12.31
225.746	-10.31
225.98	10.69
226.215	6.69
226.449	12.69
226.683	43.69
226.918	29.69
227.152	22.69
227.387	21.69
227.621	37.69
227.856	39.69
228.09	40.69
228.324	64.69
228.559	52.69
228.793	69.69
229.027	112.69
229.262	119.69
229.496	121.69
229.73	143.69
229.964	158.69
230.199	126.69
230.433	119.69
230.667	124.69
230.901	111.69
231.136	123.69
231.37	112.69
231.604	126.69
231.838	118.69
232.072	114.69
232.306	114.69
232.541	119.69
232.775	99.69
233.009	103.69
233.243	124.69
233.477	110.69
233.711	113.69
233.945	110.69
234.179	99.69
234.413	128.69
234.647	106.69
234.881	126.69
235.115	116.69
235.349	115.69
235.583	135.69
235.817	118.69
236.051	131.69
236.285	119.69
236.519	117.69
236.753	150.69
236.987	142.69
237.221	189.69
237.455	263.69
237.689	209.69
237.922	152.69
238.156	140.69
238.39	130.69
238.624	133.69
238.858	120.69
239.091	132.69
239.325	142.69
239.559	122.69
239.793	138.69
240.027	134.69
240.26	134.69
240.494	163.69
240.728	155.69
240.961	148.69
241.195	145.69
241.429	141.69
241.662	148.69
241.896	136.69
242.13	135.69
242.363	126.69
242.597	142.69
242.83	147.69
243.064	140.69
243.298	137.69
243.531	135.69
243.765	151.69
243.998	156.69
244.232	143.69
244.465	148.69
244.699	150.69
244.932	144.69
245.166	141.69
245.399	152.69
245.633	150.69
245.866	151.69
246.099	153.69
246.333	159.69
246.566	153.69
246.8	157.69
247.033	141.69
247.266	163.69
247.5	170.69
247.733	181.69
247.966	176.69
248.2	171.69
248.433	176.69
248.666	179.69
248.899	196.69
249.133	186.69
249.366	221.69
249.599	212.69
249.832	197.69
250.066	191.69
250.299	178.69
250.532	205.69
250.765	208.69
250.998	225.69
251.231	243.69
251.465	230.69
251.698	215.69
251.931	216.69
252.164	207.69
252.397	213.69
252.63	216.69
252.863	202.69
253.096	217.69
253.329	230.69
253.562	244.69
253.795	246.69
254.028	232.69
254.261	226.69
254.494	244.69
254.727	274.69
254.96	296.69
255.193	295.69
255.426	271.69
255.659	267.69
255.892	214.69
256.124	235.69
256.357	238.69
256.59	227.69
256.823	235.69
257.056	230.69
257.289	195.69
257.521	203.69
257.754	205.69
257.987	218.69
258.22	207.69
258.452	216.69
258.685	217.69
258.918	208.69
259.151	231.69
259.383	228.69
259.616	233.69
259.849	230.69
260.081	241.69
260.314	266.69
260.547	282.69
260.779	251.69
261.012	238.69
261.244	229.69
261.477	235.69
261.71	226.69
261.942	224.69
262.175	232.69
262.407	226.69
262.64	207.69
262.872	238.69
263.105	219.69
263.337	215.69
263.57	216.69
263.802	219.69
264.035	205.69
264.267	215.69
264.499	198.69
264.732	204.69
264.964	222.69
265.197	228.69
265.429	202.69
265.661	221.69
265.894	214.69
266.126	190.69
266.358	213.69
266.591	237.69
266.823	200.69
267.055	224.69
267.287	217.69
267.52	222.69
267.752	203.69
267.984	208.69
268.216	211.69
268.448	226.69
268.681	211.69
268.913	237.69
269.145	244.69
269.377	276.69
269.609	290.69
269.841	272.69
270.073	290.69
270.306	298.69
270.538	309.69
270.77	340.69
271.002	298.69
271.234	308.69
271.466	306.69
271.698	323.69
271.93	311.69
272.162	301.69
272.394	313.69
272.626	318.69
272.858	297.69
273.09	258.69
273.322	262.69
273.553	261.69
273.785	254.69
274.017	255.69
274.249	262.69
274.481	251.69
274.713	270.69
274.945	271.69
275.176	257.69
275.408	253.69
275.64	260.69
275.872	238.69
276.104	280.69
276.335	247.69
276.567	263.69
276.799	269.69
277.031	295.69
277.262	315.69
277.494	327.69
277.726	292.69
277.957	271.69
278.189	261.69
278.421	258.69
278.652	256.69
278.884	253.69
279.115	258.69
279.347	269.69
279.579	264.69
279.81	248.69
280.042	240.69
280.273	252.69
280.505	266.69
280.736	247.69
280.968	231.69
281.199	242.69
281.431	242.69
281.662	252.69
281.894	252.69
282.125	246.69
282.356	264.69
282.588	310.69
282.819	307.69
283.051	265.69
283.282	263.69
283.513	251.69
283.745	236.69
283.976	240.69
284.207	264.69
284.439	252.69
284.67	240.69
284.901	242.69
285.132	251.69
285.364	266.69
285.595	248.69
285.826	271.69
286.057	264.69
286.288	261.69
286.52	246.69
286.751	256.69
286.982	267.69
287.213	269.69
287.444	248.69
287.675	267.69
287.906	266.69
288.138	292.69
288.369	285.69
288.6	271.69
288.831	279.69
289.062	280.69
289.293	259.69
289.524	261.69
289.755	278.69
289.986	284.69
290.217	265.69
290.448	279.69
290.679	269.69
290.91	274.69
291.141	248.69
291.371	269.69
291.602	261.69
291.833	262.69
292.064	270.69
292.295	269.69
292.526	280.69
292.757	273.69
292.987	259.69
293.218	255.69
293.449	284.69
293.68	263.69
293.91	284.69
294.141	272.69
294.372	268.69
294.603	272.69
294.833	264.69
295.064	281.69
295.295	254.69
295.525	279.69
295.756	278.69
295.987	293.69
296.217	306.69
296.448	328.69
296.679	281.69
296.909	269.69
297.14	291.69
297.37	271.69
297.601	280.69
297.831	271.69
298.062	312.69
298.292	262.69
298.523	292.69
298.753	274.69
298.984	285.69
299.214	287.69
299.445	267.69
299.675	276.69
299.905	316.69
300.136	295.69
300.366	275.69
300.597	276.69
300.827	278.69
301.057	286.69
301.288	327.69
301.518	298.69
301.748	301.69
301.979	288.69
302.209	287.69
302.439	295.69
302.669	302.69
302.9	303.69
303.13	284.69
303.36	314.69
303.59	292.69
303.82	312.69
304.051	301.69
304.281	281.69
304.511	318.69
304.741	290.69
304.971	299.69
305.201	298.69
305.431	302.69
305.661	296.69
305.891	312.69
306.121	298.69
306.352	326.69
306.582	323.69
306.812	310.69
307.042	304.69
307.272	316.69
307.502	295.69
307.731	286.69
307.961	299.69
308.191	328.69
308.421	320.69
308.651	311.69
308.881	303.69
309.111	328.69
309.341	332.69
309.571	336.69
309.8	326.69
310.03	346.69
310.26	333.69
310.49	361.69
310.72	359.69
310.949	391.69
311.179	375.69
311.409	367.69
311.639	374.69
311.868	360.69
312.098	367.69
312.328	382.69
312.557	374.69
312.787	396.69
313.017	415.69
313.246	376.69
313.476	351.69
313.706	353.69
313.935	386.69
314.165	384.69
314.394	414.69
314.624	383.69
314.853	375.69
315.083	373.69
315.312	382.69
315.542	370.69
315.771	345.69
316.001	356.69
316.23	360.69
316.46	352.69
316.689	361.69
316.919	357.69
317.148	372.69
317.377	372.69
317.607	367.69
317.836	364.69
318.065	351.69
318.295	354.69
318.524	365.69
318.753	342.69
318.983	351.69
319.212	358.69
319.441	362.69
319.67	368.69
319.9	366.69
320.129	373.69
320.358	359.69
320.587	381.69
320.816	365.69
321.046	393.69
321.275	397.69
321.504	372.69
321.733	383.69
321.962	388.69
322.191	421.69
322.42	413.69
322.649	446.69
322.878	454.69
323.108	463.69
323.337	493.69
323.566	514.69
323.795	541.69
324.024	633.69
324.253	777.69
324.482	1118.69
324.71	1679.69
324.939	2432.69
325.168	2106.69
325.397	1112.69
325.626	728.69
325.855	597.69
326.084	545.69
326.313	495.69
326.542	538.69
326.77	571.69
326.999	708.69
327.228	968.69
327.457	1495.69
327.686	1790.69
327.914	1240.69
328.143	790.69
328.372	715.69
328.6	640.69
328.829	602.69
329.058	611.69
329.287	620.69
329.515	565.69
329.744	541.69
329.972	486.69
330.201	544.69
330.43	604.69
330.658	606.69
330.887	638.69
331.115	622.69
331.344	524.69
331.572	520.69
331.801	471.69
332.03	520.69
332.258	467.69
332.486	453.69
332.715	436.69
332.943	427.69
333.172	430.69
333.4	434.69
333.629	431.69
333.857	454.69
334.085	450.69
334.314	467.69
334.542	486.69
334.771	536.69
334.999	482.69
335.227	441.69
335.455	423.69
335.684	430.69
335.912	429.69
336.14	414.69
336.369	417.69
336.597	427.69
336.825	429.69
337.053	400.69
337.281	426.69
337.51	415.69
337.738	418.69
337.966	419.69
338.194	435.69
338.422	438.69
338.65	405.69
338.878	405.69
339.106	393.69
339.334	386.69
339.562	425.69
339.79	384.69
340.018	407.69
340.246	402.69
340.474	423.69
340.702	429.69
340.93	414.69
341.158	399.69
341.386	393.69
341.614	412.69
341.842	414.69
342.07	415.69
342.298	402.69
342.526	403.69
342.754	389.69
342.981	423.69
343.209	396.69
343.437	395.69
343.665	411.69
343.893	397.69
344.12	406.69
344.348	393.69
344.576	422.69
344.804	415.69
345.031	427.69
345.259	435.69
345.487	421.69
345.714	404.69
345.942	398.69
346.17	408.69
346.397	390.69
346.625	402.69
346.853	404.69
347.08	403.69
347.308	420.69
347.535	416.69
347.763	425.69
347.99	415.69
348.218	405.69
348.445	442.69
348.673	424.69
348.9	418.69
349.128	392.69
349.355	406.69
349.583	380.69
349.81	398.69
350.037	404.69
350.265	393.69
350.492	402.69
350.72	390.69
350.947	412.69
351.174	411.69
351.402	423.69
351.629	423.69
351.856	425.69
352.083	412.69
352.311	442.69
352.538	422.69
352.765	422.69
352.992	429.69
353.22	420.69
353.447	399.69
353.674	406.69
353.901	397.69
354.128	386.69
354.355	392.69
354.583	380.69
354.81	379.69
355.037	366.69
355.264	363.69
355.491	355.69
355.718	387.69
355.945	361.69
356.172	375.69
356.399	368.69
356.626	379.69
356.853	376.69
357.08	377.69
357.307	382.69
357.534	365.69
357.761	386.69
357.988	368.69
358.215	376.69
358.441	374.69
358.668	398.69
358.895	390.69
359.122	397.69
359.349	389.69
359.576	437.69
359.802	422.69
360.029	473.69
360.256	492.69
360.483	454.69
360.709	436.69
360.936	420.69
361.163	431.69
361.39	429.69
361.616	428.69
361.843	404.69
362.07	434.69
362.296	422.69
362.523	424.69
362.749	417.69
362.976	434.69
363.203	408.69
363.429	406.69
363.656	390.69
363.882	393.69
364.109	382.69
364.335	388.69
364.562	402.69
364.788	416.69
365.015	422.69
365.241	405.69
365.468	401.69
365.694	403.69
365.92	403.69
366.147	390.69
366.373	391.69
366.599	394.69
366.826	400.69
367.052	367.69
367.278	376.69
367.505	382.69
367.731	404.69
367.957	402.69
368.184	415.69
368.41	402.69
368.636	400.69
368.862	413.69
369.089	404.69
369.315	394.69
369.541	408.69
369.767	390.69
369.993	408.69
370.219	397.69
370.445	392.69
370.672	409.69
370.898	375.69
371.124	381.69
371.35	396.69
371.576	394.69
371.802	404.69
372.028	398.69
372.254	391.69
372.48	400.69
372.706	396.69
372.932	393.69
373.158	388.69
373.384	388.69
373.61	395.69
373.835	382.69
374.061	372.69
374.287	396.69
374.513	412.69
374.739	398.69
374.965	409.69
375.191	404.69
375.416	398.69
375.642	398.69
375.868	413.69
376.094	394.69
376.319	392.69
376.545	384.69
376.771	376.69
376.997	403.69
377.222	399.69
377.448	388.69
377.674	399.69
377.899	371.69
378.125	389.69
378.35	380.69
378.576	410.69
378.802	402.69
379.027	393.69
379.253	371.69
379.478	391.69
379.704	404.69
379.929	406.69
380.155	423.69
380.38	399.69
380.606	407.69
380.831	400.69
381.057	408.69
381.282	393.69
381.507	416.69
381.733	415.69
381.958	404.69
382.184	422.69
382.409	397.69
382.634	412.69
382.86	406.69
383.085	390.69
383.31	415.69
383.535	418.69
383.761	398.69
383.986	421.69
384.211	412.69
384.436	413.69
384.662	411.69
384.887	431.69
385.112	435.69
385.337	415.69
385.562	430.69
385.787	411.69
386.013	436.69
386.238	439.69
386.463	431.69
386.688	432.69
386.913	426.69
387.138	421.69
387.363	420.69
387.588	418.69
387.813	426.69
388.038	437.69
388.263	406.69
388.488	429.69
388.713	436.69
388.938	412.69
389.163	425.69
389.387	426.69
389.612	453.69
389.837	406.69
390.062	408.69
390.287	429.69
390.512	407.69
390.736	414.69
390.961	434.69
391.186	418.69
391.411	421.69
391.636	444.69
391.86	438.69
392.085	447.69
392.31	427.69
392.534	468.69
392.759	442.69
392.984	440.69
393.208	431.69
393.433	447.69
393.658	458.69
393.882	447.69
394.107	437.69
394.331	421.69
394.556	431.69
394.78	425.69
395.005	420.69
395.229	427.69
395.454	431.69
395.678	448.69
395.903	467.69
396.127	484.69
396.352	478.69
396.576	459.69
396.801	448.69
397.025	457.69
397.249	452.69
397.474	458.69
397.698	468.69
397.922	469.69
398.147	491.69
398.371	498.69
398.595	467.69
398.82	460.69
399.044	472.69
399.268	494.69
399.492	517.69
399.717	546.69
399.941	573.69
400.165	598.69
400.389	588.69
400.613	553.69
400.837	532.69
401.062	498.69
401.286	485.69
401.51	502.69
401.734	484.69
401.958	472.69
402.182	513.69
402.406	524.69
402.63	515.69
402.854	519.69
403.078	490.69
403.302	527.69
403.526	520.69
403.75	516.69
403.974	507.69
404.198	488.69
404.422	520.69
404.645	528.69
404.869	532.69
405.093	534.69
405.317	597.69
405.541	639.69
405.765	586.69
405.988	554.69
406.212	548.69
406.436	592.69
406.66	588.69
406.883	583.69
407.107	594.69
407.331	618.69
407.555	659.69
407.778	690.69
408.002	616.69
408.226	586.69
408.449	591.69
408.673	583.69
408.896	592.69
409.12	662.69
409.344	608.69
409.567	553.69
409.791	523.69
410.014	536.69
410.238	518.69
410.461	521.69
410.685	528.69
410.908	552.69
411.132	566.69
411.355	615.69
411.578	618.69
411.802	532.69
412.025	528.69
412.249	541.69
412.472	546.69
412.695	586.69
412.919	574.69
413.142	542.69
413.365	518.69
413.589	526.69
413.812	496.69
414.035	487.69
414.258	493.69
414.482	481.69
414.705	486.69
414.928	462.69
415.151	499.69
415.374	472.69
415.597	495.69
415.821	518.69
416.044	524.69
416.267	496.69
416.49	489.69
416.713	502.69
416.936	495.69
417.159	483.69
417.382	490.69
417.605	470.69
417.828	506.69
418.051	530.69
418.274	515.69
418.497	480.69
418.72	500.69
418.943	494.69
419.166	518.69
419.389	520.69
419.611	537.69
419.834	523.69
420.057	518.69
420.28	538.69
420.503	506.69
420.726	506.69
420.948	551.69
421.171	589.69
421.394	634.69
421.617	542.69
421.839	538.69
422.062	554.69
422.285	548.69
422.507	614.69
422.73	699.69
422.953	663.69
423.175	583.69
423.398	562.69
423.621	551.69
423.843	578.69
424.066	583.69
424.288	588.69
424.511	590.69
424.733	663.69
424.956	727.69
425.178	707.69
425.401	717.69
425.623	738.69
425.846	639.69
426.068	604.69
426.291	578.69
426.513	589.69
426.735	601.69
426.958	635.69
427.18	726.69
427.402	845.69
427.625	924.69
427.847	858.69
428.069	733.69
428.292	657.69
428.514	598.69
428.736	586.69
428.958	557.69
429.181	530.69
429.403	523.69
429.625	570.69
429.847	584.69
430.069	657.69
430.292	666.69
430.514	585.69
430.736	546.69
430.958	547.69
431.18	535.69
431.402	503.69
431.624	537.69
431.846	495.69
432.068	503.69
432.29	498.69
432.512	495.69
432.734	505.69
432.956	517.69
433.178	526.69
433.4	527.69
433.622	516.69
433.844	504.69
434.066	505.69
434.287	519.69
434.509	515.69
434.731	515.69
434.953	537.69
435.175	526.69
435.397	572.69
435.618	570.69
435.84	614.69
436.062	722.69
436.284	805.69
436.505	666.69
436.727	610.69
436.949	568.69
437.17	564.69
437.392	539.69
437.614	557.69
437.835	612.69
438.057	700.69
438.278	846.69
438.5	794.69
438.721	880.69
438.943	838.69
439.165	676.69
439.386	629.69
439.608	587.69
439.829	618.69
440.05	646.69
440.272	678.69
440.493	654.69
440.715	588.69
440.936	573.69
441.158	566.69
441.379	564.69
441.6	582.69
441.822	605.69
442.043	639.69
442.264	718.69
442.486	756.69
442.707	682.69
442.928	615.69
443.149	631.69
443.371	631.69
443.592	697.69
443.813	764.69
444.034	846.69
444.255	673.69
444.476	612.69
444.698	582.69
444.919	584.69
445.14	695.69
445.361	663.69
445.582	635.69
445.803	724.69
446.024	805.69
446.245	838.69
446.466	765.69
446.687	666.69
446.908	618.69
447.129	589.69
447.35	545.69
447.571	542.69
447.792	539.69
448.013	570.69
448.234	571.69
448.455	622.69
448.675	757.69
448.896	842.69
449.117	755.69
449.338	716.69
449.559	823.69
449.779	902.69
450	735.69
450.221	618.69
450.442	569.69
450.662	562.69
450.883	550.69
451.104	562.69
451.324	569.69
451.545	528.69
451.766	493.69
451.986	494.69
452.207	511.69
452.428	468.69
452.648	505.69
452.869	479.69
453.089	503.69
453.31	512.69
453.53	525.69
453.751	492.69
453.971	486.69
454.192	515.69
454.412	527.69
454.633	494.69
454.853	490.69
455.073	497.69
455.294	534.69
455.514	581.69
455.734	597.69
455.955	504.69
456.175	450.69
456.395	450.69
456.616	459.69
456.836	457.69
457.056	457.69
457.276	454.69
457.497	459.69
457.717	446.69
457.937	446.69
458.157	474.69
458.377	467.69
458.598	497.69
458.818	595.69
459.038	656.69
459.258	699.69
459.478	585.69
459.698	512.69
459.918	506.69
460.138	480.69
460.358	489.69
460.578	498.69
460.798	510.69
461.018	516.69
461.238	487.69
461.458	497.69
461.678	492.69
461.898	511.69
462.118	502.69
462.338	541.69
462.558	524.69
462.777	525.69
462.997	518.69
463.217	527.69
463.437	530.69
463.657	510.69
463.876	496.69
464.096	534.69
464.316	534.69
464.536	528.69
464.755	555.69
464.975	551.69
465.195	608.69
465.414	685.69
465.634	635.69
465.854	568.69
466.073	536.69
466.293	510.69
466.512	514.69
466.732	486.69
466.951	487.69
467.171	492.69
467.391	514.69
467.61	493.69
467.829	525.69
468.049	495.69
468.268	518.69
468.488	482.69
468.707	473.69
468.927	485.69
469.146	468.69
469.365	474.69
469.585	465.69
469.804	495.69
470.023	524.69
470.243	508.69
470.462	514.69
470.681	530.69
470.901	531.69
471.12	523.69
471.339	482.69
471.558	502.69
471.777	505.69
471.997	509.69
472.216	525.69
472.435	533.69
472.654	532.69
472.873	499.69
473.092	516.69
473.311	499.69
473.53	525.69
473.749	499.69
473.968	557.69
474.187	663.69
474.406	698.69
474.625	574.69
474.844	528.69
475.063	516.69
475.282	528.69
475.501	518.69
475.72	523.69
475.939	527.69
476.158	522.69
476.377	524.69
476.596	536.69
476.814	519.69
477.033	523.69
477.252	528.69
477.471	537.69
477.69	537.69
477.908	551.69
478.127	551.69
478.346	566.69
478.564	554.69
478.783	562.69
479.002	588.69
479.22	590.69
479.439	600.69
479.658	607.69
479.876	616.69
480.095	604.69
480.313	630.69
480.532	630.69
480.751	615.69
480.969	635.69
481.188	696.69
481.406	711.69
481.624	643.69
481.843	609.69
482.061	619.69
482.28	590.69
482.498	593.69
482.717	612.69
482.935	593.69
483.153	591.69
483.372	613.69
483.59	600.69
483.808	586.69
484.027	620.69
484.245	593.69
484.463	617.69
484.681	614.69
484.9	620.69
485.118	611.69
485.336	615.69
485.554	619.69
485.772	637.69
485.99	604.69
486.209	619.69
486.427	620.69
486.645	669.69
486.863	662.69
487.081	710.69
487.299	652.69
487.517	634.69
487.735	647.69
487.953	682.69
488.171	660.69
488.389	655.69
488.607	654.69
488.825	650.69
489.043	652.69
489.261	677.69
489.479	684.69
489.696	670.69
489.914	661.69
490.132	670.69
490.35	704.69
490.568	681.69
490.786	722.69
491.003	724.69
491.221	729.69
491.439	737.69
491.657	754.69
491.874	767.69
492.092	770.69
492.31	770.69
492.527	764.69
492.745	768.69
492.963	791.69
493.18	782.69
493.398	837.69
493.615	797.69
493.833	823.69
494.05	784.69
494.268	758.69
494.485	781.69
494.703	756.69
494.92	759.69
495.138	782.69
495.355	808.69
495.573	805.69
495.79	793.69
496.008	786.69
496.225	783.69
496.442	786.69
496.66	774.69
496.877	806.69
497.094	792.69
497.312	813.69
497.529	804.69
497.746	804.69
497.963	812.69
498.181	843.69
498.398	834.69
498.615	839.69
498.832	863.69
499.049	842.69
499.267	884.69
499.484	870.69
499.701	904.69
499.918	918.69
500.135	948.69
500.352	979.69
500.569	975.69
500.786	992.69
501.003	996.69
501.22	958.69
501.437	941.69
501.654	959.69
501.871	977.69
502.088	947.69
502.305	879.69
502.522	897.69
502.739	875.69
502.956	834.69
503.172	826.69
503.389	812.69
503.606	824.69
503.823	828.69
504.04	824.69
504.256	800.69
504.473	792.69
504.69	774.69
504.907	783.69
505.123	790.69
505.34	767.69
505.557	784.69
505.773	755.69
505.99	751.69
506.207	788.69
506.423	784.69
506.64	767.69
506.856	744.69
507.073	738.69
507.289	745.69
507.506	760.69
507.722	774.69
507.939	802.69
508.155	754.69
508.372	735.69
508.588	706.69
508.805	722.69
509.021	736.69
509.238	715.69
509.454	759.69
509.67	746.69
509.887	723.69
510.103	714.69
510.319	737.69
510.536	852.69
510.752	1467.69
510.968	1210.69
511.184	790.69
511.401	730.69
511.617	719.69
511.833	706.69
512.049	683.69
512.265	717.69
512.481	687.69
512.698	710.69
512.914	703.69
513.13	698.69
513.346	711.69
513.562	690.69
513.778	709.69
513.994	703.69
514.21	741.69
514.426	772.69
514.642	827.69
514.858	862.69
515.074	905.69
515.29	1096.69
515.506	1708.69
515.721	1382.69
515.937	900.69
516.153	778.69
516.369	753.69
516.585	720.69
516.801	718.69
517.016	717.69
517.232	704.69
517.448	684.69
517.664	708.69
517.879	695.69
518.095	665.69
518.311	695.69
518.527	678.69
518.742	679.69
518.958	713.69
519.173	680.69
519.389	692.69
519.605	705.69
519.82	714.69
520.036	708.69
520.251	738.69
520.467	772.69
520.682	761.69
520.898	809.69
521.113	810.69
521.329	890.69
521.544	1043.69
521.76	1307.69
521.975	2232.69
522.19	2193.69
522.406	1160.69
522.621	882.69
522.836	783.69
523.052	713.69
523.267	670.69
523.482	642.69
523.698	662.69
523.913	638.69
524.128	654.69
524.343	642.69
524.559	621.69
524.774	599.69
524.989	612.69
525.204	639.69
525.419	615.69
525.634	619.69
525.849	581.69
526.064	582.69
526.28	577.69
526.495	579.69
526.71	577.69
526.925	571.69
527.14	551.69
527.355	566.69
527.57	566.69
527.785	570.69
527.999	559.69
528.214	562.69
528.429	580.69
528.644	566.69
528.859	563.69
529.074	566.69
529.289	593.69
529.503	694.69
529.718	687.69
529.933	637.69
530.148	579.69
530.363	572.69
530.577	567.69
530.792	558.69
531.007	548.69
531.221	548.69
531.436	540.69
531.651	550.69
531.865	540.69
532.08	540.69
532.295	506.69
532.509	524.69
532.724	538.69
532.938	530.69
533.153	524.69
533.367	509.69
533.582	544.69
533.796	538.69
534.011	523.69
534.225	525.69
534.44	517.69
534.654	538.69
534.868	519.69
535.083	516.69
535.297	519.69
535.511	541.69
535.726	542.69
535.94	538.69
536.154	528.69
536.369	521.69
536.583	526.69
536.797	520.69
537.011	511.69
537.225	498.69
537.44	514.69
537.654	505.69
537.868	503.69
538.082	538.69
538.296	517.69
538.51	499.69
538.724	528.69
538.938	490.69
539.153	517.69
539.367	530.69
539.581	524.69
539.795	511.69
540.009	508.69
540.222	497.69
540.436	525.69
540.65	502.69
540.864	512.69
541.078	518.69
541.292	520.69
541.506	519.69
541.72	520.69
541.934	514.69
542.147	521.69
542.361	522.69
542.575	495.69
542.789	471.69
543.002	490.69
543.216	504.69
543.43	518.69
543.644	491.69
543.857	482.69
544.071	507.69
544.285	506.69
544.498	496.69
544.712	486.69
544.925	498.69
545.139	488.69
545.352	501.69
545.566	492.69
545.779	492.69
545.993	520.69
546.206	505.69
546.42	485.69
546.633	487.69
546.847	502.69
547.06	512.69
547.274	474.69
547.487	484.69
547.7	477.69
547.914	463.69
548.127	488.69
548.34	491.69
548.554	494.69
548.767	473.69
548.98	469.69
549.193	466.69
549.407	470.69
549.62	474.69
549.833	471.69
550.046	479.69
550.259	467.69
550.473	450.69
550.686	461.69
550.899	461.69
551.112	490.69
551.325	488.69
551.538	482.69
551.751	434.69
551.964	459.69
552.177	465.69
552.39	463.69
552.603	476.69
552.816	488.69
553.029	459.69
553.242	468.69
553.455	468.69
553.667	488.69
553.88	523.69
554.093	480.69
554.306	482.69
554.519	459.69
554.732	484.69
554.944	452.69
555.157	451.69
555.37	483.69
555.583	439.69
555.795	466.69
556.008	432.69
556.221	439.69
556.433	441.69
556.646	428.69
556.859	439.69
557.071	446.69
557.284	454.69
557.496	441.69
557.709	444.69
557.921	419.69
558.134	428.69
558.346	430.69
558.559	431.69
558.771	429.69
558.984	418.69
559.196	430.69
559.409	425.69
559.621	426.69
559.833	418.69
560.046	431.69
560.258	408.69
560.47	433.69
560.683	428.69
560.895	419.69
561.107	432.69
561.32	417.69
561.532	425.69
561.744	426.69
561.956	439.69
562.168	420.69
562.381	439.69
562.593	430.69
562.805	408.69
563.017	408.69
563.229	436.69
563.441	418.69
563.653	422.69
563.865	420.69
564.077	408.69
564.289	413.69
564.501	430.69
564.713	457.69
564.925	443.69
565.137	466.69
565.349	436.69
565.561	452.69
565.773	451.69
565.985	454.69
566.197	455.69
566.408	467.69
566.62	450.69
566.832	468.69
567.044	477.69
567.255	472.69
567.467	469.69
567.679	455.69
567.891	474.69
568.102	490.69
568.314	473.69
568.526	469.69
568.737	468.69
568.949	439.69
569.161	415.69
569.372	453.69
569.584	440.69
569.795	442.69
570.007	420.69
570.218	487.69
570.43	459.69
570.641	413.69
570.853	412.69
571.064	399.69
571.276	422.69
571.487	400.69
571.698	403.69
571.91	381.69
572.121	390.69
572.333	377.69
572.544	363.69
572.755	367.69
572.966	377.69
573.178	376.69
573.389	370.69
573.6	389.69
573.811	362.69
574.023	369.69
574.234	354.69
574.445	367.69
574.656	362.69
574.867	379.69
575.078	362.69
575.289	355.69
575.501	378.69
575.712	360.69
575.923	353.69
576.134	363.69
576.345	346.69
576.556	364.69
576.767	350.69
576.978	357.69
577.188	357.69
577.399	348.69
577.61	364.69
577.821	364.69
578.032	361.69
578.243	399.69
578.454	714.69
578.665	503.69
578.875	370.69
579.086	336.69
579.297	356.69
579.508	335.69
579.718	354.69
579.929	329.69
580.14	336.69
580.35	336.69
580.561	332.69
580.772	338.69
580.982	334.69
581.193	319.69
581.403	318.69
581.614	317.69
581.825	341.69
582.035	320.69
582.246	320.69
582.456	329.69
582.667	325.69
582.877	316.69
583.087	333.69
583.298	312.69
583.508	331.69
583.719	334.69
583.929	318.69
584.139	312.69
584.35	311.69
584.56	340.69
584.77	343.69
584.981	329.69
585.191	333.69
585.401	340.69
585.611	338.69
585.821	331.69
586.032	318.69
586.242	326.69
586.452	322.69
586.662	294.69
586.872	318.69
587.082	325.69
587.292	319.69
587.502	318.69
587.713	331.69
587.923	329.69
588.133	306.69
588.343	318.69
588.553	316.69
588.762	304.69
588.972	326.69
589.182	314.69
589.392	312.69
589.602	324.69
589.812	327.69
590.022	311.69
590.232	308.69
590.441	319.69
590.651	299.69
590.861	306.69
591.071	336.69
591.281	306.69
591.49	310.69
591.7	318.69
591.91	322.69
592.119	312.69
592.329	296.69
592.539	304.69
592.748	316.69
592.958	324.69
593.167	320.69
593.377	316.69
593.587	340.69
593.796	329.69
594.006	319.69
594.215	325.69
594.424	299.69
594.634	338.69
594.843	306.69
595.053	320.69
595.262	322.69
595.472	300.69
595.681	298.69
595.89	297.69
596.1	310.69
596.309	284.69
596.518	293.69
596.727	284.69
596.937	292.69
597.146	317.69
597.355	296.69
597.564	282.69
597.774	283.69
597.983	299.69
598.192	287.69
598.401	294.69
598.61	286.69
598.819	286.69
599.028	283.69
599.237	286.69
599.446	291.69
599.655	298.69
599.864	286.69
600.073	301.69
600.282	290.69
600.491	273.69
600.7	288.69
600.909	273.69
601.118	266.69
601.327	262.69
601.536	262.69
601.745	277.69
601.953	267.69
602.162	282.69
602.371	309.69
602.58	280.69
602.789	257.69
602.997	269.69
603.206	291.69
603.415	269.69
603.623	264.69
603.832	276.69
604.041	277.69
604.249	267.69
604.458	286.69
604.666	248.69
604.875	267.69
605.084	284.69
605.292	260.69
605.501	272.69
605.709	268.69
605.918	267.69
606.126	287.69
606.334	276.69
606.543	278.69
606.751	251.69
606.96	261.69
607.168	283.69
607.376	263.69
607.585	258.69
607.793	270.69
608.001	274.69
608.21	255.69
608.418	260.69
608.626	261.69
608.834	270.69
609.043	261.69
609.251	271.69
609.459	264.69
609.667	263.69
609.875	264.69
610.083	275.69
610.291	266.69
610.499	255.69
610.707	250.69
610.916	245.69
611.124	277.69
611.332	271.69
611.54	284.69
611.748	283.69
611.955	261.69
612.163	245.69
612.371	275.69
612.579	267.69
612.787	251.69
612.995	275.69
613.203	266.69
613.411	229.69
613.618	257.69
613.826	289.69
614.034	252.69
614.242	258.69
614.449	250.69
614.657	247.69
614.865	242.69
615.072	247.69
615.28	260.69
615.488	259.69
615.695	240.69
615.903	256.69
616.111	266.69
616.318	260.69
616.526	270.69
616.733	267.69
616.941	265.69
617.148	243.69
617.356	269.69
617.563	243.69
617.771	250.69
617.978	252.69
618.185	268.69
618.393	249.69
618.6	250.69
618.807	248.69
619.015	245.69
619.222	255.69
619.429	244.69
619.637	239.69
619.844	247.69
620.051	256.69
620.258	252.69
620.466	232.69
620.673	223.69
620.88	242.69
621.087	250.69
621.294	236.69
621.501	246.69
621.708	226.69
621.915	221.69
622.122	239.69
622.329	233.69
622.536	244.69
622.743	217.69
622.95	235.69
623.157	234.69
623.364	227.69
623.571	232.69
623.778	231.69
623.985	239.69
624.192	222.69
624.399	228.69
624.606	242.69
624.812	239.69
625.019	243.69
625.226	236.69
625.433	225.69
625.639	236.69
625.846	239.69
626.053	225.69
626.259	222.69
626.466	232.69
626.673	224.69
626.879	221.69
627.086	237.69
627.293	214.69
627.499	240.69
627.706	226.69
627.912	228.69
628.119	236.69
628.325	237.69
628.532	225.69
628.738	231.69
628.945	228.69
629.151	221.69
629.357	206.69
629.564	214.69
629.77	221.69
629.976	215.69
630.183	201.69
630.389	213.69
630.595	204.69
630.802	217.69
631.008	216.69
631.214	218.69
631.42	226.69
631.627	216.69
631.833	210.69
632.039	202.69
632.245	203.69
632.451	207.69
632.657	196.69
632.863	217.69
633.069	207.69
633.275	209.69
633.481	200.69
633.688	205.69
633.893	191.69
634.099	190.69
634.305	195.69
634.511	188.69
634.717	204.69
634.923	202.69
635.129	195.69
635.335	191.69
635.541	208.69
635.747	202.69
635.952	191.69
636.158	191.69
636.364	197.69
636.57	200.69
636.775	202.69
636.981	194.69
637.187	199.69
637.392	200.69
637.598	208.69
637.804	194.69
638.009	179.69
638.215	200.69
638.421	197.69
638.626	173.69
638.832	181.69
639.037	194.69
639.243	194.69
639.448	183.69
639.654	198.69
639.859	203.69
640.065	181.69
640.27	207.69
640.475	193.69
640.681	188.69
640.886	174.69
641.091	190.69
641.297	199.69
641.502	193.69
641.707	179.69
641.913	189.69
642.118	202.69
642.323	197.69
642.528	187.69
642.733	174.69
642.939	166.69
643.144	172.69
643.349	181.69
643.554	176.69
643.759	184.69
643.964	174.69
644.169	162.69
644.374	168.69
644.579	183.69
644.784	196.69
644.989	180.69
645.194	184.69
645.399	175.69
645.604	173.69
645.809	185.69
646.014	184.69
646.219	161.69
646.423	168.69
646.628	158.69
646.833	175.69
647.038	176.69
647.243	172.69
647.447	194.69
647.652	186.69
647.857	191.69
648.062	165.69
648.266	158.69
648.471	182.69
648.676	184.69
648.88	166.69
649.085	184.69
649.289	183.69
649.494	189.69
649.698	190.69
649.903	183.69
650.107	186.69
650.312	174.69
650.516	180.69
650.721	182.69
650.925	163.69
651.13	174.69
651.334	160.69
651.539	175.69
651.743	167.69
651.947	171.69
652.152	154.69
652.356	159.69
652.56	142.69
652.764	173.69
652.969	154.69
653.173	151.69
653.377	138.69
653.581	148.69
653.785	144.69
653.99	144.69
654.194	147.69
654.398	135.69
654.602	131.69
654.806	135.69
655.01	136.69
655.214	158.69
655.418	127.69
655.622	128.69
655.826	127.69
656.03	128.69
656.234	136.69
656.438	124.69
656.642	130.69
656.846	136.69
657.049	134.69
657.253	131.69
657.457	117.69
657.661	137.69
657.865	111.69
658.068	124.69
658.272	121.69
658.476	118.69
658.68	127.69
658.883	116.69
659.087	103.69
659.291	105.69
659.494	103.69
659.698	105.69
659.901	99.69
660.105	101.69
660.309	112.69
660.512	94.69
660.716	101.69
660.919	94.69
661.123	94.69
661.326	91.69
661.53	98.69
661.733	87.69
661.936	93.69
662.14	96.69
662.343	95.69
662.546	85.69
662.75	100.69
662.953	87.69
663.156	86.69
663.36	94.69
663.563	109.69
663.766	100.69
663.969	89.69
664.173	79.69
664.376	103.69
664.579	79.69
664.782	83.69
664.985	81.69
665.188	85.69
665.391	78.69
665.594	82.69
665.797	80.69
666	86.69
666.203	85.69
666.406	78.69
666.609	100.69
666.812	90.69
667.015	84.69
667.218	90.69
667.421	94.69
667.624	93.69
667.827	91.69
668.03	88.69
668.232	80.69
668.435	87.69
668.638	70.69
668.841	80.69
669.043	84.69
669.246	88.69
669.449	95.69
669.651	84.69
669.854	87.69
670.057	86.69
670.259	77.69
670.462	81.69
670.665	81.69
670.867	82.69
671.07	85.69
671.272	93.69
671.475	98.69
671.677	83.69
671.88	85.69
672.082	87.69
672.284	85.69
672.487	82.69
672.689	81.69
672.892	105.69
