Data from 1971.PennyLincolnUp.Lamp.En5.5.200Scan.071719.P1.Scan 2. Changed Angle._HRD10591_15-24-52-843.txt Node
Date: Thu Jul 18 15:24:52 EDT 2019
User: cochatt
Spectrometer: HR+D1059
Trigger mode: 1
Integration Time (sec): 1.000000E-1
Scans to average: 1
Electric dark correction enabled: true
Nonlinearity correction enabled: false
Boxcar width: 0
XAxis mode: Wavelengths
Number of Pixels in Spectrum: 2048
>>>>>Begin Spectral Data<<<<<
223.165	-19.06
223.4	-19.06
223.635	-19.06
223.869	-15.06
224.104	-23.06
224.338	-26.06
224.573	-22.06
224.808	-7.06
225.042	-2.06
225.277	1.94
225.511	2.94
225.746	-1.06
225.98	20.94
226.215	9.94
226.449	18.94
226.683	11.94
226.918	20.94
227.152	27.94
227.387	28.94
227.621	42.94
227.856	23.94
228.09	42.94
228.324	52.94
228.559	59.94
228.793	75.94
229.027	122.94
229.262	123.94
229.496	128.94
229.73	148.94
229.964	172.94
230.199	147.94
230.433	135.94
230.667	125.94
230.901	114.94
231.136	133.94
231.37	116.94
231.604	123.94
231.838	124.94
232.072	122.94
232.306	127.94
232.541	113.94
232.775	108.94
233.009	124.94
233.243	127.94
233.477	125.94
233.711	122.94
233.945	137.94
234.179	117.94
234.413	122.94
234.647	105.94
234.881	123.94
235.115	139.94
235.349	118.94
235.583	122.94
235.817	130.94
236.051	136.94
236.285	138.94
236.519	137.94
236.753	125.94
236.987	142.94
237.221	215.94
237.455	275.94
237.689	220.94
237.922	172.94
238.156	136.94
238.39	135.94
238.624	131.94
238.858	131.94
239.091	131.94
239.325	131.94
239.559	126.94
239.793	149.94
240.027	139.94
240.26	149.94
240.494	172.94
240.728	140.94
240.961	149.94
241.195	163.94
241.429	153.94
241.662	152.94
241.896	147.94
242.13	135.94
242.363	150.94
242.597	153.94
242.83	150.94
243.064	130.94
243.298	169.94
243.531	140.94
243.765	150.94
243.998	148.94
244.232	147.94
244.465	137.94
244.699	148.94
244.932	147.94
245.166	159.94
245.399	153.94
245.633	161.94
245.866	153.94
246.099	165.94
246.333	161.94
246.566	156.94
246.8	161.94
247.033	184.94
247.266	163.94
247.5	174.94
247.733	191.94
247.966	188.94
248.2	187.94
248.433	181.94
248.666	200.94
248.899	198.94
249.133	224.94
249.366	244.94
249.599	217.94
249.832	212.94
250.066	203.94
250.299	218.94
250.532	208.94
250.765	232.94
250.998	254.94
251.231	264.94
251.465	242.94
251.698	235.94
251.931	208.94
252.164	222.94
252.397	231.94
252.63	232.94
252.863	221.94
253.096	243.94
253.329	245.94
253.562	252.94
253.795	237.94
254.028	239.94
254.261	261.94
254.494	276.94
254.727	299.94
254.96	330.94
255.193	305.94
255.426	276.94
255.659	263.94
255.892	253.94
256.124	259.94
256.357	275.94
256.59	248.94
256.823	230.94
257.056	234.94
257.289	244.94
257.521	233.94
257.754	230.94
257.987	222.94
258.22	242.94
258.452	211.94
258.685	233.94
258.918	222.94
259.151	224.94
259.383	227.94
259.616	234.94
259.849	259.94
260.081	240.94
260.314	276.94
260.547	276.94
260.779	287.94
261.012	274.94
261.244	249.94
261.477	255.94
261.71	220.94
261.942	257.94
262.175	268.94
262.407	268.94
262.64	249.94
262.872	241.94
263.105	228.94
263.337	243.94
263.57	213.94
263.802	222.94
264.035	235.94
264.267	213.94
264.499	232.94
264.732	225.94
264.964	225.94
265.197	216.94
265.429	223.94
265.661	237.94
265.894	236.94
266.126	199.94
266.358	223.94
266.591	227.94
266.823	235.94
267.055	239.94
267.287	255.94
267.52	247.94
267.752	214.94
267.984	241.94
268.216	232.94
268.448	241.94
268.681	236.94
268.913	263.94
269.145	279.94
269.377	289.94
269.609	296.94
269.841	291.94
270.073	300.94
270.306	325.94
270.538	337.94
270.77	343.94
271.002	338.94
271.234	321.94
271.466	315.94
271.698	327.94
271.93	353.94
272.162	354.94
272.394	347.94
272.626	348.94
272.858	321.94
273.09	299.94
273.322	284.94
273.553	287.94
273.785	280.94
274.017	281.94
274.249	272.94
274.481	272.94
274.713	275.94
274.945	278.94
275.176	275.94
275.408	271.94
275.64	283.94
275.872	283.94
276.104	271.94
276.335	280.94
276.567	295.94
276.799	310.94
277.031	320.94
277.262	328.94
277.494	340.94
277.726	322.94
277.957	323.94
278.189	300.94
278.421	288.94
278.652	294.94
278.884	281.94
279.115	294.94
279.347	272.94
279.579	275.94
279.81	285.94
280.042	255.94
280.273	279.94
280.505	269.94
280.736	268.94
280.968	270.94
281.199	273.94
281.431	275.94
281.662	285.94
281.894	279.94
282.125	276.94
282.356	304.94
282.588	322.94
282.819	323.94
283.051	291.94
283.282	269.94
283.513	275.94
283.745	293.94
283.976	273.94
284.207	295.94
284.439	273.94
284.67	287.94
284.901	283.94
285.132	265.94
285.364	267.94
285.595	267.94
285.826	277.94
286.057	276.94
286.288	268.94
286.52	289.94
286.751	269.94
286.982	264.94
287.213	300.94
287.444	285.94
287.675	291.94
287.906	296.94
288.138	308.94
288.369	317.94
288.6	303.94
288.831	311.94
289.062	301.94
289.293	287.94
289.524	287.94
289.755	277.94
289.986	274.94
290.217	302.94
290.448	288.94
290.679	284.94
290.91	289.94
291.141	265.94
291.371	268.94
291.602	285.94
291.833	293.94
292.064	281.94
292.295	280.94
292.526	288.94
292.757	298.94
292.987	287.94
293.218	299.94
293.449	294.94
293.68	280.94
293.91	293.94
294.141	287.94
294.372	283.94
294.603	281.94
294.833	288.94
295.064	295.94
295.295	286.94
295.525	276.94
295.756	295.94
295.987	296.94
296.217	339.94
296.448	355.94
296.679	330.94
296.909	285.94
297.14	303.94
297.37	303.94
297.601	313.94
297.831	294.94
298.062	289.94
298.292	297.94
298.523	290.94
298.753	298.94
298.984	314.94
299.214	297.94
299.445	308.94
299.675	298.94
299.905	323.94
300.136	311.94
300.366	300.94
300.597	294.94
300.827	322.94
301.057	323.94
301.288	334.94
301.518	325.94
301.748	317.94
301.979	319.94
302.209	333.94
302.439	339.94
302.669	341.94
302.9	318.94
303.13	301.94
303.36	307.94
303.59	330.94
303.82	323.94
304.051	335.94
304.281	314.94
304.511	313.94
304.741	317.94
304.971	317.94
305.201	329.94
305.431	345.94
305.661	316.94
305.891	324.94
306.121	312.94
306.352	333.94
306.582	339.94
306.812	346.94
307.042	344.94
307.272	321.94
307.502	329.94
307.731	342.94
307.961	346.94
308.191	315.94
308.421	318.94
308.651	343.94
308.881	349.94
309.111	355.94
309.341	349.94
309.571	378.94
309.8	371.94
310.03	376.94
310.26	396.94
310.49	387.94
310.72	396.94
310.949	409.94
311.179	435.94
311.409	386.94
311.639	401.94
311.868	385.94
312.098	393.94
312.328	396.94
312.557	433.94
312.787	458.94
313.017	435.94
313.246	415.94
313.476	388.94
313.706	408.94
313.935	387.94
314.165	431.94
314.394	409.94
314.624	422.94
314.853	396.94
315.083	397.94
315.312	400.94
315.542	378.94
315.771	358.94
316.001	369.94
316.23	373.94
316.46	387.94
316.689	374.94
316.919	398.94
317.148	392.94
317.377	386.94
317.607	374.94
317.836	378.94
318.065	380.94
318.295	416.94
318.524	395.94
318.753	365.94
318.983	391.94
319.212	385.94
319.441	419.94
319.67	408.94
319.9	389.94
320.129	395.94
320.358	392.94
320.587	397.94
320.816	403.94
321.046	423.94
321.275	430.94
321.504	419.94
321.733	436.94
321.962	433.94
322.191	451.94
322.42	479.94
322.649	485.94
322.878	496.94
323.108	505.94
323.337	537.94
323.566	577.94
323.795	645.94
324.024	678.94
324.253	827.94
324.482	1259.94
324.71	1959.94
324.939	2857.94
325.168	2431.94
325.397	1238.94
325.626	825.94
325.855	639.94
326.084	609.94
326.313	545.94
326.542	586.94
326.77	637.94
326.999	787.94
327.228	1126.94
327.457	1732.94
327.686	2116.94
327.914	1403.94
328.143	889.94
328.372	777.94
328.6	684.94
328.829	686.94
329.058	694.94
329.287	696.94
329.515	677.94
329.744	606.94
329.972	595.94
330.201	632.94
330.43	665.94
330.658	720.94
330.887	756.94
331.115	716.94
331.344	599.94
331.572	569.94
331.801	536.94
332.03	556.94
332.258	544.94
332.486	494.94
332.715	499.94
332.943	475.94
333.172	490.94
333.4	475.94
333.629	484.94
333.857	513.94
334.085	516.94
334.314	519.94
334.542	584.94
334.771	600.94
334.999	556.94
335.227	506.94
335.455	481.94
335.684	463.94
335.912	459.94
336.14	447.94
336.369	443.94
336.597	461.94
336.825	473.94
337.053	471.94
337.281	445.94
337.51	463.94
337.738	471.94
337.966	435.94
338.194	451.94
338.422	467.94
338.65	443.94
338.878	459.94
339.106	447.94
339.334	443.94
339.562	458.94
339.79	438.94
340.018	434.94
340.246	446.94
340.474	459.94
340.702	455.94
340.93	449.94
341.158	439.94
341.386	439.94
341.614	448.94
341.842	425.94
342.07	425.94
342.298	447.94
342.526	425.94
342.754	423.94
342.981	421.94
343.209	443.94
343.437	425.94
343.665	435.94
343.893	419.94
344.12	444.94
344.348	433.94
344.576	445.94
344.804	458.94
345.031	451.94
345.259	490.94
345.487	475.94
345.714	447.94
345.942	456.94
346.17	467.94
346.397	445.94
346.625	441.94
346.853	445.94
347.08	440.94
347.308	460.94
347.535	470.94
347.763	463.94
347.99	436.94
348.218	471.94
348.445	480.94
348.673	483.94
348.9	472.94
349.128	435.94
349.355	419.94
349.583	440.94
349.81	427.94
350.037	441.94
350.265	433.94
350.492	414.94
350.72	441.94
350.947	447.94
351.174	451.94
351.402	452.94
351.629	467.94
351.856	470.94
352.083	461.94
352.311	480.94
352.538	459.94
352.765	485.94
352.992	455.94
353.22	442.94
353.447	444.94
353.674	439.94
353.901	427.94
354.128	432.94
354.355	430.94
354.583	415.94
354.81	412.94
355.037	387.94
355.264	405.94
355.491	400.94
355.718	393.94
355.945	409.94
356.172	402.94
356.399	402.94
356.626	395.94
356.853	393.94
357.08	402.94
357.307	415.94
357.534	406.94
357.761	419.94
357.988	423.94
358.215	406.94
358.441	422.94
358.668	403.94
358.895	395.94
359.122	409.94
359.349	441.94
359.576	433.94
359.802	501.94
360.029	526.94
360.256	551.94
360.483	508.94
360.709	481.94
360.936	445.94
361.163	447.94
361.39	456.94
361.616	469.94
361.843	458.94
362.07	461.94
362.296	477.94
362.523	442.94
362.749	465.94
362.976	438.94
363.203	419.94
363.429	449.94
363.656	433.94
363.882	435.94
364.109	427.94
364.335	431.94
364.562	395.94
364.788	424.94
365.015	421.94
365.241	436.94
365.468	441.94
365.694	435.94
365.92	448.94
366.147	427.94
366.373	410.94
366.599	412.94
366.826	411.94
367.052	429.94
367.278	408.94
367.505	431.94
367.731	424.94
367.957	426.94
368.184	443.94
368.41	435.94
368.636	440.94
368.862	431.94
369.089	439.94
369.315	438.94
369.541	428.94
369.767	427.94
369.993	441.94
370.219	429.94
370.445	411.94
370.672	416.94
370.898	417.94
371.124	420.94
371.35	434.94
371.576	425.94
371.802	407.94
372.028	399.94
372.254	424.94
372.48	429.94
372.706	405.94
372.932	431.94
373.158	428.94
373.384	420.94
373.61	416.94
373.835	409.94
374.061	442.94
374.287	439.94
374.513	419.94
374.739	420.94
374.965	414.94
375.191	417.94
375.416	422.94
375.642	423.94
375.868	414.94
376.094	435.94
376.319	421.94
376.545	423.94
376.771	426.94
376.997	433.94
377.222	422.94
377.448	421.94
377.674	409.94
377.899	400.94
378.125	413.94
378.35	410.94
378.576	403.94
378.802	413.94
379.027	419.94
379.253	436.94
379.478	393.94
379.704	407.94
379.929	431.94
380.155	420.94
380.38	437.94
380.606	435.94
380.831	434.94
381.057	405.94
381.282	418.94
381.507	410.94
381.733	417.94
381.958	429.94
382.184	422.94
382.409	428.94
382.634	433.94
382.86	425.94
383.085	455.94
383.31	420.94
383.535	444.94
383.761	419.94
383.986	413.94
384.211	428.94
384.436	443.94
384.662	435.94
384.887	412.94
385.112	434.94
385.337	435.94
385.562	441.94
385.787	441.94
386.013	443.94
386.238	461.94
386.463	463.94
386.688	447.94
386.913	439.94
387.138	447.94
387.363	442.94
387.588	444.94
387.813	443.94
388.038	439.94
388.263	430.94
388.488	451.94
388.713	442.94
388.938	467.94
389.163	444.94
389.387	440.94
389.612	453.94
389.837	469.94
390.062	435.94
390.287	435.94
390.512	453.94
390.736	459.94
390.961	456.94
391.186	472.94
391.411	456.94
391.636	469.94
391.86	455.94
392.085	458.94
392.31	465.94
392.534	475.94
392.759	467.94
392.984	451.94
393.208	472.94
393.433	477.94
393.658	450.94
393.882	448.94
394.107	460.94
394.331	452.94
394.556	461.94
394.78	452.94
395.005	452.94
395.229	452.94
395.454	464.94
395.678	462.94
395.903	474.94
396.127	500.94
396.352	520.94
396.576	499.94
396.801	480.94
397.025	480.94
397.249	475.94
397.474	501.94
397.698	479.94
397.922	502.94
398.147	519.94
398.371	514.94
398.595	513.94
398.82	497.94
399.044	518.94
399.268	524.94
399.492	555.94
399.717	568.94
399.941	598.94
400.165	613.94
400.389	623.94
400.613	581.94
400.837	540.94
401.062	525.94
401.286	523.94
401.51	532.94
401.734	537.94
401.958	532.94
402.182	539.94
402.406	545.94
402.63	563.94
402.854	544.94
403.078	538.94
403.302	537.94
403.526	559.94
403.75	535.94
403.974	565.94
404.198	544.94
404.422	532.94
404.645	573.94
404.869	557.94
405.093	602.94
405.317	654.94
405.541	680.94
405.765	642.94
405.988	600.94
406.212	591.94
406.436	629.94
406.66	650.94
406.883	619.94
407.107	645.94
407.331	681.94
407.555	750.94
407.778	734.94
408.002	684.94
408.226	625.94
408.449	617.94
408.673	611.94
408.896	627.94
409.12	683.94
409.344	659.94
409.567	602.94
409.791	573.94
410.014	545.94
410.238	578.94
410.461	574.94
410.685	566.94
410.908	582.94
411.132	627.94
411.355	670.94
411.578	636.94
411.802	579.94
412.025	581.94
412.249	564.94
412.472	600.94
412.695	663.94
412.919	613.94
413.142	573.94
413.365	555.94
413.589	542.94
413.812	524.94
414.035	532.94
414.258	523.94
414.482	521.94
414.705	517.94
414.928	529.94
415.151	491.94
415.374	510.94
415.597	525.94
415.821	523.94
416.044	525.94
416.267	526.94
416.49	520.94
416.713	515.94
416.936	524.94
417.159	537.94
417.382	541.94
417.605	536.94
417.828	563.94
418.051	580.94
418.274	561.94
418.497	512.94
418.72	546.94
418.943	556.94
419.166	562.94
419.389	556.94
419.611	566.94
419.834	569.94
420.057	544.94
420.28	549.94
420.503	559.94
420.726	561.94
420.948	595.94
421.171	635.94
421.394	666.94
421.617	583.94
421.839	559.94
422.062	564.94
422.285	609.94
422.507	660.94
422.73	751.94
422.953	712.94
423.175	625.94
423.398	598.94
423.621	599.94
423.843	602.94
424.066	606.94
424.288	609.94
424.511	639.94
424.733	688.94
424.956	784.94
425.178	759.94
425.401	785.94
425.623	789.94
425.846	686.94
426.068	634.94
426.291	641.94
426.513	624.94
426.735	657.94
426.958	703.94
427.18	785.94
427.402	959.94
427.625	1076.94
427.847	941.94
428.069	800.94
428.292	712.94
428.514	660.94
428.736	621.94
428.958	601.94
429.181	581.94
429.403	582.94
429.625	605.94
429.847	625.94
430.069	721.94
430.292	709.94
430.514	599.94
430.736	589.94
430.958	571.94
431.18	543.94
431.402	558.94
431.624	541.94
431.846	525.94
432.068	543.94
432.29	544.94
432.512	526.94
432.734	563.94
432.956	545.94
433.178	582.94
433.4	561.94
433.622	555.94
433.844	545.94
434.066	551.94
434.287	539.94
434.509	545.94
434.731	539.94
434.953	542.94
435.175	575.94
435.397	609.94
435.618	631.94
435.84	693.94
436.062	773.94
436.284	866.94
436.505	743.94
436.727	644.94
436.949	603.94
437.17	589.94
437.392	598.94
437.614	631.94
437.835	673.94
438.057	760.94
438.278	906.94
438.5	909.94
438.721	940.94
438.943	886.94
439.165	737.94
439.386	698.94
439.608	668.94
439.829	681.94
440.05	685.94
440.272	743.94
440.493	717.94
440.715	648.94
440.936	615.94
441.158	588.94
441.379	588.94
441.6	625.94
441.822	648.94
442.043	676.94
442.264	776.94
442.486	842.94
442.707	730.94
442.928	678.94
443.149	669.94
443.371	723.94
443.592	756.94
443.813	865.94
444.034	931.94
444.255	771.94
444.476	687.94
444.698	639.94
444.919	623.94
445.14	774.94
445.361	707.94
445.582	698.94
445.803	798.94
446.024	889.94
446.245	907.94
446.466	863.94
446.687	736.94
446.908	655.94
447.129	635.94
447.35	606.94
447.571	628.94
447.792	592.94
448.013	608.94
448.234	665.94
448.455	672.94
448.675	806.94
448.896	961.94
449.117	806.94
449.338	764.94
449.559	885.94
449.779	973.94
450	810.94
450.221	661.94
450.442	643.94
450.662	603.94
450.883	613.94
451.104	636.94
451.324	647.94
451.545	588.94
451.766	549.94
451.986	559.94
452.207	561.94
452.428	529.94
452.648	532.94
452.869	535.94
453.089	537.94
453.31	572.94
453.53	543.94
453.751	527.94
453.971	520.94
454.192	586.94
454.412	545.94
454.633	520.94
454.853	544.94
455.073	535.94
455.294	563.94
455.514	633.94
455.734	643.94
455.955	537.94
456.175	513.94
456.395	511.94
456.616	489.94
456.836	501.94
457.056	496.94
457.276	484.94
457.497	484.94
457.717	481.94
457.937	488.94
458.157	494.94
458.377	510.94
458.598	544.94
458.818	642.94
459.038	735.94
459.258	731.94
459.478	632.94
459.698	587.94
459.918	541.94
460.138	521.94
460.358	541.94
460.578	567.94
460.798	560.94
461.018	540.94
461.238	546.94
461.458	524.94
461.678	516.94
461.898	525.94
462.118	558.94
462.338	526.94
462.558	540.94
462.777	546.94
462.997	551.94
463.217	562.94
463.437	563.94
463.657	549.94
463.876	579.94
464.096	565.94
464.316	579.94
464.536	569.94
464.755	579.94
464.975	595.94
465.195	659.94
465.414	773.94
465.634	677.94
465.854	598.94
466.073	597.94
466.293	589.94
466.512	531.94
466.732	515.94
466.951	523.94
467.171	536.94
467.391	535.94
467.61	562.94
467.829	551.94
468.049	565.94
468.268	552.94
468.488	533.94
468.707	548.94
468.927	534.94
469.146	508.94
469.365	506.94
469.585	520.94
469.804	531.94
470.023	565.94
470.243	554.94
470.462	541.94
470.681	578.94
470.901	581.94
471.12	577.94
471.339	550.94
471.558	548.94
471.777	550.94
471.997	531.94
472.216	552.94
472.435	587.94
472.654	582.94
472.873	559.94
473.092	559.94
473.311	536.94
473.53	560.94
473.749	588.94
473.968	602.94
474.187	769.94
474.406	761.94
474.625	637.94
474.844	549.94
475.063	541.94
475.282	555.94
475.501	563.94
475.72	557.94
475.939	553.94
476.158	556.94
476.377	581.94
476.596	547.94
476.814	575.94
477.033	580.94
477.252	582.94
477.471	581.94
477.69	577.94
477.908	594.94
478.127	596.94
478.346	601.94
478.564	608.94
478.783	607.94
479.002	601.94
479.22	614.94
479.439	656.94
479.658	667.94
479.876	647.94
480.095	673.94
480.313	714.94
480.532	694.94
480.751	662.94
480.969	672.94
481.188	745.94
481.406	821.94
481.624	717.94
481.843	681.94
482.061	685.94
482.28	686.94
482.498	647.94
482.717	676.94
482.935	667.94
483.153	645.94
483.372	659.94
483.59	671.94
483.808	669.94
484.027	643.94
484.245	651.94
484.463	661.94
484.681	671.94
484.9	647.94
485.118	674.94
485.336	687.94
485.554	677.94
485.772	666.94
485.99	673.94
486.209	679.94
486.427	716.94
486.645	687.94
486.863	714.94
487.081	724.94
487.299	708.94
487.517	724.94
487.735	682.94
487.953	687.94
488.171	693.94
488.389	696.94
488.607	729.94
488.825	699.94
489.043	692.94
489.261	717.94
489.479	737.94
489.696	713.94
489.914	747.94
490.132	741.94
490.35	758.94
490.568	751.94
490.786	769.94
491.003	784.94
491.221	794.94
491.439	807.94
491.657	827.94
491.874	848.94
492.092	840.94
492.31	835.94
492.527	830.94
492.745	849.94
492.963	853.94
493.18	866.94
493.398	860.94
493.615	858.94
493.833	888.94
494.05	882.94
494.268	869.94
494.485	844.94
494.703	855.94
494.92	856.94
495.138	844.94
495.355	869.94
495.573	848.94
495.79	836.94
496.008	859.94
496.225	884.94
496.442	865.94
496.66	851.94
496.877	831.94
497.094	873.94
497.312	867.94
497.529	872.94
497.746	860.94
497.963	892.94
498.181	910.94
498.398	935.94
498.615	939.94
498.832	938.94
499.049	913.94
499.267	952.94
499.484	927.94
499.701	960.94
499.918	999.94
500.135	1034.94
500.352	1050.94
500.569	1071.94
500.786	1056.94
501.003	1038.94
501.22	1027.94
501.437	1024.94
501.654	1023.94
501.871	1050.94
502.088	983.94
502.305	972.94
502.522	931.94
502.739	925.94
502.956	907.94
503.172	873.94
503.389	896.94
503.606	901.94
503.823	896.94
504.04	852.94
504.256	855.94
504.473	852.94
504.69	856.94
504.907	832.94
505.123	838.94
505.34	835.94
505.557	845.94
505.773	835.94
505.99	818.94
506.207	842.94
506.423	809.94
506.64	810.94
506.856	808.94
507.073	815.94
507.289	807.94
507.506	818.94
507.722	828.94
507.939	845.94
508.155	835.94
508.372	797.94
508.588	796.94
508.805	792.94
509.021	801.94
509.238	800.94
509.454	811.94
509.67	829.94
509.887	803.94
510.103	795.94
510.319	817.94
510.536	921.94
510.752	1641.94
510.968	1309.94
511.184	841.94
511.401	806.94
511.617	770.94
511.833	788.94
512.049	764.94
512.265	723.94
512.481	771.94
512.698	749.94
512.914	744.94
513.13	714.94
513.346	728.94
513.562	751.94
513.778	781.94
513.994	765.94
514.21	807.94
514.426	845.94
514.642	895.94
514.858	961.94
515.074	1001.94
515.29	1225.94
515.506	1860.94
515.721	1479.94
515.937	993.94
516.153	887.94
516.369	816.94
516.585	809.94
516.801	782.94
517.016	782.94
517.232	734.94
517.448	769.94
517.664	779.94
517.879	755.94
518.095	745.94
518.311	744.94
518.527	778.94
518.742	745.94
518.958	747.94
519.173	764.94
519.389	765.94
519.605	755.94
519.82	783.94
520.036	785.94
520.251	802.94
520.467	869.94
520.682	845.94
520.898	863.94
521.113	903.94
521.329	956.94
521.544	1123.94
521.76	1425.94
521.975	2463.94
522.19	2373.94
522.406	1287.94
522.621	932.94
522.836	850.94
523.052	797.94
523.267	741.94
523.482	720.94
523.698	696.94
523.913	714.94
524.128	699.94
524.343	672.94
524.559	666.94
524.774	664.94
524.989	655.94
525.204	684.94
525.419	654.94
525.634	661.94
525.849	651.94
526.064	615.94
526.28	606.94
526.495	616.94
526.71	610.94
526.925	583.94
527.14	577.94
527.355	608.94
527.57	587.94
527.785	593.94
527.999	611.94
528.214	602.94
528.429	594.94
528.644	597.94
528.859	603.94
529.074	603.94
529.289	659.94
529.503	764.94
529.718	744.94
529.933	668.94
530.148	628.94
530.363	622.94
530.577	611.94
530.792	589.94
531.007	579.94
531.221	583.94
531.436	580.94
531.651	573.94
531.865	577.94
532.08	562.94
532.295	577.94
532.509	563.94
532.724	574.94
532.938	562.94
533.153	543.94
533.367	576.94
533.582	541.94
533.796	534.94
534.011	554.94
534.225	555.94
534.44	557.94
534.654	568.94
534.868	565.94
535.083	556.94
535.297	553.94
535.511	552.94
535.726	573.94
535.94	577.94
536.154	578.94
536.369	554.94
536.583	530.94
536.797	538.94
537.011	561.94
537.225	552.94
537.44	524.94
537.654	529.94
537.868	522.94
538.082	557.94
538.296	555.94
538.51	552.94
538.724	535.94
538.938	531.94
539.153	564.94
539.367	580.94
539.581	580.94
539.795	547.94
540.009	563.94
540.222	522.94
540.436	555.94
540.65	535.94
540.864	554.94
541.078	531.94
541.292	553.94
541.506	549.94
541.72	555.94
541.934	554.94
542.147	535.94
542.361	531.94
542.575	531.94
542.789	547.94
543.002	537.94
543.216	533.94
543.43	538.94
543.644	527.94
543.857	548.94
544.071	536.94
544.285	542.94
544.498	540.94
544.712	525.94
544.925	546.94
545.139	533.94
545.352	519.94
545.566	516.94
545.779	530.94
545.993	515.94
546.206	519.94
546.42	538.94
546.633	555.94
546.847	521.94
547.06	500.94
547.274	518.94
547.487	511.94
547.7	500.94
547.914	529.94
548.127	508.94
548.34	497.94
548.554	485.94
548.767	505.94
548.98	515.94
549.193	505.94
549.407	520.94
549.62	492.94
549.833	479.94
550.046	510.94
550.259	496.94
550.473	496.94
550.686	528.94
550.899	500.94
551.112	489.94
551.325	469.94
551.538	490.94
551.751	495.94
551.964	488.94
552.177	488.94
552.39	473.94
552.603	481.94
552.816	503.94
553.029	502.94
553.242	492.94
553.455	507.94
553.667	540.94
553.88	525.94
554.093	513.94
554.306	496.94
554.519	504.94
554.732	497.94
554.944	500.94
555.157	493.94
555.37	491.94
555.583	482.94
555.795	468.94
556.008	476.94
556.221	463.94
556.433	459.94
556.646	468.94
556.859	479.94
557.071	438.94
557.284	449.94
557.496	471.94
557.709	459.94
557.921	474.94
558.134	446.94
558.346	474.94
558.559	467.94
558.771	446.94
558.984	459.94
559.196	443.94
559.409	445.94
559.621	434.94
559.833	427.94
560.046	449.94
560.258	429.94
560.47	429.94
560.683	447.94
560.895	431.94
561.107	427.94
561.32	447.94
561.532	440.94
561.744	438.94
561.956	459.94
562.168	451.94
562.381	448.94
562.593	456.94
562.805	458.94
563.017	442.94
563.229	465.94
563.441	459.94
563.653	446.94
563.865	443.94
564.077	464.94
564.289	471.94
564.501	454.94
564.713	443.94
564.925	476.94
565.137	479.94
565.349	467.94
565.561	481.94
565.773	482.94
565.985	448.94
566.197	482.94
566.408	492.94
566.62	462.94
566.832	492.94
567.044	486.94
567.255	500.94
567.467	507.94
567.679	514.94
567.891	510.94
568.102	501.94
568.314	488.94
568.526	490.94
568.737	468.94
568.949	450.94
569.161	462.94
569.372	447.94
569.584	459.94
569.795	458.94
570.007	445.94
570.218	526.94
570.43	503.94
570.641	431.94
570.853	424.94
571.064	429.94
571.276	394.94
571.487	421.94
571.698	424.94
571.91	411.94
572.121	407.94
572.333	393.94
572.544	420.94
572.755	408.94
572.966	401.94
573.178	379.94
573.389	373.94
573.6	387.94
573.811	392.94
574.023	385.94
574.234	356.94
574.445	379.94
574.656	376.94
574.867	387.94
575.078	376.94
575.289	378.94
575.501	395.94
575.712	358.94
575.923	379.94
576.134	373.94
576.345	376.94
576.556	368.94
576.767	379.94
576.978	371.94
577.188	373.94
577.399	359.94
577.61	365.94
577.821	382.94
578.032	376.94
578.243	426.94
578.454	753.94
578.665	563.94
578.875	387.94
579.086	361.94
579.297	361.94
579.508	356.94
579.718	352.94
579.929	360.94
580.14	348.94
580.35	335.94
580.561	333.94
580.772	345.94
580.982	344.94
581.193	348.94
581.403	367.94
581.614	351.94
581.825	343.94
582.035	353.94
582.246	341.94
582.456	337.94
582.667	337.94
582.877	340.94
583.087	336.94
583.298	360.94
583.508	362.94
583.719	341.94
583.929	342.94
584.139	339.94
584.35	316.94
584.56	343.94
584.77	337.94
584.981	336.94
585.191	332.94
585.401	336.94
585.611	352.94
585.821	337.94
586.032	329.94
586.242	340.94
586.452	353.94
586.662	337.94
586.872	336.94
587.082	329.94
587.292	312.94
587.502	327.94
587.713	328.94
587.923	345.94
588.133	336.94
588.343	321.94
588.553	323.94
588.762	335.94
588.972	345.94
589.182	315.94
589.392	344.94
589.602	316.94
589.812	332.94
590.022	328.94
590.232	325.94
590.441	324.94
590.651	331.94
590.861	309.94
591.071	338.94
591.281	337.94
591.49	323.94
591.7	336.94
591.91	324.94
592.119	331.94
592.329	343.94
592.539	324.94
592.748	337.94
592.958	337.94
593.167	329.94
593.377	333.94
593.587	333.94
593.796	323.94
594.006	328.94
594.215	321.94
594.424	322.94
594.634	321.94
594.843	336.94
595.053	346.94
595.262	331.94
595.472	315.94
595.681	322.94
595.89	321.94
596.1	329.94
596.309	314.94
596.518	331.94
596.727	307.94
596.937	311.94
597.146	303.94
597.355	324.94
597.564	311.94
597.774	323.94
597.983	310.94
598.192	303.94
598.401	303.94
598.61	285.94
598.819	303.94
599.028	303.94
599.237	312.94
599.446	281.94
599.655	303.94
599.864	277.94
600.073	298.94
600.282	287.94
600.491	295.94
600.7	285.94
600.909	292.94
601.118	294.94
601.327	298.94
601.536	283.94
601.745	293.94
601.953	279.94
602.162	283.94
602.371	278.94
602.58	297.94
602.789	306.94
602.997	284.94
603.206	276.94
603.415	286.94
603.623	280.94
603.832	281.94
604.041	284.94
604.249	296.94
604.458	290.94
604.666	264.94
604.875	259.94
605.084	260.94
605.292	282.94
605.501	271.94
605.709	275.94
605.918	278.94
606.126	297.94
606.334	291.94
606.543	262.94
606.751	288.94
606.96	280.94
607.168	261.94
607.376	276.94
607.585	276.94
607.793	260.94
608.001	262.94
608.21	260.94
608.418	299.94
608.626	281.94
608.834	278.94
609.043	284.94
609.251	277.94
609.459	261.94
609.667	282.94
609.875	281.94
610.083	281.94
610.291	298.94
610.499	291.94
610.707	251.94
610.916	275.94
611.124	286.94
611.332	279.94
611.54	283.94
611.748	288.94
611.955	261.94
612.163	275.94
612.371	276.94
612.579	283.94
612.787	269.94
612.995	271.94
613.203	280.94
613.411	273.94
613.618	281.94
613.826	249.94
614.034	267.94
614.242	258.94
614.449	258.94
614.657	285.94
614.865	249.94
615.072	272.94
615.28	258.94
615.488	268.94
615.695	254.94
615.903	273.94
616.111	269.94
616.318	274.94
616.526	277.94
616.733	279.94
616.941	258.94
617.148	273.94
617.356	260.94
617.563	264.94
617.771	276.94
617.978	266.94
618.185	250.94
618.393	272.94
618.6	265.94
618.807	253.94
619.015	257.94
619.222	267.94
619.429	257.94
619.637	262.94
619.844	259.94
620.051	260.94
620.258	259.94
620.466	248.94
620.673	255.94
620.88	249.94
621.087	255.94
621.294	233.94
621.501	244.94
621.708	239.94
621.915	271.94
622.122	251.94
622.329	263.94
622.536	247.94
622.743	265.94
622.95	237.94
623.157	236.94
623.364	243.94
623.571	255.94
623.778	254.94
623.985	250.94
624.192	239.94
624.399	235.94
624.606	249.94
624.812	238.94
625.019	245.94
625.226	244.94
625.433	235.94
625.639	223.94
625.846	229.94
626.053	233.94
626.259	232.94
626.466	242.94
626.673	236.94
626.879	234.94
627.086	236.94
627.293	230.94
627.499	226.94
627.706	219.94
627.912	230.94
628.119	235.94
628.325	238.94
628.532	220.94
628.738	215.94
628.945	224.94
629.151	223.94
629.357	227.94
629.564	225.94
629.77	224.94
629.976	209.94
630.183	229.94
630.389	213.94
630.595	230.94
630.802	216.94
631.008	225.94
631.214	219.94
631.42	219.94
631.627	223.94
631.833	209.94
632.039	195.94
632.245	201.94
632.451	219.94
632.657	199.94
632.863	216.94
633.069	211.94
633.275	217.94
633.481	210.94
633.688	199.94
633.893	197.94
634.099	211.94
634.305	215.94
634.511	213.94
634.717	201.94
634.923	219.94
635.129	193.94
635.335	198.94
635.541	180.94
635.747	196.94
635.952	188.94
636.158	208.94
636.364	196.94
636.57	212.94
636.775	203.94
636.981	197.94
637.187	208.94
637.392	203.94
637.598	190.94
637.804	204.94
638.009	192.94
638.215	194.94
638.421	200.94
638.626	195.94
638.832	190.94
639.037	197.94
639.243	180.94
639.448	205.94
639.654	194.94
639.859	195.94
640.065	184.94
640.27	181.94
640.475	201.94
640.681	181.94
640.886	207.94
641.091	187.94
641.297	195.94
641.502	191.94
641.707	197.94
641.913	189.94
642.118	182.94
642.323	198.94
642.528	176.94
642.733	177.94
642.939	198.94
643.144	179.94
643.349	187.94
643.554	193.94
643.759	178.94
643.964	166.94
644.169	183.94
644.374	170.94
644.579	192.94
644.784	182.94
644.989	177.94
645.194	194.94
645.399	181.94
645.604	172.94
645.809	186.94
646.014	178.94
646.219	184.94
646.423	177.94
646.628	188.94
646.833	185.94
647.038	199.94
647.243	188.94
647.447	197.94
647.652	187.94
647.857	180.94
648.062	193.94
648.266	182.94
648.471	187.94
648.676	191.94
648.88	180.94
649.085	183.94
649.289	190.94
649.494	187.94
649.698	205.94
649.903	195.94
650.107	165.94
650.312	191.94
650.516	167.94
650.721	173.94
650.925	159.94
651.13	179.94
651.334	173.94
651.539	145.94
651.743	155.94
651.947	146.94
652.152	168.94
652.356	156.94
652.56	159.94
652.764	179.94
652.969	141.94
653.173	147.94
653.377	140.94
653.581	148.94
653.785	146.94
653.99	157.94
654.194	154.94
654.398	146.94
654.602	150.94
654.806	135.94
655.01	147.94
655.214	146.94
655.418	139.94
655.622	132.94
655.826	145.94
656.03	131.94
656.234	130.94
656.438	129.94
656.642	132.94
656.846	128.94
657.049	133.94
657.253	126.94
657.457	126.94
657.661	112.94
657.865	119.94
658.068	111.94
658.272	116.94
658.476	128.94
658.68	120.94
658.883	103.94
659.087	105.94
659.291	111.94
659.494	98.94
659.698	95.94
659.901	103.94
660.105	88.94
660.309	103.94
660.512	84.94
660.716	84.94
660.919	101.94
661.123	87.94
661.326	83.94
661.53	76.94
661.733	88.94
661.936	101.94
662.14	93.94
662.343	91.94
662.546	90.94
662.75	96.94
662.953	91.94
663.156	79.94
663.36	82.94
663.563	80.94
663.766	84.94
663.969	83.94
664.173	84.94
664.376	84.94
664.579	79.94
664.782	81.94
664.985	81.94
665.188	80.94
665.391	84.94
665.594	77.94
665.797	83.94
666	79.94
666.203	79.94
666.406	84.94
666.609	91.94
666.812	80.94
667.015	68.94
667.218	67.94
667.421	87.94
667.624	77.94
667.827	82.94
668.03	79.94
668.232	76.94
668.435	77.94
668.638	84.94
668.841	97.94
669.043	75.94
669.246	83.94
669.449	80.94
669.651	66.94
669.854	75.94
670.057	81.94
670.259	86.94
670.462	79.94
670.665	70.94
670.867	73.94
671.07	87.94
671.272	78.94
671.475	84.94
671.677	75.94
671.88	85.94
672.082	80.94
672.284	87.94
672.487	81.94
672.689	70.94
672.892	80.94
