Data from 1971.PennyLincolnUp.Lamp.En5.5.200Scan.071719.P1.Scan 2. Changed Angle._HRD10591_15-25-34-843.txt Node
Date: Thu Jul 18 15:25:34 EDT 2019
User: cochatt
Spectrometer: HR+D1059
Trigger mode: 1
Integration Time (sec): 1.000000E-1
Scans to average: 1
Electric dark correction enabled: true
Nonlinearity correction enabled: false
Boxcar width: 0
XAxis mode: Wavelengths
Number of Pixels in Spectrum: 2048
>>>>>Begin Spectral Data<<<<<
223.165	-9.25
223.4	-9.25
223.635	-9.25
223.869	-19.25
224.104	-17.25
224.338	-4.25
224.573	-13.25
224.808	-16.25
225.042	-3.25
225.277	-7.25
225.511	-5.25
225.746	7.75
225.98	-6.25
226.215	4.75
226.449	10.75
226.683	19.75
226.918	18.75
227.152	39.75
227.387	22.75
227.621	51.75
227.856	39.75
228.09	36.75
228.324	46.75
228.559	49.75
228.793	74.75
229.027	122.75
229.262	127.75
229.496	137.75
229.73	164.75
229.964	191.75
230.199	158.75
230.433	124.75
230.667	135.75
230.901	143.75
231.136	132.75
231.37	120.75
231.604	119.75
231.838	112.75
232.072	132.75
232.306	127.75
232.541	116.75
232.775	119.75
233.009	122.75
233.243	130.75
233.477	118.75
233.711	128.75
233.945	120.75
234.179	126.75
234.413	122.75
234.647	121.75
234.881	120.75
235.115	126.75
235.349	147.75
235.583	138.75
235.817	144.75
236.051	144.75
236.285	120.75
236.519	133.75
236.753	148.75
236.987	174.75
237.221	223.75
237.455	287.75
237.689	218.75
237.922	162.75
238.156	148.75
238.39	159.75
238.624	153.75
238.858	126.75
239.091	119.75
239.325	127.75
239.559	139.75
239.793	133.75
240.027	134.75
240.26	153.75
240.494	184.75
240.728	173.75
240.961	165.75
241.195	166.75
241.429	157.75
241.662	156.75
241.896	147.75
242.13	157.75
242.363	135.75
242.597	142.75
242.83	148.75
243.064	154.75
243.298	156.75
243.531	144.75
243.765	157.75
243.998	155.75
244.232	143.75
244.465	151.75
244.699	157.75
244.932	149.75
245.166	140.75
245.399	163.75
245.633	155.75
245.866	167.75
246.099	154.75
246.333	154.75
246.566	160.75
246.8	159.75
247.033	163.75
247.266	171.75
247.5	174.75
247.733	180.75
247.966	193.75
248.2	196.75
248.433	187.75
248.666	191.75
248.899	215.75
249.133	214.75
249.366	272.75
249.599	238.75
249.832	203.75
250.066	205.75
250.299	207.75
250.532	218.75
250.765	236.75
250.998	239.75
251.231	253.75
251.465	248.75
251.698	244.75
251.931	222.75
252.164	234.75
252.397	219.75
252.63	214.75
252.863	226.75
253.096	243.75
253.329	266.75
253.562	277.75
253.795	264.75
254.028	259.75
254.261	244.75
254.494	256.75
254.727	301.75
254.96	322.75
255.193	328.75
255.426	301.75
255.659	278.75
255.892	267.75
256.124	263.75
256.357	261.75
256.59	252.75
256.823	255.75
257.056	248.75
257.289	229.75
257.521	231.75
257.754	246.75
257.987	237.75
258.22	235.75
258.452	218.75
258.685	230.75
258.918	228.75
259.151	234.75
259.383	240.75
259.616	245.75
259.849	237.75
260.081	262.75
260.314	266.75
260.547	278.75
260.779	267.75
261.012	264.75
261.244	256.75
261.477	250.75
261.71	246.75
261.942	266.75
262.175	262.75
262.407	271.75
262.64	242.75
262.872	244.75
263.105	212.75
263.337	256.75
263.57	245.75
263.802	237.75
264.035	226.75
264.267	223.75
264.499	228.75
264.732	222.75
264.964	228.75
265.197	230.75
265.429	242.75
265.661	228.75
265.894	239.75
266.126	226.75
266.358	222.75
266.591	222.75
266.823	226.75
267.055	245.75
267.287	226.75
267.52	258.75
267.752	239.75
267.984	246.75
268.216	231.75
268.448	230.75
268.681	248.75
268.913	270.75
269.145	285.75
269.377	298.75
269.609	289.75
269.841	307.75
270.073	302.75
270.306	295.75
270.538	345.75
270.77	347.75
271.002	348.75
271.234	310.75
271.466	343.75
271.698	350.75
271.93	353.75
272.162	347.75
272.394	372.75
272.626	330.75
272.858	312.75
273.09	303.75
273.322	298.75
273.553	298.75
273.785	278.75
274.017	285.75
274.249	296.75
274.481	275.75
274.713	292.75
274.945	263.75
275.176	305.75
275.408	286.75
275.64	248.75
275.872	276.75
276.104	279.75
276.335	288.75
276.567	275.75
276.799	298.75
277.031	326.75
277.262	336.75
277.494	352.75
277.726	309.75
277.957	294.75
278.189	297.75
278.421	301.75
278.652	282.75
278.884	276.75
279.115	278.75
279.347	277.75
279.579	288.75
279.81	278.75
280.042	287.75
280.273	278.75
280.505	269.75
280.736	273.75
280.968	272.75
281.199	280.75
281.431	278.75
281.662	286.75
281.894	278.75
282.125	282.75
282.356	293.75
282.588	330.75
282.819	341.75
283.051	282.75
283.282	286.75
283.513	291.75
283.745	298.75
283.976	286.75
284.207	285.75
284.439	300.75
284.67	300.75
284.901	285.75
285.132	295.75
285.364	294.75
285.595	288.75
285.826	265.75
286.057	285.75
286.288	263.75
286.52	292.75
286.751	274.75
286.982	282.75
287.213	277.75
287.444	298.75
287.675	301.75
287.906	295.75
288.138	303.75
288.369	311.75
288.6	310.75
288.831	307.75
289.062	287.75
289.293	284.75
289.524	287.75
289.755	317.75
289.986	298.75
290.217	288.75
290.448	284.75
290.679	272.75
290.91	270.75
291.141	297.75
291.371	290.75
291.602	282.75
291.833	278.75
292.064	272.75
292.295	295.75
292.526	283.75
292.757	297.75
292.987	293.75
293.218	291.75
293.449	288.75
293.68	291.75
293.91	286.75
294.141	281.75
294.372	286.75
294.603	311.75
294.833	286.75
295.064	272.75
295.295	290.75
295.525	298.75
295.756	302.75
295.987	313.75
296.217	349.75
296.448	364.75
296.679	330.75
296.909	315.75
297.14	293.75
297.37	303.75
297.601	279.75
297.831	291.75
298.062	287.75
298.292	312.75
298.523	297.75
298.753	314.75
298.984	295.75
299.214	298.75
299.445	285.75
299.675	315.75
299.905	303.75
300.136	322.75
300.366	299.75
300.597	308.75
300.827	309.75
301.057	331.75
301.288	343.75
301.518	328.75
301.748	336.75
301.979	333.75
302.209	324.75
302.439	342.75
302.669	310.75
302.9	335.75
303.13	321.75
303.36	327.75
303.59	346.75
303.82	364.75
304.051	335.75
304.281	329.75
304.511	326.75
304.741	317.75
304.971	300.75
305.201	321.75
305.431	296.75
305.661	320.75
305.891	329.75
306.121	342.75
306.352	332.75
306.582	349.75
306.812	351.75
307.042	333.75
307.272	331.75
307.502	331.75
307.731	345.75
307.961	356.75
308.191	342.75
308.421	332.75
308.651	346.75
308.881	357.75
309.111	350.75
309.341	358.75
309.571	374.75
309.8	382.75
310.03	401.75
310.26	386.75
310.49	405.75
310.72	415.75
310.949	424.75
311.179	432.75
311.409	417.75
311.639	414.75
311.868	400.75
312.098	402.75
312.328	407.75
312.557	440.75
312.787	461.75
313.017	451.75
313.246	406.75
313.476	398.75
313.706	395.75
313.935	414.75
314.165	414.75
314.394	448.75
314.624	437.75
314.853	406.75
315.083	406.75
315.312	384.75
315.542	400.75
315.771	371.75
316.001	378.75
316.23	396.75
316.46	368.75
316.689	391.75
316.919	398.75
317.148	401.75
317.377	406.75
317.607	402.75
317.836	388.75
318.065	389.75
318.295	379.75
318.524	380.75
318.753	372.75
318.983	388.75
319.212	399.75
319.441	383.75
319.67	399.75
319.9	408.75
320.129	381.75
320.358	418.75
320.587	406.75
320.816	412.75
321.046	419.75
321.275	418.75
321.504	453.75
321.733	424.75
321.962	473.75
322.191	476.75
322.42	475.75
322.649	509.75
322.878	515.75
323.108	524.75
323.337	564.75
323.566	604.75
323.795	656.75
324.024	705.75
324.253	844.75
324.482	1309.75
324.71	2064.75
324.939	2947.75
325.168	2525.75
325.397	1279.75
325.626	842.75
325.855	673.75
326.084	612.75
326.313	582.75
326.542	609.75
326.77	662.75
326.999	811.75
327.228	1152.75
327.457	1758.75
327.686	2207.75
327.914	1465.75
328.143	919.75
328.372	788.75
328.6	725.75
328.829	678.75
329.058	720.75
329.287	716.75
329.515	665.75
329.744	631.75
329.972	592.75
330.201	638.75
330.43	693.75
330.658	698.75
330.887	749.75
331.115	737.75
331.344	621.75
331.572	548.75
331.801	557.75
332.03	548.75
332.258	550.75
332.486	495.75
332.715	490.75
332.943	475.75
333.172	491.75
333.4	491.75
333.629	486.75
333.857	495.75
334.085	524.75
334.314	531.75
334.542	580.75
334.771	621.75
334.999	572.75
335.227	502.75
335.455	511.75
335.684	480.75
335.912	464.75
336.14	453.75
336.369	474.75
336.597	467.75
336.825	481.75
337.053	466.75
337.281	458.75
337.51	463.75
337.738	485.75
337.966	445.75
338.194	471.75
338.422	457.75
338.65	453.75
338.878	447.75
339.106	446.75
339.334	463.75
339.562	454.75
339.79	424.75
340.018	453.75
340.246	452.75
340.474	470.75
340.702	453.75
340.93	444.75
341.158	439.75
341.386	465.75
341.614	451.75
341.842	452.75
342.07	457.75
342.298	460.75
342.526	454.75
342.754	431.75
342.981	434.75
343.209	419.75
343.437	429.75
343.665	436.75
343.893	438.75
344.12	420.75
344.348	432.75
344.576	458.75
344.804	457.75
345.031	467.75
345.259	494.75
345.487	476.75
345.714	460.75
345.942	453.75
346.17	443.75
346.397	450.75
346.625	477.75
346.853	447.75
347.08	455.75
347.308	470.75
347.535	464.75
347.763	448.75
347.99	460.75
348.218	475.75
348.445	486.75
348.673	465.75
348.9	470.75
349.128	466.75
349.355	437.75
349.583	439.75
349.81	431.75
350.037	435.75
350.265	426.75
350.492	422.75
350.72	420.75
350.947	431.75
351.174	483.75
351.402	484.75
351.629	444.75
351.856	457.75
352.083	472.75
352.311	479.75
352.538	483.75
352.765	496.75
352.992	490.75
353.22	462.75
353.447	450.75
353.674	463.75
353.901	424.75
354.128	436.75
354.355	398.75
354.583	421.75
354.81	395.75
355.037	399.75
355.264	416.75
355.491	391.75
355.718	427.75
355.945	421.75
356.172	412.75
356.399	404.75
356.626	392.75
356.853	380.75
357.08	403.75
357.307	406.75
357.534	411.75
357.761	389.75
357.988	412.75
358.215	424.75
358.441	435.75
358.668	404.75
358.895	424.75
359.122	425.75
359.349	419.75
359.576	469.75
359.802	502.75
360.029	528.75
360.256	557.75
360.483	531.75
360.709	489.75
360.936	477.75
361.163	460.75
361.39	470.75
361.616	472.75
361.843	471.75
362.07	457.75
362.296	460.75
362.523	442.75
362.749	486.75
362.976	431.75
363.203	435.75
363.429	434.75
363.656	435.75
363.882	431.75
364.109	406.75
364.335	426.75
364.562	436.75
364.788	404.75
365.015	441.75
365.241	435.75
365.468	444.75
365.694	442.75
365.92	430.75
366.147	419.75
366.373	436.75
366.599	443.75
366.826	423.75
367.052	429.75
367.278	431.75
367.505	423.75
367.731	446.75
367.957	421.75
368.184	427.75
368.41	445.75
368.636	446.75
368.862	449.75
369.089	438.75
369.315	436.75
369.541	395.75
369.767	425.75
369.993	429.75
370.219	435.75
370.445	425.75
370.672	418.75
370.898	423.75
371.124	415.75
371.35	430.75
371.576	437.75
371.802	409.75
372.028	409.75
372.254	418.75
372.48	404.75
372.706	406.75
372.932	406.75
373.158	422.75
373.384	417.75
373.61	415.75
373.835	405.75
374.061	416.75
374.287	428.75
374.513	413.75
374.739	416.75
374.965	414.75
375.191	428.75
375.416	410.75
375.642	423.75
375.868	413.75
376.094	413.75
376.319	421.75
376.545	423.75
376.771	399.75
376.997	396.75
377.222	408.75
377.448	422.75
377.674	412.75
377.899	407.75
378.125	401.75
378.35	412.75
378.576	418.75
378.802	410.75
379.027	409.75
379.253	424.75
379.478	420.75
379.704	432.75
379.929	424.75
380.155	432.75
380.38	427.75
380.606	447.75
380.831	414.75
381.057	441.75
381.282	420.75
381.507	420.75
381.733	415.75
381.958	423.75
382.184	412.75
382.409	434.75
382.634	428.75
382.86	430.75
383.085	474.75
383.31	448.75
383.535	419.75
383.761	422.75
383.986	427.75
384.211	440.75
384.436	445.75
384.662	436.75
384.887	441.75
385.112	432.75
385.337	441.75
385.562	440.75
385.787	457.75
386.013	463.75
386.238	485.75
386.463	474.75
386.688	457.75
386.913	445.75
387.138	444.75
387.363	462.75
387.588	452.75
387.813	454.75
388.038	453.75
388.263	455.75
388.488	447.75
388.713	451.75
388.938	456.75
389.163	455.75
389.387	462.75
389.612	448.75
389.837	466.75
390.062	448.75
390.287	450.75
390.512	438.75
390.736	438.75
390.961	453.75
391.186	462.75
391.411	446.75
391.636	448.75
391.86	458.75
392.085	451.75
392.31	459.75
392.534	462.75
392.759	454.75
392.984	472.75
393.208	453.75
393.433	458.75
393.658	455.75
393.882	459.75
394.107	468.75
394.331	468.75
394.556	445.75
394.78	482.75
395.005	467.75
395.229	470.75
395.454	463.75
395.678	476.75
395.903	462.75
396.127	508.75
396.352	506.75
396.576	492.75
396.801	470.75
397.025	464.75
397.249	490.75
397.474	473.75
397.698	486.75
397.922	505.75
398.147	525.75
398.371	541.75
398.595	506.75
398.82	491.75
399.044	519.75
399.268	523.75
399.492	525.75
399.717	553.75
399.941	595.75
400.165	620.75
400.389	664.75
400.613	603.75
400.837	546.75
401.062	550.75
401.286	528.75
401.51	514.75
401.734	507.75
401.958	515.75
402.182	522.75
402.406	532.75
402.63	552.75
402.854	556.75
403.078	554.75
403.302	559.75
403.526	532.75
403.75	535.75
403.974	556.75
404.198	541.75
404.422	551.75
404.645	572.75
404.869	585.75
405.093	624.75
405.317	659.75
405.541	684.75
405.765	620.75
405.988	579.75
406.212	592.75
406.436	631.75
406.66	632.75
406.883	600.75
407.107	612.75
407.331	671.75
407.555	747.75
407.778	749.75
408.002	668.75
408.226	627.75
408.449	610.75
408.673	597.75
408.896	662.75
409.12	703.75
409.344	645.75
409.567	579.75
409.791	562.75
410.014	553.75
410.238	541.75
410.461	559.75
410.685	562.75
410.908	572.75
411.132	627.75
411.355	663.75
411.578	636.75
411.802	592.75
412.025	551.75
412.249	536.75
412.472	588.75
412.695	632.75
412.919	626.75
413.142	593.75
413.365	555.75
413.589	556.75
413.812	542.75
414.035	516.75
414.258	522.75
414.482	515.75
414.705	509.75
414.928	496.75
415.151	496.75
415.374	515.75
415.597	527.75
415.821	515.75
416.044	526.75
416.267	518.75
416.49	526.75
416.713	516.75
416.936	521.75
417.159	522.75
417.382	531.75
417.605	544.75
417.828	572.75
418.051	567.75
418.274	571.75
418.497	536.75
418.72	541.75
418.943	549.75
419.166	544.75
419.389	553.75
419.611	568.75
419.834	567.75
420.057	569.75
420.28	557.75
420.503	584.75
420.726	548.75
420.948	581.75
421.171	620.75
421.394	691.75
421.617	587.75
421.839	594.75
422.062	569.75
422.285	590.75
422.507	652.75
422.73	741.75
422.953	698.75
423.175	624.75
423.398	582.75
423.621	576.75
423.843	603.75
424.066	625.75
424.288	621.75
424.511	650.75
424.733	708.75
424.956	794.75
425.178	765.75
425.401	784.75
425.623	779.75
425.846	697.75
426.068	660.75
426.291	638.75
426.513	633.75
426.735	640.75
426.958	687.75
427.18	802.75
427.402	902.75
427.625	1064.75
427.847	960.75
428.069	826.75
428.292	714.75
428.514	647.75
428.736	610.75
428.958	593.75
429.181	611.75
429.403	608.75
429.625	621.75
429.847	643.75
430.069	728.75
430.292	712.75
430.514	602.75
430.736	573.75
430.958	585.75
431.18	548.75
431.402	563.75
431.624	539.75
431.846	558.75
432.068	542.75
432.29	539.75
432.512	535.75
432.734	548.75
432.956	568.75
433.178	566.75
433.4	579.75
433.622	549.75
433.844	560.75
434.066	553.75
434.287	532.75
434.509	528.75
434.731	534.75
434.953	559.75
435.175	579.75
435.397	600.75
435.618	646.75
435.84	695.75
436.062	784.75
436.284	877.75
436.505	713.75
436.727	658.75
436.949	635.75
437.17	597.75
437.392	582.75
437.614	622.75
437.835	676.75
438.057	798.75
438.278	897.75
438.5	898.75
438.721	952.75
438.943	930.75
439.165	726.75
439.386	662.75
439.608	671.75
439.829	653.75
440.05	682.75
440.272	781.75
440.493	719.75
440.715	627.75
440.936	601.75
441.158	602.75
441.379	596.75
441.6	613.75
441.822	656.75
442.043	688.75
442.264	800.75
442.486	842.75
442.707	716.75
442.928	642.75
443.149	657.75
443.371	742.75
443.592	758.75
443.813	855.75
444.034	896.75
444.255	745.75
444.476	670.75
444.698	638.75
444.919	621.75
445.14	734.75
445.361	674.75
445.582	706.75
445.803	808.75
446.024	895.75
446.245	920.75
446.466	844.75
446.687	696.75
446.908	671.75
447.129	614.75
447.35	602.75
447.571	605.75
447.792	573.75
448.013	599.75
448.234	636.75
448.455	700.75
448.675	812.75
448.896	944.75
449.117	788.75
449.338	744.75
449.559	850.75
449.779	958.75
450	798.75
450.221	681.75
450.442	626.75
450.662	616.75
450.883	626.75
451.104	640.75
451.324	616.75
451.545	581.75
451.766	566.75
451.986	527.75
452.207	532.75
452.428	525.75
452.648	551.75
452.869	547.75
453.089	557.75
453.31	565.75
453.53	544.75
453.751	521.75
453.971	538.75
454.192	554.75
454.412	560.75
454.633	547.75
454.853	554.75
455.073	514.75
455.294	605.75
455.514	674.75
455.734	636.75
455.955	548.75
456.175	496.75
456.395	493.75
456.616	476.75
456.836	475.75
457.056	488.75
457.276	500.75
457.497	472.75
457.717	486.75
457.937	506.75
458.157	485.75
458.377	528.75
458.598	550.75
458.818	606.75
459.038	768.75
459.258	760.75
459.478	620.75
459.698	552.75
459.918	547.75
460.138	523.75
460.358	532.75
460.578	534.75
460.798	535.75
461.018	554.75
461.238	535.75
461.458	525.75
461.678	522.75
461.898	543.75
462.118	522.75
462.338	546.75
462.558	552.75
462.777	551.75
462.997	571.75
463.217	567.75
463.437	587.75
463.657	551.75
463.876	537.75
464.096	556.75
464.316	574.75
464.536	552.75
464.755	557.75
464.975	606.75
465.195	682.75
465.414	796.75
465.634	677.75
465.854	626.75
466.073	574.75
466.293	585.75
466.512	542.75
466.732	543.75
466.951	550.75
467.171	559.75
467.391	530.75
467.61	544.75
467.829	589.75
468.049	574.75
468.268	559.75
468.488	542.75
468.707	521.75
468.927	524.75
469.146	525.75
469.365	524.75
469.585	525.75
469.804	540.75
470.023	568.75
470.243	561.75
470.462	555.75
470.681	584.75
470.901	574.75
471.12	546.75
471.339	555.75
471.558	550.75
471.777	557.75
471.997	554.75
472.216	564.75
472.435	607.75
472.654	587.75
472.873	572.75
473.092	551.75
473.311	530.75
473.53	552.75
473.749	555.75
473.968	621.75
474.187	748.75
474.406	770.75
474.625	634.75
474.844	582.75
475.063	559.75
475.282	556.75
475.501	557.75
475.72	555.75
475.939	565.75
476.158	584.75
476.377	538.75
476.596	559.75
476.814	576.75
477.033	579.75
477.252	568.75
477.471	562.75
477.69	569.75
477.908	607.75
478.127	594.75
478.346	566.75
478.564	580.75
478.783	589.75
479.002	613.75
479.22	614.75
479.439	630.75
479.658	674.75
479.876	674.75
480.095	669.75
480.313	715.75
480.532	687.75
480.751	678.75
480.969	705.75
481.188	778.75
481.406	845.75
481.624	730.75
481.843	678.75
482.061	655.75
482.28	669.75
482.498	646.75
482.717	646.75
482.935	645.75
483.153	651.75
483.372	675.75
483.59	662.75
483.808	642.75
484.027	670.75
484.245	655.75
484.463	654.75
484.681	670.75
484.9	655.75
485.118	670.75
485.336	669.75
485.554	682.75
485.772	694.75
485.99	646.75
486.209	674.75
486.427	678.75
486.645	709.75
486.863	717.75
487.081	715.75
487.299	710.75
487.517	708.75
487.735	724.75
487.953	699.75
488.171	694.75
488.389	699.75
488.607	724.75
488.825	704.75
489.043	720.75
489.261	714.75
489.479	720.75
489.696	722.75
489.914	749.75
490.132	762.75
490.35	770.75
490.568	781.75
490.786	802.75
491.003	781.75
491.221	808.75
491.439	796.75
491.657	794.75
491.874	832.75
492.092	831.75
492.31	830.75
492.527	851.75
492.745	882.75
492.963	855.75
493.18	850.75
493.398	838.75
493.615	846.75
493.833	869.75
494.05	854.75
494.268	854.75
494.485	854.75
494.703	858.75
494.92	865.75
495.138	888.75
495.355	875.75
495.573	874.75
495.79	883.75
496.008	867.75
496.225	848.75
496.442	855.75
496.66	862.75
496.877	876.75
497.094	853.75
497.312	852.75
497.529	859.75
497.746	895.75
497.963	894.75
498.181	896.75
498.398	907.75
498.615	924.75
498.832	924.75
499.049	942.75
499.267	942.75
499.484	950.75
499.701	974.75
499.918	959.75
500.135	998.75
500.352	1006.75
500.569	1016.75
500.786	1052.75
501.003	1023.75
501.22	1040.75
501.437	1020.75
501.654	1002.75
501.871	1007.75
502.088	970.75
502.305	979.75
502.522	927.75
502.739	915.75
502.956	918.75
503.172	904.75
503.389	884.75
503.606	876.75
503.823	884.75
504.04	855.75
504.256	845.75
504.473	840.75
504.69	818.75
504.907	815.75
505.123	826.75
505.34	833.75
505.557	816.75
505.773	843.75
505.99	809.75
506.207	853.75
506.423	826.75
506.64	872.75
506.856	802.75
507.073	813.75
507.289	820.75
507.506	819.75
507.722	867.75
507.939	876.75
508.155	824.75
508.372	801.75
508.588	808.75
508.805	786.75
509.021	818.75
509.238	803.75
509.454	818.75
509.67	812.75
509.887	804.75
510.103	795.75
510.319	840.75
510.536	960.75
510.752	1624.75
510.968	1345.75
511.184	865.75
511.401	784.75
511.617	770.75
511.833	778.75
512.049	771.75
512.265	743.75
512.481	750.75
512.698	744.75
512.914	756.75
513.13	744.75
513.346	763.75
513.562	770.75
513.778	773.75
513.994	776.75
514.21	791.75
514.426	822.75
514.642	890.75
514.858	943.75
515.074	1011.75
515.29	1196.75
515.506	1888.75
515.721	1508.75
515.937	982.75
516.153	882.75
516.369	838.75
516.585	800.75
516.801	788.75
517.016	779.75
517.232	746.75
517.448	774.75
517.664	774.75
517.879	748.75
518.095	771.75
518.311	780.75
518.527	756.75
518.742	759.75
518.958	746.75
519.173	758.75
519.389	734.75
519.605	775.75
519.82	760.75
520.036	797.75
520.251	834.75
520.467	867.75
520.682	844.75
520.898	871.75
521.113	916.75
521.329	968.75
521.544	1151.75
521.76	1495.75
521.975	2458.75
522.19	2396.75
522.406	1303.75
522.621	938.75
522.836	838.75
523.052	774.75
523.267	748.75
523.482	739.75
523.698	718.75
523.913	702.75
524.128	711.75
524.343	690.75
524.559	663.75
524.774	666.75
524.989	660.75
525.204	670.75
525.419	680.75
525.634	645.75
525.849	645.75
526.064	627.75
526.28	640.75
526.495	602.75
526.71	616.75
526.925	598.75
527.14	613.75
527.355	589.75
527.57	595.75
527.785	613.75
527.999	606.75
528.214	600.75
528.429	616.75
528.644	598.75
528.859	616.75
529.074	628.75
529.289	654.75
529.503	776.75
529.718	750.75
529.933	655.75
530.148	641.75
530.363	624.75
530.577	600.75
530.792	597.75
531.007	594.75
531.221	581.75
531.436	570.75
531.651	574.75
531.865	551.75
532.08	553.75
532.295	568.75
532.509	577.75
532.724	569.75
532.938	542.75
533.153	556.75
533.367	559.75
533.582	552.75
533.796	562.75
534.011	557.75
534.225	537.75
534.44	557.75
534.654	553.75
534.868	550.75
535.083	578.75
535.297	538.75
535.511	554.75
535.726	572.75
535.94	566.75
536.154	550.75
536.369	560.75
536.583	555.75
536.797	557.75
537.011	521.75
537.225	559.75
537.44	532.75
537.654	555.75
537.868	507.75
538.082	522.75
538.296	529.75
538.51	553.75
538.724	529.75
538.938	551.75
539.153	533.75
539.367	567.75
539.581	584.75
539.795	530.75
540.009	533.75
540.222	544.75
540.436	539.75
540.65	536.75
540.864	543.75
541.078	556.75
541.292	553.75
541.506	546.75
541.72	551.75
541.934	542.75
542.147	549.75
542.361	547.75
542.575	543.75
542.789	536.75
543.002	507.75
543.216	538.75
543.43	552.75
543.644	522.75
543.857	518.75
544.071	551.75
544.285	533.75
544.498	538.75
544.712	538.75
544.925	519.75
545.139	523.75
545.352	527.75
545.566	534.75
545.779	516.75
545.993	530.75
546.206	520.75
546.42	526.75
546.633	530.75
546.847	520.75
547.06	518.75
547.274	506.75
547.487	494.75
547.7	513.75
547.914	477.75
548.127	505.75
548.34	512.75
548.554	497.75
548.767	509.75
548.98	505.75
549.193	487.75
549.407	511.75
549.62	501.75
549.833	504.75
550.046	503.75
550.259	490.75
550.473	510.75
550.686	498.75
550.899	501.75
551.112	507.75
551.325	489.75
551.538	498.75
551.751	510.75
551.964	486.75
552.177	500.75
552.39	495.75
552.603	490.75
552.816	503.75
553.029	494.75
553.242	497.75
553.455	526.75
553.667	518.75
553.88	519.75
554.093	506.75
554.306	503.75
554.519	519.75
554.732	531.75
554.944	501.75
555.157	470.75
555.37	482.75
555.583	486.75
555.795	488.75
556.008	483.75
556.221	468.75
556.433	459.75
556.646	460.75
556.859	452.75
557.071	460.75
557.284	461.75
557.496	452.75
557.709	454.75
557.921	464.75
558.134	477.75
558.346	475.75
558.559	442.75
558.771	427.75
558.984	438.75
559.196	468.75
559.409	454.75
559.621	442.75
559.833	439.75
560.046	426.75
560.258	438.75
560.47	449.75
560.683	427.75
560.895	458.75
561.107	445.75
561.32	450.75
561.532	459.75
561.744	449.75
561.956	436.75
562.168	422.75
562.381	448.75
562.593	434.75
562.805	435.75
563.017	438.75
563.229	474.75
563.441	440.75
563.653	469.75
563.865	440.75
564.077	439.75
564.289	445.75
564.501	452.75
564.713	463.75
564.925	461.75
565.137	474.75
565.349	474.75
565.561	466.75
565.773	471.75
565.985	466.75
566.197	495.75
566.408	485.75
566.62	497.75
566.832	477.75
567.044	488.75
567.255	496.75
567.467	507.75
567.679	508.75
567.891	496.75
568.102	502.75
568.314	498.75
568.526	480.75
568.737	482.75
568.949	453.75
569.161	450.75
569.372	445.75
569.584	423.75
569.795	432.75
570.007	454.75
570.218	503.75
570.43	467.75
570.641	420.75
570.853	411.75
571.064	443.75
571.276	416.75
571.487	412.75
571.698	415.75
571.91	405.75
572.121	408.75
572.333	381.75
572.544	405.75
572.755	393.75
572.966	401.75
573.178	405.75
573.389	400.75
573.6	402.75
573.811	396.75
574.023	387.75
574.234	388.75
574.445	375.75
574.656	391.75
574.867	378.75
575.078	396.75
575.289	388.75
575.501	384.75
575.712	365.75
575.923	386.75
576.134	370.75
576.345	371.75
576.556	398.75
576.767	372.75
576.978	360.75
577.188	382.75
577.399	374.75
577.61	374.75
577.821	370.75
578.032	376.75
578.243	430.75
578.454	730.75
578.665	535.75
578.875	396.75
579.086	355.75
579.297	365.75
579.508	367.75
579.718	359.75
579.929	362.75
580.14	349.75
580.35	353.75
580.561	338.75
580.772	340.75
580.982	350.75
581.193	358.75
581.403	349.75
581.614	346.75
581.825	346.75
582.035	353.75
582.246	351.75
582.456	328.75
582.667	343.75
582.877	365.75
583.087	342.75
583.298	351.75
583.508	343.75
583.719	333.75
583.929	332.75
584.139	346.75
584.35	330.75
584.56	338.75
584.77	335.75
584.981	330.75
585.191	341.75
585.401	334.75
585.611	347.75
585.821	310.75
586.032	357.75
586.242	323.75
586.452	343.75
586.662	333.75
586.872	331.75
587.082	318.75
587.292	326.75
587.502	339.75
587.713	326.75
587.923	327.75
588.133	343.75
588.343	320.75
588.553	328.75
588.762	342.75
588.972	325.75
589.182	324.75
589.392	336.75
589.602	322.75
589.812	328.75
590.022	335.75
590.232	320.75
590.441	313.75
590.651	342.75
590.861	330.75
591.071	332.75
591.281	341.75
591.49	333.75
591.7	325.75
591.91	318.75
592.119	322.75
592.329	333.75
592.539	337.75
592.748	331.75
592.958	358.75
593.167	343.75
593.377	333.75
593.587	333.75
593.796	311.75
594.006	331.75
594.215	331.75
594.424	347.75
594.634	331.75
594.843	338.75
595.053	319.75
595.262	300.75
595.472	308.75
595.681	333.75
595.89	326.75
596.1	314.75
596.309	292.75
596.518	326.75
596.727	298.75
596.937	316.75
597.146	312.75
597.355	311.75
597.564	313.75
597.774	305.75
597.983	298.75
598.192	300.75
598.401	303.75
598.61	294.75
598.819	296.75
599.028	293.75
599.237	293.75
599.446	288.75
599.655	298.75
599.864	288.75
600.073	270.75
600.282	283.75
600.491	292.75
600.7	287.75
600.909	288.75
601.118	283.75
601.327	310.75
601.536	278.75
601.745	297.75
601.953	284.75
602.162	296.75
602.371	278.75
602.58	274.75
602.789	291.75
602.997	277.75
603.206	312.75
603.415	283.75
603.623	282.75
603.832	289.75
604.041	290.75
604.249	291.75
604.458	266.75
604.666	281.75
604.875	271.75
605.084	270.75
605.292	294.75
605.501	291.75
605.709	290.75
605.918	294.75
606.126	286.75
606.334	276.75
606.543	283.75
606.751	276.75
606.96	285.75
607.168	273.75
607.376	267.75
607.585	290.75
607.793	286.75
608.001	256.75
608.21	261.75
608.418	274.75
608.626	260.75
608.834	274.75
609.043	284.75
609.251	267.75
609.459	285.75
609.667	282.75
609.875	286.75
610.083	280.75
610.291	253.75
610.499	289.75
610.707	267.75
610.916	276.75
611.124	291.75
611.332	290.75
611.54	292.75
611.748	262.75
611.955	278.75
612.163	271.75
612.371	262.75
612.579	280.75
612.787	286.75
612.995	284.75
613.203	263.75
613.411	284.75
613.618	272.75
613.826	279.75
614.034	271.75
614.242	278.75
614.449	267.75
614.657	272.75
614.865	265.75
615.072	260.75
615.28	290.75
615.488	273.75
615.695	256.75
615.903	267.75
616.111	269.75
616.318	251.75
616.526	254.75
616.733	259.75
616.941	282.75
617.148	269.75
617.356	284.75
617.563	284.75
617.771	255.75
617.978	246.75
618.185	271.75
618.393	262.75
618.6	267.75
618.807	260.75
619.015	264.75
619.222	264.75
619.429	254.75
619.637	260.75
619.844	231.75
620.051	253.75
620.258	255.75
620.466	239.75
620.673	258.75
620.88	269.75
621.087	223.75
621.294	260.75
621.501	253.75
621.708	254.75
621.915	262.75
622.122	242.75
622.329	255.75
622.536	259.75
622.743	229.75
622.95	247.75
623.157	250.75
623.364	261.75
623.571	238.75
623.778	240.75
623.985	232.75
624.192	246.75
624.399	222.75
624.606	251.75
624.812	243.75
625.019	236.75
625.226	247.75
625.433	242.75
625.639	236.75
625.846	232.75
626.053	223.75
626.259	216.75
626.466	230.75
626.673	221.75
626.879	227.75
627.086	236.75
627.293	234.75
627.499	234.75
627.706	236.75
627.912	242.75
628.119	234.75
628.325	226.75
628.532	228.75
628.738	243.75
628.945	230.75
629.151	224.75
629.357	232.75
629.564	239.75
629.77	224.75
629.976	206.75
630.183	211.75
630.389	222.75
630.595	218.75
630.802	213.75
631.008	203.75
631.214	204.75
631.42	201.75
631.627	215.75
631.833	221.75
632.039	214.75
632.245	214.75
632.451	216.75
632.657	223.75
632.863	213.75
633.069	209.75
633.275	206.75
633.481	222.75
633.688	220.75
633.893	216.75
634.099	212.75
634.305	207.75
634.511	218.75
634.717	215.75
634.923	197.75
635.129	202.75
635.335	214.75
635.541	199.75
635.747	207.75
635.952	191.75
636.158	188.75
636.364	210.75
636.57	235.75
636.775	199.75
636.981	219.75
637.187	222.75
637.392	202.75
637.598	211.75
637.804	214.75
638.009	197.75
638.215	211.75
638.421	180.75
638.626	203.75
638.832	190.75
639.037	196.75
639.243	192.75
639.448	198.75
639.654	216.75
639.859	198.75
640.065	191.75
640.27	184.75
640.475	202.75
640.681	182.75
640.886	212.75
641.091	175.75
641.297	197.75
641.502	187.75
641.707	204.75
641.913	199.75
642.118	188.75
642.323	195.75
642.528	183.75
642.733	176.75
642.939	184.75
643.144	191.75
643.349	196.75
643.554	200.75
643.759	176.75
643.964	178.75
644.169	180.75
644.374	183.75
644.579	196.75
644.784	199.75
644.989	191.75
645.194	181.75
645.399	180.75
645.604	186.75
645.809	182.75
646.014	199.75
646.219	180.75
646.423	191.75
646.628	182.75
646.833	172.75
647.038	174.75
647.243	164.75
647.447	183.75
647.652	179.75
647.857	188.75
648.062	175.75
648.266	174.75
648.471	180.75
648.676	183.75
648.88	196.75
649.085	197.75
649.289	187.75
649.494	167.75
649.698	192.75
649.903	196.75
650.107	184.75
650.312	188.75
650.516	172.75
650.721	182.75
650.925	174.75
651.13	167.75
651.334	168.75
651.539	170.75
651.743	160.75
651.947	164.75
652.152	150.75
652.356	155.75
652.56	148.75
652.764	145.75
652.969	139.75
653.173	162.75
653.377	145.75
653.581	143.75
653.785	159.75
653.99	162.75
654.194	151.75
654.398	138.75
654.602	155.75
654.806	150.75
655.01	143.75
655.214	162.75
655.418	150.75
655.622	134.75
655.826	143.75
656.03	137.75
656.234	139.75
656.438	143.75
656.642	126.75
656.846	127.75
657.049	148.75
657.253	127.75
657.457	126.75
657.661	127.75
657.865	118.75
658.068	102.75
658.272	112.75
658.476	127.75
658.68	118.75
658.883	115.75
659.087	124.75
659.291	116.75
659.494	113.75
659.698	104.75
659.901	102.75
660.105	103.75
660.309	108.75
660.512	88.75
660.716	99.75
660.919	84.75
661.123	102.75
661.326	96.75
661.53	96.75
661.733	84.75
661.936	87.75
662.14	98.75
662.343	91.75
662.546	80.75
662.75	100.75
662.953	90.75
663.156	103.75
663.36	86.75
663.563	77.75
663.766	89.75
663.969	75.75
664.173	89.75
664.376	76.75
664.579	79.75
664.782	96.75
664.985	82.75
665.188	75.75
665.391	82.75
665.594	87.75
665.797	101.75
666	76.75
666.203	91.75
666.406	87.75
666.609	73.75
666.812	85.75
667.015	85.75
667.218	95.75
667.421	83.75
667.624	72.75
667.827	94.75
668.03	81.75
668.232	72.75
668.435	77.75
668.638	91.75
668.841	74.75
669.043	84.75
669.246	69.75
669.449	77.75
669.651	78.75
669.854	89.75
670.057	85.75
670.259	66.75
670.462	74.75
670.665	86.75
670.867	87.75
671.07	85.75
671.272	78.75
671.475	95.75
671.677	76.75
671.88	92.75
672.082	91.75
672.284	96.75
672.487	92.75
672.689	91.75
672.892	102.75
