Data from 1971.PennyLincolnUp.Lamp.En5.5.200Scan.071719.P1.Scan 2. Changed Angle._HRD10591_15-25-33-843.txt Node
Date: Thu Jul 18 15:25:33 EDT 2019
User: cochatt
Spectrometer: HR+D1059
Trigger mode: 1
Integration Time (sec): 1.000000E-1
Scans to average: 1
Electric dark correction enabled: true
Nonlinearity correction enabled: false
Boxcar width: 0
XAxis mode: Wavelengths
Number of Pixels in Spectrum: 2048
>>>>>Begin Spectral Data<<<<<
223.165	-17.25
223.4	-17.25
223.635	-17.25
223.869	-13.25
224.104	-20.25
224.338	-20.25
224.573	-30.25
224.808	-2.25
225.042	9.75
225.277	-11.25
225.511	-9.25
225.746	11.75
225.98	-5.25
226.215	13.75
226.449	12.75
226.683	22.75
226.918	22.75
227.152	35.75
227.387	35.75
227.621	49.75
227.856	51.75
228.09	44.75
228.324	40.75
228.559	40.75
228.793	64.75
229.027	103.75
229.262	118.75
229.496	130.75
229.73	162.75
229.964	186.75
230.199	143.75
230.433	126.75
230.667	123.75
230.901	111.75
231.136	126.75
231.37	126.75
231.604	136.75
231.838	118.75
232.072	125.75
232.306	108.75
232.541	103.75
232.775	110.75
233.009	120.75
233.243	116.75
233.477	121.75
233.711	113.75
233.945	113.75
234.179	121.75
234.413	116.75
234.647	125.75
234.881	119.75
235.115	134.75
235.349	126.75
235.583	127.75
235.817	117.75
236.051	134.75
236.285	139.75
236.519	139.75
236.753	147.75
236.987	158.75
237.221	220.75
237.455	302.75
237.689	235.75
237.922	164.75
238.156	149.75
238.39	155.75
238.624	137.75
238.858	130.75
239.091	142.75
239.325	130.75
239.559	134.75
239.793	141.75
240.027	146.75
240.26	149.75
240.494	188.75
240.728	173.75
240.961	169.75
241.195	161.75
241.429	155.75
241.662	156.75
241.896	162.75
242.13	154.75
242.363	139.75
242.597	134.75
242.83	157.75
243.064	138.75
243.298	145.75
243.531	130.75
243.765	151.75
243.998	148.75
244.232	158.75
244.465	154.75
244.699	152.75
244.932	151.75
245.166	140.75
245.399	173.75
245.633	143.75
245.866	153.75
246.099	151.75
246.333	152.75
246.566	165.75
246.8	168.75
247.033	175.75
247.266	181.75
247.5	167.75
247.733	171.75
247.966	201.75
248.2	188.75
248.433	182.75
248.666	182.75
248.899	212.75
249.133	227.75
249.366	260.75
249.599	206.75
249.832	207.75
250.066	189.75
250.299	207.75
250.532	219.75
250.765	235.75
250.998	249.75
251.231	249.75
251.465	237.75
251.698	219.75
251.931	209.75
252.164	215.75
252.397	233.75
252.63	224.75
252.863	222.75
253.096	246.75
253.329	267.75
253.562	263.75
253.795	251.75
254.028	236.75
254.261	262.75
254.494	249.75
254.727	290.75
254.96	315.75
255.193	310.75
255.426	296.75
255.659	259.75
255.892	257.75
256.124	286.75
256.357	257.75
256.59	260.75
256.823	234.75
257.056	245.75
257.289	231.75
257.521	243.75
257.754	238.75
257.987	227.75
258.22	226.75
258.452	237.75
258.685	216.75
258.918	222.75
259.151	234.75
259.383	215.75
259.616	251.75
259.849	244.75
260.081	263.75
260.314	299.75
260.547	309.75
260.779	276.75
261.012	261.75
261.244	262.75
261.477	248.75
261.71	253.75
261.942	247.75
262.175	269.75
262.407	254.75
262.64	230.75
262.872	243.75
263.105	225.75
263.337	223.75
263.57	225.75
263.802	226.75
264.035	222.75
264.267	223.75
264.499	236.75
264.732	220.75
264.964	223.75
265.197	227.75
265.429	225.75
265.661	230.75
265.894	219.75
266.126	219.75
266.358	200.75
266.591	230.75
266.823	236.75
267.055	232.75
267.287	235.75
267.52	231.75
267.752	235.75
267.984	231.75
268.216	251.75
268.448	260.75
268.681	253.75
268.913	252.75
269.145	298.75
269.377	308.75
269.609	289.75
269.841	295.75
270.073	311.75
270.306	308.75
270.538	335.75
270.77	349.75
271.002	329.75
271.234	324.75
271.466	338.75
271.698	339.75
271.93	366.75
272.162	376.75
272.394	347.75
272.626	332.75
272.858	314.75
273.09	323.75
273.322	299.75
273.553	289.75
273.785	318.75
274.017	287.75
274.249	270.75
274.481	293.75
274.713	270.75
274.945	283.75
275.176	294.75
275.408	267.75
275.64	283.75
275.872	264.75
276.104	291.75
276.335	281.75
276.567	292.75
276.799	310.75
277.031	346.75
277.262	342.75
277.494	335.75
277.726	338.75
277.957	314.75
278.189	298.75
278.421	276.75
278.652	272.75
278.884	280.75
279.115	269.75
279.347	282.75
279.579	272.75
279.81	284.75
280.042	272.75
280.273	266.75
280.505	271.75
280.736	277.75
280.968	265.75
281.199	250.75
281.431	272.75
281.662	280.75
281.894	286.75
282.125	285.75
282.356	316.75
282.588	326.75
282.819	339.75
283.051	288.75
283.282	275.75
283.513	282.75
283.745	271.75
283.976	273.75
284.207	268.75
284.439	286.75
284.67	288.75
284.901	278.75
285.132	292.75
285.364	269.75
285.595	274.75
285.826	271.75
286.057	293.75
286.288	277.75
286.52	277.75
286.751	284.75
286.982	297.75
287.213	277.75
287.444	277.75
287.675	302.75
287.906	309.75
288.138	319.75
288.369	308.75
288.6	309.75
288.831	295.75
289.062	297.75
289.293	287.75
289.524	308.75
289.755	283.75
289.986	298.75
290.217	291.75
290.448	293.75
290.679	303.75
290.91	298.75
291.141	275.75
291.371	292.75
291.602	267.75
291.833	291.75
292.064	282.75
292.295	289.75
292.526	298.75
292.757	293.75
292.987	276.75
293.218	293.75
293.449	277.75
293.68	287.75
293.91	296.75
294.141	267.75
294.372	287.75
294.603	301.75
294.833	311.75
295.064	296.75
295.295	293.75
295.525	309.75
295.756	291.75
295.987	305.75
296.217	333.75
296.448	345.75
296.679	322.75
296.909	313.75
297.14	298.75
297.37	290.75
297.601	278.75
297.831	291.75
298.062	299.75
298.292	311.75
298.523	325.75
298.753	300.75
298.984	284.75
299.214	297.75
299.445	301.75
299.675	313.75
299.905	303.75
300.136	299.75
300.366	320.75
300.597	307.75
300.827	323.75
301.057	312.75
301.288	336.75
301.518	341.75
301.748	339.75
301.979	327.75
302.209	340.75
302.439	330.75
302.669	331.75
302.9	325.75
303.13	336.75
303.36	313.75
303.59	334.75
303.82	363.75
304.051	345.75
304.281	323.75
304.511	321.75
304.741	298.75
304.971	334.75
305.201	326.75
305.431	317.75
305.661	336.75
305.891	313.75
306.121	316.75
306.352	338.75
306.582	335.75
306.812	335.75
307.042	327.75
307.272	316.75
307.502	350.75
307.731	324.75
307.961	339.75
308.191	345.75
308.421	346.75
308.651	341.75
308.881	326.75
309.111	339.75
309.341	356.75
309.571	376.75
309.8	391.75
310.03	369.75
310.26	409.75
310.49	418.75
310.72	437.75
310.949	436.75
311.179	445.75
311.409	391.75
311.639	385.75
311.868	405.75
312.098	414.75
312.328	417.75
312.557	440.75
312.787	450.75
313.017	445.75
313.246	411.75
313.476	389.75
313.706	403.75
313.935	389.75
314.165	414.75
314.394	435.75
314.624	430.75
314.853	430.75
315.083	412.75
315.312	394.75
315.542	392.75
315.771	393.75
316.001	380.75
316.23	375.75
316.46	378.75
316.689	376.75
316.919	385.75
317.148	379.75
317.377	414.75
317.607	415.75
317.836	394.75
318.065	389.75
318.295	400.75
318.524	400.75
318.753	386.75
318.983	387.75
319.212	389.75
319.441	400.75
319.67	424.75
319.9	401.75
320.129	385.75
320.358	388.75
320.587	405.75
320.816	403.75
321.046	422.75
321.275	447.75
321.504	433.75
321.733	434.75
321.962	449.75
322.191	455.75
322.42	472.75
322.649	505.75
322.878	502.75
323.108	510.75
323.337	530.75
323.566	595.75
323.795	636.75
324.024	717.75
324.253	873.75
324.482	1297.75
324.71	2049.75
324.939	2898.75
325.168	2503.75
325.397	1270.75
325.626	845.75
325.855	687.75
326.084	610.75
326.313	561.75
326.542	601.75
326.77	651.75
326.999	777.75
327.228	1144.75
327.457	1813.75
327.686	2206.75
327.914	1429.75
328.143	917.75
328.372	780.75
328.6	713.75
328.829	681.75
329.058	697.75
329.287	723.75
329.515	659.75
329.744	581.75
329.972	615.75
330.201	590.75
330.43	692.75
330.658	708.75
330.887	773.75
331.115	730.75
331.344	614.75
331.572	573.75
331.801	538.75
332.03	544.75
332.258	515.75
332.486	510.75
332.715	483.75
332.943	491.75
333.172	491.75
333.4	477.75
333.629	498.75
333.857	522.75
334.085	519.75
334.314	538.75
334.542	578.75
334.771	605.75
334.999	550.75
335.227	512.75
335.455	489.75
335.684	472.75
335.912	478.75
336.14	446.75
336.369	465.75
336.597	463.75
336.825	484.75
337.053	456.75
337.281	469.75
337.51	449.75
337.738	462.75
337.966	455.75
338.194	482.75
338.422	480.75
338.65	458.75
338.878	438.75
339.106	456.75
339.334	457.75
339.562	439.75
339.79	463.75
340.018	439.75
340.246	448.75
340.474	452.75
340.702	462.75
340.93	462.75
341.158	454.75
341.386	458.75
341.614	474.75
341.842	430.75
342.07	441.75
342.298	442.75
342.526	452.75
342.754	410.75
342.981	441.75
343.209	429.75
343.437	430.75
343.665	408.75
343.893	424.75
344.12	418.75
344.348	445.75
344.576	443.75
344.804	461.75
345.031	480.75
345.259	476.75
345.487	467.75
345.714	466.75
345.942	466.75
346.17	439.75
346.397	458.75
346.625	426.75
346.853	448.75
347.08	448.75
347.308	454.75
347.535	470.75
347.763	466.75
347.99	460.75
348.218	450.75
348.445	471.75
348.673	470.75
348.9	445.75
349.128	441.75
349.355	429.75
349.583	425.75
349.81	447.75
350.037	416.75
350.265	430.75
350.492	439.75
350.72	419.75
350.947	426.75
351.174	468.75
351.402	466.75
351.629	468.75
351.856	464.75
352.083	458.75
352.311	473.75
352.538	488.75
352.765	473.75
352.992	460.75
353.22	451.75
353.447	453.75
353.674	446.75
353.901	427.75
354.128	424.75
354.355	416.75
354.583	437.75
354.81	431.75
355.037	403.75
355.264	382.75
355.491	410.75
355.718	397.75
355.945	393.75
356.172	411.75
356.399	398.75
356.626	392.75
356.853	402.75
357.08	402.75
357.307	393.75
357.534	400.75
357.761	411.75
357.988	399.75
358.215	435.75
358.441	419.75
358.668	403.75
358.895	418.75
359.122	423.75
359.349	441.75
359.576	462.75
359.802	476.75
360.029	514.75
360.256	531.75
360.483	527.75
360.709	476.75
360.936	461.75
361.163	446.75
361.39	456.75
361.616	461.75
361.843	451.75
362.07	447.75
362.296	439.75
362.523	424.75
362.749	446.75
362.976	423.75
363.203	436.75
363.429	423.75
363.656	429.75
363.882	419.75
364.109	439.75
364.335	428.75
364.562	425.75
364.788	430.75
365.015	429.75
365.241	439.75
365.468	435.75
365.694	457.75
365.92	447.75
366.147	439.75
366.373	422.75
366.599	421.75
366.826	429.75
367.052	422.75
367.278	425.75
367.505	421.75
367.731	435.75
367.957	411.75
368.184	427.75
368.41	425.75
368.636	449.75
368.862	456.75
369.089	436.75
369.315	427.75
369.541	423.75
369.767	412.75
369.993	438.75
370.219	400.75
370.445	419.75
370.672	400.75
370.898	421.75
371.124	420.75
371.35	403.75
371.576	416.75
371.802	414.75
372.028	430.75
372.254	406.75
372.48	405.75
372.706	411.75
372.932	429.75
373.158	399.75
373.384	414.75
373.61	428.75
373.835	427.75
374.061	395.75
374.287	411.75
374.513	418.75
374.739	418.75
374.965	411.75
375.191	423.75
375.416	431.75
375.642	428.75
375.868	424.75
376.094	402.75
376.319	409.75
376.545	428.75
376.771	430.75
376.997	418.75
377.222	393.75
377.448	423.75
377.674	423.75
377.899	402.75
378.125	400.75
378.35	425.75
378.576	411.75
378.802	395.75
379.027	397.75
379.253	436.75
379.478	428.75
379.704	438.75
379.929	443.75
380.155	414.75
380.38	410.75
380.606	427.75
380.831	409.75
381.057	413.75
381.282	420.75
381.507	407.75
381.733	434.75
381.958	421.75
382.184	417.75
382.409	432.75
382.634	422.75
382.86	435.75
383.085	435.75
383.31	421.75
383.535	425.75
383.761	450.75
383.986	438.75
384.211	436.75
384.436	447.75
384.662	424.75
384.887	430.75
385.112	454.75
385.337	446.75
385.562	429.75
385.787	430.75
386.013	457.75
386.238	467.75
386.463	462.75
386.688	457.75
386.913	428.75
387.138	457.75
387.363	457.75
387.588	437.75
387.813	456.75
388.038	441.75
388.263	423.75
388.488	443.75
388.713	448.75
388.938	457.75
389.163	461.75
389.387	466.75
389.612	438.75
389.837	449.75
390.062	444.75
390.287	442.75
390.512	468.75
390.736	459.75
390.961	446.75
391.186	449.75
391.411	438.75
391.636	457.75
391.86	445.75
392.085	473.75
392.31	456.75
392.534	441.75
392.759	456.75
392.984	473.75
393.208	451.75
393.433	464.75
393.658	439.75
393.882	453.75
394.107	456.75
394.331	453.75
394.556	442.75
394.78	450.75
395.005	463.75
395.229	454.75
395.454	454.75
395.678	482.75
395.903	480.75
396.127	519.75
396.352	497.75
396.576	471.75
396.801	456.75
397.025	471.75
397.249	464.75
397.474	489.75
397.698	482.75
397.922	491.75
398.147	509.75
398.371	500.75
398.595	498.75
398.82	488.75
399.044	509.75
399.268	507.75
399.492	547.75
399.717	546.75
399.941	588.75
400.165	641.75
400.389	620.75
400.613	577.75
400.837	542.75
401.062	533.75
401.286	535.75
401.51	520.75
401.734	491.75
401.958	529.75
402.182	538.75
402.406	531.75
402.63	536.75
402.854	565.75
403.078	537.75
403.302	524.75
403.526	564.75
403.75	556.75
403.974	533.75
404.198	543.75
404.422	554.75
404.645	582.75
404.869	568.75
405.093	590.75
405.317	651.75
405.541	663.75
405.765	610.75
405.988	601.75
406.212	612.75
406.436	620.75
406.66	651.75
406.883	613.75
407.107	587.75
407.331	654.75
407.555	737.75
407.778	731.75
408.002	666.75
408.226	644.75
408.449	601.75
408.673	604.75
408.896	640.75
409.12	683.75
409.344	667.75
409.567	592.75
409.791	579.75
410.014	580.75
410.238	549.75
410.461	535.75
410.685	577.75
410.908	577.75
411.132	623.75
411.355	632.75
411.578	621.75
411.802	581.75
412.025	547.75
412.249	559.75
412.472	590.75
412.695	602.75
412.919	619.75
413.142	565.75
413.365	554.75
413.589	553.75
413.812	541.75
414.035	522.75
414.258	504.75
414.482	519.75
414.705	518.75
414.928	487.75
415.151	507.75
415.374	509.75
415.597	526.75
415.821	514.75
416.044	526.75
416.267	531.75
416.49	510.75
416.713	512.75
416.936	515.75
417.159	522.75
417.382	536.75
417.605	535.75
417.828	540.75
418.051	574.75
418.274	540.75
418.497	537.75
418.72	544.75
418.943	521.75
419.166	556.75
419.389	563.75
419.611	557.75
419.834	567.75
420.057	567.75
420.28	567.75
420.503	568.75
420.726	553.75
420.948	578.75
421.171	634.75
421.394	660.75
421.617	578.75
421.839	557.75
422.062	559.75
422.285	605.75
422.507	650.75
422.73	737.75
422.953	727.75
423.175	639.75
423.398	595.75
423.621	590.75
423.843	626.75
424.066	625.75
424.288	627.75
424.511	645.75
424.733	706.75
424.956	782.75
425.178	774.75
425.401	763.75
425.623	795.75
425.846	675.75
426.068	613.75
426.291	616.75
426.513	632.75
426.735	625.75
426.958	679.75
427.18	795.75
427.402	973.75
427.625	1051.75
427.847	935.75
428.069	826.75
428.292	725.75
428.514	627.75
428.736	634.75
428.958	629.75
429.181	583.75
429.403	584.75
429.625	598.75
429.847	604.75
430.069	706.75
430.292	715.75
430.514	621.75
430.736	581.75
430.958	564.75
431.18	537.75
431.402	549.75
431.624	530.75
431.846	554.75
432.068	532.75
432.29	540.75
432.512	534.75
432.734	548.75
432.956	549.75
433.178	557.75
433.4	577.75
433.622	556.75
433.844	546.75
434.066	563.75
434.287	549.75
434.509	542.75
434.731	543.75
434.953	556.75
435.175	591.75
435.397	622.75
435.618	610.75
435.84	678.75
436.062	804.75
436.284	861.75
436.505	742.75
436.727	646.75
436.949	606.75
437.17	577.75
437.392	606.75
437.614	623.75
437.835	645.75
438.057	765.75
438.278	899.75
438.5	875.75
438.721	973.75
438.943	885.75
439.165	739.75
439.386	665.75
439.608	664.75
439.829	647.75
440.05	713.75
440.272	750.75
440.493	714.75
440.715	662.75
440.936	621.75
441.158	591.75
441.379	573.75
441.6	606.75
441.822	629.75
442.043	705.75
442.264	798.75
442.486	843.75
442.707	714.75
442.928	658.75
443.149	652.75
443.371	689.75
443.592	761.75
443.813	873.75
444.034	896.75
444.255	763.75
444.476	649.75
444.698	633.75
444.919	622.75
445.14	709.75
445.361	670.75
445.582	696.75
445.803	798.75
446.024	914.75
446.245	892.75
446.466	843.75
446.687	728.75
446.908	647.75
447.129	618.75
447.35	595.75
447.571	594.75
447.792	586.75
448.013	608.75
448.234	622.75
448.455	701.75
448.675	827.75
448.896	931.75
449.117	828.75
449.338	759.75
449.559	861.75
449.779	948.75
450	803.75
450.221	671.75
450.442	623.75
450.662	619.75
450.883	606.75
451.104	649.75
451.324	606.75
451.545	595.75
451.766	558.75
451.986	541.75
452.207	543.75
452.428	526.75
452.648	510.75
452.869	522.75
453.089	554.75
453.31	580.75
453.53	541.75
453.751	526.75
453.971	535.75
454.192	561.75
454.412	557.75
454.633	551.75
454.853	541.75
455.073	523.75
455.294	581.75
455.514	675.75
455.734	626.75
455.955	556.75
456.175	515.75
456.395	466.75
456.616	480.75
456.836	491.75
457.056	497.75
457.276	469.75
457.497	520.75
457.717	457.75
457.937	494.75
458.157	509.75
458.377	513.75
458.598	523.75
458.818	614.75
459.038	711.75
459.258	729.75
459.478	620.75
459.698	559.75
459.918	535.75
460.138	537.75
460.358	554.75
460.578	554.75
460.798	525.75
461.018	543.75
461.238	522.75
461.458	547.75
461.678	526.75
461.898	523.75
462.118	545.75
462.338	527.75
462.558	528.75
462.777	547.75
462.997	548.75
463.217	556.75
463.437	562.75
463.657	554.75
463.876	555.75
464.096	566.75
464.316	551.75
464.536	591.75
464.755	591.75
464.975	590.75
465.195	645.75
465.414	764.75
465.634	678.75
465.854	624.75
466.073	582.75
466.293	551.75
466.512	532.75
466.732	534.75
466.951	527.75
467.171	531.75
467.391	527.75
467.61	549.75
467.829	545.75
468.049	575.75
468.268	550.75
468.488	534.75
468.707	530.75
468.927	544.75
469.146	480.75
469.365	522.75
469.585	518.75
469.804	515.75
470.023	513.75
470.243	546.75
470.462	567.75
470.681	576.75
470.901	563.75
471.12	562.75
471.339	527.75
471.558	539.75
471.777	549.75
471.997	531.75
472.216	536.75
472.435	598.75
472.654	579.75
472.873	546.75
473.092	527.75
473.311	552.75
473.53	563.75
473.749	545.75
473.968	611.75
474.187	725.75
474.406	763.75
474.625	621.75
474.844	567.75
475.063	564.75
475.282	540.75
475.501	529.75
475.72	566.75
475.939	549.75
476.158	554.75
476.377	566.75
476.596	552.75
476.814	590.75
477.033	594.75
477.252	590.75
477.471	567.75
477.69	569.75
477.908	611.75
478.127	595.75
478.346	590.75
478.564	605.75
478.783	611.75
479.002	608.75
479.22	611.75
479.439	619.75
479.658	651.75
479.876	644.75
480.095	654.75
480.313	700.75
480.532	653.75
480.751	659.75
480.969	684.75
481.188	797.75
481.406	847.75
481.624	721.75
481.843	677.75
482.061	673.75
482.28	654.75
482.498	652.75
482.717	627.75
482.935	629.75
483.153	670.75
483.372	649.75
483.59	636.75
483.808	636.75
484.027	646.75
484.245	660.75
484.463	633.75
484.681	639.75
484.9	670.75
485.118	696.75
485.336	662.75
485.554	675.75
485.772	685.75
485.99	669.75
486.209	689.75
486.427	685.75
486.645	682.75
486.863	721.75
487.081	735.75
487.299	696.75
487.517	720.75
487.735	714.75
487.953	722.75
488.171	699.75
488.389	714.75
488.607	696.75
488.825	720.75
489.043	706.75
489.261	729.75
489.479	734.75
489.696	731.75
489.914	730.75
490.132	745.75
490.35	743.75
490.568	744.75
490.786	759.75
491.003	752.75
491.221	788.75
491.439	822.75
491.657	790.75
491.874	855.75
492.092	838.75
492.31	821.75
492.527	834.75
492.745	843.75
492.963	836.75
493.18	847.75
493.398	861.75
493.615	873.75
493.833	855.75
494.05	883.75
494.268	846.75
494.485	860.75
494.703	862.75
494.92	845.75
495.138	876.75
495.355	871.75
495.573	884.75
495.79	832.75
496.008	881.75
496.225	847.75
496.442	853.75
496.66	840.75
496.877	845.75
497.094	875.75
497.312	854.75
497.529	859.75
497.746	877.75
497.963	894.75
498.181	921.75
498.398	937.75
498.615	911.75
498.832	907.75
499.049	918.75
499.267	934.75
499.484	915.75
499.701	963.75
499.918	1006.75
500.135	981.75
500.352	1024.75
500.569	1028.75
500.786	1024.75
501.003	1045.75
501.22	1006.75
501.437	1031.75
501.654	1014.75
501.871	986.75
502.088	986.75
502.305	939.75
502.522	906.75
502.739	912.75
502.956	859.75
503.172	888.75
503.389	855.75
503.606	854.75
503.823	903.75
504.04	865.75
504.256	833.75
504.473	836.75
504.69	821.75
504.907	836.75
505.123	854.75
505.34	812.75
505.557	807.75
505.773	807.75
505.99	828.75
506.207	841.75
506.423	832.75
506.64	803.75
506.856	809.75
507.073	817.75
507.289	806.75
507.506	792.75
507.722	838.75
507.939	867.75
508.155	830.75
508.372	806.75
508.588	804.75
508.805	794.75
509.021	817.75
509.238	798.75
509.454	836.75
509.67	812.75
509.887	803.75
510.103	791.75
510.319	796.75
510.536	931.75
510.752	1634.75
510.968	1295.75
511.184	830.75
511.401	798.75
511.617	773.75
511.833	749.75
512.049	745.75
512.265	733.75
512.481	733.75
512.698	755.75
512.914	776.75
513.13	759.75
513.346	747.75
513.562	765.75
513.778	748.75
513.994	773.75
514.21	774.75
514.426	845.75
514.642	901.75
514.858	967.75
515.074	1015.75
515.29	1216.75
515.506	1877.75
515.721	1506.75
515.937	965.75
516.153	872.75
516.369	820.75
516.585	793.75
516.801	799.75
517.016	790.75
517.232	752.75
517.448	789.75
517.664	755.75
517.879	727.75
518.095	747.75
518.311	762.75
518.527	743.75
518.742	757.75
518.958	735.75
519.173	713.75
519.389	738.75
519.605	756.75
519.82	768.75
520.036	797.75
520.251	847.75
520.467	895.75
520.682	861.75
520.898	901.75
521.113	899.75
521.329	1011.75
521.544	1147.75
521.76	1505.75
521.975	2527.75
522.19	2473.75
522.406	1290.75
522.621	941.75
522.836	828.75
523.052	802.75
523.267	747.75
523.482	707.75
523.698	712.75
523.913	710.75
524.128	697.75
524.343	695.75
524.559	691.75
524.774	662.75
524.989	636.75
525.204	663.75
525.419	676.75
525.634	647.75
525.849	627.75
526.064	614.75
526.28	604.75
526.495	610.75
526.71	628.75
526.925	614.75
527.14	597.75
527.355	609.75
527.57	597.75
527.785	599.75
527.999	593.75
528.214	600.75
528.429	616.75
528.644	610.75
528.859	598.75
529.074	604.75
529.289	649.75
529.503	746.75
529.718	717.75
529.933	647.75
530.148	630.75
530.363	623.75
530.577	593.75
530.792	606.75
531.007	568.75
531.221	586.75
531.436	567.75
531.651	596.75
531.865	569.75
532.08	565.75
532.295	565.75
532.509	582.75
532.724	573.75
532.938	556.75
533.153	553.75
533.367	543.75
533.582	571.75
533.796	566.75
534.011	574.75
534.225	543.75
534.44	538.75
534.654	570.75
534.868	567.75
535.083	555.75
535.297	553.75
535.511	583.75
535.726	570.75
535.94	558.75
536.154	545.75
536.369	539.75
536.583	547.75
536.797	542.75
537.011	524.75
537.225	533.75
537.44	533.75
537.654	533.75
537.868	558.75
538.082	532.75
538.296	546.75
538.51	534.75
538.724	551.75
538.938	551.75
539.153	557.75
539.367	566.75
539.581	567.75
539.795	547.75
540.009	548.75
540.222	531.75
540.436	557.75
540.65	524.75
540.864	557.75
541.078	574.75
541.292	561.75
541.506	558.75
541.72	536.75
541.934	546.75
542.147	567.75
542.361	535.75
542.575	533.75
542.789	514.75
543.002	540.75
543.216	521.75
543.43	575.75
543.644	540.75
543.857	526.75
544.071	550.75
544.285	536.75
544.498	523.75
544.712	515.75
544.925	520.75
545.139	544.75
545.352	520.75
545.566	512.75
545.779	509.75
545.993	523.75
546.206	506.75
546.42	540.75
546.633	517.75
546.847	484.75
547.06	518.75
547.274	506.75
547.487	521.75
547.7	497.75
547.914	508.75
548.127	513.75
548.34	503.75
548.554	501.75
548.767	489.75
548.98	499.75
549.193	510.75
549.407	502.75
549.62	509.75
549.833	508.75
550.046	496.75
550.259	514.75
550.473	479.75
550.686	478.75
550.899	476.75
551.112	494.75
551.325	493.75
551.538	511.75
551.751	487.75
551.964	484.75
552.177	483.75
552.39	506.75
552.603	488.75
552.816	496.75
553.029	477.75
553.242	491.75
553.455	512.75
553.667	514.75
553.88	517.75
554.093	519.75
554.306	512.75
554.519	523.75
554.732	504.75
554.944	508.75
555.157	491.75
555.37	469.75
555.583	467.75
555.795	478.75
556.008	483.75
556.221	491.75
556.433	458.75
556.646	463.75
556.859	470.75
557.071	460.75
557.284	460.75
557.496	453.75
557.709	457.75
557.921	431.75
558.134	471.75
558.346	445.75
558.559	456.75
558.771	447.75
558.984	438.75
559.196	449.75
559.409	442.75
559.621	445.75
559.833	440.75
560.046	436.75
560.258	424.75
560.47	461.75
560.683	443.75
560.895	433.75
561.107	424.75
561.32	449.75
561.532	446.75
561.744	458.75
561.956	425.75
562.168	445.75
562.381	462.75
562.593	442.75
562.805	443.75
563.017	452.75
563.229	444.75
563.441	460.75
563.653	442.75
563.865	435.75
564.077	449.75
564.289	455.75
564.501	441.75
564.713	456.75
564.925	457.75
565.137	486.75
565.349	474.75
565.561	467.75
565.773	451.75
565.985	454.75
566.197	470.75
566.408	490.75
566.62	488.75
566.832	490.75
567.044	506.75
567.255	505.75
567.467	466.75
567.679	500.75
567.891	503.75
568.102	478.75
568.314	499.75
568.526	469.75
568.737	463.75
568.949	448.75
569.161	455.75
569.372	455.75
569.584	457.75
569.795	468.75
570.007	435.75
570.218	519.75
570.43	482.75
570.641	425.75
570.853	426.75
571.064	432.75
571.276	401.75
571.487	406.75
571.698	415.75
571.91	423.75
572.121	389.75
572.333	385.75
572.544	406.75
572.755	387.75
572.966	395.75
573.178	369.75
573.389	366.75
573.6	375.75
573.811	382.75
574.023	380.75
574.234	369.75
574.445	380.75
574.656	385.75
574.867	381.75
575.078	385.75
575.289	394.75
575.501	407.75
575.712	396.75
575.923	382.75
576.134	348.75
576.345	378.75
576.556	379.75
576.767	359.75
576.978	372.75
577.188	381.75
577.399	361.75
577.61	360.75
577.821	365.75
578.032	361.75
578.243	419.75
578.454	758.75
578.665	527.75
578.875	390.75
579.086	370.75
579.297	372.75
579.508	350.75
579.718	340.75
579.929	347.75
580.14	342.75
580.35	328.75
580.561	366.75
580.772	343.75
580.982	333.75
581.193	339.75
581.403	353.75
581.614	342.75
581.825	352.75
582.035	349.75
582.246	356.75
582.456	329.75
582.667	353.75
582.877	350.75
583.087	341.75
583.298	346.75
583.508	329.75
583.719	349.75
583.929	326.75
584.139	330.75
584.35	340.75
584.56	322.75
584.77	343.75
584.981	346.75
585.191	331.75
585.401	364.75
585.611	348.75
585.821	331.75
586.032	331.75
586.242	348.75
586.452	317.75
586.662	314.75
586.872	344.75
587.082	319.75
587.292	325.75
587.502	310.75
587.713	350.75
587.923	312.75
588.133	336.75
588.343	328.75
588.553	294.75
588.762	335.75
588.972	319.75
589.182	326.75
589.392	336.75
589.602	329.75
589.812	330.75
590.022	335.75
590.232	323.75
590.441	312.75
590.651	330.75
590.861	329.75
591.071	332.75
591.281	326.75
591.49	318.75
591.7	326.75
591.91	326.75
592.119	334.75
592.329	324.75
592.539	326.75
592.748	330.75
592.958	325.75
593.167	348.75
593.377	326.75
593.587	331.75
593.796	337.75
594.006	345.75
594.215	342.75
594.424	316.75
594.634	334.75
594.843	328.75
595.053	319.75
595.262	328.75
595.472	318.75
595.681	315.75
595.89	343.75
596.1	317.75
596.309	314.75
596.518	306.75
596.727	300.75
596.937	325.75
597.146	314.75
597.355	303.75
597.564	289.75
597.774	295.75
597.983	301.75
598.192	281.75
598.401	311.75
598.61	285.75
598.819	286.75
599.028	284.75
599.237	294.75
599.446	290.75
599.655	299.75
599.864	294.75
600.073	285.75
600.282	285.75
600.491	297.75
600.7	286.75
600.909	295.75
601.118	270.75
601.327	262.75
601.536	278.75
601.745	309.75
601.953	264.75
602.162	291.75
602.371	294.75
602.58	284.75
602.789	283.75
602.997	287.75
603.206	298.75
603.415	286.75
603.623	284.75
603.832	279.75
604.041	286.75
604.249	276.75
604.458	271.75
604.666	281.75
604.875	277.75
605.084	281.75
605.292	283.75
605.501	260.75
605.709	262.75
605.918	281.75
606.126	279.75
606.334	303.75
606.543	284.75
606.751	270.75
606.96	269.75
607.168	279.75
607.376	286.75
607.585	285.75
607.793	274.75
608.001	282.75
608.21	287.75
608.418	275.75
608.626	281.75
608.834	299.75
609.043	267.75
609.251	288.75
609.459	289.75
609.667	261.75
609.875	282.75
610.083	271.75
610.291	269.75
610.499	287.75
610.707	266.75
610.916	270.75
611.124	277.75
611.332	291.75
611.54	295.75
611.748	291.75
611.955	271.75
612.163	276.75
612.371	275.75
612.579	279.75
612.787	277.75
612.995	282.75
613.203	267.75
613.411	259.75
613.618	250.75
613.826	258.75
614.034	265.75
614.242	276.75
614.449	279.75
614.657	280.75
614.865	281.75
615.072	278.75
615.28	264.75
615.488	272.75
615.695	257.75
615.903	282.75
616.111	262.75
616.318	263.75
616.526	266.75
616.733	261.75
616.941	262.75
617.148	269.75
617.356	265.75
617.563	263.75
617.771	258.75
617.978	266.75
618.185	275.75
618.393	246.75
618.6	260.75
618.807	265.75
619.015	261.75
619.222	241.75
619.429	257.75
619.637	254.75
619.844	258.75
620.051	260.75
620.258	270.75
620.466	244.75
620.673	252.75
620.88	239.75
621.087	248.75
621.294	236.75
621.501	234.75
621.708	262.75
621.915	251.75
622.122	250.75
622.329	269.75
622.536	265.75
622.743	254.75
622.95	265.75
623.157	248.75
623.364	244.75
623.571	237.75
623.778	236.75
623.985	224.75
624.192	249.75
624.399	246.75
624.606	255.75
624.812	244.75
625.019	229.75
625.226	235.75
625.433	245.75
625.639	225.75
625.846	221.75
626.053	227.75
626.259	230.75
626.466	231.75
626.673	233.75
626.879	238.75
627.086	231.75
627.293	231.75
627.499	235.75
627.706	233.75
627.912	233.75
628.119	253.75
628.325	232.75
628.532	226.75
628.738	218.75
628.945	228.75
629.151	213.75
629.357	229.75
629.564	228.75
629.77	222.75
629.976	220.75
630.183	207.75
630.389	209.75
630.595	212.75
630.802	228.75
631.008	219.75
631.214	209.75
631.42	214.75
631.627	226.75
631.833	196.75
632.039	227.75
632.245	203.75
632.451	213.75
632.657	215.75
632.863	199.75
633.069	204.75
633.275	207.75
633.481	211.75
633.688	197.75
633.893	198.75
634.099	197.75
634.305	198.75
634.511	194.75
634.717	194.75
634.923	218.75
635.129	206.75
635.335	204.75
635.541	196.75
635.747	196.75
635.952	189.75
636.158	199.75
636.364	196.75
636.57	212.75
636.775	209.75
636.981	213.75
637.187	207.75
637.392	208.75
637.598	206.75
637.804	200.75
638.009	189.75
638.215	187.75
638.421	204.75
638.626	197.75
638.832	193.75
639.037	195.75
639.243	188.75
639.448	199.75
639.654	193.75
639.859	181.75
640.065	200.75
640.27	189.75
640.475	190.75
640.681	189.75
640.886	197.75
641.091	189.75
641.297	181.75
641.502	192.75
641.707	210.75
641.913	186.75
642.118	190.75
642.323	196.75
642.528	197.75
642.733	193.75
642.939	191.75
643.144	185.75
643.349	179.75
643.554	179.75
643.759	194.75
643.964	197.75
644.169	191.75
644.374	182.75
644.579	181.75
644.784	178.75
644.989	194.75
645.194	183.75
645.399	188.75
645.604	182.75
645.809	179.75
646.014	178.75
646.219	193.75
646.423	163.75
646.628	177.75
646.833	187.75
647.038	183.75
647.243	182.75
647.447	175.75
647.652	159.75
647.857	182.75
648.062	181.75
648.266	182.75
648.471	184.75
648.676	178.75
648.88	170.75
649.085	173.75
649.289	180.75
649.494	202.75
649.698	207.75
649.903	206.75
650.107	177.75
650.312	172.75
650.516	168.75
650.721	162.75
650.925	177.75
651.13	166.75
651.334	162.75
651.539	175.75
651.743	150.75
651.947	159.75
652.152	171.75
652.356	156.75
652.56	156.75
652.764	156.75
652.969	143.75
653.173	152.75
653.377	144.75
653.581	154.75
653.785	164.75
653.99	158.75
654.194	145.75
654.398	141.75
654.602	139.75
654.806	151.75
655.01	144.75
655.214	150.75
655.418	146.75
655.622	125.75
655.826	127.75
656.03	139.75
656.234	134.75
656.438	147.75
656.642	147.75
656.846	119.75
657.049	127.75
657.253	125.75
657.457	133.75
657.661	120.75
657.865	115.75
658.068	118.75
658.272	117.75
658.476	108.75
658.68	104.75
658.883	106.75
659.087	105.75
659.291	104.75
659.494	102.75
659.698	103.75
659.901	104.75
660.105	111.75
660.309	104.75
660.512	89.75
660.716	110.75
660.919	102.75
661.123	91.75
661.326	101.75
661.53	97.75
661.733	102.75
661.936	93.75
662.14	89.75
662.343	94.75
662.546	97.75
662.75	89.75
662.953	86.75
663.156	70.75
663.36	79.75
663.563	80.75
663.766	85.75
663.969	86.75
664.173	74.75
664.376	74.75
664.579	79.75
664.782	76.75
664.985	92.75
665.188	86.75
665.391	79.75
665.594	78.75
665.797	72.75
666	85.75
666.203	86.75
666.406	77.75
666.609	89.75
666.812	80.75
667.015	95.75
667.218	87.75
667.421	89.75
667.624	80.75
667.827	78.75
668.03	86.75
668.232	84.75
668.435	86.75
668.638	84.75
668.841	72.75
669.043	79.75
669.246	91.75
669.449	68.75
669.651	81.75
669.854	79.75
670.057	91.75
670.259	77.75
670.462	89.75
670.665	79.75
670.867	98.75
671.07	83.75
671.272	81.75
671.475	86.75
671.677	81.75
671.88	94.75
672.082	91.75
672.284	72.75
672.487	83.75
672.689	79.75
672.892	90.75
