Data from 1971.PennyLincolnUp.Lamp.En5.5.200Scan.071719.P1._HRD10591_15-18-27-841.txt Node
Date: Thu Jul 18 15:18:27 EDT 2019
User: cochatt
Spectrometer: HR+D1059
Trigger mode: 1
Integration Time (sec): 1.000000E-1
Scans to average: 1
Electric dark correction enabled: true
Nonlinearity correction enabled: false
Boxcar width: 0
XAxis mode: Wavelengths
Number of Pixels in Spectrum: 2048
>>>>>Begin Spectral Data<<<<<
223.165	-12.12
223.4	-12.12
223.635	-12.12
223.869	-0.12
224.104	-1.12
224.338	-19.12
224.573	-13.12
224.808	1.88
225.042	-11.12
225.277	-14.12
225.511	-1.12
225.746	1.88
225.98	2.88
226.215	-1.12
226.449	8.88
226.683	24.88
226.918	23.88
227.152	8.88
227.387	23.88
227.621	31.88
227.856	37.88
228.09	40.88
228.324	54.88
228.559	44.88
228.793	56.88
229.027	69.88
229.262	85.88
229.496	87.88
229.73	108.88
229.964	140.88
230.199	110.88
230.433	98.88
230.667	98.88
230.901	105.88
231.136	111.88
231.37	105.88
231.604	105.88
231.838	106.88
232.072	104.88
232.306	93.88
232.541	100.88
232.775	92.88
233.009	109.88
233.243	115.88
233.477	103.88
233.711	98.88
233.945	113.88
234.179	121.88
234.413	112.88
234.647	94.88
234.881	107.88
235.115	101.88
235.349	117.88
235.583	114.88
235.817	102.88
236.051	110.88
236.285	106.88
236.519	114.88
236.753	104.88
236.987	97.88
237.221	137.88
237.455	177.88
237.689	180.88
237.922	126.88
238.156	124.88
238.39	118.88
238.624	102.88
238.858	108.88
239.091	103.88
239.325	118.88
239.559	128.88
239.793	97.88
240.027	141.88
240.26	119.88
240.494	129.88
240.728	132.88
240.961	128.88
241.195	135.88
241.429	128.88
241.662	102.88
241.896	117.88
242.13	126.88
242.363	122.88
242.597	121.88
242.83	136.88
243.064	121.88
243.298	132.88
243.531	124.88
243.765	131.88
243.998	131.88
244.232	131.88
244.465	134.88
244.699	150.88
244.932	141.88
245.166	156.88
245.399	131.88
245.633	122.88
245.866	134.88
246.099	144.88
246.333	134.88
246.566	141.88
246.8	139.88
247.033	138.88
247.266	142.88
247.5	146.88
247.733	170.88
247.966	154.88
248.2	164.88
248.433	128.88
248.666	146.88
248.899	170.88
249.133	177.88
249.366	196.88
249.599	169.88
249.832	154.88
250.066	168.88
250.299	177.88
250.532	161.88
250.765	181.88
250.998	191.88
251.231	205.88
251.465	187.88
251.698	203.88
251.931	185.88
252.164	190.88
252.397	182.88
252.63	191.88
252.863	180.88
253.096	202.88
253.329	217.88
253.562	215.88
253.795	200.88
254.028	194.88
254.261	200.88
254.494	214.88
254.727	228.88
254.96	257.88
255.193	227.88
255.426	224.88
255.659	225.88
255.892	217.88
256.124	189.88
256.357	210.88
256.59	221.88
256.823	202.88
257.056	197.88
257.289	200.88
257.521	207.88
257.754	200.88
257.987	198.88
258.22	212.88
258.452	190.88
258.685	197.88
258.918	188.88
259.151	196.88
259.383	209.88
259.616	224.88
259.849	201.88
260.081	224.88
260.314	217.88
260.547	221.88
260.779	241.88
261.012	213.88
261.244	195.88
261.477	208.88
261.71	197.88
261.942	210.88
262.175	204.88
262.407	204.88
262.64	206.88
262.872	193.88
263.105	197.88
263.337	197.88
263.57	197.88
263.802	213.88
264.035	192.88
264.267	185.88
264.499	211.88
264.732	198.88
264.964	194.88
265.197	212.88
265.429	209.88
265.661	201.88
265.894	205.88
266.126	220.88
266.358	212.88
266.591	200.88
266.823	221.88
267.055	215.88
267.287	208.88
267.52	216.88
267.752	212.88
267.984	224.88
268.216	226.88
268.448	231.88
268.681	213.88
268.913	225.88
269.145	248.88
269.377	252.88
269.609	260.88
269.841	239.88
270.073	253.88
270.306	272.88
270.538	304.88
270.77	278.88
271.002	271.88
271.234	265.88
271.466	256.88
271.698	283.88
271.93	293.88
272.162	272.88
272.394	292.88
272.626	268.88
272.858	280.88
273.09	256.88
273.322	263.88
273.553	240.88
273.785	220.88
274.017	246.88
274.249	247.88
274.481	251.88
274.713	256.88
274.945	258.88
275.176	239.88
275.408	247.88
275.64	255.88
275.872	264.88
276.104	253.88
276.335	238.88
276.567	269.88
276.799	257.88
277.031	284.88
277.262	288.88
277.494	297.88
277.726	275.88
277.957	256.88
278.189	258.88
278.421	247.88
278.652	276.88
278.884	261.88
279.115	241.88
279.347	232.88
279.579	252.88
279.81	260.88
280.042	244.88
280.273	256.88
280.505	256.88
280.736	244.88
280.968	243.88
281.199	257.88
281.431	258.88
281.662	234.88
281.894	242.88
282.125	253.88
282.356	271.88
282.588	286.88
282.819	282.88
283.051	265.88
283.282	246.88
283.513	261.88
283.745	264.88
283.976	258.88
284.207	269.88
284.439	266.88
284.67	261.88
284.901	267.88
285.132	252.88
285.364	276.88
285.595	270.88
285.826	279.88
286.057	269.88
286.288	276.88
286.52	261.88
286.751	259.88
286.982	260.88
287.213	257.88
287.444	283.88
287.675	263.88
287.906	293.88
288.138	267.88
288.369	265.88
288.6	279.88
288.831	273.88
289.062	283.88
289.293	291.88
289.524	280.88
289.755	270.88
289.986	268.88
290.217	272.88
290.448	278.88
290.679	279.88
290.91	279.88
291.141	262.88
291.371	266.88
291.602	276.88
291.833	274.88
292.064	267.88
292.295	260.88
292.526	276.88
292.757	267.88
292.987	287.88
293.218	290.88
293.449	294.88
293.68	271.88
293.91	272.88
294.141	275.88
294.372	275.88
294.603	274.88
294.833	282.88
295.064	276.88
295.295	278.88
295.525	263.88
295.756	280.88
295.987	283.88
296.217	302.88
296.448	291.88
296.679	286.88
296.909	285.88
297.14	282.88
297.37	292.88
297.601	289.88
297.831	266.88
298.062	281.88
298.292	297.88
298.523	293.88
298.753	293.88
298.984	281.88
299.214	288.88
299.445	289.88
299.675	298.88
299.905	283.88
300.136	294.88
300.366	292.88
300.597	292.88
300.827	296.88
301.057	306.88
301.288	306.88
301.518	321.88
301.748	300.88
301.979	306.88
302.209	301.88
302.439	320.88
302.669	308.88
302.9	304.88
303.13	324.88
303.36	306.88
303.59	319.88
303.82	300.88
304.051	320.88
304.281	301.88
304.511	305.88
304.741	316.88
304.971	309.88
305.201	304.88
305.431	315.88
305.661	281.88
305.891	312.88
306.121	288.88
306.352	302.88
306.582	297.88
306.812	295.88
307.042	308.88
307.272	333.88
307.502	331.88
307.731	339.88
307.961	322.88
308.191	315.88
308.421	305.88
308.651	321.88
308.881	323.88
309.111	329.88
309.341	322.88
309.571	356.88
309.8	336.88
310.03	327.88
310.26	337.88
310.49	329.88
310.72	337.88
310.949	374.88
311.179	348.88
311.409	348.88
311.639	362.88
311.868	353.88
312.098	353.88
312.328	353.88
312.557	372.88
312.787	378.88
313.017	345.88
313.246	330.88
313.476	345.88
313.706	344.88
313.935	368.88
314.165	358.88
314.394	374.88
314.624	367.88
314.853	347.88
315.083	346.88
315.312	336.88
315.542	349.88
315.771	349.88
316.001	331.88
316.23	345.88
316.46	343.88
316.689	370.88
316.919	348.88
317.148	366.88
317.377	343.88
317.607	355.88
317.836	343.88
318.065	354.88
318.295	370.88
318.524	359.88
318.753	352.88
318.983	341.88
319.212	343.88
319.441	331.88
319.67	336.88
319.9	353.88
320.129	344.88
320.358	370.88
320.587	356.88
320.816	359.88
321.046	362.88
321.275	379.88
321.504	341.88
321.733	365.88
321.962	393.88
322.191	384.88
322.42	385.88
322.649	415.88
322.878	423.88
323.108	392.88
323.337	446.88
323.566	437.88
323.795	448.88
324.024	482.88
324.253	597.88
324.482	814.88
324.71	1218.88
324.939	1631.88
325.168	1358.88
325.397	765.88
325.626	525.88
325.855	451.88
326.084	446.88
326.313	444.88
326.542	450.88
326.77	484.88
326.999	551.88
327.228	762.88
327.457	1091.88
327.686	1207.88
327.914	810.88
328.143	581.88
328.372	522.88
328.6	488.88
328.829	455.88
329.058	480.88
329.287	508.88
329.515	475.88
329.744	432.88
329.972	437.88
330.201	469.88
330.43	482.88
330.658	465.88
330.887	488.88
331.115	494.88
331.344	444.88
331.572	443.88
331.801	425.88
332.03	434.88
332.258	414.88
332.486	410.88
332.715	416.88
332.943	404.88
333.172	417.88
333.4	421.88
333.629	412.88
333.857	424.88
334.085	424.88
334.314	424.88
334.542	461.88
334.771	462.88
334.999	426.88
335.227	431.88
335.455	423.88
335.684	402.88
335.912	398.88
336.14	410.88
336.369	399.88
336.597	418.88
336.825	393.88
337.053	412.88
337.281	387.88
337.51	379.88
337.738	373.88
337.966	397.88
338.194	391.88
338.422	391.88
338.65	382.88
338.878	408.88
339.106	383.88
339.334	390.88
339.562	403.88
339.79	376.88
340.018	368.88
340.246	387.88
340.474	383.88
340.702	389.88
340.93	384.88
341.158	398.88
341.386	388.88
341.614	393.88
341.842	401.88
342.07	378.88
342.298	359.88
342.526	374.88
342.754	372.88
342.981	362.88
343.209	364.88
343.437	362.88
343.665	366.88
343.893	388.88
344.12	381.88
344.348	406.88
344.576	389.88
344.804	382.88
345.031	393.88
345.259	391.88
345.487	400.88
345.714	376.88
345.942	384.88
346.17	353.88
346.397	370.88
346.625	374.88
346.853	358.88
347.08	360.88
347.308	372.88
347.535	358.88
347.763	386.88
347.99	375.88
348.218	381.88
348.445	370.88
348.673	384.88
348.9	384.88
349.128	367.88
349.355	342.88
349.583	352.88
349.81	352.88
350.037	361.88
350.265	373.88
350.492	341.88
350.72	343.88
350.947	351.88
351.174	370.88
351.402	386.88
351.629	369.88
351.856	379.88
352.083	359.88
352.311	384.88
352.538	372.88
352.765	346.88
352.992	361.88
353.22	362.88
353.447	365.88
353.674	364.88
353.901	367.88
354.128	358.88
354.355	348.88
354.583	358.88
354.81	328.88
355.037	345.88
355.264	348.88
355.491	323.88
355.718	331.88
355.945	347.88
356.172	337.88
356.399	351.88
356.626	332.88
356.853	335.88
357.08	339.88
357.307	327.88
357.534	345.88
357.761	347.88
357.988	338.88
358.215	334.88
358.441	323.88
358.668	312.88
358.895	368.88
359.122	343.88
359.349	344.88
359.576	367.88
359.802	374.88
360.029	403.88
360.256	394.88
360.483	370.88
360.709	359.88
360.936	371.88
361.163	354.88
361.39	358.88
361.616	342.88
361.843	358.88
362.07	317.88
362.296	352.88
362.523	370.88
362.749	331.88
362.976	349.88
363.203	355.88
363.429	326.88
363.656	335.88
363.882	341.88
364.109	339.88
364.335	354.88
364.562	335.88
364.788	343.88
365.015	351.88
365.241	312.88
365.468	348.88
365.694	333.88
365.92	332.88
366.147	348.88
366.373	354.88
366.599	334.88
366.826	349.88
367.052	323.88
367.278	341.88
367.505	336.88
367.731	345.88
367.957	321.88
368.184	343.88
368.41	352.88
368.636	350.88
368.862	349.88
369.089	340.88
369.315	342.88
369.541	338.88
369.767	350.88
369.993	340.88
370.219	353.88
370.445	340.88
370.672	334.88
370.898	340.88
371.124	328.88
371.35	368.88
371.576	334.88
371.802	334.88
372.028	332.88
372.254	340.88
372.48	335.88
372.706	341.88
372.932	324.88
373.158	339.88
373.384	335.88
373.61	334.88
373.835	353.88
374.061	339.88
374.287	341.88
374.513	345.88
374.739	353.88
374.965	334.88
375.191	323.88
375.416	336.88
375.642	343.88
375.868	340.88
376.094	337.88
376.319	321.88
376.545	352.88
376.771	340.88
376.997	326.88
377.222	336.88
377.448	330.88
377.674	326.88
377.899	329.88
378.125	324.88
378.35	334.88
378.576	334.88
378.802	328.88
379.027	336.88
379.253	333.88
379.478	331.88
379.704	323.88
379.929	334.88
380.155	310.88
380.38	321.88
380.606	320.88
380.831	327.88
381.057	346.88
381.282	325.88
381.507	327.88
381.733	320.88
381.958	327.88
382.184	334.88
382.409	341.88
382.634	327.88
382.86	329.88
383.085	341.88
383.31	336.88
383.535	347.88
383.761	327.88
383.986	318.88
384.211	331.88
384.436	326.88
384.662	340.88
384.887	341.88
385.112	333.88
385.337	348.88
385.562	336.88
385.787	346.88
386.013	365.88
386.238	341.88
386.463	361.88
386.688	349.88
386.913	350.88
387.138	344.88
387.363	366.88
387.588	361.88
387.813	353.88
388.038	361.88
388.263	346.88
388.488	356.88
388.713	353.88
388.938	352.88
389.163	341.88
389.387	362.88
389.612	356.88
389.837	355.88
390.062	327.88
390.287	350.88
390.512	326.88
390.736	344.88
390.961	349.88
391.186	376.88
391.411	364.88
391.636	354.88
391.86	356.88
392.085	366.88
392.31	361.88
392.534	364.88
392.759	372.88
392.984	358.88
393.208	369.88
393.433	357.88
393.658	360.88
393.882	355.88
394.107	356.88
394.331	351.88
394.556	337.88
394.78	345.88
395.005	352.88
395.229	382.88
395.454	350.88
395.678	358.88
395.903	354.88
396.127	386.88
396.352	382.88
396.576	372.88
396.801	361.88
397.025	361.88
397.249	360.88
397.474	369.88
397.698	362.88
397.922	378.88
398.147	378.88
398.371	395.88
398.595	379.88
398.82	389.88
399.044	399.88
399.268	398.88
399.492	433.88
399.717	444.88
399.941	472.88
400.165	486.88
400.389	478.88
400.613	421.88
400.837	405.88
401.062	411.88
401.286	404.88
401.51	402.88
401.734	390.88
401.958	393.88
402.182	379.88
402.406	412.88
402.63	423.88
402.854	391.88
403.078	384.88
403.302	395.88
403.526	400.88
403.75	402.88
403.974	390.88
404.198	389.88
404.422	387.88
404.645	393.88
404.869	400.88
405.093	412.88
405.317	441.88
405.541	457.88
405.765	423.88
405.988	433.88
406.212	407.88
406.436	415.88
406.66	439.88
406.883	425.88
407.107	432.88
407.331	454.88
407.555	535.88
407.778	514.88
408.002	468.88
408.226	428.88
408.449	459.88
408.673	438.88
408.896	456.88
409.12	488.88
409.344	451.88
409.567	419.88
409.791	418.88
410.014	388.88
410.238	386.88
410.461	392.88
410.685	385.88
410.908	406.88
411.132	426.88
411.355	471.88
411.578	439.88
411.802	405.88
412.025	395.88
412.249	404.88
412.472	433.88
412.695	444.88
412.919	442.88
413.142	398.88
413.365	392.88
413.589	383.88
413.812	376.88
414.035	367.88
414.258	360.88
414.482	361.88
414.705	401.88
414.928	370.88
415.151	375.88
415.374	374.88
415.597	360.88
415.821	362.88
416.044	369.88
416.267	384.88
416.49	376.88
416.713	372.88
416.936	361.88
417.159	367.88
417.382	372.88
417.605	362.88
417.828	406.88
418.051	392.88
418.274	376.88
418.497	383.88
418.72	370.88
418.943	376.88
419.166	390.88
419.389	384.88
419.611	394.88
419.834	385.88
420.057	397.88
420.28	388.88
420.503	398.88
420.726	417.88
420.948	417.88
421.171	416.88
421.394	441.88
421.617	412.88
421.839	376.88
422.062	421.88
422.285	408.88
422.507	461.88
422.73	471.88
422.953	463.88
423.175	423.88
423.398	429.88
423.621	407.88
423.843	428.88
424.066	417.88
424.288	418.88
424.511	434.88
424.733	465.88
424.956	534.88
425.178	501.88
425.401	505.88
425.623	518.88
425.846	442.88
426.068	424.88
426.291	400.88
426.513	395.88
426.735	423.88
426.958	433.88
427.18	500.88
427.402	604.88
427.625	654.88
427.847	580.88
428.069	484.88
428.292	443.88
428.514	413.88
428.736	391.88
428.958	381.88
429.181	396.88
429.403	391.88
429.625	390.88
429.847	436.88
430.069	477.88
430.292	441.88
430.514	399.88
430.736	377.88
430.958	378.88
431.18	373.88
431.402	370.88
431.624	357.88
431.846	366.88
432.068	361.88
432.29	378.88
432.512	366.88
432.734	361.88
432.956	366.88
433.178	384.88
433.4	360.88
433.622	386.88
433.844	360.88
434.066	378.88
434.287	350.88
434.509	348.88
434.731	367.88
434.953	374.88
435.175	391.88
435.397	417.88
435.618	393.88
435.84	430.88
436.062	514.88
436.284	540.88
436.505	464.88
436.727	425.88
436.949	390.88
437.17	386.88
437.392	402.88
437.614	395.88
437.835	401.88
438.057	489.88
438.278	556.88
438.5	568.88
438.721	599.88
438.943	575.88
439.165	458.88
439.386	423.88
439.608	420.88
439.829	421.88
440.05	450.88
440.272	484.88
440.493	435.88
440.715	429.88
440.936	389.88
441.158	410.88
441.379	388.88
441.6	394.88
441.822	419.88
442.043	460.88
442.264	492.88
442.486	539.88
442.707	469.88
442.928	448.88
443.149	432.88
443.371	432.88
443.592	470.88
443.813	558.88
444.034	602.88
444.255	504.88
444.476	456.88
444.698	421.88
444.919	416.88
445.14	567.88
445.361	492.88
445.582	438.88
445.803	497.88
446.024	550.88
446.245	558.88
446.466	530.88
446.687	456.88
446.908	424.88
447.129	397.88
447.35	393.88
447.571	404.88
447.792	368.88
448.013	377.88
448.234	401.88
448.455	424.88
448.675	535.88
448.896	607.88
449.117	506.88
449.338	476.88
449.559	546.88
449.779	640.88
450	497.88
450.221	425.88
450.442	382.88
450.662	382.88
450.883	386.88
451.104	390.88
451.324	362.88
451.545	364.88
451.766	367.88
451.986	344.88
452.207	334.88
452.428	358.88
452.648	351.88
452.869	351.88
453.089	352.88
453.31	347.88
453.53	341.88
453.751	342.88
453.971	349.88
454.192	356.88
454.412	323.88
454.633	335.88
454.853	333.88
455.073	334.88
455.294	373.88
455.514	418.88
455.734	400.88
455.955	358.88
456.175	350.88
456.395	337.88
456.616	347.88
456.836	332.88
457.056	316.88
457.276	325.88
457.497	321.88
457.717	332.88
457.937	308.88
458.157	332.88
458.377	338.88
458.598	362.88
458.818	385.88
459.038	423.88
459.258	461.88
459.478	370.88
459.698	357.88
459.918	345.88
460.138	379.88
460.358	372.88
460.578	336.88
460.798	357.88
461.018	375.88
461.238	370.88
461.458	377.88
461.678	360.88
461.898	373.88
462.118	362.88
462.338	364.88
462.558	374.88
462.777	380.88
462.997	380.88
463.217	412.88
463.437	393.88
463.657	392.88
463.876	381.88
464.096	371.88
464.316	400.88
464.536	384.88
464.755	399.88
464.975	398.88
465.195	433.88
465.414	451.88
465.634	397.88
465.854	378.88
466.073	365.88
466.293	343.88
466.512	329.88
466.732	336.88
466.951	338.88
467.171	341.88
467.391	370.88
467.61	361.88
467.829	341.88
468.049	351.88
468.268	342.88
468.488	333.88
468.707	341.88
468.927	343.88
469.146	359.88
469.365	358.88
469.585	332.88
469.804	342.88
470.023	361.88
470.243	355.88
470.462	374.88
470.681	388.88
470.901	372.88
471.12	354.88
471.339	374.88
471.558	355.88
471.777	365.88
471.997	344.88
472.216	337.88
472.435	379.88
472.654	368.88
472.873	362.88
473.092	359.88
473.311	366.88
473.53	362.88
473.749	355.88
473.968	398.88
474.187	474.88
474.406	472.88
474.625	379.88
474.844	354.88
475.063	358.88
475.282	368.88
475.501	370.88
475.72	341.88
475.939	370.88
476.158	375.88
476.377	349.88
476.596	378.88
476.814	376.88
477.033	353.88
477.252	370.88
477.471	371.88
477.69	382.88
477.908	374.88
478.127	400.88
478.346	386.88
478.564	393.88
478.783	389.88
479.002	412.88
479.22	404.88
479.439	412.88
479.658	394.88
479.876	432.88
480.095	416.88
480.313	440.88
480.532	464.88
480.751	418.88
480.969	438.88
481.188	459.88
481.406	467.88
481.624	435.88
481.843	416.88
482.061	398.88
482.28	413.88
482.498	397.88
482.717	407.88
482.935	408.88
483.153	428.88
483.372	402.88
483.59	414.88
483.808	404.88
484.027	417.88
484.245	404.88
484.463	424.88
484.681	410.88
484.9	427.88
485.118	442.88
485.336	412.88
485.554	439.88
485.772	434.88
485.99	422.88
486.209	419.88
486.427	416.88
486.645	415.88
486.863	441.88
487.081	462.88
487.299	413.88
487.517	455.88
487.735	448.88
487.953	458.88
488.171	450.88
488.389	429.88
488.607	435.88
488.825	450.88
489.043	442.88
489.261	452.88
489.479	463.88
489.696	441.88
489.914	453.88
490.132	458.88
490.35	461.88
490.568	448.88
490.786	462.88
491.003	486.88
491.221	488.88
491.439	503.88
491.657	515.88
491.874	505.88
492.092	494.88
492.31	519.88
492.527	520.88
492.745	514.88
492.963	516.88
493.18	525.88
493.398	518.88
493.615	508.88
493.833	510.88
494.05	509.88
494.268	513.88
494.485	525.88
494.703	492.88
494.92	510.88
495.138	510.88
495.355	529.88
495.573	517.88
495.79	515.88
496.008	504.88
496.225	532.88
496.442	541.88
496.66	525.88
496.877	530.88
497.094	536.88
497.312	529.88
497.529	565.88
497.746	534.88
497.963	530.88
498.181	546.88
498.398	545.88
498.615	551.88
498.832	580.88
499.049	582.88
499.267	597.88
499.484	597.88
499.701	617.88
499.918	654.88
500.135	678.88
500.352	686.88
500.569	690.88
500.786	679.88
501.003	706.88
501.22	708.88
501.437	664.88
501.654	660.88
501.871	654.88
502.088	633.88
502.305	592.88
502.522	579.88
502.739	557.88
502.956	547.88
503.172	546.88
503.389	537.88
503.606	552.88
503.823	520.88
504.04	536.88
504.256	553.88
504.473	493.88
504.69	505.88
504.907	518.88
505.123	518.88
505.34	524.88
505.557	489.88
505.773	496.88
505.99	472.88
506.207	486.88
506.423	496.88
506.64	478.88
506.856	476.88
507.073	477.88
507.289	485.88
507.506	489.88
507.722	481.88
507.939	506.88
508.155	487.88
508.372	444.88
508.588	449.88
508.805	458.88
509.021	486.88
509.238	477.88
509.454	469.88
509.67	470.88
509.887	464.88
510.103	471.88
510.319	493.88
510.536	540.88
510.752	790.88
510.968	632.88
511.184	483.88
511.401	430.88
511.617	465.88
511.833	450.88
512.049	433.88
512.265	433.88
512.481	454.88
512.698	458.88
512.914	426.88
513.13	438.88
513.346	438.88
513.562	430.88
513.778	441.88
513.994	428.88
514.21	460.88
514.426	465.88
514.642	489.88
514.858	494.88
515.074	542.88
515.29	584.88
515.506	802.88
515.721	699.88
515.937	526.88
516.153	476.88
516.369	472.88
516.585	462.88
516.801	447.88
517.016	434.88
517.232	450.88
517.448	438.88
517.664	438.88
517.879	450.88
518.095	463.88
518.311	452.88
518.527	439.88
518.742	443.88
518.958	432.88
519.173	437.88
519.389	437.88
519.605	422.88
519.82	449.88
520.036	445.88
520.251	434.88
520.467	475.88
520.682	477.88
520.898	469.88
521.113	482.88
521.329	520.88
521.544	540.88
521.76	688.88
521.975	1088.88
522.19	987.88
522.406	610.88
522.621	473.88
522.836	457.88
523.052	424.88
523.267	417.88
523.482	404.88
523.698	407.88
523.913	408.88
524.128	398.88
524.343	387.88
524.559	394.88
524.774	367.88
524.989	394.88
525.204	386.88
525.419	394.88
525.634	377.88
525.849	398.88
526.064	378.88
526.28	359.88
526.495	354.88
526.71	353.88
526.925	364.88
527.14	370.88
527.355	343.88
527.57	363.88
527.785	354.88
527.999	368.88
528.214	364.88
528.429	360.88
528.644	375.88
528.859	372.88
529.074	365.88
529.289	399.88
529.503	453.88
529.718	420.88
529.933	388.88
530.148	391.88
530.363	372.88
530.577	356.88
530.792	364.88
531.007	363.88
531.221	360.88
531.436	341.88
531.651	336.88
531.865	360.88
532.08	351.88
532.295	340.88
532.509	331.88
532.724	338.88
532.938	360.88
533.153	359.88
533.367	352.88
533.582	356.88
533.796	353.88
534.011	372.88
534.225	348.88
534.44	335.88
534.654	334.88
534.868	340.88
535.083	345.88
535.297	334.88
535.511	350.88
535.726	360.88
535.94	336.88
536.154	349.88
536.369	348.88
536.583	353.88
536.797	329.88
537.011	328.88
537.225	340.88
537.44	332.88
537.654	317.88
537.868	334.88
538.082	335.88
538.296	351.88
538.51	357.88
538.724	350.88
538.938	336.88
539.153	350.88
539.367	341.88
539.581	354.88
539.795	332.88
540.009	350.88
540.222	343.88
540.436	338.88
540.65	341.88
540.864	346.88
541.078	324.88
541.292	344.88
541.506	355.88
541.72	357.88
541.934	354.88
542.147	356.88
542.361	341.88
542.575	334.88
542.789	346.88
543.002	335.88
543.216	333.88
543.43	326.88
543.644	330.88
543.857	340.88
544.071	341.88
544.285	353.88
544.498	356.88
544.712	354.88
544.925	357.88
545.139	350.88
545.352	310.88
545.566	347.88
545.779	342.88
545.993	343.88
546.206	350.88
546.42	337.88
546.633	335.88
546.847	326.88
547.06	320.88
547.274	329.88
547.487	346.88
547.7	336.88
547.914	332.88
548.127	343.88
548.34	312.88
548.554	327.88
548.767	326.88
548.98	342.88
549.193	320.88
549.407	340.88
549.62	344.88
549.833	333.88
550.046	340.88
550.259	298.88
550.473	326.88
550.686	296.88
550.899	344.88
551.112	319.88
551.325	312.88
551.538	314.88
551.751	329.88
551.964	322.88
552.177	307.88
552.39	313.88
552.603	326.88
552.816	325.88
553.029	343.88
553.242	329.88
553.455	324.88
553.667	349.88
553.88	329.88
554.093	355.88
554.306	315.88
554.519	330.88
554.732	332.88
554.944	320.88
555.157	312.88
555.37	335.88
555.583	288.88
555.795	315.88
556.008	312.88
556.221	319.88
556.433	316.88
556.646	320.88
556.859	310.88
557.071	296.88
557.284	303.88
557.496	301.88
557.709	305.88
557.921	288.88
558.134	302.88
558.346	291.88
558.559	294.88
558.771	296.88
558.984	289.88
559.196	274.88
559.409	308.88
559.621	306.88
559.833	279.88
560.046	276.88
560.258	287.88
560.47	289.88
560.683	302.88
560.895	286.88
561.107	285.88
561.32	281.88
561.532	274.88
561.744	296.88
561.956	279.88
562.168	273.88
562.381	272.88
562.593	294.88
562.805	297.88
563.017	292.88
563.229	288.88
563.441	302.88
563.653	293.88
563.865	282.88
564.077	296.88
564.289	315.88
564.501	301.88
564.713	304.88
564.925	294.88
565.137	299.88
565.349	300.88
565.561	316.88
565.773	325.88
565.985	305.88
566.197	306.88
566.408	318.88
566.62	335.88
566.832	325.88
567.044	341.88
567.255	336.88
567.467	349.88
567.679	330.88
567.891	343.88
568.102	338.88
568.314	336.88
568.526	343.88
568.737	327.88
568.949	324.88
569.161	295.88
569.372	269.88
569.584	284.88
569.795	275.88
570.007	281.88
570.218	316.88
570.43	292.88
570.641	277.88
570.853	287.88
571.064	293.88
571.276	256.88
571.487	281.88
571.698	266.88
571.91	265.88
572.121	259.88
572.333	271.88
572.544	265.88
572.755	261.88
572.966	256.88
573.178	257.88
573.389	276.88
573.6	262.88
573.811	256.88
574.023	270.88
574.234	236.88
574.445	258.88
574.656	238.88
574.867	262.88
575.078	242.88
575.289	242.88
575.501	247.88
575.712	230.88
575.923	236.88
576.134	252.88
576.345	256.88
576.556	245.88
576.767	262.88
576.978	255.88
577.188	231.88
577.399	248.88
577.61	242.88
577.821	260.88
578.032	238.88
578.243	273.88
578.454	382.88
578.665	310.88
578.875	248.88
579.086	240.88
579.297	230.88
579.508	224.88
579.718	243.88
579.929	234.88
580.14	236.88
580.35	229.88
580.561	233.88
580.772	228.88
580.982	229.88
581.193	224.88
581.403	239.88
581.614	222.88
581.825	219.88
582.035	231.88
582.246	226.88
582.456	231.88
582.667	220.88
582.877	229.88
583.087	218.88
583.298	208.88
583.508	228.88
583.719	218.88
583.929	222.88
584.139	202.88
584.35	205.88
584.56	224.88
584.77	230.88
584.981	230.88
585.191	215.88
585.401	213.88
585.611	210.88
585.821	236.88
586.032	230.88
586.242	210.88
586.452	223.88
586.662	223.88
586.872	212.88
587.082	204.88
587.292	205.88
587.502	209.88
587.713	219.88
587.923	227.88
588.133	210.88
588.343	215.88
588.553	212.88
588.762	222.88
588.972	218.88
589.182	229.88
589.392	231.88
589.602	213.88
589.812	211.88
590.022	210.88
590.232	204.88
590.441	201.88
590.651	214.88
590.861	212.88
591.071	207.88
591.281	206.88
591.49	215.88
591.7	208.88
591.91	221.88
592.119	236.88
592.329	222.88
592.539	212.88
592.748	213.88
592.958	203.88
593.167	233.88
593.377	228.88
593.587	241.88
593.796	214.88
594.006	232.88
594.215	245.88
594.424	230.88
594.634	225.88
594.843	218.88
595.053	238.88
595.262	214.88
595.472	198.88
595.681	217.88
595.89	214.88
596.1	210.88
596.309	208.88
596.518	200.88
596.727	201.88
596.937	213.88
597.146	210.88
597.355	212.88
597.564	189.88
597.774	206.88
597.983	196.88
598.192	205.88
598.401	205.88
598.61	202.88
598.819	196.88
599.028	212.88
599.237	192.88
599.446	193.88
599.655	201.88
599.864	187.88
600.073	196.88
600.282	198.88
600.491	217.88
600.7	205.88
600.909	188.88
601.118	196.88
601.327	198.88
601.536	181.88
601.745	196.88
601.953	194.88
602.162	210.88
602.371	188.88
602.58	188.88
602.789	196.88
602.997	184.88
603.206	199.88
603.415	207.88
603.623	199.88
603.832	185.88
604.041	191.88
604.249	191.88
604.458	190.88
604.666	178.88
604.875	203.88
605.084	188.88
605.292	197.88
605.501	191.88
605.709	188.88
605.918	199.88
606.126	204.88
606.334	186.88
606.543	194.88
606.751	199.88
606.96	202.88
607.168	191.88
607.376	180.88
607.585	173.88
607.793	184.88
608.001	188.88
608.21	192.88
608.418	187.88
608.626	186.88
608.834	198.88
609.043	202.88
609.251	209.88
609.459	184.88
609.667	201.88
609.875	200.88
610.083	183.88
610.291	200.88
610.499	192.88
610.707	180.88
610.916	212.88
611.124	210.88
611.332	203.88
611.54	209.88
611.748	208.88
611.955	201.88
612.163	181.88
612.371	188.88
612.579	177.88
612.787	204.88
612.995	186.88
613.203	192.88
613.411	185.88
613.618	190.88
613.826	184.88
614.034	196.88
614.242	187.88
614.449	187.88
614.657	188.88
614.865	188.88
615.072	188.88
615.28	181.88
615.488	190.88
615.695	184.88
615.903	183.88
616.111	188.88
616.318	208.88
616.526	170.88
616.733	180.88
616.941	201.88
617.148	214.88
617.356	196.88
617.563	195.88
617.771	175.88
617.978	184.88
618.185	179.88
618.393	179.88
618.6	185.88
618.807	177.88
619.015	174.88
619.222	170.88
619.429	177.88
619.637	179.88
619.844	176.88
620.051	176.88
620.258	173.88
620.466	185.88
620.673	178.88
620.88	163.88
621.087	186.88
621.294	178.88
621.501	165.88
621.708	181.88
621.915	189.88
622.122	175.88
622.329	205.88
622.536	182.88
622.743	164.88
622.95	183.88
623.157	170.88
623.364	177.88
623.571	184.88
623.778	186.88
623.985	182.88
624.192	159.88
624.399	181.88
624.606	185.88
624.812	177.88
625.019	170.88
625.226	165.88
625.433	162.88
625.639	175.88
625.846	163.88
626.053	169.88
626.259	165.88
626.466	149.88
626.673	178.88
626.879	154.88
627.086	178.88
627.293	149.88
627.499	154.88
627.706	149.88
627.912	172.88
628.119	149.88
628.325	163.88
628.532	159.88
628.738	172.88
628.945	142.88
629.151	180.88
629.357	166.88
629.564	157.88
629.77	166.88
629.976	161.88
630.183	148.88
630.389	143.88
630.595	152.88
630.802	149.88
631.008	168.88
631.214	152.88
631.42	166.88
631.627	153.88
631.833	148.88
632.039	133.88
632.245	152.88
632.451	150.88
632.657	151.88
632.863	146.88
633.069	143.88
633.275	141.88
633.481	142.88
633.688	157.88
633.893	153.88
634.099	148.88
634.305	156.88
634.511	145.88
634.717	144.88
634.923	137.88
635.129	136.88
635.335	136.88
635.541	156.88
635.747	142.88
635.952	165.88
636.158	151.88
636.364	145.88
636.57	158.88
636.775	147.88
636.981	138.88
637.187	160.88
637.392	139.88
637.598	143.88
637.804	154.88
638.009	163.88
638.215	158.88
638.421	154.88
638.626	145.88
638.832	144.88
639.037	148.88
639.243	157.88
639.448	161.88
639.654	135.88
639.859	148.88
640.065	140.88
640.27	144.88
640.475	138.88
640.681	147.88
640.886	146.88
641.091	135.88
641.297	142.88
641.502	144.88
641.707	116.88
641.913	154.88
642.118	145.88
642.323	149.88
642.528	163.88
642.733	126.88
642.939	145.88
643.144	130.88
643.349	146.88
643.554	139.88
643.759	139.88
643.964	140.88
644.169	152.88
644.374	144.88
644.579	138.88
644.784	144.88
644.989	144.88
645.194	141.88
645.399	131.88
645.604	144.88
645.809	136.88
646.014	142.88
646.219	146.88
646.423	146.88
646.628	125.88
646.833	128.88
647.038	145.88
647.243	141.88
647.447	145.88
647.652	146.88
647.857	144.88
648.062	144.88
648.266	143.88
648.471	142.88
648.676	137.88
648.88	146.88
649.085	144.88
649.289	134.88
649.494	135.88
649.698	149.88
649.903	150.88
650.107	142.88
650.312	146.88
650.516	132.88
650.721	138.88
650.925	141.88
651.13	132.88
651.334	121.88
651.539	129.88
651.743	127.88
651.947	123.88
652.152	120.88
652.356	132.88
652.56	121.88
652.764	116.88
652.969	108.88
653.173	115.88
653.377	134.88
653.581	121.88
653.785	124.88
653.99	123.88
654.194	136.88
654.398	118.88
654.602	122.88
654.806	132.88
655.01	136.88
655.214	122.88
655.418	120.88
655.622	127.88
655.826	112.88
656.03	116.88
656.234	101.88
656.438	115.88
656.642	120.88
656.846	110.88
657.049	115.88
657.253	114.88
657.457	111.88
657.661	125.88
657.865	99.88
658.068	100.88
658.272	107.88
658.476	92.88
658.68	93.88
658.883	101.88
659.087	106.88
659.291	92.88
659.494	95.88
659.698	104.88
659.901	99.88
660.105	92.88
660.309	82.88
660.512	81.88
660.716	78.88
660.919	84.88
661.123	94.88
661.326	84.88
661.53	87.88
661.733	96.88
661.936	82.88
662.14	80.88
662.343	87.88
662.546	76.88
662.75	75.88
662.953	87.88
663.156	71.88
663.36	82.88
663.563	78.88
663.766	76.88
663.969	71.88
664.173	80.88
664.376	94.88
664.579	88.88
664.782	78.88
664.985	65.88
665.188	66.88
665.391	84.88
665.594	83.88
665.797	73.88
666	51.88
666.203	67.88
666.406	81.88
666.609	102.88
666.812	63.88
667.015	66.88
667.218	89.88
667.421	99.88
667.624	80.88
667.827	78.88
668.03	72.88
668.232	82.88
668.435	84.88
668.638	65.88
668.841	87.88
669.043	96.88
669.246	84.88
669.449	85.88
669.651	69.88
669.854	66.88
670.057	73.88
670.259	68.88
670.462	75.88
670.665	87.88
670.867	77.88
671.07	79.88
671.272	81.88
671.475	83.88
671.677	74.88
671.88	86.88
672.082	75.88
672.284	65.88
672.487	81.88
672.689	93.88
672.892	85.88
