Data from 1971.PennyLincolnUp.Lamp.En5.5.200Scan.071719.P1.Scan 2. Changed Angle._HRD10591_15-24-37-843.txt Node
Date: Thu Jul 18 15:24:37 EDT 2019
User: cochatt
Spectrometer: HR+D1059
Trigger mode: 1
Integration Time (sec): 1.000000E-1
Scans to average: 1
Electric dark correction enabled: true
Nonlinearity correction enabled: false
Boxcar width: 0
XAxis mode: Wavelengths
Number of Pixels in Spectrum: 2048
>>>>>Begin Spectral Data<<<<<
223.165	-16.44
223.4	-16.44
223.635	-16.44
223.869	-30.44
224.104	-13.44
224.338	-15.44
224.573	-1.44
224.808	-8.44
225.042	-18.44
225.277	-2.44
225.511	10.56
225.746	-1.44
225.98	18.56
226.215	13.56
226.449	9.56
226.683	13.56
226.918	22.56
227.152	19.56
227.387	30.56
227.621	41.56
227.856	37.56
228.09	42.56
228.324	44.56
228.559	51.56
228.793	68.56
229.027	98.56
229.262	125.56
229.496	141.56
229.73	157.56
229.964	181.56
230.199	156.56
230.433	129.56
230.667	124.56
230.901	94.56
231.136	132.56
231.37	112.56
231.604	122.56
231.838	122.56
232.072	124.56
232.306	109.56
232.541	121.56
232.775	131.56
233.009	118.56
233.243	117.56
233.477	125.56
233.711	114.56
233.945	114.56
234.179	111.56
234.413	128.56
234.647	113.56
234.881	130.56
235.115	136.56
235.349	128.56
235.583	118.56
235.817	127.56
236.051	130.56
236.285	125.56
236.519	135.56
236.753	148.56
236.987	150.56
237.221	201.56
237.455	269.56
237.689	205.56
237.922	168.56
238.156	140.56
238.39	137.56
238.624	128.56
238.858	124.56
239.091	146.56
239.325	139.56
239.559	130.56
239.793	117.56
240.027	141.56
240.26	155.56
240.494	170.56
240.728	152.56
240.961	157.56
241.195	151.56
241.429	153.56
241.662	164.56
241.896	145.56
242.13	143.56
242.363	140.56
242.597	138.56
242.83	139.56
243.064	146.56
243.298	148.56
243.531	149.56
243.765	141.56
243.998	151.56
244.232	152.56
244.465	155.56
244.699	158.56
244.932	157.56
245.166	138.56
245.399	160.56
245.633	166.56
245.866	151.56
246.099	155.56
246.333	162.56
246.566	158.56
246.8	174.56
247.033	168.56
247.266	177.56
247.5	172.56
247.733	179.56
247.966	184.56
248.2	186.56
248.433	186.56
248.666	184.56
248.899	197.56
249.133	231.56
249.366	230.56
249.599	219.56
249.832	191.56
250.066	203.56
250.299	208.56
250.532	201.56
250.765	226.56
250.998	259.56
251.231	264.56
251.465	234.56
251.698	219.56
251.931	223.56
252.164	222.56
252.397	219.56
252.63	230.56
252.863	231.56
253.096	255.56
253.329	262.56
253.562	250.56
253.795	251.56
254.028	241.56
254.261	258.56
254.494	265.56
254.727	285.56
254.96	311.56
255.193	302.56
255.426	295.56
255.659	256.56
255.892	265.56
256.124	265.56
256.357	253.56
256.59	253.56
256.823	250.56
257.056	230.56
257.289	229.56
257.521	241.56
257.754	226.56
257.987	227.56
258.22	221.56
258.452	224.56
258.685	226.56
258.918	228.56
259.151	217.56
259.383	263.56
259.616	248.56
259.849	243.56
260.081	258.56
260.314	279.56
260.547	290.56
260.779	267.56
261.012	262.56
261.244	223.56
261.477	230.56
261.71	243.56
261.942	263.56
262.175	242.56
262.407	257.56
262.64	234.56
262.872	249.56
263.105	232.56
263.337	226.56
263.57	216.56
263.802	240.56
264.035	227.56
264.267	229.56
264.499	218.56
264.732	217.56
264.964	223.56
265.197	248.56
265.429	227.56
265.661	225.56
265.894	229.56
266.126	236.56
266.358	207.56
266.591	231.56
266.823	238.56
267.055	245.56
267.287	231.56
267.52	211.56
267.752	228.56
267.984	237.56
268.216	235.56
268.448	235.56
268.681	254.56
268.913	259.56
269.145	269.56
269.377	283.56
269.609	301.56
269.841	296.56
270.073	289.56
270.306	321.56
270.538	365.56
270.77	349.56
271.002	342.56
271.234	318.56
271.466	346.56
271.698	335.56
271.93	343.56
272.162	361.56
272.394	354.56
272.626	332.56
272.858	313.56
273.09	310.56
273.322	301.56
273.553	289.56
273.785	282.56
274.017	294.56
274.249	295.56
274.481	281.56
274.713	263.56
274.945	295.56
275.176	290.56
275.408	295.56
275.64	285.56
275.872	301.56
276.104	271.56
276.335	281.56
276.567	284.56
276.799	307.56
277.031	332.56
277.262	345.56
277.494	357.56
277.726	315.56
277.957	305.56
278.189	293.56
278.421	284.56
278.652	277.56
278.884	296.56
279.115	268.56
279.347	275.56
279.579	261.56
279.81	279.56
280.042	281.56
280.273	272.56
280.505	254.56
280.736	269.56
280.968	270.56
281.199	269.56
281.431	269.56
281.662	266.56
281.894	262.56
282.125	279.56
282.356	297.56
282.588	348.56
282.819	321.56
283.051	299.56
283.282	298.56
283.513	277.56
283.745	293.56
283.976	275.56
284.207	305.56
284.439	269.56
284.67	277.56
284.901	289.56
285.132	287.56
285.364	279.56
285.595	265.56
285.826	281.56
286.057	263.56
286.288	291.56
286.52	281.56
286.751	273.56
286.982	259.56
287.213	282.56
287.444	277.56
287.675	293.56
287.906	291.56
288.138	297.56
288.369	316.56
288.6	307.56
288.831	289.56
289.062	295.56
289.293	299.56
289.524	293.56
289.755	279.56
289.986	275.56
290.217	271.56
290.448	293.56
290.679	287.56
290.91	293.56
291.141	283.56
291.371	280.56
291.602	300.56
291.833	290.56
292.064	286.56
292.295	283.56
292.526	292.56
292.757	285.56
292.987	299.56
293.218	286.56
293.449	317.56
293.68	272.56
293.91	284.56
294.141	294.56
294.372	278.56
294.603	282.56
294.833	291.56
295.064	286.56
295.295	263.56
295.525	296.56
295.756	293.56
295.987	297.56
296.217	329.56
296.448	356.56
296.679	311.56
296.909	305.56
297.14	298.56
297.37	310.56
297.601	305.56
297.831	301.56
298.062	294.56
298.292	294.56
298.523	305.56
298.753	304.56
298.984	308.56
299.214	306.56
299.445	321.56
299.675	285.56
299.905	309.56
300.136	302.56
300.366	305.56
300.597	299.56
300.827	313.56
301.057	294.56
301.288	338.56
301.518	327.56
301.748	310.56
301.979	326.56
302.209	322.56
302.439	326.56
302.669	324.56
302.9	331.56
303.13	334.56
303.36	329.56
303.59	325.56
303.82	346.56
304.051	341.56
304.281	330.56
304.511	318.56
304.741	326.56
304.971	325.56
305.201	324.56
305.431	320.56
305.661	342.56
305.891	322.56
306.121	337.56
306.352	334.56
306.582	334.56
306.812	341.56
307.042	339.56
307.272	331.56
307.502	346.56
307.731	343.56
307.961	334.56
308.191	340.56
308.421	325.56
308.651	341.56
308.881	325.56
309.111	342.56
309.341	342.56
309.571	354.56
309.8	363.56
310.03	383.56
310.26	377.56
310.49	385.56
310.72	414.56
310.949	418.56
311.179	434.56
311.409	395.56
311.639	386.56
311.868	377.56
312.098	417.56
312.328	391.56
312.557	400.56
312.787	453.56
313.017	420.56
313.246	403.56
313.476	384.56
313.706	377.56
313.935	398.56
314.165	417.56
314.394	429.56
314.624	441.56
314.853	405.56
315.083	390.56
315.312	411.56
315.542	387.56
315.771	391.56
316.001	380.56
316.23	373.56
316.46	392.56
316.689	382.56
316.919	402.56
317.148	409.56
317.377	395.56
317.607	424.56
317.836	403.56
318.065	405.56
318.295	400.56
318.524	388.56
318.753	375.56
318.983	383.56
319.212	394.56
319.441	391.56
319.67	407.56
319.9	417.56
320.129	386.56
320.358	388.56
320.587	406.56
320.816	409.56
321.046	422.56
321.275	435.56
321.504	427.56
321.733	414.56
321.962	439.56
322.191	447.56
322.42	476.56
322.649	502.56
322.878	539.56
323.108	537.56
323.337	566.56
323.566	571.56
323.795	628.56
324.024	687.56
324.253	889.56
324.482	1277.56
324.71	2006.56
324.939	2870.56
325.168	2424.56
325.397	1285.56
325.626	822.56
325.855	653.56
326.084	601.56
326.313	585.56
326.542	607.56
326.77	656.56
326.999	763.56
327.228	1129.56
327.457	1768.56
327.686	2134.56
327.914	1405.56
328.143	892.56
328.372	795.56
328.6	749.56
328.829	651.56
329.058	682.56
329.287	739.56
329.515	653.56
329.744	592.56
329.972	577.56
330.201	613.56
330.43	688.56
330.658	711.56
330.887	737.56
331.115	709.56
331.344	599.56
331.572	571.56
331.801	563.56
332.03	539.56
332.258	506.56
332.486	481.56
332.715	490.56
332.943	477.56
333.172	485.56
333.4	467.56
333.629	490.56
333.857	511.56
334.085	501.56
334.314	540.56
334.542	561.56
334.771	611.56
334.999	533.56
335.227	508.56
335.455	474.56
335.684	466.56
335.912	448.56
336.14	448.56
336.369	457.56
336.597	487.56
336.825	493.56
337.053	451.56
337.281	431.56
337.51	459.56
337.738	486.56
337.966	459.56
338.194	450.56
338.422	453.56
338.65	462.56
338.878	455.56
339.106	441.56
339.334	441.56
339.562	447.56
339.79	448.56
340.018	430.56
340.246	433.56
340.474	469.56
340.702	466.56
340.93	440.56
341.158	438.56
341.386	454.56
341.614	454.56
341.842	458.56
342.07	474.56
342.298	437.56
342.526	442.56
342.754	415.56
342.981	405.56
343.209	407.56
343.437	426.56
343.665	424.56
343.893	442.56
344.12	453.56
344.348	434.56
344.576	444.56
344.804	435.56
345.031	481.56
345.259	470.56
345.487	470.56
345.714	471.56
345.942	450.56
346.17	449.56
346.397	418.56
346.625	443.56
346.853	438.56
347.08	434.56
347.308	440.56
347.535	459.56
347.763	467.56
347.99	456.56
348.218	456.56
348.445	458.56
348.673	443.56
348.9	445.56
349.128	431.56
349.355	436.56
349.583	452.56
349.81	434.56
350.037	425.56
350.265	430.56
350.492	433.56
350.72	437.56
350.947	431.56
351.174	422.56
351.402	471.56
351.629	459.56
351.856	461.56
352.083	467.56
352.311	471.56
352.538	473.56
352.765	476.56
352.992	457.56
353.22	466.56
353.447	451.56
353.674	442.56
353.901	423.56
354.128	421.56
354.355	405.56
354.583	404.56
354.81	429.56
355.037	423.56
355.264	424.56
355.491	411.56
355.718	409.56
355.945	398.56
356.172	390.56
356.399	400.56
356.626	407.56
356.853	398.56
357.08	394.56
357.307	394.56
357.534	402.56
357.761	403.56
357.988	414.56
358.215	387.56
358.441	415.56
358.668	409.56
358.895	413.56
359.122	433.56
359.349	427.56
359.576	461.56
359.802	498.56
360.029	529.56
360.256	558.56
360.483	517.56
360.709	445.56
360.936	470.56
361.163	457.56
361.39	460.56
361.616	471.56
361.843	441.56
362.07	473.56
362.296	477.56
362.523	464.56
362.749	440.56
362.976	447.56
363.203	455.56
363.429	430.56
363.656	445.56
363.882	433.56
364.109	417.56
364.335	424.56
364.562	438.56
364.788	445.56
365.015	422.56
365.241	421.56
365.468	430.56
365.694	427.56
365.92	445.56
366.147	425.56
366.373	416.56
366.599	404.56
366.826	423.56
367.052	400.56
367.278	427.56
367.505	446.56
367.731	430.56
367.957	425.56
368.184	430.56
368.41	422.56
368.636	453.56
368.862	456.56
369.089	445.56
369.315	421.56
369.541	424.56
369.767	424.56
369.993	410.56
370.219	418.56
370.445	421.56
370.672	433.56
370.898	415.56
371.124	426.56
371.35	421.56
371.576	418.56
371.802	418.56
372.028	420.56
372.254	405.56
372.48	426.56
372.706	403.56
372.932	418.56
373.158	423.56
373.384	434.56
373.61	407.56
373.835	429.56
374.061	437.56
374.287	427.56
374.513	426.56
374.739	428.56
374.965	427.56
375.191	428.56
375.416	402.56
375.642	425.56
375.868	416.56
376.094	419.56
376.319	415.56
376.545	427.56
376.771	421.56
376.997	403.56
377.222	411.56
377.448	419.56
377.674	403.56
377.899	410.56
378.125	417.56
378.35	392.56
378.576	420.56
378.802	422.56
379.027	413.56
379.253	421.56
379.478	425.56
379.704	405.56
379.929	406.56
380.155	426.56
380.38	439.56
380.606	441.56
380.831	421.56
381.057	437.56
381.282	406.56
381.507	421.56
381.733	419.56
381.958	421.56
382.184	412.56
382.409	414.56
382.634	428.56
382.86	433.56
383.085	417.56
383.31	445.56
383.535	437.56
383.761	440.56
383.986	450.56
384.211	421.56
384.436	429.56
384.662	442.56
384.887	439.56
385.112	427.56
385.337	452.56
385.562	452.56
385.787	462.56
386.013	468.56
386.238	468.56
386.463	458.56
386.688	474.56
386.913	450.56
387.138	452.56
387.363	418.56
387.588	426.56
387.813	454.56
388.038	471.56
388.263	441.56
388.488	441.56
388.713	458.56
388.938	451.56
389.163	472.56
389.387	453.56
389.612	460.56
389.837	443.56
390.062	433.56
390.287	430.56
390.512	429.56
390.736	452.56
390.961	460.56
391.186	460.56
391.411	425.56
391.636	457.56
391.86	463.56
392.085	474.56
392.31	450.56
392.534	455.56
392.759	464.56
392.984	445.56
393.208	451.56
393.433	438.56
393.658	465.56
393.882	462.56
394.107	461.56
394.331	439.56
394.556	462.56
394.78	445.56
395.005	473.56
395.229	454.56
395.454	465.56
395.678	468.56
395.903	491.56
396.127	495.56
396.352	512.56
396.576	460.56
396.801	472.56
397.025	471.56
397.249	477.56
397.474	469.56
397.698	471.56
397.922	497.56
398.147	519.56
398.371	520.56
398.595	529.56
398.82	522.56
399.044	533.56
399.268	535.56
399.492	557.56
399.717	563.56
399.941	606.56
400.165	636.56
400.389	639.56
400.613	595.56
400.837	566.56
401.062	533.56
401.286	527.56
401.51	506.56
401.734	538.56
401.958	529.56
402.182	521.56
402.406	553.56
402.63	555.56
402.854	533.56
403.078	545.56
403.302	543.56
403.526	535.56
403.75	561.56
403.974	557.56
404.198	539.56
404.422	568.56
404.645	575.56
404.869	565.56
405.093	593.56
405.317	616.56
405.541	664.56
405.765	614.56
405.988	591.56
406.212	590.56
406.436	627.56
406.66	634.56
406.883	605.56
407.107	642.56
407.331	675.56
407.555	754.56
407.778	749.56
408.002	663.56
408.226	630.56
408.449	628.56
408.673	608.56
408.896	641.56
409.12	665.56
409.344	626.56
409.567	594.56
409.791	568.56
410.014	538.56
410.238	535.56
410.461	555.56
410.685	561.56
410.908	584.56
411.132	612.56
411.355	665.56
411.578	625.56
411.802	585.56
412.025	573.56
412.249	585.56
412.472	572.56
412.695	635.56
412.919	630.56
413.142	564.56
413.365	543.56
413.589	537.56
413.812	532.56
414.035	530.56
414.258	519.56
414.482	503.56
414.705	511.56
414.928	513.56
415.151	518.56
415.374	510.56
415.597	537.56
415.821	509.56
416.044	513.56
416.267	527.56
416.49	522.56
416.713	530.56
416.936	531.56
417.159	503.56
417.382	529.56
417.605	529.56
417.828	538.56
418.051	567.56
418.274	540.56
418.497	531.56
418.72	550.56
418.943	522.56
419.166	536.56
419.389	542.56
419.611	561.56
419.834	559.56
420.057	574.56
420.28	553.56
420.503	581.56
420.726	573.56
420.948	583.56
421.171	634.56
421.394	678.56
421.617	587.56
421.839	569.56
422.062	599.56
422.285	571.56
422.507	643.56
422.73	717.56
422.953	705.56
423.175	629.56
423.398	594.56
423.621	593.56
423.843	620.56
424.066	620.56
424.288	602.56
424.511	660.56
424.733	718.56
424.956	807.56
425.178	782.56
425.401	750.56
425.623	777.56
425.846	697.56
426.068	664.56
426.291	616.56
426.513	647.56
426.735	657.56
426.958	694.56
427.18	776.56
427.402	938.56
427.625	1010.56
427.847	930.56
428.069	819.56
428.292	709.56
428.514	652.56
428.736	619.56
428.958	591.56
429.181	603.56
429.403	578.56
429.625	575.56
429.847	633.56
430.069	718.56
430.292	698.56
430.514	599.56
430.736	579.56
430.958	558.56
431.18	547.56
431.402	545.56
431.624	548.56
431.846	536.56
432.068	521.56
432.29	538.56
432.512	519.56
432.734	548.56
432.956	545.56
433.178	565.56
433.4	569.56
433.622	545.56
433.844	536.56
434.066	534.56
434.287	571.56
434.509	533.56
434.731	545.56
434.953	585.56
435.175	586.56
435.397	610.56
435.618	629.56
435.84	691.56
436.062	813.56
436.284	873.56
436.505	734.56
436.727	627.56
436.949	602.56
437.17	603.56
437.392	584.56
437.614	595.56
437.835	654.56
438.057	770.56
438.278	912.56
438.5	889.56
438.721	958.56
438.943	919.56
439.165	723.56
439.386	668.56
439.608	675.56
439.829	669.56
440.05	683.56
440.272	732.56
440.493	695.56
440.715	659.56
440.936	628.56
441.158	597.56
441.379	593.56
441.6	614.56
441.822	652.56
442.043	686.56
442.264	778.56
442.486	813.56
442.707	699.56
442.928	660.56
443.149	693.56
443.371	692.56
443.592	753.56
443.813	837.56
444.034	910.56
444.255	722.56
444.476	655.56
444.698	641.56
444.919	622.56
445.14	753.56
445.361	695.56
445.582	670.56
445.803	784.56
446.024	862.56
446.245	899.56
446.466	810.56
446.687	698.56
446.908	652.56
447.129	615.56
447.35	597.56
447.571	590.56
447.792	583.56
448.013	586.56
448.234	638.56
448.455	693.56
448.675	841.56
448.896	935.56
449.117	793.56
449.338	765.56
449.559	874.56
449.779	984.56
450	801.56
450.221	642.56
450.442	611.56
450.662	623.56
450.883	604.56
451.104	644.56
451.324	594.56
451.545	571.56
451.766	539.56
451.986	546.56
452.207	539.56
452.428	518.56
452.648	525.56
452.869	531.56
453.089	533.56
453.31	563.56
453.53	557.56
453.751	530.56
453.971	533.56
454.192	583.56
454.412	561.56
454.633	518.56
454.853	541.56
455.073	513.56
455.294	544.56
455.514	631.56
455.734	634.56
455.955	531.56
456.175	507.56
456.395	489.56
456.616	461.56
456.836	481.56
457.056	495.56
457.276	486.56
457.497	491.56
457.717	476.56
457.937	496.56
458.157	497.56
458.377	495.56
458.598	543.56
458.818	622.56
459.038	732.56
459.258	755.56
459.478	607.56
459.698	551.56
459.918	534.56
460.138	531.56
460.358	526.56
460.578	517.56
460.798	535.56
461.018	553.56
461.238	523.56
461.458	527.56
461.678	518.56
461.898	517.56
462.118	517.56
462.338	538.56
462.558	537.56
462.777	548.56
462.997	565.56
463.217	566.56
463.437	551.56
463.657	546.56
463.876	552.56
464.096	548.56
464.316	558.56
464.536	578.56
464.755	570.56
464.975	576.56
465.195	649.56
465.414	781.56
465.634	650.56
465.854	588.56
466.073	579.56
466.293	555.56
466.512	546.56
466.732	528.56
466.951	530.56
467.171	515.56
467.391	539.56
467.61	548.56
467.829	563.56
468.049	554.56
468.268	556.56
468.488	511.56
468.707	515.56
468.927	508.56
469.146	492.56
469.365	522.56
469.585	516.56
469.804	533.56
470.023	578.56
470.243	542.56
470.462	549.56
470.681	585.56
470.901	556.56
471.12	543.56
471.339	544.56
471.558	561.56
471.777	554.56
471.997	521.56
472.216	541.56
472.435	585.56
472.654	605.56
472.873	548.56
473.092	529.56
473.311	503.56
473.53	530.56
473.749	574.56
473.968	617.56
474.187	745.56
474.406	773.56
474.625	603.56
474.844	578.56
475.063	556.56
475.282	545.56
475.501	555.56
475.72	549.56
475.939	547.56
476.158	554.56
476.377	580.56
476.596	566.56
476.814	565.56
477.033	566.56
477.252	586.56
477.471	593.56
477.69	582.56
477.908	592.56
478.127	610.56
478.346	566.56
478.564	602.56
478.783	592.56
479.002	605.56
479.22	603.56
479.439	613.56
479.658	683.56
479.876	683.56
480.095	661.56
480.313	694.56
480.532	669.56
480.751	656.56
480.969	690.56
481.188	781.56
481.406	817.56
481.624	738.56
481.843	712.56
482.061	675.56
482.28	644.56
482.498	658.56
482.717	652.56
482.935	643.56
483.153	654.56
483.372	652.56
483.59	647.56
483.808	637.56
484.027	632.56
484.245	635.56
484.463	657.56
484.681	654.56
484.9	671.56
485.118	680.56
485.336	666.56
485.554	689.56
485.772	655.56
485.99	663.56
486.209	664.56
486.427	682.56
486.645	698.56
486.863	708.56
487.081	710.56
487.299	724.56
487.517	715.56
487.735	717.56
487.953	707.56
488.171	706.56
488.389	716.56
488.607	724.56
488.825	702.56
489.043	712.56
489.261	718.56
489.479	705.56
489.696	713.56
489.914	714.56
490.132	727.56
490.35	753.56
490.568	748.56
490.786	763.56
491.003	771.56
491.221	805.56
491.439	797.56
491.657	795.56
491.874	805.56
492.092	838.56
492.31	844.56
492.527	840.56
492.745	845.56
492.963	870.56
493.18	842.56
493.398	821.56
493.615	846.56
493.833	848.56
494.05	881.56
494.268	846.56
494.485	823.56
494.703	841.56
494.92	857.56
495.138	805.56
495.355	854.56
495.573	872.56
495.79	898.56
496.008	857.56
496.225	883.56
496.442	859.56
496.66	873.56
496.877	876.56
497.094	855.56
497.312	850.56
497.529	873.56
497.746	874.56
497.963	883.56
498.181	911.56
498.398	915.56
498.615	915.56
498.832	916.56
499.049	909.56
499.267	947.56
499.484	954.56
499.701	980.56
499.918	955.56
500.135	995.56
500.352	1022.56
500.569	1031.56
500.786	1048.56
501.003	1017.56
501.22	1028.56
501.437	1012.56
501.654	996.56
501.871	1019.56
502.088	987.56
502.305	974.56
502.522	917.56
502.739	912.56
502.956	853.56
503.172	890.56
503.389	887.56
503.606	890.56
503.823	897.56
504.04	856.56
504.256	859.56
504.473	867.56
504.69	858.56
504.907	817.56
505.123	824.56
505.34	797.56
505.557	820.56
505.773	839.56
505.99	838.56
506.207	833.56
506.423	827.56
506.64	839.56
506.856	830.56
507.073	828.56
507.289	814.56
507.506	829.56
507.722	837.56
507.939	859.56
508.155	822.56
508.372	813.56
508.588	813.56
508.805	807.56
509.021	816.56
509.238	801.56
509.454	813.56
509.67	799.56
509.887	787.56
510.103	781.56
510.319	830.56
510.536	935.56
510.752	1649.56
510.968	1322.56
511.184	861.56
511.401	769.56
511.617	787.56
511.833	769.56
512.049	736.56
512.265	754.56
512.481	763.56
512.698	755.56
512.914	735.56
513.13	750.56
513.346	760.56
513.562	757.56
513.778	775.56
513.994	789.56
514.21	812.56
514.426	810.56
514.642	891.56
514.858	941.56
515.074	986.56
515.29	1213.56
515.506	1849.56
515.721	1497.56
515.937	976.56
516.153	867.56
516.369	826.56
516.585	786.56
516.801	775.56
517.016	778.56
517.232	762.56
517.448	742.56
517.664	757.56
517.879	731.56
518.095	749.56
518.311	754.56
518.527	732.56
518.742	730.56
518.958	750.56
519.173	734.56
519.389	739.56
519.605	737.56
519.82	754.56
520.036	761.56
520.251	795.56
520.467	858.56
520.682	882.56
520.898	851.56
521.113	908.56
521.329	957.56
521.544	1145.56
521.76	1464.56
521.975	2562.56
522.19	2446.56
522.406	1301.56
522.621	937.56
522.836	819.56
523.052	783.56
523.267	734.56
523.482	707.56
523.698	702.56
523.913	718.56
524.128	710.56
524.343	682.56
524.559	668.56
524.774	653.56
524.989	660.56
525.204	685.56
525.419	666.56
525.634	650.56
525.849	629.56
526.064	641.56
526.28	635.56
526.495	598.56
526.71	639.56
526.925	605.56
527.14	623.56
527.355	596.56
527.57	591.56
527.785	625.56
527.999	594.56
528.214	587.56
528.429	611.56
528.644	603.56
528.859	605.56
529.074	630.56
529.289	671.56
529.503	784.56
529.718	745.56
529.933	650.56
530.148	631.56
530.363	618.56
530.577	618.56
530.792	598.56
531.007	594.56
531.221	581.56
531.436	574.56
531.651	582.56
531.865	558.56
532.08	569.56
532.295	572.56
532.509	568.56
532.724	566.56
532.938	569.56
533.153	557.56
533.367	562.56
533.582	572.56
533.796	540.56
534.011	557.56
534.225	561.56
534.44	542.56
534.654	542.56
534.868	545.56
535.083	551.56
535.297	561.56
535.511	570.56
535.726	589.56
535.94	570.56
536.154	568.56
536.369	556.56
536.583	543.56
536.797	549.56
537.011	552.56
537.225	551.56
537.44	533.56
537.654	521.56
537.868	550.56
538.082	551.56
538.296	555.56
538.51	545.56
538.724	537.56
538.938	552.56
539.153	544.56
539.367	545.56
539.581	582.56
539.795	545.56
540.009	523.56
540.222	543.56
540.436	531.56
540.65	550.56
540.864	553.56
541.078	559.56
541.292	568.56
541.506	553.56
541.72	541.56
541.934	542.56
542.147	555.56
542.361	503.56
542.575	525.56
542.789	541.56
543.002	543.56
543.216	519.56
543.43	525.56
543.644	548.56
543.857	547.56
544.071	539.56
544.285	543.56
544.498	545.56
544.712	542.56
544.925	526.56
545.139	509.56
545.352	517.56
545.566	526.56
545.779	526.56
545.993	500.56
546.206	531.56
546.42	498.56
546.633	509.56
546.847	506.56
547.06	542.56
547.274	532.56
547.487	531.56
547.7	498.56
547.914	482.56
548.127	524.56
548.34	484.56
548.554	489.56
548.767	510.56
548.98	493.56
549.193	480.56
549.407	487.56
549.62	497.56
549.833	490.56
550.046	477.56
550.259	492.56
550.473	506.56
550.686	492.56
550.899	471.56
551.112	491.56
551.325	492.56
551.538	500.56
551.751	492.56
551.964	486.56
552.177	485.56
552.39	485.56
552.603	476.56
552.816	487.56
553.029	505.56
553.242	491.56
553.455	486.56
553.667	514.56
553.88	532.56
554.093	519.56
554.306	533.56
554.519	507.56
554.732	507.56
554.944	496.56
555.157	473.56
555.37	473.56
555.583	477.56
555.795	467.56
556.008	463.56
556.221	483.56
556.433	459.56
556.646	480.56
556.859	473.56
557.071	472.56
557.284	466.56
557.496	435.56
557.709	447.56
557.921	451.56
558.134	443.56
558.346	445.56
558.559	460.56
558.771	453.56
558.984	445.56
559.196	444.56
559.409	442.56
559.621	461.56
559.833	437.56
560.046	445.56
560.258	439.56
560.47	448.56
560.683	446.56
560.895	447.56
561.107	445.56
561.32	436.56
561.532	447.56
561.744	456.56
561.956	446.56
562.168	434.56
562.381	456.56
562.593	435.56
562.805	447.56
563.017	430.56
563.229	443.56
563.441	458.56
563.653	433.56
563.865	457.56
564.077	439.56
564.289	467.56
564.501	450.56
564.713	464.56
564.925	463.56
565.137	482.56
565.349	469.56
565.561	469.56
565.773	458.56
565.985	471.56
566.197	479.56
566.408	478.56
566.62	488.56
566.832	491.56
567.044	504.56
567.255	507.56
567.467	492.56
567.679	502.56
567.891	503.56
568.102	486.56
568.314	485.56
568.526	499.56
568.737	471.56
568.949	453.56
569.161	453.56
569.372	439.56
569.584	431.56
569.795	430.56
570.007	460.56
570.218	496.56
570.43	484.56
570.641	449.56
570.853	443.56
571.064	416.56
571.276	399.56
571.487	424.56
571.698	405.56
571.91	400.56
572.121	388.56
572.333	391.56
572.544	390.56
572.755	397.56
572.966	401.56
573.178	392.56
573.389	401.56
573.6	397.56
573.811	379.56
574.023	405.56
574.234	411.56
574.445	373.56
574.656	375.56
574.867	370.56
575.078	367.56
575.289	385.56
575.501	389.56
575.712	374.56
575.923	378.56
576.134	389.56
576.345	366.56
576.556	373.56
576.767	383.56
576.978	375.56
577.188	369.56
577.399	387.56
577.61	391.56
577.821	361.56
578.032	377.56
578.243	429.56
578.454	763.56
578.665	542.56
578.875	373.56
579.086	364.56
579.297	337.56
579.508	343.56
579.718	338.56
579.929	359.56
580.14	348.56
580.35	361.56
580.561	348.56
580.772	354.56
580.982	349.56
581.193	331.56
581.403	341.56
581.614	355.56
581.825	354.56
582.035	337.56
582.246	331.56
582.456	360.56
582.667	338.56
582.877	336.56
583.087	344.56
583.298	332.56
583.508	327.56
583.719	338.56
583.929	359.56
584.139	362.56
584.35	343.56
584.56	335.56
584.77	328.56
584.981	350.56
585.191	341.56
585.401	351.56
585.611	338.56
585.821	349.56
586.032	326.56
586.242	344.56
586.452	321.56
586.662	332.56
586.872	341.56
587.082	332.56
587.292	318.56
587.502	330.56
587.713	327.56
587.923	329.56
588.133	326.56
588.343	321.56
588.553	318.56
588.762	311.56
588.972	344.56
589.182	342.56
589.392	319.56
589.602	325.56
589.812	328.56
590.022	336.56
590.232	334.56
590.441	328.56
590.651	321.56
590.861	325.56
591.071	333.56
591.281	319.56
591.49	346.56
591.7	321.56
591.91	320.56
592.119	317.56
592.329	330.56
592.539	334.56
592.748	330.56
592.958	323.56
593.167	334.56
593.377	330.56
593.587	324.56
593.796	318.56
594.006	335.56
594.215	321.56
594.424	326.56
594.634	321.56
594.843	342.56
595.053	321.56
595.262	341.56
595.472	312.56
595.681	301.56
595.89	322.56
596.1	317.56
596.309	309.56
596.518	308.56
596.727	310.56
596.937	293.56
597.146	295.56
597.355	307.56
597.564	287.56
597.774	298.56
597.983	294.56
598.192	304.56
598.401	279.56
598.61	287.56
598.819	311.56
599.028	311.56
599.237	289.56
599.446	302.56
599.655	293.56
599.864	285.56
600.073	268.56
600.282	298.56
600.491	293.56
600.7	295.56
600.909	277.56
601.118	282.56
601.327	275.56
601.536	290.56
601.745	286.56
601.953	287.56
602.162	293.56
602.371	307.56
602.58	279.56
602.789	279.56
602.997	276.56
603.206	280.56
603.415	296.56
603.623	287.56
603.832	284.56
604.041	294.56
604.249	278.56
604.458	275.56
604.666	274.56
604.875	274.56
605.084	286.56
605.292	264.56
605.501	277.56
605.709	290.56
605.918	272.56
606.126	287.56
606.334	286.56
606.543	278.56
606.751	277.56
606.96	290.56
607.168	277.56
607.376	282.56
607.585	279.56
607.793	287.56
608.001	292.56
608.21	271.56
608.418	270.56
608.626	278.56
608.834	282.56
609.043	284.56
609.251	277.56
609.459	271.56
609.667	267.56
609.875	276.56
610.083	268.56
610.291	261.56
610.499	265.56
610.707	264.56
610.916	274.56
611.124	286.56
611.332	265.56
611.54	279.56
611.748	270.56
611.955	285.56
612.163	272.56
612.371	277.56
612.579	261.56
612.787	268.56
612.995	282.56
613.203	286.56
613.411	270.56
613.618	261.56
613.826	257.56
614.034	256.56
614.242	271.56
614.449	270.56
614.657	273.56
614.865	258.56
615.072	272.56
615.28	260.56
615.488	271.56
615.695	257.56
615.903	245.56
616.111	262.56
616.318	271.56
616.526	274.56
616.733	269.56
616.941	269.56
617.148	277.56
617.356	285.56
617.563	260.56
617.771	259.56
617.978	249.56
618.185	239.56
618.393	249.56
618.6	266.56
618.807	261.56
619.015	265.56
619.222	227.56
619.429	247.56
619.637	227.56
619.844	258.56
620.051	247.56
620.258	275.56
620.466	267.56
620.673	255.56
620.88	238.56
621.087	238.56
621.294	252.56
621.501	226.56
621.708	260.56
621.915	250.56
622.122	252.56
622.329	250.56
622.536	247.56
622.743	238.56
622.95	250.56
623.157	242.56
623.364	246.56
623.571	243.56
623.778	243.56
623.985	256.56
624.192	244.56
624.399	250.56
624.606	238.56
624.812	250.56
625.019	257.56
625.226	242.56
625.433	247.56
625.639	229.56
625.846	226.56
626.053	227.56
626.259	225.56
626.466	233.56
626.673	232.56
626.879	231.56
627.086	237.56
627.293	242.56
627.499	249.56
627.706	237.56
627.912	232.56
628.119	216.56
628.325	223.56
628.532	233.56
628.738	201.56
628.945	233.56
629.151	222.56
629.357	228.56
629.564	237.56
629.77	222.56
629.976	227.56
630.183	225.56
630.389	203.56
630.595	227.56
630.802	224.56
631.008	209.56
631.214	223.56
631.42	223.56
631.627	217.56
631.833	206.56
632.039	187.56
632.245	215.56
632.451	222.56
632.657	204.56
632.863	230.56
633.069	207.56
633.275	198.56
633.481	205.56
633.688	193.56
633.893	192.56
634.099	199.56
634.305	215.56
634.511	208.56
634.717	205.56
634.923	194.56
635.129	203.56
635.335	227.56
635.541	216.56
635.747	190.56
635.952	194.56
636.158	212.56
636.364	210.56
636.57	223.56
636.775	217.56
636.981	211.56
637.187	221.56
637.392	188.56
637.598	202.56
637.804	185.56
638.009	196.56
638.215	216.56
638.421	206.56
638.626	199.56
638.832	183.56
639.037	188.56
639.243	202.56
639.448	194.56
639.654	206.56
639.859	185.56
640.065	193.56
640.27	193.56
640.475	179.56
640.681	194.56
640.886	193.56
641.091	189.56
641.297	212.56
641.502	191.56
641.707	200.56
641.913	191.56
642.118	183.56
642.323	172.56
642.528	189.56
642.733	186.56
642.939	190.56
643.144	167.56
643.349	189.56
643.554	186.56
643.759	194.56
643.964	187.56
644.169	192.56
644.374	193.56
644.579	178.56
644.784	189.56
644.989	179.56
645.194	189.56
645.399	167.56
645.604	164.56
645.809	190.56
646.014	181.56
646.219	175.56
646.423	173.56
646.628	177.56
646.833	163.56
647.038	191.56
647.243	191.56
647.447	175.56
647.652	181.56
647.857	171.56
648.062	178.56
648.266	187.56
648.471	188.56
648.676	195.56
648.88	169.56
649.085	195.56
649.289	194.56
649.494	196.56
649.698	206.56
649.903	202.56
650.107	192.56
650.312	191.56
650.516	164.56
650.721	169.56
650.925	181.56
651.13	171.56
651.334	175.56
651.539	150.56
651.743	159.56
651.947	164.56
652.152	155.56
652.356	150.56
652.56	150.56
652.764	150.56
652.969	158.56
653.173	154.56
653.377	165.56
653.581	154.56
653.785	152.56
653.99	148.56
654.194	164.56
654.398	149.56
654.602	149.56
654.806	149.56
655.01	145.56
655.214	146.56
655.418	148.56
655.622	147.56
655.826	142.56
656.03	150.56
656.234	122.56
656.438	143.56
656.642	143.56
656.846	147.56
657.049	136.56
657.253	124.56
657.457	124.56
657.661	122.56
657.865	117.56
658.068	103.56
658.272	112.56
658.476	110.56
658.68	113.56
658.883	106.56
659.087	108.56
659.291	105.56
659.494	109.56
659.698	105.56
659.901	109.56
660.105	103.56
660.309	105.56
660.512	85.56
660.716	93.56
660.919	85.56
661.123	97.56
661.326	103.56
661.53	89.56
661.733	91.56
661.936	89.56
662.14	87.56
662.343	86.56
662.546	89.56
662.75	93.56
662.953	87.56
663.156	91.56
663.36	91.56
663.563	86.56
663.766	79.56
663.969	91.56
664.173	83.56
664.376	84.56
664.579	76.56
664.782	90.56
664.985	90.56
665.188	78.56
665.391	85.56
665.594	83.56
665.797	97.56
666	91.56
666.203	88.56
666.406	68.56
666.609	81.56
666.812	93.56
667.015	80.56
667.218	90.56
667.421	90.56
667.624	84.56
667.827	79.56
668.03	84.56
668.232	80.56
668.435	89.56
668.638	98.56
668.841	88.56
669.043	80.56
669.246	90.56
669.449	98.56
669.651	93.56
669.854	83.56
670.057	66.56
670.259	73.56
670.462	83.56
670.665	82.56
670.867	84.56
671.07	78.56
671.272	75.56
671.475	89.56
671.677	79.56
671.88	77.56
672.082	85.56
672.284	81.56
672.487	79.56
672.689	66.56
672.892	79.56
