Data from 1971.PennyLincolnUp.Lamp.En5.5.200Scan.071719.P1.Scan 2. Changed Angle._HRD10591_15-22-31-841.txt Node
Date: Thu Jul 18 15:22:31 EDT 2019
User: cochatt
Spectrometer: HR+D1059
Trigger mode: 1
Integration Time (sec): 1.000000E-1
Scans to average: 1
Electric dark correction enabled: true
Nonlinearity correction enabled: false
Boxcar width: 0
XAxis mode: Wavelengths
Number of Pixels in Spectrum: 2048
>>>>>Begin Spectral Data<<<<<
223.165	-22.12
223.4	-22.12
223.635	-22.12
223.869	-27.12
224.104	-14.12
224.338	-18.12
224.573	-2.12
224.808	-11.12
225.042	0.88
225.277	-3.12
225.511	-0.12
225.746	6.88
225.98	-7.12
226.215	5.88
226.449	19.88
226.683	11.88
226.918	34.88
227.152	24.88
227.387	30.88
227.621	32.88
227.856	40.88
228.09	45.88
228.324	45.88
228.559	38.88
228.793	60.88
229.027	73.88
229.262	88.88
229.496	96.88
229.73	121.88
229.964	126.88
230.199	104.88
230.433	113.88
230.667	102.88
230.901	119.88
231.136	105.88
231.37	100.88
231.604	107.88
231.838	107.88
232.072	108.88
232.306	102.88
232.541	101.88
232.775	99.88
233.009	109.88
233.243	97.88
233.477	106.88
233.711	111.88
233.945	113.88
234.179	103.88
234.413	113.88
234.647	117.88
234.881	115.88
235.115	102.88
235.349	98.88
235.583	102.88
235.817	107.88
236.051	103.88
236.285	124.88
236.519	110.88
236.753	122.88
236.987	134.88
237.221	174.88
237.455	190.88
237.689	158.88
237.922	114.88
238.156	125.88
238.39	116.88
238.624	114.88
238.858	117.88
239.091	116.88
239.325	110.88
239.559	121.88
239.793	125.88
240.027	115.88
240.26	121.88
240.494	127.88
240.728	134.88
240.961	129.88
241.195	122.88
241.429	119.88
241.662	124.88
241.896	121.88
242.13	125.88
242.363	112.88
242.597	119.88
242.83	126.88
243.064	126.88
243.298	123.88
243.531	132.88
243.765	111.88
243.998	125.88
244.232	137.88
244.465	134.88
244.699	128.88
244.932	127.88
245.166	121.88
245.399	122.88
245.633	130.88
245.866	135.88
246.099	136.88
246.333	125.88
246.566	131.88
246.8	146.88
247.033	146.88
247.266	128.88
247.5	137.88
247.733	160.88
247.966	165.88
248.2	161.88
248.433	170.88
248.666	155.88
248.899	161.88
249.133	168.88
249.366	180.88
249.599	171.88
249.832	171.88
250.066	162.88
250.299	163.88
250.532	165.88
250.765	180.88
250.998	181.88
251.231	201.88
251.465	185.88
251.698	189.88
251.931	189.88
252.164	164.88
252.397	159.88
252.63	145.88
252.863	179.88
253.096	197.88
253.329	194.88
253.562	199.88
253.795	192.88
254.028	181.88
254.261	183.88
254.494	190.88
254.727	222.88
254.96	238.88
255.193	214.88
255.426	200.88
255.659	184.88
255.892	197.88
256.124	179.88
256.357	209.88
256.59	198.88
256.823	181.88
257.056	173.88
257.289	180.88
257.521	184.88
257.754	180.88
257.987	173.88
258.22	184.88
258.452	170.88
258.685	188.88
258.918	169.88
259.151	187.88
259.383	185.88
259.616	182.88
259.849	183.88
260.081	186.88
260.314	206.88
260.547	219.88
260.779	199.88
261.012	200.88
261.244	190.88
261.477	186.88
261.71	185.88
261.942	193.88
262.175	194.88
262.407	180.88
262.64	183.88
262.872	167.88
263.105	162.88
263.337	163.88
263.57	164.88
263.802	180.88
264.035	181.88
264.267	166.88
264.499	178.88
264.732	181.88
264.964	173.88
265.197	184.88
265.429	174.88
265.661	176.88
265.894	159.88
266.126	182.88
266.358	163.88
266.591	181.88
266.823	195.88
267.055	192.88
267.287	180.88
267.52	180.88
267.752	175.88
267.984	175.88
268.216	182.88
268.448	184.88
268.681	180.88
268.913	217.88
269.145	200.88
269.377	208.88
269.609	203.88
269.841	208.88
270.073	207.88
270.306	233.88
270.538	232.88
270.77	247.88
271.002	243.88
271.234	251.88
271.466	224.88
271.698	248.88
271.93	261.88
272.162	244.88
272.394	265.88
272.626	239.88
272.858	230.88
273.09	226.88
273.322	219.88
273.553	202.88
273.785	211.88
274.017	210.88
274.249	215.88
274.481	217.88
274.713	201.88
274.945	219.88
275.176	206.88
275.408	222.88
275.64	209.88
275.872	210.88
276.104	197.88
276.335	202.88
276.567	213.88
276.799	206.88
277.031	237.88
277.262	229.88
277.494	227.88
277.726	223.88
277.957	219.88
278.189	217.88
278.421	213.88
278.652	202.88
278.884	195.88
279.115	191.88
279.347	214.88
279.579	213.88
279.81	214.88
280.042	198.88
280.273	206.88
280.505	212.88
280.736	202.88
280.968	203.88
281.199	198.88
281.431	196.88
281.662	211.88
281.894	207.88
282.125	207.88
282.356	224.88
282.588	234.88
282.819	243.88
283.051	221.88
283.282	195.88
283.513	222.88
283.745	202.88
283.976	221.88
284.207	214.88
284.439	215.88
284.67	231.88
284.901	222.88
285.132	221.88
285.364	220.88
285.595	223.88
285.826	225.88
286.057	212.88
286.288	203.88
286.52	220.88
286.751	222.88
286.982	217.88
287.213	205.88
287.444	210.88
287.675	223.88
287.906	238.88
288.138	227.88
288.369	241.88
288.6	225.88
288.831	215.88
289.062	238.88
289.293	222.88
289.524	227.88
289.755	215.88
289.986	205.88
290.217	226.88
290.448	207.88
290.679	209.88
290.91	215.88
291.141	212.88
291.371	235.88
291.602	214.88
291.833	223.88
292.064	214.88
292.295	206.88
292.526	217.88
292.757	213.88
292.987	214.88
293.218	219.88
293.449	221.88
293.68	227.88
293.91	213.88
294.141	216.88
294.372	218.88
294.603	223.88
294.833	222.88
295.064	219.88
295.295	219.88
295.525	220.88
295.756	227.88
295.987	228.88
296.217	248.88
296.448	263.88
296.679	230.88
296.909	243.88
297.14	230.88
297.37	227.88
297.601	234.88
297.831	230.88
298.062	216.88
298.292	231.88
298.523	227.88
298.753	245.88
298.984	217.88
299.214	233.88
299.445	239.88
299.675	224.88
299.905	233.88
300.136	245.88
300.366	243.88
300.597	247.88
300.827	240.88
301.057	246.88
301.288	229.88
301.518	233.88
301.748	243.88
301.979	242.88
302.209	254.88
302.439	250.88
302.669	267.88
302.9	241.88
303.13	251.88
303.36	252.88
303.59	250.88
303.82	244.88
304.051	239.88
304.281	255.88
304.511	241.88
304.741	241.88
304.971	254.88
305.201	251.88
305.431	244.88
305.661	235.88
305.891	249.88
306.121	237.88
306.352	251.88
306.582	238.88
306.812	245.88
307.042	252.88
307.272	263.88
307.502	238.88
307.731	234.88
307.961	258.88
308.191	237.88
308.421	257.88
308.651	248.88
308.881	266.88
309.111	265.88
309.341	242.88
309.571	261.88
309.8	252.88
310.03	274.88
310.26	292.88
310.49	275.88
310.72	281.88
310.949	281.88
311.179	295.88
311.409	278.88
311.639	276.88
311.868	286.88
312.098	271.88
312.328	292.88
312.557	309.88
312.787	301.88
313.017	311.88
313.246	297.88
313.476	277.88
313.706	270.88
313.935	289.88
314.165	283.88
314.394	295.88
314.624	292.88
314.853	293.88
315.083	270.88
315.312	296.88
315.542	264.88
315.771	269.88
316.001	261.88
316.23	290.88
316.46	267.88
316.689	281.88
316.919	288.88
317.148	292.88
317.377	299.88
317.607	275.88
317.836	287.88
318.065	314.88
318.295	285.88
318.524	293.88
318.753	297.88
318.983	293.88
319.212	286.88
319.441	296.88
319.67	298.88
319.9	293.88
320.129	298.88
320.358	299.88
320.587	298.88
320.816	289.88
321.046	307.88
321.275	312.88
321.504	315.88
321.733	304.88
321.962	295.88
322.191	313.88
322.42	309.88
322.649	342.88
322.878	340.88
323.108	346.88
323.337	361.88
323.566	386.88
323.795	379.88
324.024	430.88
324.253	499.88
324.482	728.88
324.71	1089.88
324.939	1569.88
325.168	1353.88
325.397	723.88
325.626	483.88
325.855	419.88
326.084	389.88
326.313	370.88
326.542	389.88
326.77	412.88
326.999	493.88
327.228	639.88
327.457	982.88
327.686	1185.88
327.914	793.88
328.143	522.88
328.372	467.88
328.6	413.88
328.829	416.88
329.058	441.88
329.287	419.88
329.515	421.88
329.744	377.88
329.972	381.88
330.201	394.88
330.43	413.88
330.658	445.88
330.887	453.88
331.115	443.88
331.344	400.88
331.572	362.88
331.801	366.88
332.03	353.88
332.258	343.88
332.486	334.88
332.715	354.88
332.943	338.88
333.172	342.88
333.4	325.88
333.629	330.88
333.857	350.88
334.085	345.88
334.314	365.88
334.542	371.88
334.771	380.88
334.999	351.88
335.227	357.88
335.455	330.88
335.684	370.88
335.912	338.88
336.14	336.88
336.369	344.88
336.597	356.88
336.825	329.88
337.053	332.88
337.281	346.88
337.51	330.88
337.738	352.88
337.966	328.88
338.194	326.88
338.422	351.88
338.65	325.88
338.878	322.88
339.106	334.88
339.334	313.88
339.562	315.88
339.79	315.88
340.018	335.88
340.246	328.88
340.474	340.88
340.702	341.88
340.93	311.88
341.158	338.88
341.386	330.88
341.614	333.88
341.842	325.88
342.07	325.88
342.298	314.88
342.526	349.88
342.754	327.88
342.981	314.88
343.209	321.88
343.437	331.88
343.665	329.88
343.893	336.88
344.12	346.88
344.348	327.88
344.576	353.88
344.804	332.88
345.031	353.88
345.259	338.88
345.487	348.88
345.714	335.88
345.942	318.88
346.17	336.88
346.397	328.88
346.625	310.88
346.853	330.88
347.08	316.88
347.308	293.88
347.535	327.88
347.763	342.88
347.99	333.88
348.218	330.88
348.445	336.88
348.673	321.88
348.9	312.88
349.128	320.88
349.355	294.88
349.583	314.88
349.81	325.88
350.037	290.88
350.265	335.88
350.492	325.88
350.72	321.88
350.947	331.88
351.174	334.88
351.402	319.88
351.629	339.88
351.856	319.88
352.083	353.88
352.311	334.88
352.538	339.88
352.765	345.88
352.992	351.88
353.22	339.88
353.447	321.88
353.674	323.88
353.901	308.88
354.128	305.88
354.355	309.88
354.583	325.88
354.81	310.88
355.037	315.88
355.264	319.88
355.491	317.88
355.718	331.88
355.945	318.88
356.172	311.88
356.399	288.88
356.626	291.88
356.853	306.88
357.08	297.88
357.307	301.88
357.534	292.88
357.761	322.88
357.988	324.88
358.215	315.88
358.441	322.88
358.668	319.88
358.895	310.88
359.122	314.88
359.349	326.88
359.576	349.88
359.802	355.88
360.029	379.88
360.256	375.88
360.483	357.88
360.709	330.88
360.936	314.88
361.163	331.88
361.39	343.88
361.616	341.88
361.843	334.88
362.07	351.88
362.296	339.88
362.523	334.88
362.749	335.88
362.976	320.88
363.203	330.88
363.429	319.88
363.656	315.88
363.882	328.88
364.109	330.88
364.335	324.88
364.562	330.88
364.788	326.88
365.015	341.88
365.241	315.88
365.468	331.88
365.694	363.88
365.92	327.88
366.147	346.88
366.373	325.88
366.599	343.88
366.826	338.88
367.052	315.88
367.278	326.88
367.505	338.88
367.731	323.88
367.957	327.88
368.184	311.88
368.41	347.88
368.636	333.88
368.862	318.88
369.089	339.88
369.315	310.88
369.541	324.88
369.767	338.88
369.993	321.88
370.219	310.88
370.445	313.88
370.672	318.88
370.898	315.88
371.124	327.88
371.35	335.88
371.576	331.88
371.802	335.88
372.028	325.88
372.254	337.88
372.48	327.88
372.706	342.88
372.932	332.88
373.158	338.88
373.384	328.88
373.61	336.88
373.835	335.88
374.061	315.88
374.287	341.88
374.513	325.88
374.739	331.88
374.965	323.88
375.191	353.88
375.416	353.88
375.642	338.88
375.868	339.88
376.094	342.88
376.319	339.88
376.545	335.88
376.771	344.88
376.997	338.88
377.222	328.88
377.448	344.88
377.674	301.88
377.899	338.88
378.125	338.88
378.35	351.88
378.576	326.88
378.802	334.88
379.027	307.88
379.253	332.88
379.478	312.88
379.704	328.88
379.929	319.88
380.155	331.88
380.38	323.88
380.606	346.88
380.831	360.88
381.057	347.88
381.282	327.88
381.507	342.88
381.733	319.88
381.958	341.88
382.184	334.88
382.409	346.88
382.634	356.88
382.86	341.88
383.085	350.88
383.31	362.88
383.535	370.88
383.761	351.88
383.986	372.88
384.211	343.88
384.436	347.88
384.662	361.88
384.887	354.88
385.112	341.88
385.337	347.88
385.562	359.88
385.787	368.88
386.013	369.88
386.238	362.88
386.463	393.88
386.688	363.88
386.913	371.88
387.138	362.88
387.363	359.88
387.588	369.88
387.813	375.88
388.038	355.88
388.263	371.88
388.488	389.88
388.713	368.88
388.938	354.88
389.163	365.88
389.387	383.88
389.612	350.88
389.837	375.88
390.062	367.88
390.287	341.88
390.512	354.88
390.736	358.88
390.961	361.88
391.186	366.88
391.411	365.88
391.636	384.88
391.86	391.88
392.085	385.88
392.31	370.88
392.534	389.88
392.759	364.88
392.984	366.88
393.208	390.88
393.433	418.88
393.658	446.88
393.882	398.88
394.107	368.88
394.331	358.88
394.556	360.88
394.78	368.88
395.005	369.88
395.229	369.88
395.454	375.88
395.678	376.88
395.903	386.88
396.127	404.88
396.352	385.88
396.576	390.88
396.801	385.88
397.025	421.88
397.249	396.88
397.474	394.88
397.698	388.88
397.922	400.88
398.147	425.88
398.371	422.88
398.595	403.88
398.82	404.88
399.044	410.88
399.268	424.88
399.492	412.88
399.717	469.88
399.941	485.88
400.165	505.88
400.389	485.88
400.613	493.88
400.837	467.88
401.062	433.88
401.286	435.88
401.51	416.88
401.734	424.88
401.958	403.88
402.182	427.88
402.406	425.88
402.63	428.88
402.854	422.88
403.078	427.88
403.302	424.88
403.526	424.88
403.75	450.88
403.974	426.88
404.198	432.88
404.422	444.88
404.645	445.88
404.869	447.88
405.093	477.88
405.317	493.88
405.541	519.88
405.765	452.88
405.988	441.88
406.212	470.88
406.436	492.88
406.66	499.88
406.883	456.88
407.107	485.88
407.331	548.88
407.555	575.88
407.778	583.88
408.002	530.88
408.226	503.88
408.449	487.88
408.673	491.88
408.896	511.88
409.12	549.88
409.344	502.88
409.567	461.88
409.791	463.88
410.014	424.88
410.238	450.88
410.461	436.88
410.685	455.88
410.908	466.88
411.132	506.88
411.355	509.88
411.578	494.88
411.802	445.88
412.025	438.88
412.249	444.88
412.472	464.88
412.695	502.88
412.919	484.88
413.142	413.88
413.365	441.88
413.589	405.88
413.812	429.88
414.035	434.88
414.258	421.88
414.482	426.88
414.705	414.88
414.928	410.88
415.151	412.88
415.374	417.88
415.597	414.88
415.821	422.88
416.044	426.88
416.267	424.88
416.49	411.88
416.713	426.88
416.936	434.88
417.159	431.88
417.382	423.88
417.605	432.88
417.828	423.88
418.051	443.88
418.274	451.88
418.497	409.88
418.72	426.88
418.943	421.88
419.166	433.88
419.389	437.88
419.611	443.88
419.834	438.88
420.057	447.88
420.28	451.88
420.503	429.88
420.726	419.88
420.948	441.88
421.171	475.88
421.394	488.88
421.617	469.88
421.839	467.88
422.062	448.88
422.285	451.88
422.507	516.88
422.73	576.88
422.953	545.88
423.175	481.88
423.398	463.88
423.621	459.88
423.843	455.88
424.066	490.88
424.288	468.88
424.511	486.88
424.733	545.88
424.956	605.88
425.178	594.88
425.401	580.88
425.623	592.88
425.846	528.88
426.068	514.88
426.291	493.88
426.513	479.88
426.735	485.88
426.958	524.88
427.18	557.88
427.402	682.88
427.625	754.88
427.847	673.88
428.069	573.88
428.292	517.88
428.514	489.88
428.736	451.88
428.958	453.88
429.181	469.88
429.403	424.88
429.625	466.88
429.847	492.88
430.069	535.88
430.292	561.88
430.514	456.88
430.736	471.88
430.958	450.88
431.18	426.88
431.402	447.88
431.624	415.88
431.846	385.88
432.068	438.88
432.29	431.88
432.512	443.88
432.734	426.88
432.956	426.88
433.178	441.88
433.4	442.88
433.622	441.88
433.844	413.88
434.066	429.88
434.287	418.88
434.509	425.88
434.731	423.88
434.953	441.88
435.175	459.88
435.397	460.88
435.618	484.88
435.84	527.88
436.062	611.88
436.284	648.88
436.505	533.88
436.727	489.88
436.949	477.88
437.17	459.88
437.392	449.88
437.614	462.88
437.835	495.88
438.057	579.88
438.278	679.88
438.5	643.88
438.721	701.88
438.943	704.88
439.165	553.88
439.386	498.88
439.608	513.88
439.829	520.88
440.05	516.88
440.272	563.88
440.493	525.88
440.715	473.88
440.936	450.88
441.158	483.88
441.379	452.88
441.6	466.88
441.822	489.88
442.043	529.88
442.264	582.88
442.486	627.88
442.707	528.88
442.928	507.88
443.149	488.88
443.371	514.88
443.592	577.88
443.813	614.88
444.034	669.88
444.255	569.88
444.476	519.88
444.698	519.88
444.919	487.88
445.14	573.88
445.361	536.88
445.582	525.88
445.803	583.88
446.024	640.88
446.245	685.88
446.466	616.88
446.687	517.88
446.908	499.88
447.129	468.88
447.35	449.88
447.571	442.88
447.792	445.88
448.013	462.88
448.234	495.88
448.455	544.88
448.675	633.88
448.896	736.88
449.117	597.88
449.338	573.88
449.559	637.88
449.779	755.88
450	616.88
450.221	516.88
450.442	454.88
450.662	448.88
450.883	446.88
451.104	459.88
451.324	447.88
451.545	441.88
451.766	430.88
451.986	416.88
452.207	399.88
452.428	398.88
452.648	399.88
452.869	411.88
453.089	409.88
453.31	437.88
453.53	411.88
453.751	420.88
453.971	418.88
454.192	417.88
454.412	431.88
454.633	396.88
454.853	409.88
455.073	410.88
455.294	440.88
455.514	480.88
455.734	454.88
455.955	404.88
456.175	395.88
456.395	401.88
456.616	375.88
456.836	381.88
457.056	382.88
457.276	377.88
457.497	382.88
457.717	378.88
457.937	368.88
458.157	379.88
458.377	379.88
458.598	421.88
458.818	477.88
459.038	502.88
459.258	536.88
459.478	455.88
459.698	417.88
459.918	418.88
460.138	420.88
460.358	437.88
460.578	421.88
460.798	437.88
461.018	423.88
461.238	441.88
461.458	430.88
461.678	435.88
461.898	441.88
462.118	431.88
462.338	450.88
462.558	439.88
462.777	424.88
462.997	437.88
463.217	436.88
463.437	469.88
463.657	468.88
463.876	459.88
464.096	445.88
464.316	438.88
464.536	476.88
464.755	476.88
464.975	455.88
465.195	473.88
465.414	555.88
465.634	481.88
465.854	446.88
466.073	439.88
466.293	416.88
466.512	413.88
466.732	409.88
466.951	423.88
467.171	411.88
467.391	438.88
467.61	447.88
467.829	423.88
468.049	418.88
468.268	416.88
468.488	409.88
468.707	419.88
468.927	425.88
469.146	383.88
469.365	412.88
469.585	402.88
469.804	441.88
470.023	421.88
470.243	411.88
470.462	432.88
470.681	455.88
470.901	431.88
471.12	408.88
471.339	427.88
471.558	417.88
471.777	433.88
471.997	416.88
472.216	420.88
472.435	442.88
472.654	433.88
472.873	404.88
473.092	433.88
473.311	439.88
473.53	435.88
473.749	442.88
473.968	455.88
474.187	551.88
474.406	560.88
474.625	485.88
474.844	449.88
475.063	447.88
475.282	432.88
475.501	430.88
475.72	437.88
475.939	424.88
476.158	433.88
476.377	455.88
476.596	426.88
476.814	445.88
477.033	455.88
477.252	455.88
477.471	478.88
477.69	482.88
477.908	458.88
478.127	463.88
478.346	462.88
478.564	468.88
478.783	467.88
479.002	477.88
479.22	486.88
479.439	505.88
479.658	495.88
479.876	531.88
480.095	498.88
480.313	522.88
480.532	520.88
480.751	509.88
480.969	512.88
481.188	521.88
481.406	551.88
481.624	518.88
481.843	502.88
482.061	482.88
482.28	503.88
482.498	507.88
482.717	518.88
482.935	510.88
483.153	523.88
483.372	485.88
483.59	498.88
483.808	497.88
484.027	523.88
484.245	519.88
484.463	515.88
484.681	523.88
484.9	512.88
485.118	515.88
485.336	496.88
485.554	513.88
485.772	527.88
485.99	519.88
486.209	538.88
486.427	529.88
486.645	535.88
486.863	534.88
487.081	560.88
487.299	536.88
487.517	543.88
487.735	543.88
487.953	575.88
488.171	565.88
488.389	551.88
488.607	552.88
488.825	561.88
489.043	539.88
489.261	573.88
489.479	579.88
489.696	554.88
489.914	535.88
490.132	597.88
490.35	570.88
490.568	584.88
490.786	578.88
491.003	605.88
491.221	633.88
491.439	640.88
491.657	624.88
491.874	643.88
492.092	660.88
492.31	629.88
492.527	644.88
492.745	617.88
492.963	607.88
493.18	633.88
493.398	651.88
493.615	656.88
493.833	661.88
494.05	640.88
494.268	669.88
494.485	632.88
494.703	649.88
494.92	670.88
495.138	631.88
495.355	646.88
495.573	665.88
495.79	672.88
496.008	653.88
496.225	652.88
496.442	654.88
496.66	659.88
496.877	668.88
497.094	651.88
497.312	659.88
497.529	669.88
497.746	687.88
497.963	657.88
498.181	690.88
498.398	703.88
498.615	712.88
498.832	705.88
499.049	725.88
499.267	743.88
499.484	796.88
499.701	769.88
499.918	778.88
500.135	814.88
500.352	833.88
500.569	848.88
500.786	874.88
501.003	861.88
501.22	809.88
501.437	807.88
501.654	814.88
501.871	790.88
502.088	756.88
502.305	744.88
502.522	718.88
502.739	722.88
502.956	720.88
503.172	685.88
503.389	675.88
503.606	678.88
503.823	678.88
504.04	674.88
504.256	675.88
504.473	664.88
504.69	663.88
504.907	650.88
505.123	643.88
505.34	649.88
505.557	636.88
505.773	626.88
505.99	616.88
506.207	617.88
506.423	622.88
506.64	633.88
506.856	619.88
507.073	611.88
507.289	607.88
507.506	634.88
507.722	608.88
507.939	629.88
508.155	617.88
508.372	598.88
508.588	587.88
508.805	592.88
509.021	585.88
509.238	575.88
509.454	598.88
509.67	598.88
509.887	617.88
510.103	586.88
510.319	620.88
510.536	659.88
510.752	1041.88
510.968	849.88
511.184	596.88
511.401	578.88
511.617	575.88
511.833	555.88
512.049	563.88
512.265	575.88
512.481	533.88
512.698	567.88
512.914	552.88
513.13	548.88
513.346	558.88
513.562	551.88
513.778	584.88
513.994	548.88
514.21	569.88
514.426	587.88
514.642	616.88
514.858	627.88
515.074	671.88
515.29	792.88
515.506	1103.88
515.721	949.88
515.937	649.88
516.153	613.88
516.369	592.88
516.585	591.88
516.801	554.88
517.016	580.88
517.232	563.88
517.448	581.88
517.664	567.88
517.879	580.88
518.095	569.88
518.311	576.88
518.527	549.88
518.742	590.88
518.958	552.88
519.173	551.88
519.389	563.88
519.605	538.88
519.82	561.88
520.036	579.88
520.251	573.88
520.467	586.88
520.682	596.88
520.898	592.88
521.113	607.88
521.329	631.88
521.544	720.88
521.76	865.88
521.975	1428.88
522.19	1423.88
522.406	818.88
522.621	651.88
522.836	589.88
523.052	544.88
523.267	551.88
523.482	523.88
523.698	510.88
523.913	496.88
524.128	517.88
524.343	524.88
524.559	509.88
524.774	512.88
524.989	499.88
525.204	486.88
525.419	510.88
525.634	482.88
525.849	479.88
526.064	485.88
526.28	480.88
526.495	477.88
526.71	475.88
526.925	439.88
527.14	478.88
527.355	485.88
527.57	464.88
527.785	484.88
527.999	474.88
528.214	485.88
528.429	453.88
528.644	462.88
528.859	459.88
529.074	458.88
529.289	488.88
529.503	547.88
529.718	537.88
529.933	497.88
530.148	496.88
530.363	466.88
530.577	448.88
530.792	458.88
531.007	446.88
531.221	441.88
531.436	460.88
531.651	465.88
531.865	454.88
532.08	449.88
532.295	436.88
532.509	440.88
532.724	449.88
532.938	454.88
533.153	433.88
533.367	438.88
533.582	444.88
533.796	451.88
534.011	429.88
534.225	426.88
534.44	440.88
534.654	447.88
534.868	446.88
535.083	432.88
535.297	433.88
535.511	445.88
535.726	446.88
535.94	448.88
536.154	448.88
536.369	429.88
536.583	433.88
536.797	449.88
537.011	443.88
537.225	441.88
537.44	435.88
537.654	437.88
537.868	410.88
538.082	415.88
538.296	436.88
538.51	419.88
538.724	433.88
538.938	435.88
539.153	421.88
539.367	432.88
539.581	422.88
539.795	450.88
540.009	437.88
540.222	435.88
540.436	423.88
540.65	423.88
540.864	443.88
541.078	432.88
541.292	411.88
541.506	440.88
541.72	440.88
541.934	438.88
542.147	442.88
542.361	434.88
542.575	419.88
542.789	445.88
543.002	422.88
543.216	425.88
543.43	424.88
543.644	425.88
543.857	445.88
544.071	420.88
544.285	427.88
544.498	458.88
544.712	453.88
544.925	434.88
545.139	439.88
545.352	414.88
545.566	427.88
545.779	434.88
545.993	441.88
546.206	422.88
546.42	440.88
546.633	437.88
546.847	436.88
547.06	435.88
547.274	414.88
547.487	422.88
547.7	412.88
547.914	424.88
548.127	402.88
548.34	414.88
548.554	407.88
548.767	406.88
548.98	415.88
549.193	414.88
549.407	402.88
549.62	417.88
549.833	405.88
550.046	409.88
550.259	411.88
550.473	418.88
550.686	421.88
550.899	407.88
551.112	405.88
551.325	400.88
551.538	390.88
551.751	404.88
551.964	407.88
552.177	418.88
552.39	411.88
552.603	415.88
552.816	418.88
553.029	420.88
553.242	431.88
553.455	428.88
553.667	401.88
553.88	421.88
554.093	419.88
554.306	427.88
554.519	422.88
554.732	401.88
554.944	400.88
555.157	389.88
555.37	400.88
555.583	396.88
555.795	407.88
556.008	398.88
556.221	373.88
556.433	385.88
556.646	395.88
556.859	391.88
557.071	404.88
557.284	373.88
557.496	373.88
557.709	376.88
557.921	385.88
558.134	407.88
558.346	367.88
558.559	396.88
558.771	357.88
558.984	371.88
559.196	375.88
559.409	378.88
559.621	388.88
559.833	360.88
560.046	371.88
560.258	373.88
560.47	383.88
560.683	371.88
560.895	353.88
561.107	363.88
561.32	370.88
561.532	385.88
561.744	366.88
561.956	373.88
562.168	367.88
562.381	373.88
562.593	357.88
562.805	390.88
563.017	391.88
563.229	377.88
563.441	372.88
563.653	402.88
563.865	371.88
564.077	372.88
564.289	389.88
564.501	373.88
564.713	378.88
564.925	377.88
565.137	376.88
565.349	394.88
565.561	413.88
565.773	393.88
565.985	399.88
566.197	402.88
566.408	407.88
566.62	433.88
566.832	428.88
567.044	423.88
567.255	433.88
567.467	414.88
567.679	416.88
567.891	445.88
568.102	448.88
568.314	399.88
568.526	403.88
568.737	418.88
568.949	397.88
569.161	379.88
569.372	371.88
569.584	381.88
569.795	371.88
570.007	378.88
570.218	416.88
570.43	403.88
570.641	368.88
570.853	393.88
571.064	361.88
571.276	334.88
571.487	352.88
571.698	342.88
571.91	357.88
572.121	346.88
572.333	351.88
572.544	324.88
572.755	339.88
572.966	338.88
573.178	339.88
573.389	332.88
573.6	318.88
573.811	321.88
574.023	316.88
574.234	328.88
574.445	312.88
574.656	319.88
574.867	314.88
575.078	318.88
575.289	337.88
575.501	313.88
575.712	318.88
575.923	313.88
576.134	310.88
576.345	315.88
576.556	298.88
576.767	303.88
576.978	303.88
577.188	307.88
577.399	305.88
577.61	301.88
577.821	301.88
578.032	301.88
578.243	334.88
578.454	499.88
578.665	400.88
578.875	312.88
579.086	295.88
579.297	291.88
579.508	294.88
579.718	290.88
579.929	284.88
580.14	283.88
580.35	288.88
580.561	297.88
580.772	283.88
580.982	277.88
581.193	294.88
581.403	296.88
581.614	278.88
581.825	285.88
582.035	288.88
582.246	290.88
582.456	299.88
582.667	283.88
582.877	284.88
583.087	263.88
583.298	292.88
583.508	293.88
583.719	285.88
583.929	294.88
584.139	281.88
584.35	273.88
584.56	290.88
584.77	282.88
584.981	276.88
585.191	292.88
585.401	291.88
585.611	276.88
585.821	279.88
586.032	297.88
586.242	291.88
586.452	289.88
586.662	269.88
586.872	257.88
587.082	270.88
587.292	286.88
587.502	275.88
587.713	277.88
587.923	289.88
588.133	280.88
588.343	267.88
588.553	271.88
588.762	279.88
588.972	282.88
589.182	290.88
589.392	289.88
589.602	277.88
589.812	263.88
590.022	286.88
590.232	277.88
590.441	280.88
590.651	292.88
590.861	279.88
591.071	266.88
591.281	282.88
591.49	276.88
591.7	295.88
591.91	265.88
592.119	284.88
592.329	271.88
592.539	285.88
592.748	277.88
592.958	289.88
593.167	279.88
593.377	289.88
593.587	290.88
593.796	294.88
594.006	287.88
594.215	298.88
594.424	295.88
594.634	286.88
594.843	282.88
595.053	289.88
595.262	279.88
595.472	286.88
595.681	271.88
595.89	262.88
596.1	261.88
596.309	245.88
596.518	268.88
596.727	264.88
596.937	280.88
597.146	290.88
597.355	274.88
597.564	266.88
597.774	245.88
597.983	256.88
598.192	248.88
598.401	249.88
598.61	251.88
598.819	275.88
599.028	253.88
599.237	245.88
599.446	254.88
599.655	239.88
599.864	259.88
600.073	261.88
600.282	255.88
600.491	239.88
600.7	236.88
600.909	245.88
601.118	243.88
601.327	259.88
601.536	254.88
601.745	253.88
601.953	253.88
602.162	272.88
602.371	249.88
602.58	242.88
602.789	237.88
602.997	244.88
603.206	231.88
603.415	242.88
603.623	274.88
603.832	254.88
604.041	260.88
604.249	229.88
604.458	222.88
604.666	244.88
604.875	232.88
605.084	250.88
605.292	239.88
605.501	233.88
605.709	242.88
605.918	237.88
606.126	228.88
606.334	247.88
606.543	246.88
606.751	222.88
606.96	247.88
607.168	223.88
607.376	243.88
607.585	243.88
607.793	252.88
608.001	240.88
608.21	235.88
608.418	241.88
608.626	237.88
608.834	254.88
609.043	236.88
609.251	239.88
609.459	243.88
609.667	244.88
609.875	249.88
610.083	238.88
610.291	230.88
610.499	246.88
610.707	251.88
610.916	231.88
611.124	243.88
611.332	246.88
611.54	232.88
611.748	249.88
611.955	223.88
612.163	235.88
612.371	237.88
612.579	218.88
612.787	234.88
612.995	227.88
613.203	236.88
613.411	231.88
613.618	218.88
613.826	222.88
614.034	236.88
614.242	237.88
614.449	245.88
614.657	226.88
614.865	225.88
615.072	228.88
615.28	228.88
615.488	222.88
615.695	231.88
615.903	235.88
616.111	222.88
616.318	245.88
616.526	238.88
616.733	230.88
616.941	236.88
617.148	250.88
617.356	233.88
617.563	224.88
617.771	214.88
617.978	214.88
618.185	231.88
618.393	229.88
618.6	215.88
618.807	238.88
619.015	235.88
619.222	212.88
619.429	235.88
619.637	227.88
619.844	218.88
620.051	209.88
620.258	208.88
620.466	196.88
620.673	212.88
620.88	208.88
621.087	216.88
621.294	229.88
621.501	212.88
621.708	224.88
621.915	209.88
622.122	209.88
622.329	203.88
622.536	213.88
622.743	216.88
622.95	239.88
623.157	207.88
623.364	213.88
623.571	204.88
623.778	212.88
623.985	219.88
624.192	204.88
624.399	188.88
624.606	215.88
624.812	195.88
625.019	199.88
625.226	192.88
625.433	201.88
625.639	214.88
625.846	206.88
626.053	199.88
626.259	197.88
626.466	190.88
626.673	202.88
626.879	188.88
627.086	185.88
627.293	208.88
627.499	212.88
627.706	199.88
627.912	213.88
628.119	192.88
628.325	191.88
628.532	208.88
628.738	218.88
628.945	207.88
629.151	183.88
629.357	177.88
629.564	174.88
629.77	183.88
629.976	182.88
630.183	186.88
630.389	216.88
630.595	187.88
630.802	177.88
631.008	199.88
631.214	183.88
631.42	193.88
631.627	199.88
631.833	193.88
632.039	184.88
632.245	194.88
632.451	173.88
632.657	185.88
632.863	177.88
633.069	170.88
633.275	186.88
633.481	177.88
633.688	176.88
633.893	185.88
634.099	183.88
634.305	174.88
634.511	185.88
634.717	182.88
634.923	167.88
635.129	163.88
635.335	188.88
635.541	183.88
635.747	177.88
635.952	168.88
636.158	176.88
636.364	178.88
636.57	181.88
636.775	179.88
636.981	192.88
637.187	189.88
637.392	183.88
637.598	182.88
637.804	171.88
638.009	166.88
638.215	179.88
638.421	162.88
638.626	169.88
638.832	162.88
639.037	171.88
639.243	161.88
639.448	158.88
639.654	169.88
639.859	145.88
640.065	157.88
640.27	177.88
640.475	178.88
640.681	184.88
640.886	173.88
641.091	153.88
641.297	162.88
641.502	168.88
641.707	177.88
641.913	175.88
642.118	187.88
642.323	181.88
642.528	171.88
642.733	169.88
642.939	173.88
643.144	161.88
643.349	165.88
643.554	167.88
643.759	146.88
643.964	168.88
644.169	174.88
644.374	158.88
644.579	180.88
644.784	162.88
644.989	161.88
645.194	174.88
645.399	175.88
645.604	167.88
645.809	153.88
646.014	165.88
646.219	156.88
646.423	153.88
646.628	165.88
646.833	163.88
647.038	153.88
647.243	156.88
647.447	159.88
647.652	183.88
647.857	170.88
648.062	161.88
648.266	181.88
648.471	168.88
648.676	160.88
648.88	157.88
649.085	155.88
649.289	159.88
649.494	161.88
649.698	184.88
649.903	168.88
650.107	150.88
650.312	176.88
650.516	150.88
650.721	165.88
650.925	154.88
651.13	149.88
651.334	155.88
651.539	151.88
651.743	143.88
651.947	135.88
652.152	152.88
652.356	140.88
652.56	148.88
652.764	152.88
652.969	131.88
653.173	143.88
653.377	138.88
653.581	136.88
653.785	150.88
653.99	135.88
654.194	139.88
654.398	139.88
654.602	130.88
654.806	129.88
655.01	156.88
655.214	155.88
655.418	131.88
655.622	135.88
655.826	127.88
656.03	121.88
656.234	133.88
656.438	124.88
656.642	137.88
656.846	124.88
657.049	110.88
657.253	116.88
657.457	122.88
657.661	123.88
657.865	109.88
658.068	118.88
658.272	100.88
658.476	102.88
658.68	97.88
658.883	79.88
659.087	113.88
659.291	92.88
659.494	100.88
659.698	90.88
659.901	81.88
660.105	97.88
660.309	104.88
660.512	97.88
660.716	79.88
660.919	81.88
661.123	93.88
661.326	88.88
661.53	85.88
661.733	106.88
661.936	86.88
662.14	75.88
662.343	85.88
662.546	78.88
662.75	82.88
662.953	82.88
663.156	86.88
663.36	87.88
663.563	81.88
663.766	75.88
663.969	79.88
664.173	75.88
664.376	80.88
664.579	74.88
664.782	91.88
664.985	92.88
665.188	78.88
665.391	94.88
665.594	74.88
665.797	82.88
666	76.88
666.203	81.88
666.406	72.88
666.609	70.88
666.812	69.88
667.015	68.88
667.218	88.88
667.421	83.88
667.624	77.88
667.827	78.88
668.03	81.88
668.232	83.88
668.435	80.88
668.638	78.88
668.841	70.88
669.043	82.88
669.246	90.88
669.449	82.88
669.651	89.88
669.854	73.88
670.057	80.88
670.259	89.88
670.462	89.88
670.665	74.88
670.867	87.88
671.07	75.88
671.272	80.88
671.475	80.88
671.677	78.88
671.88	80.88
672.082	74.88
672.284	82.88
672.487	82.88
672.689	80.88
672.892	75.88
