Data from 1971.PennyLincolnUp.Lamp.En5.5.200Scan.071719.P1.Scan 2. Changed Angle._HRD10591_15-23-13-842.txt Node
Date: Thu Jul 18 15:23:13 EDT 2019
User: cochatt
Spectrometer: HR+D1059
Trigger mode: 1
Integration Time (sec): 1.000000E-1
Scans to average: 1
Electric dark correction enabled: true
Nonlinearity correction enabled: false
Boxcar width: 0
XAxis mode: Wavelengths
Number of Pixels in Spectrum: 2048
>>>>>Begin Spectral Data<<<<<
223.165	-32.12
223.4	-32.12
223.635	-32.12
223.869	-9.12
224.104	-18.12
224.338	-6.12
224.573	-9.12
224.808	-11.12
225.042	-9.12
225.277	-8.12
225.511	-0.12
225.746	5.88
225.98	-5.12
226.215	6.88
226.449	12.88
226.683	26.88
226.918	41.88
227.152	13.88
227.387	29.88
227.621	46.88
227.856	52.88
228.09	44.88
228.324	38.88
228.559	45.88
228.793	79.88
229.027	106.88
229.262	122.88
229.496	115.88
229.73	144.88
229.964	179.88
230.199	123.88
230.433	120.88
230.667	131.88
230.901	125.88
231.136	112.88
231.37	115.88
231.604	120.88
231.838	122.88
232.072	109.88
232.306	107.88
232.541	130.88
232.775	119.88
233.009	109.88
233.243	107.88
233.477	110.88
233.711	120.88
233.945	113.88
234.179	126.88
234.413	116.88
234.647	122.88
234.881	123.88
235.115	124.88
235.349	110.88
235.583	126.88
235.817	116.88
236.051	120.88
236.285	120.88
236.519	124.88
236.753	131.88
236.987	141.88
237.221	202.88
237.455	247.88
237.689	191.88
237.922	148.88
238.156	139.88
238.39	147.88
238.624	136.88
238.858	134.88
239.091	134.88
239.325	123.88
239.559	142.88
239.793	138.88
240.027	137.88
240.26	160.88
240.494	166.88
240.728	156.88
240.961	142.88
241.195	148.88
241.429	143.88
241.662	138.88
241.896	129.88
242.13	136.88
242.363	135.88
242.597	135.88
242.83	134.88
243.064	141.88
243.298	140.88
243.531	138.88
243.765	150.88
243.998	150.88
244.232	139.88
244.465	150.88
244.699	166.88
244.932	156.88
245.166	149.88
245.399	148.88
245.633	137.88
245.866	138.88
246.099	166.88
246.333	151.88
246.566	157.88
246.8	156.88
247.033	164.88
247.266	167.88
247.5	184.88
247.733	184.88
247.966	173.88
248.2	173.88
248.433	175.88
248.666	176.88
248.899	201.88
249.133	191.88
249.366	211.88
249.599	233.88
249.832	206.88
250.066	187.88
250.299	186.88
250.532	189.88
250.765	211.88
250.998	225.88
251.231	242.88
251.465	237.88
251.698	224.88
251.931	220.88
252.164	202.88
252.397	204.88
252.63	212.88
252.863	212.88
253.096	222.88
253.329	235.88
253.562	253.88
253.795	252.88
254.028	229.88
254.261	233.88
254.494	232.88
254.727	279.88
254.96	302.88
255.193	294.88
255.426	256.88
255.659	260.88
255.892	252.88
256.124	258.88
256.357	236.88
256.59	229.88
256.823	232.88
257.056	230.88
257.289	208.88
257.521	225.88
257.754	206.88
257.987	215.88
258.22	202.88
258.452	216.88
258.685	238.88
258.918	231.88
259.151	225.88
259.383	226.88
259.616	226.88
259.849	234.88
260.081	231.88
260.314	262.88
260.547	263.88
260.779	260.88
261.012	235.88
261.244	242.88
261.477	222.88
261.71	237.88
261.942	224.88
262.175	264.88
262.407	239.88
262.64	219.88
262.872	214.88
263.105	220.88
263.337	199.88
263.57	226.88
263.802	198.88
264.035	212.88
264.267	194.88
264.499	215.88
264.732	222.88
264.964	208.88
265.197	202.88
265.429	215.88
265.661	207.88
265.894	216.88
266.126	216.88
266.358	216.88
266.591	215.88
266.823	226.88
267.055	214.88
267.287	217.88
267.52	221.88
267.752	204.88
267.984	204.88
268.216	226.88
268.448	232.88
268.681	238.88
268.913	237.88
269.145	245.88
269.377	260.88
269.609	283.88
269.841	271.88
270.073	296.88
270.306	297.88
270.538	335.88
270.77	320.88
271.002	303.88
271.234	294.88
271.466	308.88
271.698	341.88
271.93	326.88
272.162	320.88
272.394	343.88
272.626	303.88
272.858	296.88
273.09	287.88
273.322	279.88
273.553	288.88
273.785	266.88
274.017	248.88
274.249	264.88
274.481	261.88
274.713	254.88
274.945	238.88
275.176	266.88
275.408	265.88
275.64	268.88
275.872	245.88
276.104	252.88
276.335	264.88
276.567	274.88
276.799	288.88
277.031	289.88
277.262	301.88
277.494	328.88
277.726	306.88
277.957	267.88
278.189	291.88
278.421	277.88
278.652	247.88
278.884	247.88
279.115	264.88
279.347	245.88
279.579	254.88
279.81	256.88
280.042	246.88
280.273	267.88
280.505	247.88
280.736	264.88
280.968	261.88
281.199	258.88
281.431	262.88
281.662	238.88
281.894	250.88
282.125	255.88
282.356	277.88
282.588	307.88
282.819	306.88
283.051	262.88
283.282	250.88
283.513	259.88
283.745	271.88
283.976	279.88
284.207	268.88
284.439	276.88
284.67	268.88
284.901	251.88
285.132	265.88
285.364	265.88
285.595	252.88
285.826	270.88
286.057	263.88
286.288	274.88
286.52	249.88
286.751	251.88
286.982	258.88
287.213	247.88
287.444	277.88
287.675	286.88
287.906	266.88
288.138	274.88
288.369	268.88
288.6	282.88
288.831	288.88
289.062	282.88
289.293	299.88
289.524	283.88
289.755	270.88
289.986	283.88
290.217	274.88
290.448	262.88
290.679	268.88
290.91	268.88
291.141	257.88
291.371	271.88
291.602	262.88
291.833	258.88
292.064	257.88
292.295	279.88
292.526	267.88
292.757	277.88
292.987	268.88
293.218	259.88
293.449	273.88
293.68	271.88
293.91	262.88
294.141	288.88
294.372	262.88
294.603	263.88
294.833	279.88
295.064	281.88
295.295	278.88
295.525	258.88
295.756	280.88
295.987	263.88
296.217	312.88
296.448	347.88
296.679	280.88
296.909	272.88
297.14	285.88
297.37	291.88
297.601	289.88
297.831	280.88
298.062	274.88
298.292	281.88
298.523	282.88
298.753	287.88
298.984	287.88
299.214	265.88
299.445	294.88
299.675	272.88
299.905	286.88
300.136	292.88
300.366	286.88
300.597	300.88
300.827	300.88
301.057	311.88
301.288	310.88
301.518	293.88
301.748	291.88
301.979	329.88
302.209	315.88
302.439	304.88
302.669	311.88
302.9	306.88
303.13	299.88
303.36	313.88
303.59	286.88
303.82	310.88
304.051	326.88
304.281	309.88
304.511	308.88
304.741	314.88
304.971	299.88
305.201	301.88
305.431	299.88
305.661	320.88
305.891	308.88
306.121	312.88
306.352	323.88
306.582	307.88
306.812	309.88
307.042	312.88
307.272	311.88
307.502	306.88
307.731	311.88
307.961	318.88
308.191	318.88
308.421	325.88
308.651	314.88
308.881	319.88
309.111	311.88
309.341	327.88
309.571	330.88
309.8	351.88
310.03	352.88
310.26	359.88
310.49	371.88
310.72	354.88
310.949	390.88
311.179	398.88
311.409	366.88
311.639	387.88
311.868	353.88
312.098	380.88
312.328	379.88
312.557	398.88
312.787	392.88
313.017	392.88
313.246	395.88
313.476	353.88
313.706	360.88
313.935	374.88
314.165	367.88
314.394	394.88
314.624	388.88
314.853	383.88
315.083	381.88
315.312	361.88
315.542	361.88
315.771	365.88
316.001	344.88
316.23	364.88
316.46	374.88
316.689	356.88
316.919	358.88
317.148	389.88
317.377	362.88
317.607	384.88
317.836	370.88
318.065	352.88
318.295	356.88
318.524	349.88
318.753	355.88
318.983	382.88
319.212	362.88
319.441	393.88
319.67	383.88
319.9	371.88
320.129	365.88
320.358	372.88
320.587	363.88
320.816	375.88
321.046	384.88
321.275	406.88
321.504	395.88
321.733	394.88
321.962	407.88
322.191	418.88
322.42	421.88
322.649	441.88
322.878	444.88
323.108	479.88
323.337	527.88
323.566	532.88
323.795	551.88
324.024	613.88
324.253	778.88
324.482	1086.88
324.71	1688.88
324.939	2426.88
325.168	2120.88
325.397	1089.88
325.626	727.88
325.855	586.88
326.084	516.88
326.313	512.88
326.542	524.88
326.77	576.88
326.999	671.88
327.228	948.88
327.457	1497.88
327.686	1848.88
327.914	1234.88
328.143	786.88
328.372	710.88
328.6	640.88
328.829	608.88
329.058	617.88
329.287	634.88
329.515	589.88
329.744	551.88
329.972	521.88
330.201	556.88
330.43	600.88
330.658	629.88
330.887	668.88
331.115	636.88
331.344	543.88
331.572	521.88
331.801	503.88
332.03	503.88
332.258	476.88
332.486	440.88
332.715	438.88
332.943	444.88
333.172	438.88
333.4	453.88
333.629	444.88
333.857	482.88
334.085	474.88
334.314	482.88
334.542	508.88
334.771	520.88
334.999	488.88
335.227	480.88
335.455	444.88
335.684	427.88
335.912	434.88
336.14	414.88
336.369	432.88
336.597	450.88
336.825	447.88
337.053	429.88
337.281	426.88
337.51	411.88
337.738	430.88
337.966	429.88
338.194	412.88
338.422	449.88
338.65	416.88
338.878	410.88
339.106	404.88
339.334	418.88
339.562	411.88
339.79	422.88
340.018	420.88
340.246	419.88
340.474	430.88
340.702	398.88
340.93	404.88
341.158	429.88
341.386	430.88
341.614	421.88
341.842	432.88
342.07	421.88
342.298	417.88
342.526	423.88
342.754	402.88
342.981	381.88
343.209	405.88
343.437	420.88
343.665	425.88
343.893	409.88
344.12	396.88
344.348	409.88
344.576	432.88
344.804	448.88
345.031	438.88
345.259	455.88
345.487	451.88
345.714	427.88
345.942	439.88
346.17	417.88
346.397	386.88
346.625	419.88
346.853	413.88
347.08	400.88
347.308	390.88
347.535	426.88
347.763	429.88
347.99	435.88
348.218	440.88
348.445	424.88
348.673	448.88
348.9	423.88
349.128	422.88
349.355	408.88
349.583	388.88
349.81	400.88
350.037	405.88
350.265	409.88
350.492	390.88
350.72	406.88
350.947	397.88
351.174	418.88
351.402	454.88
351.629	408.88
351.856	411.88
352.083	415.88
352.311	431.88
352.538	449.88
352.765	452.88
352.992	428.88
353.22	414.88
353.447	394.88
353.674	419.88
353.901	399.88
354.128	393.88
354.355	394.88
354.583	389.88
354.81	372.88
355.037	388.88
355.264	380.88
355.491	406.88
355.718	371.88
355.945	363.88
356.172	380.88
356.399	395.88
356.626	377.88
356.853	370.88
357.08	365.88
357.307	376.88
357.534	370.88
357.761	388.88
357.988	385.88
358.215	398.88
358.441	386.88
358.668	384.88
358.895	389.88
359.122	402.88
359.349	413.88
359.576	430.88
359.802	442.88
360.029	491.88
360.256	473.88
360.483	473.88
360.709	439.88
360.936	444.88
361.163	413.88
361.39	404.88
361.616	425.88
361.843	426.88
362.07	422.88
362.296	435.88
362.523	418.88
362.749	418.88
362.976	411.88
363.203	409.88
363.429	398.88
363.656	410.88
363.882	414.88
364.109	415.88
364.335	395.88
364.562	417.88
364.788	404.88
365.015	404.88
365.241	384.88
365.468	406.88
365.694	407.88
365.92	413.88
366.147	412.88
366.373	392.88
366.599	400.88
366.826	398.88
367.052	396.88
367.278	397.88
367.505	412.88
367.731	429.88
367.957	406.88
368.184	404.88
368.41	416.88
368.636	422.88
368.862	426.88
369.089	403.88
369.315	394.88
369.541	393.88
369.767	403.88
369.993	383.88
370.219	410.88
370.445	402.88
370.672	412.88
370.898	414.88
371.124	393.88
371.35	417.88
371.576	377.88
371.802	393.88
372.028	388.88
372.254	390.88
372.48	391.88
372.706	399.88
372.932	393.88
373.158	374.88
373.384	416.88
373.61	397.88
373.835	398.88
374.061	396.88
374.287	398.88
374.513	399.88
374.739	389.88
374.965	405.88
375.191	419.88
375.416	398.88
375.642	412.88
375.868	420.88
376.094	400.88
376.319	392.88
376.545	400.88
376.771	395.88
376.997	383.88
377.222	398.88
377.448	399.88
377.674	372.88
377.899	405.88
378.125	410.88
378.35	396.88
378.576	392.88
378.802	397.88
379.027	403.88
379.253	400.88
379.478	386.88
379.704	404.88
379.929	416.88
380.155	385.88
380.38	405.88
380.606	380.88
380.831	406.88
381.057	420.88
381.282	380.88
381.507	398.88
381.733	424.88
381.958	399.88
382.184	396.88
382.409	391.88
382.634	404.88
382.86	396.88
383.085	417.88
383.31	401.88
383.535	395.88
383.761	405.88
383.986	412.88
384.211	439.88
384.436	423.88
384.662	408.88
384.887	436.88
385.112	434.88
385.337	418.88
385.562	410.88
385.787	428.88
386.013	436.88
386.238	474.88
386.463	454.88
386.688	421.88
386.913	451.88
387.138	425.88
387.363	400.88
387.588	446.88
387.813	417.88
388.038	429.88
388.263	442.88
388.488	452.88
388.713	436.88
388.938	444.88
389.163	434.88
389.387	440.88
389.612	429.88
389.837	412.88
390.062	419.88
390.287	424.88
390.512	426.88
390.736	430.88
390.961	438.88
391.186	422.88
391.411	432.88
391.636	439.88
391.86	434.88
392.085	449.88
392.31	445.88
392.534	450.88
392.759	443.88
392.984	450.88
393.208	446.88
393.433	465.88
393.658	461.88
393.882	444.88
394.107	431.88
394.331	436.88
394.556	446.88
394.78	436.88
395.005	458.88
395.229	452.88
395.454	466.88
395.678	465.88
395.903	461.88
396.127	469.88
396.352	484.88
396.576	452.88
396.801	449.88
397.025	456.88
397.249	454.88
397.474	459.88
397.698	479.88
397.922	493.88
398.147	492.88
398.371	498.88
398.595	477.88
398.82	476.88
399.044	487.88
399.268	469.88
399.492	514.88
399.717	527.88
399.941	549.88
400.165	598.88
400.389	610.88
400.613	593.88
400.837	542.88
401.062	522.88
401.286	515.88
401.51	498.88
401.734	487.88
401.958	516.88
402.182	477.88
402.406	528.88
402.63	535.88
402.854	523.88
403.078	510.88
403.302	509.88
403.526	508.88
403.75	518.88
403.974	531.88
404.198	506.88
404.422	545.88
404.645	528.88
404.869	530.88
405.093	562.88
405.317	610.88
405.541	622.88
405.765	591.88
405.988	562.88
406.212	565.88
406.436	607.88
406.66	591.88
406.883	585.88
407.107	574.88
407.331	635.88
407.555	699.88
407.778	686.88
408.002	636.88
408.226	584.88
408.449	600.88
408.673	576.88
408.896	613.88
409.12	663.88
409.344	642.88
409.567	562.88
409.791	538.88
410.014	541.88
410.238	544.88
410.461	523.88
410.685	542.88
410.908	533.88
411.132	578.88
411.355	639.88
411.578	613.88
411.802	550.88
412.025	538.88
412.249	552.88
412.472	563.88
412.695	619.88
412.919	588.88
413.142	569.88
413.365	520.88
413.589	536.88
413.812	507.88
414.035	513.88
414.258	503.88
414.482	492.88
414.705	510.88
414.928	496.88
415.151	489.88
415.374	501.88
415.597	498.88
415.821	499.88
416.044	492.88
416.267	503.88
416.49	509.88
416.713	480.88
416.936	491.88
417.159	501.88
417.382	501.88
417.605	519.88
417.828	536.88
418.051	549.88
418.274	524.88
418.497	525.88
418.72	499.88
418.943	494.88
419.166	502.88
419.389	552.88
419.611	510.88
419.834	534.88
420.057	544.88
420.28	526.88
420.503	515.88
420.726	525.88
420.948	547.88
421.171	604.88
421.394	647.88
421.617	583.88
421.839	554.88
422.062	555.88
422.285	539.88
422.507	606.88
422.73	701.88
422.953	690.88
423.175	603.88
423.398	572.88
423.621	568.88
423.843	592.88
424.066	597.88
424.288	575.88
424.511	605.88
424.733	665.88
424.956	754.88
425.178	705.88
425.401	706.88
425.623	757.88
425.846	656.88
426.068	599.88
426.291	587.88
426.513	582.88
426.735	578.88
426.958	647.88
427.18	746.88
427.402	894.88
427.625	982.88
427.847	872.88
428.069	725.88
428.292	667.88
428.514	608.88
428.736	596.88
428.958	600.88
429.181	559.88
429.403	562.88
429.625	556.88
429.847	609.88
430.069	679.88
430.292	692.88
430.514	582.88
430.736	574.88
430.958	555.88
431.18	527.88
431.402	499.88
431.624	506.88
431.846	495.88
432.068	513.88
432.29	518.88
432.512	499.88
432.734	519.88
432.956	519.88
433.178	528.88
433.4	521.88
433.622	510.88
433.844	512.88
434.066	487.88
434.287	535.88
434.509	511.88
434.731	523.88
434.953	523.88
435.175	570.88
435.397	590.88
435.618	592.88
435.84	640.88
436.062	741.88
436.284	824.88
436.505	695.88
436.727	626.88
436.949	574.88
437.17	562.88
437.392	567.88
437.614	580.88
437.835	592.88
438.057	741.88
438.278	870.88
438.5	801.88
438.721	872.88
438.943	862.88
439.165	681.88
439.386	622.88
439.608	615.88
439.829	620.88
440.05	654.88
440.272	700.88
440.493	677.88
440.715	624.88
440.936	573.88
441.158	573.88
441.379	581.88
441.6	558.88
441.822	604.88
442.043	646.88
442.264	721.88
442.486	759.88
442.707	657.88
442.928	614.88
443.149	642.88
443.371	647.88
443.592	688.88
443.813	781.88
444.034	839.88
444.255	707.88
444.476	642.88
444.698	586.88
444.919	584.88
445.14	681.88
445.361	668.88
445.582	622.88
445.803	725.88
446.024	820.88
446.245	843.88
446.466	773.88
446.687	652.88
446.908	588.88
447.129	559.88
447.35	547.88
447.571	559.88
447.792	558.88
448.013	566.88
448.234	588.88
448.455	639.88
448.675	770.88
448.896	878.88
449.117	744.88
449.338	702.88
449.559	845.88
449.779	910.88
450	728.88
450.221	614.88
450.442	598.88
450.662	570.88
450.883	574.88
451.104	572.88
451.324	567.88
451.545	547.88
451.766	510.88
451.986	502.88
452.207	499.88
452.428	503.88
452.648	508.88
452.869	519.88
453.089	540.88
453.31	532.88
453.53	521.88
453.751	486.88
453.971	526.88
454.192	540.88
454.412	516.88
454.633	499.88
454.853	483.88
455.073	507.88
455.294	560.88
455.514	602.88
455.734	596.88
455.955	512.88
456.175	484.88
456.395	470.88
456.616	447.88
456.836	485.88
457.056	459.88
457.276	440.88
457.497	452.88
457.717	457.88
457.937	465.88
458.157	479.88
458.377	503.88
458.598	500.88
458.818	589.88
459.038	686.88
459.258	680.88
459.478	574.88
459.698	536.88
459.918	516.88
460.138	518.88
460.358	520.88
460.578	523.88
460.798	519.88
461.018	508.88
461.238	518.88
461.458	477.88
461.678	506.88
461.898	518.88
462.118	498.88
462.338	516.88
462.558	531.88
462.777	521.88
462.997	529.88
463.217	537.88
463.437	556.88
463.657	533.88
463.876	532.88
464.096	540.88
464.316	537.88
464.536	539.88
464.755	520.88
464.975	567.88
465.195	617.88
465.414	719.88
465.634	617.88
465.854	596.88
466.073	558.88
466.293	528.88
466.512	501.88
466.732	513.88
466.951	484.88
467.171	502.88
467.391	505.88
467.61	514.88
467.829	537.88
468.049	529.88
468.268	538.88
468.488	504.88
468.707	499.88
468.927	496.88
469.146	495.88
469.365	500.88
469.585	496.88
469.804	505.88
470.023	516.88
470.243	518.88
470.462	514.88
470.681	558.88
470.901	552.88
471.12	510.88
471.339	535.88
471.558	540.88
471.777	535.88
471.997	512.88
472.216	523.88
472.435	562.88
472.654	534.88
472.873	516.88
473.092	510.88
473.311	521.88
473.53	508.88
473.749	527.88
473.968	589.88
474.187	674.88
474.406	717.88
474.625	589.88
474.844	547.88
475.063	520.88
475.282	503.88
475.501	508.88
475.72	529.88
475.939	535.88
476.158	543.88
476.377	524.88
476.596	551.88
476.814	552.88
477.033	534.88
477.252	558.88
477.471	535.88
477.69	557.88
477.908	547.88
478.127	564.88
478.346	552.88
478.564	583.88
478.783	559.88
479.002	567.88
479.22	583.88
479.439	614.88
479.658	620.88
479.876	623.88
480.095	607.88
480.313	654.88
480.532	627.88
480.751	646.88
480.969	639.88
481.188	686.88
481.406	770.88
481.624	681.88
481.843	629.88
482.061	607.88
482.28	643.88
482.498	626.88
482.717	604.88
482.935	603.88
483.153	606.88
483.372	610.88
483.59	626.88
483.808	604.88
484.027	607.88
484.245	627.88
484.463	628.88
484.681	632.88
484.9	646.88
485.118	641.88
485.336	621.88
485.554	627.88
485.772	620.88
485.99	636.88
486.209	627.88
486.427	634.88
486.645	658.88
486.863	683.88
487.081	678.88
487.299	680.88
487.517	666.88
487.735	663.88
487.953	666.88
488.171	687.88
488.389	703.88
488.607	685.88
488.825	682.88
489.043	650.88
489.261	692.88
489.479	686.88
489.696	686.88
489.914	673.88
490.132	686.88
490.35	700.88
490.568	707.88
490.786	740.88
491.003	740.88
491.221	734.88
491.439	750.88
491.657	779.88
491.874	779.88
492.092	777.88
492.31	795.88
492.527	787.88
492.745	778.88
492.963	785.88
493.18	780.88
493.398	782.88
493.615	796.88
493.833	803.88
494.05	814.88
494.268	807.88
494.485	787.88
494.703	784.88
494.92	825.88
495.138	786.88
495.355	800.88
495.573	805.88
495.79	820.88
496.008	826.88
496.225	840.88
496.442	798.88
496.66	809.88
496.877	819.88
497.094	831.88
497.312	802.88
497.529	802.88
497.746	794.88
497.963	842.88
498.181	858.88
498.398	890.88
498.615	845.88
498.832	860.88
499.049	863.88
499.267	858.88
499.484	910.88
499.701	916.88
499.918	955.88
500.135	974.88
500.352	1016.88
500.569	984.88
500.786	988.88
501.003	998.88
501.22	986.88
501.437	970.88
501.654	949.88
501.871	956.88
502.088	933.88
502.305	933.88
502.522	876.88
502.739	859.88
502.956	848.88
503.172	840.88
503.389	842.88
503.606	854.88
503.823	797.88
504.04	803.88
504.256	826.88
504.473	786.88
504.69	798.88
504.907	788.88
505.123	766.88
505.34	793.88
505.557	784.88
505.773	775.88
505.99	780.88
506.207	792.88
506.423	796.88
506.64	781.88
506.856	763.88
507.073	763.88
507.289	780.88
507.506	776.88
507.722	754.88
507.939	802.88
508.155	756.88
508.372	751.88
508.588	766.88
508.805	750.88
509.021	707.88
509.238	747.88
509.454	751.88
509.67	760.88
509.887	736.88
510.103	751.88
510.319	762.88
510.536	867.88
510.752	1515.88
510.968	1188.88
511.184	784.88
511.401	720.88
511.617	741.88
511.833	709.88
512.049	717.88
512.265	704.88
512.481	731.88
512.698	715.88
512.914	702.88
513.13	716.88
513.346	725.88
513.562	677.88
513.778	713.88
513.994	727.88
514.21	740.88
514.426	749.88
514.642	800.88
514.858	866.88
515.074	930.88
515.29	1122.88
515.506	1727.88
515.721	1389.88
515.937	908.88
516.153	826.88
516.369	775.88
516.585	711.88
516.801	731.88
517.016	736.88
517.232	735.88
517.448	719.88
517.664	719.88
517.879	717.88
518.095	739.88
518.311	703.88
518.527	704.88
518.742	685.88
518.958	694.88
519.173	683.88
519.389	699.88
519.605	696.88
519.82	730.88
520.036	727.88
520.251	757.88
520.467	786.88
520.682	804.88
520.898	795.88
521.113	813.88
521.329	885.88
521.544	1001.88
521.76	1334.88
521.975	2264.88
522.19	2204.88
522.406	1178.88
522.621	878.88
522.836	790.88
523.052	726.88
523.267	699.88
523.482	682.88
523.698	653.88
523.913	662.88
524.128	652.88
524.343	638.88
524.559	623.88
524.774	616.88
524.989	614.88
525.204	626.88
525.419	632.88
525.634	609.88
525.849	589.88
526.064	597.88
526.28	590.88
526.495	590.88
526.71	552.88
526.925	581.88
527.14	571.88
527.355	577.88
527.57	573.88
527.785	568.88
527.999	564.88
528.214	576.88
528.429	592.88
528.644	580.88
528.859	577.88
529.074	567.88
529.289	608.88
529.503	726.88
529.718	685.88
529.933	636.88
530.148	603.88
530.363	602.88
530.577	569.88
530.792	559.88
531.007	559.88
531.221	576.88
531.436	578.88
531.651	566.88
531.865	546.88
532.08	556.88
532.295	541.88
532.509	545.88
532.724	546.88
532.938	538.88
533.153	535.88
533.367	534.88
533.582	521.88
533.796	516.88
534.011	525.88
534.225	532.88
534.44	510.88
534.654	508.88
534.868	535.88
535.083	541.88
535.297	541.88
535.511	527.88
535.726	532.88
535.94	558.88
536.154	546.88
536.369	531.88
536.583	505.88
536.797	508.88
537.011	513.88
537.225	500.88
537.44	518.88
537.654	494.88
537.868	519.88
538.082	514.88
538.296	516.88
538.51	519.88
538.724	517.88
538.938	523.88
539.153	519.88
539.367	531.88
539.581	529.88
539.795	515.88
540.009	504.88
540.222	486.88
540.436	506.88
540.65	524.88
540.864	528.88
541.078	531.88
541.292	522.88
541.506	542.88
541.72	525.88
541.934	524.88
542.147	528.88
542.361	513.88
542.575	530.88
542.789	495.88
543.002	512.88
543.216	518.88
543.43	548.88
543.644	532.88
543.857	514.88
544.071	512.88
544.285	498.88
544.498	499.88
544.712	506.88
544.925	515.88
545.139	525.88
545.352	506.88
545.566	497.88
545.779	508.88
545.993	507.88
546.206	517.88
546.42	522.88
546.633	498.88
546.847	512.88
547.06	482.88
547.274	493.88
547.487	507.88
547.7	494.88
547.914	475.88
548.127	493.88
548.34	476.88
548.554	498.88
548.767	464.88
548.98	482.88
549.193	472.88
549.407	503.88
549.62	491.88
549.833	494.88
550.046	475.88
550.259	468.88
550.473	479.88
550.686	496.88
550.899	492.88
551.112	477.88
551.325	484.88
551.538	471.88
551.751	462.88
551.964	453.88
552.177	459.88
552.39	474.88
552.603	489.88
552.816	485.88
553.029	488.88
553.242	489.88
553.455	492.88
553.667	510.88
553.88	504.88
554.093	491.88
554.306	488.88
554.519	490.88
554.732	504.88
554.944	466.88
555.157	468.88
555.37	473.88
555.583	467.88
555.795	465.88
556.008	445.88
556.221	458.88
556.433	458.88
556.646	438.88
556.859	435.88
557.071	451.88
557.284	438.88
557.496	443.88
557.709	431.88
557.921	460.88
558.134	417.88
558.346	446.88
558.559	428.88
558.771	441.88
558.984	420.88
559.196	422.88
559.409	474.88
559.621	427.88
559.833	428.88
560.046	439.88
560.258	431.88
560.47	434.88
560.683	431.88
560.895	442.88
561.107	435.88
561.32	436.88
561.532	422.88
561.744	439.88
561.956	416.88
562.168	448.88
562.381	426.88
562.593	431.88
562.805	428.88
563.017	425.88
563.229	450.88
563.441	445.88
563.653	420.88
563.865	420.88
564.077	441.88
564.289	427.88
564.501	438.88
564.713	438.88
564.925	447.88
565.137	450.88
565.349	433.88
565.561	440.88
565.773	457.88
565.985	445.88
566.197	461.88
566.408	452.88
566.62	474.88
566.832	481.88
567.044	479.88
567.255	479.88
567.467	503.88
567.679	482.88
567.891	498.88
568.102	483.88
568.314	474.88
568.526	472.88
568.737	476.88
568.949	451.88
569.161	439.88
569.372	430.88
569.584	440.88
569.795	423.88
570.007	429.88
570.218	490.88
570.43	487.88
570.641	427.88
570.853	422.88
571.064	414.88
571.276	394.88
571.487	399.88
571.698	393.88
571.91	398.88
572.121	413.88
572.333	392.88
572.544	378.88
572.755	393.88
572.966	400.88
573.178	368.88
573.389	381.88
573.6	387.88
573.811	367.88
574.023	378.88
574.234	376.88
574.445	399.88
574.656	374.88
574.867	374.88
575.078	359.88
575.289	379.88
575.501	370.88
575.712	365.88
575.923	366.88
576.134	358.88
576.345	361.88
576.556	346.88
576.767	363.88
576.978	343.88
577.188	361.88
577.399	363.88
577.61	351.88
577.821	357.88
578.032	362.88
578.243	409.88
578.454	711.88
578.665	525.88
578.875	374.88
579.086	361.88
579.297	354.88
579.508	342.88
579.718	351.88
579.929	338.88
580.14	340.88
580.35	332.88
580.561	354.88
580.772	347.88
580.982	352.88
581.193	309.88
581.403	331.88
581.614	341.88
581.825	335.88
582.035	336.88
582.246	331.88
582.456	334.88
582.667	344.88
582.877	319.88
583.087	320.88
583.298	317.88
583.508	324.88
583.719	354.88
583.929	329.88
584.139	333.88
584.35	328.88
584.56	293.88
584.77	349.88
584.981	327.88
585.191	325.88
585.401	323.88
585.611	327.88
585.821	326.88
586.032	318.88
586.242	316.88
586.452	307.88
586.662	320.88
586.872	323.88
587.082	329.88
587.292	322.88
587.502	327.88
587.713	330.88
587.923	330.88
588.133	323.88
588.343	324.88
588.553	307.88
588.762	309.88
588.972	326.88
589.182	326.88
589.392	310.88
589.602	300.88
589.812	324.88
590.022	323.88
590.232	324.88
590.441	329.88
590.651	319.88
590.861	298.88
591.071	318.88
591.281	303.88
591.49	328.88
591.7	303.88
591.91	324.88
592.119	308.88
592.329	333.88
592.539	331.88
592.748	318.88
592.958	326.88
593.167	335.88
593.377	333.88
593.587	316.88
593.796	314.88
594.006	297.88
594.215	327.88
594.424	332.88
594.634	323.88
594.843	317.88
595.053	303.88
595.262	333.88
595.472	325.88
595.681	299.88
595.89	311.88
596.1	314.88
596.309	295.88
596.518	316.88
596.727	312.88
596.937	296.88
597.146	307.88
597.355	313.88
597.564	285.88
597.774	282.88
597.983	290.88
598.192	292.88
598.401	287.88
598.61	281.88
598.819	291.88
599.028	291.88
599.237	281.88
599.446	293.88
599.655	293.88
599.864	299.88
600.073	285.88
600.282	284.88
600.491	290.88
600.7	281.88
600.909	287.88
601.118	285.88
601.327	265.88
601.536	275.88
601.745	295.88
601.953	286.88
602.162	286.88
602.371	286.88
602.58	277.88
602.789	270.88
602.997	279.88
603.206	284.88
603.415	276.88
603.623	288.88
603.832	278.88
604.041	275.88
604.249	273.88
604.458	267.88
604.666	272.88
604.875	272.88
605.084	277.88
605.292	260.88
605.501	246.88
605.709	271.88
605.918	284.88
606.126	279.88
606.334	276.88
606.543	284.88
606.751	280.88
606.96	271.88
607.168	274.88
607.376	268.88
607.585	270.88
607.793	270.88
608.001	280.88
608.21	284.88
608.418	280.88
608.626	263.88
608.834	248.88
609.043	276.88
609.251	264.88
609.459	262.88
609.667	266.88
609.875	265.88
610.083	267.88
610.291	286.88
610.499	258.88
610.707	262.88
610.916	267.88
611.124	271.88
611.332	276.88
611.54	287.88
611.748	273.88
611.955	263.88
612.163	244.88
612.371	255.88
612.579	268.88
612.787	268.88
612.995	272.88
613.203	261.88
613.411	263.88
613.618	259.88
613.826	281.88
614.034	272.88
614.242	262.88
614.449	270.88
614.657	258.88
614.865	256.88
615.072	255.88
615.28	253.88
615.488	269.88
615.695	270.88
615.903	259.88
616.111	274.88
616.318	270.88
616.526	266.88
616.733	268.88
616.941	266.88
617.148	251.88
617.356	256.88
617.563	255.88
617.771	245.88
617.978	253.88
618.185	246.88
618.393	259.88
618.6	260.88
618.807	248.88
619.015	263.88
619.222	236.88
619.429	237.88
619.637	253.88
619.844	254.88
620.051	233.88
620.258	234.88
620.466	246.88
620.673	246.88
620.88	237.88
621.087	246.88
621.294	253.88
621.501	249.88
621.708	271.88
621.915	251.88
622.122	262.88
622.329	263.88
622.536	261.88
622.743	238.88
622.95	231.88
623.157	247.88
623.364	237.88
623.571	244.88
623.778	230.88
623.985	233.88
624.192	233.88
624.399	224.88
624.606	236.88
624.812	229.88
625.019	235.88
625.226	221.88
625.433	221.88
625.639	232.88
625.846	233.88
626.053	226.88
626.259	208.88
626.466	218.88
626.673	214.88
626.879	215.88
627.086	219.88
627.293	234.88
627.499	227.88
627.706	225.88
627.912	228.88
628.119	211.88
628.325	236.88
628.532	230.88
628.738	212.88
628.945	226.88
629.151	223.88
629.357	222.88
629.564	214.88
629.77	216.88
629.976	215.88
630.183	217.88
630.389	223.88
630.595	233.88
630.802	220.88
631.008	202.88
631.214	234.88
631.42	212.88
631.627	207.88
631.833	220.88
632.039	202.88
632.245	201.88
632.451	201.88
632.657	208.88
632.863	208.88
633.069	217.88
633.275	197.88
633.481	188.88
633.688	206.88
633.893	206.88
634.099	197.88
634.305	199.88
634.511	213.88
634.717	214.88
634.923	184.88
635.129	199.88
635.335	216.88
635.541	204.88
635.747	191.88
635.952	206.88
636.158	191.88
636.364	207.88
636.57	204.88
636.775	202.88
636.981	207.88
637.187	216.88
637.392	201.88
637.598	194.88
637.804	189.88
638.009	224.88
638.215	201.88
638.421	193.88
638.626	188.88
638.832	181.88
639.037	202.88
639.243	201.88
639.448	182.88
639.654	193.88
639.859	178.88
640.065	178.88
640.27	207.88
640.475	185.88
640.681	180.88
640.886	192.88
641.091	192.88
641.297	196.88
641.502	178.88
641.707	164.88
641.913	175.88
642.118	189.88
642.323	201.88
642.528	204.88
642.733	190.88
642.939	189.88
643.144	176.88
643.349	187.88
643.554	190.88
643.759	186.88
643.964	190.88
644.169	184.88
644.374	188.88
644.579	191.88
644.784	198.88
644.989	187.88
645.194	180.88
645.399	174.88
645.604	201.88
645.809	183.88
646.014	167.88
646.219	189.88
646.423	168.88
646.628	179.88
646.833	195.88
647.038	182.88
647.243	167.88
647.447	197.88
647.652	182.88
647.857	151.88
648.062	165.88
648.266	174.88
648.471	199.88
648.676	202.88
648.88	192.88
649.085	192.88
649.289	178.88
649.494	189.88
649.698	213.88
649.903	196.88
650.107	204.88
650.312	170.88
650.516	180.88
650.721	170.88
650.925	174.88
651.13	165.88
651.334	156.88
651.539	169.88
651.743	173.88
651.947	161.88
652.152	169.88
652.356	158.88
652.56	164.88
652.764	174.88
652.969	148.88
653.173	148.88
653.377	141.88
653.581	150.88
653.785	155.88
653.99	155.88
654.194	138.88
654.398	142.88
654.602	151.88
654.806	158.88
655.01	150.88
655.214	148.88
655.418	143.88
655.622	135.88
655.826	141.88
656.03	144.88
656.234	148.88
656.438	132.88
656.642	134.88
656.846	143.88
657.049	127.88
657.253	115.88
657.457	122.88
657.661	133.88
657.865	128.88
658.068	110.88
658.272	118.88
658.476	116.88
658.68	107.88
658.883	112.88
659.087	109.88
659.291	116.88
659.494	92.88
659.698	105.88
659.901	108.88
660.105	102.88
660.309	107.88
660.512	100.88
660.716	98.88
660.919	107.88
661.123	113.88
661.326	92.88
661.53	105.88
661.733	106.88
661.936	84.88
662.14	85.88
662.343	76.88
662.546	98.88
662.75	93.88
662.953	88.88
663.156	93.88
663.36	100.88
663.563	78.88
663.766	89.88
663.969	67.88
664.173	82.88
664.376	83.88
664.579	84.88
664.782	87.88
664.985	78.88
665.188	74.88
665.391	84.88
665.594	68.88
665.797	78.88
666	92.88
666.203	83.88
666.406	96.88
666.609	93.88
666.812	91.88
667.015	84.88
667.218	87.88
667.421	87.88
667.624	79.88
667.827	80.88
668.03	83.88
668.232	96.88
668.435	79.88
668.638	80.88
668.841	86.88
669.043	97.88
669.246	87.88
669.449	84.88
669.651	79.88
669.854	87.88
670.057	72.88
670.259	75.88
670.462	83.88
670.665	88.88
670.867	86.88
671.07	77.88
671.272	86.88
671.475	87.88
671.677	99.88
671.88	80.88
672.082	81.88
672.284	58.88
672.487	75.88
672.689	85.88
672.892	76.88
