Data from 1971.PennyLincolnUp.Lamp.En5.5.200Scan.071719.P1._HRD10591_15-18-26-841.txt Node
Date: Thu Jul 18 15:18:26 EDT 2019
User: cochatt
Spectrometer: HR+D1059
Trigger mode: 1
Integration Time (sec): 1.000000E-1
Scans to average: 1
Electric dark correction enabled: true
Nonlinearity correction enabled: false
Boxcar width: 0
XAxis mode: Wavelengths
Number of Pixels in Spectrum: 2048
>>>>>Begin Spectral Data<<<<<
223.165	-12.62
223.4	-12.62
223.635	-12.62
223.869	-11.62
224.104	-18.62
224.338	-17.62
224.573	-15.62
224.808	-6.62
225.042	-4.62
225.277	-14.62
225.511	-4.62
225.746	11.38
225.98	8.38
226.215	13.38
226.449	13.38
226.683	16.38
226.918	20.38
227.152	23.38
227.387	36.38
227.621	45.38
227.856	38.38
228.09	51.38
228.324	69.38
228.559	64.38
228.793	55.38
229.027	83.38
229.262	96.38
229.496	110.38
229.73	126.38
229.964	127.38
230.199	111.38
230.433	101.38
230.667	101.38
230.901	112.38
231.136	108.38
231.37	101.38
231.604	108.38
231.838	121.38
232.072	95.38
232.306	117.38
232.541	108.38
232.775	115.38
233.009	103.38
233.243	109.38
233.477	111.38
233.711	120.38
233.945	107.38
234.179	119.38
234.413	110.38
234.647	114.38
234.881	111.38
235.115	109.38
235.349	91.38
235.583	123.38
235.817	123.38
236.051	115.38
236.285	127.38
236.519	119.38
236.753	123.38
236.987	137.38
237.221	141.38
237.455	208.38
237.689	157.38
237.922	125.38
238.156	132.38
238.39	126.38
238.624	127.38
238.858	128.38
239.091	112.38
239.325	120.38
239.559	126.38
239.793	116.38
240.027	145.38
240.26	131.38
240.494	136.38
240.728	147.38
240.961	145.38
241.195	151.38
241.429	129.38
241.662	114.38
241.896	124.38
242.13	122.38
242.363	141.38
242.597	130.38
242.83	142.38
243.064	135.38
243.298	117.38
243.531	135.38
243.765	131.38
243.998	123.38
244.232	127.38
244.465	143.38
244.699	137.38
244.932	128.38
245.166	131.38
245.399	135.38
245.633	142.38
245.866	143.38
246.099	126.38
246.333	146.38
246.566	155.38
246.8	147.38
247.033	166.38
247.266	161.38
247.5	146.38
247.733	172.38
247.966	170.38
248.2	168.38
248.433	170.38
248.666	170.38
248.899	172.38
249.133	190.38
249.366	192.38
249.599	185.38
249.832	173.38
250.066	181.38
250.299	179.38
250.532	167.38
250.765	179.38
250.998	190.38
251.231	198.38
251.465	205.38
251.698	189.38
251.931	189.38
252.164	196.38
252.397	192.38
252.63	182.38
252.863	197.38
253.096	209.38
253.329	221.38
253.562	210.38
253.795	212.38
254.028	211.38
254.261	198.38
254.494	224.38
254.727	236.38
254.96	277.38
255.193	255.38
255.426	234.38
255.659	236.38
255.892	228.38
256.124	212.38
256.357	232.38
256.59	219.38
256.823	200.38
257.056	219.38
257.289	204.38
257.521	191.38
257.754	209.38
257.987	201.38
258.22	196.38
258.452	211.38
258.685	208.38
258.918	207.38
259.151	211.38
259.383	209.38
259.616	200.38
259.849	230.38
260.081	215.38
260.314	234.38
260.547	228.38
260.779	226.38
261.012	233.38
261.244	225.38
261.477	223.38
261.71	223.38
261.942	234.38
262.175	220.38
262.407	220.38
262.64	216.38
262.872	225.38
263.105	196.38
263.337	209.38
263.57	204.38
263.802	207.38
264.035	212.38
264.267	222.38
264.499	212.38
264.732	206.38
264.964	217.38
265.197	219.38
265.429	204.38
265.661	206.38
265.894	207.38
266.126	220.38
266.358	211.38
266.591	207.38
266.823	212.38
267.055	214.38
267.287	222.38
267.52	223.38
267.752	220.38
267.984	206.38
268.216	219.38
268.448	213.38
268.681	227.38
268.913	242.38
269.145	258.38
269.377	251.38
269.609	261.38
269.841	261.38
270.073	275.38
270.306	264.38
270.538	304.38
270.77	298.38
271.002	277.38
271.234	292.38
271.466	297.38
271.698	291.38
271.93	306.38
272.162	288.38
272.394	309.38
272.626	285.38
272.858	276.38
273.09	268.38
273.322	262.38
273.553	266.38
273.785	265.38
274.017	239.38
274.249	238.38
274.481	237.38
274.713	259.38
274.945	253.38
275.176	244.38
275.408	252.38
275.64	249.38
275.872	247.38
276.104	241.38
276.335	257.38
276.567	269.38
276.799	245.38
277.031	277.38
277.262	293.38
277.494	296.38
277.726	296.38
277.957	275.38
278.189	253.38
278.421	279.38
278.652	259.38
278.884	259.38
279.115	242.38
279.347	268.38
279.579	240.38
279.81	253.38
280.042	254.38
280.273	264.38
280.505	267.38
280.736	251.38
280.968	248.38
281.199	249.38
281.431	262.38
281.662	272.38
281.894	267.38
282.125	269.38
282.356	275.38
282.588	280.38
282.819	283.38
283.051	279.38
283.282	254.38
283.513	269.38
283.745	265.38
283.976	283.38
284.207	265.38
284.439	275.38
284.67	281.38
284.901	270.38
285.132	269.38
285.364	250.38
285.595	281.38
285.826	250.38
286.057	261.38
286.288	248.38
286.52	261.38
286.751	276.38
286.982	265.38
287.213	288.38
287.444	278.38
287.675	267.38
287.906	291.38
288.138	287.38
288.369	296.38
288.6	279.38
288.831	287.38
289.062	287.38
289.293	284.38
289.524	272.38
289.755	281.38
289.986	285.38
290.217	261.38
290.448	265.38
290.679	270.38
290.91	285.38
291.141	264.38
291.371	275.38
291.602	273.38
291.833	267.38
292.064	297.38
292.295	285.38
292.526	279.38
292.757	279.38
292.987	287.38
293.218	276.38
293.449	276.38
293.68	273.38
293.91	278.38
294.141	287.38
294.372	278.38
294.603	298.38
294.833	284.38
295.064	290.38
295.295	273.38
295.525	288.38
295.756	278.38
295.987	298.38
296.217	305.38
296.448	327.38
296.679	297.38
296.909	287.38
297.14	289.38
297.37	293.38
297.601	271.38
297.831	290.38
298.062	288.38
298.292	289.38
298.523	290.38
298.753	288.38
298.984	278.38
299.214	296.38
299.445	305.38
299.675	299.38
299.905	299.38
300.136	310.38
300.366	294.38
300.597	297.38
300.827	302.38
301.057	309.38
301.288	291.38
301.518	301.38
301.748	302.38
301.979	292.38
302.209	315.38
302.439	317.38
302.669	301.38
302.9	306.38
303.13	295.38
303.36	314.38
303.59	331.38
303.82	332.38
304.051	318.38
304.281	310.38
304.511	327.38
304.741	299.38
304.971	315.38
305.201	330.38
305.431	326.38
305.661	323.38
305.891	302.38
306.121	303.38
306.352	314.38
306.582	294.38
306.812	312.38
307.042	305.38
307.272	297.38
307.502	325.38
307.731	334.38
307.961	325.38
308.191	319.38
308.421	316.38
308.651	325.38
308.881	329.38
309.111	326.38
309.341	317.38
309.571	346.38
309.8	364.38
310.03	327.38
310.26	358.38
310.49	336.38
310.72	353.38
310.949	373.38
311.179	367.38
311.409	341.38
311.639	355.38
311.868	348.38
312.098	345.38
312.328	347.38
312.557	358.38
312.787	366.38
313.017	376.38
313.246	352.38
313.476	349.38
313.706	354.38
313.935	343.38
314.165	360.38
314.394	377.38
314.624	373.38
314.853	357.38
315.083	341.38
315.312	343.38
315.542	353.38
315.771	353.38
316.001	342.38
316.23	368.38
316.46	360.38
316.689	350.38
316.919	347.38
317.148	361.38
317.377	381.38
317.607	350.38
317.836	355.38
318.065	374.38
318.295	345.38
318.524	361.38
318.753	346.38
318.983	341.38
319.212	333.38
319.441	321.38
319.67	368.38
319.9	353.38
320.129	345.38
320.358	356.38
320.587	336.38
320.816	347.38
321.046	365.38
321.275	354.38
321.504	363.38
321.733	371.38
321.962	375.38
322.191	390.38
322.42	381.38
322.649	379.38
322.878	396.38
323.108	386.38
323.337	411.38
323.566	424.38
323.795	472.38
324.024	515.38
324.253	616.38
324.482	817.38
324.71	1243.38
324.939	1676.38
325.168	1379.38
325.397	745.38
325.626	545.38
325.855	467.38
326.084	452.38
326.313	453.38
326.542	454.38
326.77	483.38
326.999	553.38
327.228	773.38
327.457	1053.38
327.686	1204.38
327.914	812.38
328.143	566.38
328.372	505.38
328.6	488.38
328.829	479.38
329.058	496.38
329.287	490.38
329.515	476.38
329.744	450.38
329.972	438.38
330.201	449.38
330.43	477.38
330.658	475.38
330.887	515.38
331.115	488.38
331.344	451.38
331.572	453.38
331.801	439.38
332.03	420.38
332.258	405.38
332.486	426.38
332.715	397.38
332.943	402.38
333.172	411.38
333.4	426.38
333.629	415.38
333.857	421.38
334.085	430.38
334.314	447.38
334.542	428.38
334.771	448.38
334.999	423.38
335.227	435.38
335.455	421.38
335.684	417.38
335.912	412.38
336.14	426.38
336.369	413.38
336.597	371.38
336.825	409.38
337.053	398.38
337.281	385.38
337.51	405.38
337.738	389.38
337.966	396.38
338.194	382.38
338.422	404.38
338.65	403.38
338.878	365.38
339.106	391.38
339.334	387.38
339.562	404.38
339.79	382.38
340.018	385.38
340.246	377.38
340.474	397.38
340.702	359.38
340.93	386.38
341.158	391.38
341.386	376.38
341.614	380.38
341.842	363.38
342.07	377.38
342.298	367.38
342.526	364.38
342.754	369.38
342.981	391.38
343.209	375.38
343.437	374.38
343.665	380.38
343.893	384.38
344.12	386.38
344.348	385.38
344.576	417.38
344.804	390.38
345.031	391.38
345.259	383.38
345.487	404.38
345.714	385.38
345.942	380.38
346.17	381.38
346.397	382.38
346.625	377.38
346.853	366.38
347.08	392.38
347.308	368.38
347.535	391.38
347.763	379.38
347.99	384.38
348.218	391.38
348.445	386.38
348.673	367.38
348.9	375.38
349.128	364.38
349.355	363.38
349.583	353.38
349.81	365.38
350.037	356.38
350.265	375.38
350.492	381.38
350.72	364.38
350.947	382.38
351.174	361.38
351.402	371.38
351.629	375.38
351.856	365.38
352.083	381.38
352.311	369.38
352.538	381.38
352.765	366.38
352.992	372.38
353.22	389.38
353.447	369.38
353.674	347.38
353.901	345.38
354.128	343.38
354.355	345.38
354.583	349.38
354.81	369.38
355.037	343.38
355.264	348.38
355.491	356.38
355.718	349.38
355.945	329.38
356.172	326.38
356.399	342.38
356.626	357.38
356.853	333.38
357.08	343.38
357.307	340.38
357.534	323.38
357.761	330.38
357.988	336.38
358.215	332.38
358.441	345.38
358.668	351.38
358.895	334.38
359.122	348.38
359.349	338.38
359.576	375.38
359.802	389.38
360.029	384.38
360.256	399.38
360.483	393.38
360.709	361.38
360.936	348.38
361.163	339.38
361.39	338.38
361.616	379.38
361.843	355.38
362.07	373.38
362.296	360.38
362.523	354.38
362.749	326.38
362.976	363.38
363.203	353.38
363.429	347.38
363.656	339.38
363.882	365.38
364.109	344.38
364.335	336.38
364.562	342.38
364.788	342.38
365.015	358.38
365.241	346.38
365.468	335.38
365.694	342.38
365.92	334.38
366.147	340.38
366.373	351.38
366.599	329.38
366.826	318.38
367.052	339.38
367.278	344.38
367.505	364.38
367.731	327.38
367.957	340.38
368.184	342.38
368.41	350.38
368.636	348.38
368.862	346.38
369.089	335.38
369.315	337.38
369.541	340.38
369.767	334.38
369.993	331.38
370.219	344.38
370.445	329.38
370.672	341.38
370.898	343.38
371.124	341.38
371.35	319.38
371.576	351.38
371.802	320.38
372.028	341.38
372.254	338.38
372.48	342.38
372.706	333.38
372.932	346.38
373.158	334.38
373.384	347.38
373.61	345.38
373.835	347.38
374.061	334.38
374.287	335.38
374.513	352.38
374.739	347.38
374.965	343.38
375.191	335.38
375.416	349.38
375.642	341.38
375.868	337.38
376.094	361.38
376.319	318.38
376.545	328.38
376.771	336.38
376.997	321.38
377.222	336.38
377.448	351.38
377.674	327.38
377.899	340.38
378.125	345.38
378.35	328.38
378.576	334.38
378.802	333.38
379.027	340.38
379.253	331.38
379.478	331.38
379.704	336.38
379.929	328.38
380.155	339.38
380.38	343.38
380.606	351.38
380.831	313.38
381.057	340.38
381.282	347.38
381.507	350.38
381.733	337.38
381.958	321.38
382.184	334.38
382.409	348.38
382.634	332.38
382.86	326.38
383.085	348.38
383.31	327.38
383.535	323.38
383.761	344.38
383.986	351.38
384.211	332.38
384.436	341.38
384.662	357.38
384.887	335.38
385.112	351.38
385.337	343.38
385.562	364.38
385.787	347.38
386.013	375.38
386.238	347.38
386.463	348.38
386.688	332.38
386.913	334.38
387.138	369.38
387.363	349.38
387.588	348.38
387.813	344.38
388.038	355.38
388.263	345.38
388.488	323.38
388.713	354.38
388.938	362.38
389.163	361.38
389.387	349.38
389.612	347.38
389.837	345.38
390.062	341.38
390.287	335.38
390.512	352.38
390.736	359.38
390.961	365.38
391.186	371.38
391.411	348.38
391.636	359.38
391.86	366.38
392.085	345.38
392.31	337.38
392.534	365.38
392.759	351.38
392.984	367.38
393.208	360.38
393.433	371.38
393.658	360.38
393.882	352.38
394.107	348.38
394.331	358.38
394.556	333.38
394.78	348.38
395.005	353.38
395.229	346.38
395.454	367.38
395.678	367.38
395.903	366.38
396.127	391.38
396.352	391.38
396.576	356.38
396.801	363.38
397.025	352.38
397.249	381.38
397.474	366.38
397.698	377.38
397.922	374.38
398.147	390.38
398.371	379.38
398.595	382.38
398.82	375.38
399.044	382.38
399.268	422.38
399.492	425.38
399.717	409.38
399.941	439.38
400.165	488.38
400.389	476.38
400.613	442.38
400.837	410.38
401.062	389.38
401.286	393.38
401.51	392.38
401.734	398.38
401.958	410.38
402.182	384.38
402.406	380.38
402.63	377.38
402.854	399.38
403.078	407.38
403.302	393.38
403.526	407.38
403.75	422.38
403.974	387.38
404.198	411.38
404.422	391.38
404.645	405.38
404.869	399.38
405.093	430.38
405.317	457.38
405.541	475.38
405.765	439.38
405.988	421.38
406.212	429.38
406.436	439.38
406.66	458.38
406.883	432.38
407.107	439.38
407.331	471.38
407.555	524.38
407.778	503.38
408.002	461.38
408.226	435.38
408.449	448.38
408.673	438.38
408.896	450.38
409.12	482.38
409.344	470.38
409.567	413.38
409.791	424.38
410.014	416.38
410.238	395.38
410.461	416.38
410.685	406.38
410.908	420.38
411.132	444.38
411.355	428.38
411.578	440.38
411.802	415.38
412.025	416.38
412.249	385.38
412.472	404.38
412.695	441.38
412.919	441.38
413.142	393.38
413.365	384.38
413.589	357.38
413.812	364.38
414.035	370.38
414.258	382.38
414.482	371.38
414.705	383.38
414.928	375.38
415.151	356.38
415.374	357.38
415.597	362.38
415.821	353.38
416.044	367.38
416.267	389.38
416.49	384.38
416.713	365.38
416.936	383.38
417.159	382.38
417.382	381.38
417.605	378.38
417.828	393.38
418.051	401.38
418.274	388.38
418.497	376.38
418.72	374.38
418.943	366.38
419.166	368.38
419.389	425.38
419.611	400.38
419.834	393.38
420.057	388.38
420.28	397.38
420.503	380.38
420.726	376.38
420.948	406.38
421.171	427.38
421.394	451.38
421.617	411.38
421.839	403.38
422.062	394.38
422.285	412.38
422.507	427.38
422.73	499.38
422.953	469.38
423.175	413.38
423.398	405.38
423.621	407.38
423.843	426.38
424.066	435.38
424.288	424.38
424.511	435.38
424.733	465.38
424.956	534.38
425.178	513.38
425.401	507.38
425.623	515.38
425.846	441.38
426.068	413.38
426.291	422.38
426.513	428.38
426.735	453.38
426.958	461.38
427.18	512.38
427.402	589.38
427.625	640.38
427.847	584.38
428.069	489.38
428.292	446.38
428.514	434.38
428.736	412.38
428.958	407.38
429.181	391.38
429.403	361.38
429.625	391.38
429.847	429.38
430.069	464.38
430.292	462.38
430.514	409.38
430.736	415.38
430.958	380.38
431.18	368.38
431.402	373.38
431.624	357.38
431.846	349.38
432.068	347.38
432.29	374.38
432.512	365.38
432.734	377.38
432.956	389.38
433.178	381.38
433.4	391.38
433.622	374.38
433.844	366.38
434.066	349.38
434.287	367.38
434.509	366.38
434.731	376.38
434.953	390.38
435.175	393.38
435.397	405.38
435.618	406.38
435.84	450.38
436.062	512.38
436.284	567.38
436.505	468.38
436.727	443.38
436.949	384.38
437.17	397.38
437.392	387.38
437.614	390.38
437.835	408.38
438.057	469.38
438.278	547.38
438.5	564.38
438.721	611.38
438.943	603.38
439.165	466.38
439.386	425.38
439.608	437.38
439.829	416.38
440.05	450.38
440.272	471.38
440.493	441.38
440.715	408.38
440.936	403.38
441.158	397.38
441.379	378.38
441.6	411.38
441.822	412.38
442.043	458.38
442.264	515.38
442.486	533.38
442.707	459.38
442.928	434.38
443.149	421.38
443.371	454.38
443.592	471.38
443.813	553.38
444.034	588.38
444.255	511.38
444.476	432.38
444.698	417.38
444.919	433.38
445.14	547.38
445.361	502.38
445.582	458.38
445.803	499.38
446.024	557.38
446.245	590.38
446.466	519.38
446.687	464.38
446.908	430.38
447.129	404.38
447.35	391.38
447.571	366.38
447.792	366.38
448.013	400.38
448.234	414.38
448.455	457.38
448.675	539.38
448.896	603.38
449.117	504.38
449.338	482.38
449.559	580.38
449.779	625.38
450	506.38
450.221	434.38
450.442	388.38
450.662	402.38
450.883	390.38
451.104	384.38
451.324	375.38
451.545	354.38
451.766	366.38
451.986	345.38
452.207	335.38
452.428	348.38
452.648	358.38
452.869	346.38
453.089	350.38
453.31	359.38
453.53	349.38
453.751	347.38
453.971	339.38
454.192	357.38
454.412	331.38
454.633	346.38
454.853	343.38
455.073	347.38
455.294	356.38
455.514	413.38
455.734	401.38
455.955	376.38
456.175	334.38
456.395	341.38
456.616	337.38
456.836	332.38
457.056	328.38
457.276	323.38
457.497	323.38
457.717	312.38
457.937	331.38
458.157	346.38
458.377	334.38
458.598	359.38
458.818	399.38
459.038	438.38
459.258	443.38
459.478	389.38
459.698	373.38
459.918	350.38
460.138	375.38
460.358	362.38
460.578	349.38
460.798	365.38
461.018	370.38
461.238	365.38
461.458	351.38
461.678	371.38
461.898	368.38
462.118	377.38
462.338	379.38
462.558	377.38
462.777	375.38
462.997	415.38
463.217	382.38
463.437	386.38
463.657	383.38
463.876	384.38
464.096	375.38
464.316	398.38
464.536	381.38
464.755	364.38
464.975	393.38
465.195	427.38
465.414	430.38
465.634	407.38
465.854	387.38
466.073	365.38
466.293	348.38
466.512	349.38
466.732	343.38
466.951	340.38
467.171	335.38
467.391	343.38
467.61	349.38
467.829	363.38
468.049	348.38
468.268	358.38
468.488	347.38
468.707	353.38
468.927	331.38
469.146	339.38
469.365	340.38
469.585	323.38
469.804	358.38
470.023	360.38
470.243	368.38
470.462	380.38
470.681	366.38
470.901	367.38
471.12	378.38
471.339	366.38
471.558	363.38
471.777	377.38
471.997	347.38
472.216	360.38
472.435	396.38
472.654	345.38
472.873	336.38
473.092	345.38
473.311	371.38
473.53	360.38
473.749	360.38
473.968	401.38
474.187	462.38
474.406	479.38
474.625	416.38
474.844	378.38
475.063	365.38
475.282	380.38
475.501	366.38
475.72	380.38
475.939	371.38
476.158	365.38
476.377	364.38
476.596	386.38
476.814	365.38
477.033	368.38
477.252	390.38
477.471	365.38
477.69	389.38
477.908	387.38
478.127	383.38
478.346	407.38
478.564	390.38
478.783	391.38
479.002	398.38
479.22	407.38
479.439	402.38
479.658	413.38
479.876	389.38
480.095	419.38
480.313	443.38
480.532	439.38
480.751	431.38
480.969	431.38
481.188	469.38
481.406	477.38
481.624	437.38
481.843	410.38
482.061	407.38
482.28	432.38
482.498	413.38
482.717	409.38
482.935	431.38
483.153	419.38
483.372	424.38
483.59	408.38
483.808	413.38
484.027	415.38
484.245	409.38
484.463	417.38
484.681	423.38
484.9	420.38
485.118	435.38
485.336	415.38
485.554	409.38
485.772	433.38
485.99	420.38
486.209	427.38
486.427	445.38
486.645	419.38
486.863	433.38
487.081	441.38
487.299	447.38
487.517	441.38
487.735	449.38
487.953	447.38
488.171	459.38
488.389	451.38
488.607	442.38
488.825	443.38
489.043	426.38
489.261	469.38
489.479	455.38
489.696	442.38
489.914	443.38
490.132	453.38
490.35	460.38
490.568	460.38
490.786	467.38
491.003	484.38
491.221	497.38
491.439	494.38
491.657	495.38
491.874	505.38
492.092	509.38
492.31	513.38
492.527	504.38
492.745	540.38
492.963	508.38
493.18	525.38
493.398	519.38
493.615	514.38
493.833	504.38
494.05	533.38
494.268	503.38
494.485	504.38
494.703	511.38
494.92	535.38
495.138	507.38
495.355	564.38
495.573	544.38
495.79	530.38
496.008	529.38
496.225	523.38
496.442	524.38
496.66	524.38
496.877	545.38
497.094	531.38
497.312	530.38
497.529	548.38
497.746	542.38
497.963	557.38
498.181	569.38
498.398	541.38
498.615	568.38
498.832	569.38
499.049	568.38
499.267	599.38
499.484	618.38
499.701	612.38
499.918	620.38
500.135	640.38
500.352	672.38
500.569	696.38
500.786	702.38
501.003	686.38
501.22	651.38
501.437	657.38
501.654	632.38
501.871	625.38
502.088	623.38
502.305	601.38
502.522	574.38
502.739	568.38
502.956	560.38
503.172	529.38
503.389	542.38
503.606	539.38
503.823	537.38
504.04	527.38
504.256	511.38
504.473	536.38
504.69	523.38
504.907	523.38
505.123	525.38
505.34	504.38
505.557	484.38
505.773	502.38
505.99	477.38
506.207	503.38
506.423	505.38
506.64	516.38
506.856	484.38
507.073	473.38
507.289	473.38
507.506	491.38
507.722	483.38
507.939	491.38
508.155	474.38
508.372	486.38
508.588	442.38
508.805	469.38
509.021	481.38
509.238	464.38
509.454	461.38
509.67	473.38
509.887	439.38
510.103	462.38
510.319	470.38
510.536	537.38
510.752	827.38
510.968	656.38
511.184	455.38
511.401	453.38
511.617	458.38
511.833	444.38
512.049	440.38
512.265	451.38
512.481	454.38
512.698	423.38
512.914	435.38
513.13	438.38
513.346	429.38
513.562	449.38
513.778	437.38
513.994	467.38
514.21	431.38
514.426	464.38
514.642	494.38
514.858	496.38
515.074	530.38
515.29	609.38
515.506	847.38
515.721	699.38
515.937	503.38
516.153	472.38
516.369	463.38
516.585	454.38
516.801	461.38
517.016	437.38
517.232	455.38
517.448	450.38
517.664	443.38
517.879	436.38
518.095	461.38
518.311	455.38
518.527	423.38
518.742	447.38
518.958	450.38
519.173	430.38
519.389	418.38
519.605	457.38
519.82	437.38
520.036	428.38
520.251	462.38
520.467	477.38
520.682	471.38
520.898	468.38
521.113	488.38
521.329	513.38
521.544	552.38
521.76	672.38
521.975	1039.38
522.19	1000.38
522.406	596.38
522.621	473.38
522.836	439.38
523.052	432.38
523.267	424.38
523.482	417.38
523.698	397.38
523.913	413.38
524.128	420.38
524.343	387.38
524.559	383.38
524.774	385.38
524.989	401.38
525.204	398.38
525.419	397.38
525.634	394.38
525.849	390.38
526.064	385.38
526.28	371.38
526.495	346.38
526.71	393.38
526.925	366.38
527.14	327.38
527.355	385.38
527.57	349.38
527.785	344.38
527.999	344.38
528.214	359.38
528.429	358.38
528.644	378.38
528.859	377.38
529.074	359.38
529.289	368.38
529.503	429.38
529.718	419.38
529.933	374.38
530.148	374.38
530.363	378.38
530.577	370.38
530.792	367.38
531.007	339.38
531.221	350.38
531.436	349.38
531.651	357.38
531.865	341.38
532.08	354.38
532.295	364.38
532.509	351.38
532.724	342.38
532.938	359.38
533.153	347.38
533.367	339.38
533.582	334.38
533.796	358.38
534.011	351.38
534.225	355.38
534.44	345.38
534.654	342.38
534.868	357.38
535.083	352.38
535.297	339.38
535.511	345.38
535.726	360.38
535.94	352.38
536.154	354.38
536.369	359.38
536.583	346.38
536.797	347.38
537.011	351.38
537.225	336.38
537.44	324.38
537.654	343.38
537.868	327.38
538.082	347.38
538.296	341.38
538.51	351.38
538.724	361.38
538.938	341.38
539.153	352.38
539.367	349.38
539.581	328.38
539.795	339.38
540.009	333.38
540.222	348.38
540.436	329.38
540.65	338.38
540.864	351.38
541.078	343.38
541.292	363.38
541.506	365.38
541.72	359.38
541.934	331.38
542.147	344.38
542.361	356.38
542.575	355.38
542.789	356.38
543.002	358.38
543.216	354.38
543.43	336.38
543.644	352.38
543.857	332.38
544.071	343.38
544.285	359.38
544.498	346.38
544.712	345.38
544.925	352.38
545.139	350.38
545.352	344.38
545.566	331.38
545.779	347.38
545.993	344.38
546.206	338.38
546.42	324.38
546.633	337.38
546.847	339.38
547.06	341.38
547.274	358.38
547.487	347.38
547.7	339.38
547.914	345.38
548.127	331.38
548.34	334.38
548.554	340.38
548.767	336.38
548.98	340.38
549.193	320.38
549.407	321.38
549.62	329.38
549.833	340.38
550.046	319.38
550.259	344.38
550.473	332.38
550.686	324.38
550.899	312.38
551.112	345.38
551.325	333.38
551.538	320.38
551.751	332.38
551.964	319.38
552.177	321.38
552.39	335.38
552.603	323.38
552.816	329.38
553.029	336.38
553.242	346.38
553.455	343.38
553.667	335.38
553.88	341.38
554.093	336.38
554.306	326.38
554.519	316.38
554.732	326.38
554.944	325.38
555.157	312.38
555.37	314.38
555.583	319.38
555.795	337.38
556.008	319.38
556.221	298.38
556.433	306.38
556.646	311.38
556.859	297.38
557.071	299.38
557.284	290.38
557.496	310.38
557.709	293.38
557.921	293.38
558.134	286.38
558.346	283.38
558.559	287.38
558.771	293.38
558.984	309.38
559.196	272.38
559.409	306.38
559.621	299.38
559.833	289.38
560.046	299.38
560.258	283.38
560.47	307.38
560.683	301.38
560.895	298.38
561.107	297.38
561.32	296.38
561.532	301.38
561.744	315.38
561.956	309.38
562.168	310.38
562.381	292.38
562.593	307.38
562.805	277.38
563.017	291.38
563.229	274.38
563.441	277.38
563.653	273.38
563.865	303.38
564.077	279.38
564.289	292.38
564.501	304.38
564.713	306.38
564.925	290.38
565.137	320.38
565.349	303.38
565.561	325.38
565.773	325.38
565.985	325.38
566.197	331.38
566.408	341.38
566.62	333.38
566.832	330.38
567.044	325.38
567.255	328.38
567.467	331.38
567.679	336.38
567.891	341.38
568.102	351.38
568.314	350.38
568.526	326.38
568.737	298.38
568.949	325.38
569.161	298.38
569.372	287.38
569.584	281.38
569.795	297.38
570.007	291.38
570.218	308.38
570.43	311.38
570.641	288.38
570.853	273.38
571.064	287.38
571.276	287.38
571.487	295.38
571.698	271.38
571.91	280.38
572.121	289.38
572.333	267.38
572.544	258.38
572.755	267.38
572.966	258.38
573.178	251.38
573.389	263.38
573.6	263.38
573.811	266.38
574.023	239.38
574.234	254.38
574.445	266.38
574.656	248.38
574.867	248.38
575.078	241.38
575.289	246.38
575.501	254.38
575.712	240.38
575.923	260.38
576.134	259.38
576.345	247.38
576.556	235.38
576.767	233.38
576.978	245.38
577.188	236.38
577.399	230.38
577.61	232.38
577.821	238.38
578.032	265.38
578.243	275.38
578.454	399.38
578.665	305.38
578.875	248.38
579.086	239.38
579.297	227.38
579.508	254.38
579.718	225.38
579.929	223.38
580.14	239.38
580.35	238.38
580.561	256.38
580.772	247.38
580.982	236.38
581.193	213.38
581.403	220.38
581.614	235.38
581.825	240.38
582.035	225.38
582.246	230.38
582.456	238.38
582.667	257.38
582.877	230.38
583.087	240.38
583.298	232.38
583.508	228.38
583.719	226.38
583.929	237.38
584.139	235.38
584.35	234.38
584.56	227.38
584.77	228.38
584.981	227.38
585.191	224.38
585.401	219.38
585.611	234.38
585.821	221.38
586.032	239.38
586.242	214.38
586.452	229.38
586.662	226.38
586.872	214.38
587.082	208.38
587.292	220.38
587.502	211.38
587.713	220.38
587.923	220.38
588.133	215.38
588.343	209.38
588.553	213.38
588.762	237.38
588.972	241.38
589.182	233.38
589.392	216.38
589.602	235.38
589.812	228.38
590.022	225.38
590.232	237.38
590.441	213.38
590.651	224.38
590.861	208.38
591.071	230.38
591.281	228.38
591.49	215.38
591.7	227.38
591.91	223.38
592.119	225.38
592.329	221.38
592.539	224.38
592.748	229.38
592.958	229.38
593.167	236.38
593.377	218.38
593.587	238.38
593.796	235.38
594.006	222.38
594.215	213.38
594.424	232.38
594.634	211.38
594.843	230.38
595.053	222.38
595.262	220.38
595.472	223.38
595.681	228.38
595.89	225.38
596.1	217.38
596.309	221.38
596.518	215.38
596.727	218.38
596.937	219.38
597.146	201.38
597.355	220.38
597.564	191.38
597.774	202.38
597.983	203.38
598.192	216.38
598.401	185.38
598.61	190.38
598.819	218.38
599.028	203.38
599.237	200.38
599.446	208.38
599.655	186.38
599.864	196.38
600.073	204.38
600.282	202.38
600.491	197.38
600.7	199.38
600.909	197.38
601.118	203.38
601.327	197.38
601.536	199.38
601.745	204.38
601.953	202.38
602.162	206.38
602.371	223.38
602.58	202.38
602.789	201.38
602.997	199.38
603.206	215.38
603.415	210.38
603.623	199.38
603.832	205.38
604.041	192.38
604.249	180.38
604.458	186.38
604.666	192.38
604.875	180.38
605.084	196.38
605.292	186.38
605.501	196.38
605.709	198.38
605.918	206.38
606.126	200.38
606.334	186.38
606.543	211.38
606.751	191.38
606.96	200.38
607.168	199.38
607.376	196.38
607.585	202.38
607.793	193.38
608.001	194.38
608.21	203.38
608.418	200.38
608.626	194.38
608.834	195.38
609.043	202.38
609.251	185.38
609.459	186.38
609.667	208.38
609.875	189.38
610.083	207.38
610.291	201.38
610.499	198.38
610.707	195.38
610.916	195.38
611.124	192.38
611.332	193.38
611.54	210.38
611.748	220.38
611.955	205.38
612.163	198.38
612.371	204.38
612.579	181.38
612.787	181.38
612.995	189.38
613.203	200.38
613.411	187.38
613.618	203.38
613.826	183.38
614.034	192.38
614.242	208.38
614.449	204.38
614.657	202.38
614.865	197.38
615.072	177.38
615.28	175.38
615.488	180.38
615.695	191.38
615.903	177.38
616.111	196.38
616.318	201.38
616.526	180.38
616.733	197.38
616.941	194.38
617.148	192.38
617.356	188.38
617.563	174.38
617.771	176.38
617.978	183.38
618.185	179.38
618.393	208.38
618.6	198.38
618.807	190.38
619.015	179.38
619.222	172.38
619.429	189.38
619.637	183.38
619.844	179.38
620.051	183.38
620.258	163.38
620.466	193.38
620.673	176.38
620.88	182.38
621.087	188.38
621.294	191.38
621.501	181.38
621.708	175.38
621.915	181.38
622.122	169.38
622.329	200.38
622.536	177.38
622.743	189.38
622.95	166.38
623.157	176.38
623.364	181.38
623.571	183.38
623.778	181.38
623.985	183.38
624.192	161.38
624.399	174.38
624.606	173.38
624.812	155.38
625.019	180.38
625.226	174.38
625.433	183.38
625.639	167.38
625.846	179.38
626.053	171.38
626.259	172.38
626.466	177.38
626.673	166.38
626.879	164.38
627.086	172.38
627.293	169.38
627.499	156.38
627.706	183.38
627.912	173.38
628.119	179.38
628.325	174.38
628.532	163.38
628.738	182.38
628.945	179.38
629.151	152.38
629.357	150.38
629.564	157.38
629.77	166.38
629.976	172.38
630.183	161.38
630.389	160.38
630.595	159.38
630.802	156.38
631.008	154.38
631.214	136.38
631.42	146.38
631.627	171.38
631.833	165.38
632.039	159.38
632.245	154.38
632.451	143.38
632.657	168.38
632.863	152.38
633.069	143.38
633.275	165.38
633.481	142.38
633.688	147.38
633.893	167.38
634.099	171.38
634.305	152.38
634.511	153.38
634.717	148.38
634.923	154.38
635.129	159.38
635.335	139.38
635.541	132.38
635.747	159.38
635.952	151.38
636.158	152.38
636.364	154.38
636.57	156.38
636.775	143.38
636.981	156.38
637.187	144.38
637.392	175.38
637.598	144.38
637.804	156.38
638.009	162.38
638.215	154.38
638.421	165.38
638.626	157.38
638.832	151.38
639.037	157.38
639.243	162.38
639.448	144.38
639.654	148.38
639.859	142.38
640.065	143.38
640.27	154.38
640.475	156.38
640.681	156.38
640.886	138.38
641.091	156.38
641.297	139.38
641.502	150.38
641.707	150.38
641.913	138.38
642.118	149.38
642.323	135.38
642.528	169.38
642.733	149.38
642.939	155.38
643.144	137.38
643.349	133.38
643.554	145.38
643.759	141.38
643.964	140.38
644.169	130.38
644.374	142.38
644.579	146.38
644.784	157.38
644.989	139.38
645.194	139.38
645.399	131.38
645.604	138.38
645.809	151.38
646.014	134.38
646.219	133.38
646.423	155.38
646.628	145.38
646.833	154.38
647.038	156.38
647.243	136.38
647.447	145.38
647.652	157.38
647.857	136.38
648.062	135.38
648.266	142.38
648.471	143.38
648.676	156.38
648.88	145.38
649.085	145.38
649.289	140.38
649.494	137.38
649.698	173.38
649.903	167.38
650.107	149.38
650.312	137.38
650.516	154.38
650.721	137.38
650.925	131.38
651.13	137.38
651.334	130.38
651.539	127.38
651.743	138.38
651.947	126.38
652.152	143.38
652.356	145.38
652.56	139.38
652.764	136.38
652.969	139.38
653.173	124.38
653.377	121.38
653.581	123.38
653.785	119.38
653.99	121.38
654.194	127.38
654.398	131.38
654.602	129.38
654.806	112.38
655.01	119.38
655.214	124.38
655.418	123.38
655.622	120.38
655.826	136.38
656.03	117.38
656.234	126.38
656.438	113.38
656.642	125.38
656.846	123.38
657.049	122.38
657.253	128.38
657.457	120.38
657.661	108.38
657.865	119.38
658.068	107.38
658.272	93.38
658.476	110.38
658.68	106.38
658.883	101.38
659.087	110.38
659.291	91.38
659.494	91.38
659.698	80.38
659.901	108.38
660.105	79.38
660.309	96.38
660.512	91.38
660.716	98.38
660.919	91.38
661.123	92.38
661.326	86.38
661.53	103.38
661.733	92.38
661.936	84.38
662.14	95.38
662.343	88.38
662.546	89.38
662.75	97.38
662.953	93.38
663.156	81.38
663.36	89.38
663.563	90.38
663.766	95.38
663.969	88.38
664.173	84.38
664.376	86.38
664.579	92.38
664.782	76.38
664.985	72.38
665.188	71.38
665.391	94.38
665.594	92.38
665.797	83.38
666	95.38
666.203	82.38
666.406	81.38
666.609	77.38
666.812	79.38
667.015	79.38
667.218	74.38
667.421	88.38
667.624	84.38
667.827	78.38
668.03	81.38
668.232	85.38
668.435	90.38
668.638	85.38
668.841	73.38
669.043	96.38
669.246	83.38
669.449	80.38
669.651	86.38
669.854	81.38
670.057	90.38
670.259	86.38
670.462	81.38
670.665	88.38
670.867	98.38
671.07	85.38
671.272	78.38
671.475	76.38
671.677	92.38
671.88	87.38
672.082	80.38
672.284	84.38
672.487	87.38
672.689	87.38
672.892	73.38
