Data from 1971.PennyLincolnUp.Lamp.En5.5.200Scan.071719.P1._HRD10591_15-18-21-841.txt Node
Date: Thu Jul 18 15:18:21 EDT 2019
User: cochatt
Spectrometer: HR+D1059
Trigger mode: 1
Integration Time (sec): 1.000000E-1
Scans to average: 1
Electric dark correction enabled: true
Nonlinearity correction enabled: false
Boxcar width: 0
XAxis mode: Wavelengths
Number of Pixels in Spectrum: 2048
>>>>>Begin Spectral Data<<<<<
223.165	-13.94
223.4	-13.94
223.635	-13.94
223.869	-9.94
224.104	-26.94
224.338	-4.94
224.573	-15.94
224.808	-12.94
225.042	-8.94
225.277	9.06
225.511	-7.94
225.746	-2.94
225.98	3.06
226.215	3.06
226.449	14.06
226.683	25.06
226.918	21.06
227.152	29.06
227.387	33.06
227.621	43.06
227.856	54.06
228.09	67.06
228.324	43.06
228.559	58.06
228.793	65.06
229.027	77.06
229.262	84.06
229.496	99.06
229.73	102.06
229.964	126.06
230.199	117.06
230.433	107.06
230.667	110.06
230.901	102.06
231.136	110.06
231.37	116.06
231.604	101.06
231.838	98.06
232.072	112.06
232.306	110.06
232.541	110.06
232.775	113.06
233.009	118.06
233.243	117.06
233.477	106.06
233.711	102.06
233.945	109.06
234.179	116.06
234.413	116.06
234.647	114.06
234.881	115.06
235.115	129.06
235.349	122.06
235.583	114.06
235.817	113.06
236.051	114.06
236.285	127.06
236.519	123.06
236.753	137.06
236.987	129.06
237.221	163.06
237.455	187.06
237.689	152.06
237.922	126.06
238.156	130.06
238.39	120.06
238.624	129.06
238.858	119.06
239.091	122.06
239.325	119.06
239.559	123.06
239.793	136.06
240.027	133.06
240.26	129.06
240.494	132.06
240.728	145.06
240.961	154.06
241.195	157.06
241.429	143.06
241.662	134.06
241.896	131.06
242.13	135.06
242.363	131.06
242.597	113.06
242.83	114.06
243.064	121.06
243.298	136.06
243.531	155.06
243.765	136.06
243.998	129.06
244.232	141.06
244.465	119.06
244.699	153.06
244.932	139.06
245.166	143.06
245.399	139.06
245.633	152.06
245.866	139.06
246.099	147.06
246.333	151.06
246.566	155.06
246.8	153.06
247.033	164.06
247.266	154.06
247.5	167.06
247.733	160.06
247.966	165.06
248.2	172.06
248.433	168.06
248.666	175.06
248.899	175.06
249.133	179.06
249.366	198.06
249.599	189.06
249.832	185.06
250.066	167.06
250.299	196.06
250.532	197.06
250.765	172.06
250.998	212.06
251.231	222.06
251.465	198.06
251.698	188.06
251.931	173.06
252.164	193.06
252.397	198.06
252.63	208.06
252.863	202.06
253.096	214.06
253.329	217.06
253.562	211.06
253.795	218.06
254.028	192.06
254.261	212.06
254.494	224.06
254.727	231.06
254.96	253.06
255.193	250.06
255.426	229.06
255.659	221.06
255.892	222.06
256.124	216.06
256.357	199.06
256.59	222.06
256.823	217.06
257.056	204.06
257.289	202.06
257.521	216.06
257.754	186.06
257.987	217.06
258.22	197.06
258.452	191.06
258.685	203.06
258.918	211.06
259.151	190.06
259.383	209.06
259.616	214.06
259.849	209.06
260.081	230.06
260.314	248.06
260.547	254.06
260.779	227.06
261.012	221.06
261.244	214.06
261.477	228.06
261.71	215.06
261.942	220.06
262.175	218.06
262.407	224.06
262.64	213.06
262.872	224.06
263.105	196.06
263.337	207.06
263.57	209.06
263.802	209.06
264.035	206.06
264.267	203.06
264.499	214.06
264.732	212.06
264.964	199.06
265.197	201.06
265.429	200.06
265.661	222.06
265.894	207.06
266.126	216.06
266.358	205.06
266.591	206.06
266.823	217.06
267.055	209.06
267.287	222.06
267.52	213.06
267.752	223.06
267.984	227.06
268.216	211.06
268.448	221.06
268.681	221.06
268.913	223.06
269.145	246.06
269.377	268.06
269.609	281.06
269.841	278.06
270.073	252.06
270.306	279.06
270.538	285.06
270.77	294.06
271.002	285.06
271.234	270.06
271.466	265.06
271.698	281.06
271.93	286.06
272.162	292.06
272.394	303.06
272.626	284.06
272.858	272.06
273.09	280.06
273.322	260.06
273.553	261.06
273.785	267.06
274.017	255.06
274.249	250.06
274.481	240.06
274.713	265.06
274.945	259.06
275.176	259.06
275.408	267.06
275.64	249.06
275.872	243.06
276.104	260.06
276.335	243.06
276.567	253.06
276.799	253.06
277.031	288.06
277.262	283.06
277.494	317.06
277.726	271.06
277.957	271.06
278.189	274.06
278.421	266.06
278.652	253.06
278.884	261.06
279.115	270.06
279.347	272.06
279.579	257.06
279.81	255.06
280.042	253.06
280.273	262.06
280.505	263.06
280.736	261.06
280.968	253.06
281.199	264.06
281.431	235.06
281.662	255.06
281.894	264.06
282.125	269.06
282.356	289.06
282.588	268.06
282.819	304.06
283.051	279.06
283.282	278.06
283.513	262.06
283.745	271.06
283.976	271.06
284.207	271.06
284.439	261.06
284.67	260.06
284.901	276.06
285.132	267.06
285.364	275.06
285.595	269.06
285.826	259.06
286.057	282.06
286.288	276.06
286.52	267.06
286.751	265.06
286.982	290.06
287.213	261.06
287.444	257.06
287.675	289.06
287.906	272.06
288.138	282.06
288.369	293.06
288.6	265.06
288.831	291.06
289.062	286.06
289.293	277.06
289.524	275.06
289.755	270.06
289.986	266.06
290.217	272.06
290.448	288.06
290.679	271.06
290.91	263.06
291.141	284.06
291.371	257.06
291.602	257.06
291.833	273.06
292.064	269.06
292.295	260.06
292.526	272.06
292.757	272.06
292.987	269.06
293.218	288.06
293.449	293.06
293.68	275.06
293.91	289.06
294.141	278.06
294.372	278.06
294.603	274.06
294.833	286.06
295.064	267.06
295.295	269.06
295.525	279.06
295.756	284.06
295.987	289.06
296.217	293.06
296.448	298.06
296.679	311.06
296.909	281.06
297.14	285.06
297.37	271.06
297.601	298.06
297.831	285.06
298.062	283.06
298.292	307.06
298.523	305.06
298.753	305.06
298.984	281.06
299.214	305.06
299.445	297.06
299.675	302.06
299.905	298.06
300.136	301.06
300.366	305.06
300.597	310.06
300.827	294.06
301.057	301.06
301.288	303.06
301.518	306.06
301.748	283.06
301.979	304.06
302.209	334.06
302.439	333.06
302.669	309.06
302.9	315.06
303.13	303.06
303.36	306.06
303.59	296.06
303.82	320.06
304.051	314.06
304.281	296.06
304.511	312.06
304.741	309.06
304.971	323.06
305.201	313.06
305.431	320.06
305.661	317.06
305.891	317.06
306.121	320.06
306.352	311.06
306.582	334.06
306.812	327.06
307.042	322.06
307.272	301.06
307.502	299.06
307.731	324.06
307.961	323.06
308.191	327.06
308.421	319.06
308.651	334.06
308.881	310.06
309.111	320.06
309.341	336.06
309.571	334.06
309.8	323.06
310.03	343.06
310.26	338.06
310.49	348.06
310.72	365.06
310.949	361.06
311.179	357.06
311.409	349.06
311.639	342.06
311.868	358.06
312.098	336.06
312.328	330.06
312.557	373.06
312.787	378.06
313.017	333.06
313.246	366.06
313.476	337.06
313.706	343.06
313.935	359.06
314.165	363.06
314.394	375.06
314.624	366.06
314.853	360.06
315.083	358.06
315.312	365.06
315.542	344.06
315.771	350.06
316.001	337.06
316.23	336.06
316.46	349.06
316.689	361.06
316.919	373.06
317.148	370.06
317.377	354.06
317.607	365.06
317.836	361.06
318.065	368.06
318.295	364.06
318.524	364.06
318.753	343.06
318.983	358.06
319.212	332.06
319.441	362.06
319.67	362.06
319.9	364.06
320.129	356.06
320.358	350.06
320.587	362.06
320.816	378.06
321.046	382.06
321.275	375.06
321.504	376.06
321.733	358.06
321.962	387.06
322.191	393.06
322.42	403.06
322.649	401.06
322.878	392.06
323.108	387.06
323.337	409.06
323.566	425.06
323.795	469.06
324.024	483.06
324.253	592.06
324.482	830.06
324.71	1213.06
324.939	1595.06
325.168	1370.06
325.397	738.06
325.626	534.06
325.855	479.06
326.084	447.06
326.313	416.06
326.542	461.06
326.77	474.06
326.999	551.06
327.228	734.06
327.457	1061.06
327.686	1217.06
327.914	821.06
328.143	566.06
328.372	531.06
328.6	504.06
328.829	484.06
329.058	492.06
329.287	483.06
329.515	457.06
329.744	454.06
329.972	448.06
330.201	474.06
330.43	471.06
330.658	486.06
330.887	494.06
331.115	518.06
331.344	441.06
331.572	438.06
331.801	417.06
332.03	421.06
332.258	412.06
332.486	410.06
332.715	405.06
332.943	421.06
333.172	433.06
333.4	387.06
333.629	418.06
333.857	425.06
334.085	437.06
334.314	431.06
334.542	462.06
334.771	458.06
334.999	425.06
335.227	420.06
335.455	407.06
335.684	414.06
335.912	404.06
336.14	411.06
336.369	391.06
336.597	397.06
336.825	389.06
337.053	391.06
337.281	399.06
337.51	393.06
337.738	402.06
337.966	392.06
338.194	397.06
338.422	393.06
338.65	406.06
338.878	395.06
339.106	396.06
339.334	397.06
339.562	400.06
339.79	367.06
340.018	391.06
340.246	389.06
340.474	401.06
340.702	393.06
340.93	376.06
341.158	355.06
341.386	381.06
341.614	369.06
341.842	356.06
342.07	387.06
342.298	395.06
342.526	382.06
342.754	362.06
342.981	362.06
343.209	374.06
343.437	373.06
343.665	377.06
343.893	400.06
344.12	387.06
344.348	388.06
344.576	389.06
344.804	396.06
345.031	404.06
345.259	408.06
345.487	396.06
345.714	373.06
345.942	371.06
346.17	364.06
346.397	353.06
346.625	367.06
346.853	361.06
347.08	359.06
347.308	366.06
347.535	378.06
347.763	362.06
347.99	362.06
348.218	378.06
348.445	379.06
348.673	362.06
348.9	375.06
349.128	366.06
349.355	353.06
349.583	358.06
349.81	355.06
350.037	365.06
350.265	355.06
350.492	342.06
350.72	354.06
350.947	366.06
351.174	381.06
351.402	363.06
351.629	357.06
351.856	376.06
352.083	371.06
352.311	364.06
352.538	357.06
352.765	375.06
352.992	381.06
353.22	353.06
353.447	370.06
353.674	354.06
353.901	348.06
354.128	367.06
354.355	337.06
354.583	343.06
354.81	349.06
355.037	331.06
355.264	335.06
355.491	347.06
355.718	336.06
355.945	352.06
356.172	337.06
356.399	353.06
356.626	347.06
356.853	327.06
357.08	350.06
357.307	337.06
357.534	328.06
357.761	339.06
357.988	337.06
358.215	351.06
358.441	338.06
358.668	349.06
358.895	334.06
359.122	350.06
359.349	342.06
359.576	357.06
359.802	378.06
360.029	391.06
360.256	387.06
360.483	386.06
360.709	354.06
360.936	371.06
361.163	363.06
361.39	363.06
361.616	355.06
361.843	360.06
362.07	357.06
362.296	355.06
362.523	353.06
362.749	357.06
362.976	370.06
363.203	354.06
363.429	340.06
363.656	345.06
363.882	361.06
364.109	334.06
364.335	347.06
364.562	339.06
364.788	336.06
365.015	333.06
365.241	349.06
365.468	349.06
365.694	370.06
365.92	343.06
366.147	325.06
366.373	345.06
366.599	353.06
366.826	337.06
367.052	359.06
367.278	355.06
367.505	348.06
367.731	349.06
367.957	343.06
368.184	336.06
368.41	339.06
368.636	354.06
368.862	359.06
369.089	349.06
369.315	346.06
369.541	366.06
369.767	361.06
369.993	356.06
370.219	357.06
370.445	334.06
370.672	338.06
370.898	357.06
371.124	350.06
371.35	351.06
371.576	368.06
371.802	321.06
372.028	332.06
372.254	349.06
372.48	334.06
372.706	348.06
372.932	351.06
373.158	343.06
373.384	331.06
373.61	313.06
373.835	332.06
374.061	327.06
374.287	338.06
374.513	344.06
374.739	354.06
374.965	344.06
375.191	352.06
375.416	365.06
375.642	345.06
375.868	333.06
376.094	351.06
376.319	339.06
376.545	343.06
376.771	340.06
376.997	324.06
377.222	359.06
377.448	329.06
377.674	310.06
377.899	333.06
378.125	327.06
378.35	327.06
378.576	332.06
378.802	330.06
379.027	337.06
379.253	335.06
379.478	343.06
379.704	321.06
379.929	326.06
380.155	358.06
380.38	322.06
380.606	329.06
380.831	347.06
381.057	349.06
381.282	321.06
381.507	335.06
381.733	342.06
381.958	352.06
382.184	326.06
382.409	331.06
382.634	331.06
382.86	346.06
383.085	349.06
383.31	346.06
383.535	344.06
383.761	325.06
383.986	358.06
384.211	357.06
384.436	343.06
384.662	354.06
384.887	337.06
385.112	338.06
385.337	344.06
385.562	342.06
385.787	366.06
386.013	355.06
386.238	382.06
386.463	357.06
386.688	369.06
386.913	328.06
387.138	351.06
387.363	359.06
387.588	355.06
387.813	363.06
388.038	349.06
388.263	360.06
388.488	379.06
388.713	347.06
388.938	369.06
389.163	347.06
389.387	353.06
389.612	366.06
389.837	336.06
390.062	351.06
390.287	359.06
390.512	342.06
390.736	354.06
390.961	335.06
391.186	359.06
391.411	361.06
391.636	363.06
391.86	354.06
392.085	375.06
392.31	352.06
392.534	350.06
392.759	358.06
392.984	346.06
393.208	352.06
393.433	355.06
393.658	365.06
393.882	353.06
394.107	359.06
394.331	355.06
394.556	350.06
394.78	367.06
395.005	367.06
395.229	359.06
395.454	368.06
395.678	368.06
395.903	365.06
396.127	382.06
396.352	377.06
396.576	367.06
396.801	363.06
397.025	370.06
397.249	365.06
397.474	356.06
397.698	359.06
397.922	375.06
398.147	406.06
398.371	382.06
398.595	386.06
398.82	380.06
399.044	410.06
399.268	406.06
399.492	401.06
399.717	442.06
399.941	430.06
400.165	477.06
400.389	474.06
400.613	437.06
400.837	414.06
401.062	393.06
401.286	383.06
401.51	379.06
401.734	376.06
401.958	386.06
402.182	395.06
402.406	385.06
402.63	387.06
402.854	401.06
403.078	385.06
403.302	417.06
403.526	404.06
403.75	387.06
403.974	413.06
404.198	387.06
404.422	414.06
404.645	391.06
404.869	400.06
405.093	445.06
405.317	458.06
405.541	451.06
405.765	425.06
405.988	429.06
406.212	409.06
406.436	422.06
406.66	431.06
406.883	461.06
407.107	453.06
407.331	488.06
407.555	523.06
407.778	535.06
408.002	455.06
408.226	441.06
408.449	427.06
408.673	427.06
408.896	467.06
409.12	482.06
409.344	457.06
409.567	421.06
409.791	421.06
410.014	416.06
410.238	370.06
410.461	388.06
410.685	429.06
410.908	433.06
411.132	449.06
411.355	460.06
411.578	458.06
411.802	403.06
412.025	410.06
412.249	409.06
412.472	434.06
412.695	444.06
412.919	439.06
413.142	423.06
413.365	402.06
413.589	397.06
413.812	370.06
414.035	358.06
414.258	385.06
414.482	382.06
414.705	360.06
414.928	361.06
415.151	374.06
415.374	385.06
415.597	363.06
415.821	362.06
416.044	378.06
416.267	381.06
416.49	380.06
416.713	358.06
416.936	383.06
417.159	376.06
417.382	377.06
417.605	384.06
417.828	387.06
418.051	388.06
418.274	383.06
418.497	380.06
418.72	370.06
418.943	363.06
419.166	379.06
419.389	422.06
419.611	409.06
419.834	392.06
420.057	404.06
420.28	403.06
420.503	389.06
420.726	393.06
420.948	394.06
421.171	429.06
421.394	442.06
421.617	429.06
421.839	399.06
422.062	368.06
422.285	395.06
422.507	442.06
422.73	478.06
422.953	475.06
423.175	417.06
423.398	393.06
423.621	398.06
423.843	429.06
424.066	445.06
424.288	427.06
424.511	448.06
424.733	482.06
424.956	533.06
425.178	515.06
425.401	509.06
425.623	525.06
425.846	452.06
426.068	425.06
426.291	409.06
426.513	403.06
426.735	436.06
426.958	462.06
427.18	539.06
427.402	605.06
427.625	641.06
427.847	567.06
428.069	502.06
428.292	450.06
428.514	407.06
428.736	389.06
428.958	399.06
429.181	407.06
429.403	388.06
429.625	402.06
429.847	427.06
430.069	492.06
430.292	475.06
430.514	401.06
430.736	387.06
430.958	390.06
431.18	368.06
431.402	397.06
431.624	377.06
431.846	370.06
432.068	379.06
432.29	381.06
432.512	371.06
432.734	385.06
432.956	377.06
433.178	361.06
433.4	390.06
433.622	369.06
433.844	381.06
434.066	374.06
434.287	371.06
434.509	359.06
434.731	361.06
434.953	368.06
435.175	370.06
435.397	419.06
435.618	438.06
435.84	445.06
436.062	493.06
436.284	567.06
436.505	489.06
436.727	410.06
436.949	402.06
437.17	406.06
437.392	378.06
437.614	392.06
437.835	420.06
438.057	489.06
438.278	562.06
438.5	558.06
438.721	608.06
438.943	590.06
439.165	453.06
439.386	421.06
439.608	434.06
439.829	423.06
440.05	458.06
440.272	469.06
440.493	433.06
440.715	423.06
440.936	420.06
441.158	401.06
441.379	384.06
441.6	383.06
441.822	437.06
442.043	456.06
442.264	503.06
442.486	521.06
442.707	439.06
442.928	417.06
443.149	424.06
443.371	443.06
443.592	494.06
443.813	523.06
444.034	586.06
444.255	494.06
444.476	441.06
444.698	422.06
444.919	437.06
445.14	550.06
445.361	489.06
445.582	453.06
445.803	506.06
446.024	587.06
446.245	579.06
446.466	522.06
446.687	455.06
446.908	419.06
447.129	396.06
447.35	400.06
447.571	381.06
447.792	386.06
448.013	387.06
448.234	421.06
448.455	434.06
448.675	533.06
448.896	599.06
449.117	523.06
449.338	496.06
449.559	551.06
449.779	618.06
450	491.06
450.221	437.06
450.442	421.06
450.662	372.06
450.883	385.06
451.104	390.06
451.324	384.06
451.545	373.06
451.766	340.06
451.986	354.06
452.207	343.06
452.428	352.06
452.648	350.06
452.869	345.06
453.089	346.06
453.31	367.06
453.53	348.06
453.751	340.06
453.971	360.06
454.192	360.06
454.412	344.06
454.633	364.06
454.853	342.06
455.073	339.06
455.294	381.06
455.514	403.06
455.734	393.06
455.955	361.06
456.175	325.06
456.395	322.06
456.616	330.06
456.836	337.06
457.056	329.06
457.276	332.06
457.497	328.06
457.717	316.06
457.937	311.06
458.157	339.06
458.377	349.06
458.598	344.06
458.818	379.06
459.038	424.06
459.258	450.06
459.478	392.06
459.698	364.06
459.918	365.06
460.138	353.06
460.358	365.06
460.578	357.06
460.798	360.06
461.018	358.06
461.238	358.06
461.458	374.06
461.678	362.06
461.898	366.06
462.118	363.06
462.338	390.06
462.558	385.06
462.777	377.06
462.997	385.06
463.217	387.06
463.437	389.06
463.657	393.06
463.876	394.06
464.096	375.06
464.316	386.06
464.536	362.06
464.755	380.06
464.975	391.06
465.195	409.06
465.414	434.06
465.634	413.06
465.854	379.06
466.073	363.06
466.293	330.06
466.512	354.06
466.732	336.06
466.951	341.06
467.171	348.06
467.391	355.06
467.61	353.06
467.829	367.06
468.049	368.06
468.268	361.06
468.488	347.06
468.707	337.06
468.927	338.06
469.146	339.06
469.365	348.06
469.585	338.06
469.804	341.06
470.023	365.06
470.243	352.06
470.462	346.06
470.681	379.06
470.901	366.06
471.12	370.06
471.339	371.06
471.558	363.06
471.777	363.06
471.997	367.06
472.216	366.06
472.435	363.06
472.654	349.06
472.873	358.06
473.092	335.06
473.311	350.06
473.53	364.06
473.749	355.06
473.968	410.06
474.187	473.06
474.406	486.06
474.625	397.06
474.844	373.06
475.063	363.06
475.282	369.06
475.501	357.06
475.72	366.06
475.939	371.06
476.158	348.06
476.377	359.06
476.596	384.06
476.814	369.06
477.033	377.06
477.252	373.06
477.471	374.06
477.69	378.06
477.908	379.06
478.127	402.06
478.346	390.06
478.564	393.06
478.783	392.06
479.002	402.06
479.22	406.06
479.439	437.06
479.658	422.06
479.876	426.06
480.095	419.06
480.313	436.06
480.532	434.06
480.751	419.06
480.969	427.06
481.188	459.06
481.406	460.06
481.624	426.06
481.843	403.06
482.061	417.06
482.28	415.06
482.498	418.06
482.717	422.06
482.935	406.06
483.153	419.06
483.372	412.06
483.59	412.06
483.808	410.06
484.027	424.06
484.245	445.06
484.463	400.06
484.681	402.06
484.9	408.06
485.118	423.06
485.336	422.06
485.554	397.06
485.772	421.06
485.99	405.06
486.209	446.06
486.427	426.06
486.645	437.06
486.863	457.06
487.081	443.06
487.299	447.06
487.517	434.06
487.735	426.06
487.953	457.06
488.171	453.06
488.389	458.06
488.607	431.06
488.825	442.06
489.043	449.06
489.261	450.06
489.479	442.06
489.696	464.06
489.914	457.06
490.132	478.06
490.35	462.06
490.568	464.06
490.786	459.06
491.003	473.06
491.221	489.06
491.439	495.06
491.657	517.06
491.874	526.06
492.092	520.06
492.31	518.06
492.527	510.06
492.745	508.06
492.963	531.06
493.18	539.06
493.398	511.06
493.615	512.06
493.833	557.06
494.05	517.06
494.268	493.06
494.485	527.06
494.703	521.06
494.92	509.06
495.138	519.06
495.355	508.06
495.573	505.06
495.79	515.06
496.008	536.06
496.225	530.06
496.442	533.06
496.66	537.06
496.877	514.06
497.094	522.06
497.312	544.06
497.529	544.06
497.746	546.06
497.963	542.06
498.181	555.06
498.398	554.06
498.615	553.06
498.832	585.06
499.049	596.06
499.267	597.06
499.484	587.06
499.701	626.06
499.918	655.06
500.135	649.06
500.352	712.06
500.569	698.06
500.786	681.06
501.003	709.06
501.22	677.06
501.437	665.06
501.654	625.06
501.871	633.06
502.088	626.06
502.305	602.06
502.522	570.06
502.739	585.06
502.956	551.06
503.172	554.06
503.389	562.06
503.606	542.06
503.823	527.06
504.04	519.06
504.256	525.06
504.473	503.06
504.69	505.06
504.907	524.06
505.123	501.06
505.34	493.06
505.557	508.06
505.773	513.06
505.99	520.06
506.207	509.06
506.423	496.06
506.64	495.06
506.856	474.06
507.073	484.06
507.289	482.06
507.506	475.06
507.722	490.06
507.939	497.06
508.155	472.06
508.372	463.06
508.588	477.06
508.805	474.06
509.021	477.06
509.238	477.06
509.454	474.06
509.67	467.06
509.887	472.06
510.103	456.06
510.319	460.06
510.536	526.06
510.752	795.06
510.968	645.06
511.184	478.06
511.401	458.06
511.617	458.06
511.833	452.06
512.049	441.06
512.265	435.06
512.481	444.06
512.698	432.06
512.914	447.06
513.13	459.06
513.346	431.06
513.562	467.06
513.778	439.06
513.994	419.06
514.21	443.06
514.426	467.06
514.642	494.06
514.858	482.06
515.074	499.06
515.29	565.06
515.506	815.06
515.721	688.06
515.937	505.06
516.153	473.06
516.369	462.06
516.585	452.06
516.801	473.06
517.016	460.06
517.232	430.06
517.448	452.06
517.664	451.06
517.879	425.06
518.095	447.06
518.311	437.06
518.527	458.06
518.742	446.06
518.958	452.06
519.173	445.06
519.389	431.06
519.605	449.06
519.82	437.06
520.036	446.06
520.251	474.06
520.467	467.06
520.682	471.06
520.898	472.06
521.113	473.06
521.329	497.06
521.544	554.06
521.76	670.06
521.975	1013.06
522.19	969.06
522.406	589.06
522.621	457.06
522.836	430.06
523.052	421.06
523.267	405.06
523.482	408.06
523.698	423.06
523.913	419.06
524.128	395.06
524.343	409.06
524.559	394.06
524.774	395.06
524.989	389.06
525.204	385.06
525.419	401.06
525.634	394.06
525.849	375.06
526.064	378.06
526.28	362.06
526.495	381.06
526.71	387.06
526.925	368.06
527.14	369.06
527.355	365.06
527.57	359.06
527.785	361.06
527.999	370.06
528.214	361.06
528.429	368.06
528.644	377.06
528.859	379.06
529.074	376.06
529.289	415.06
529.503	439.06
529.718	412.06
529.933	385.06
530.148	386.06
530.363	380.06
530.577	357.06
530.792	359.06
531.007	332.06
531.221	353.06
531.436	365.06
531.651	341.06
531.865	350.06
532.08	359.06
532.295	352.06
532.509	351.06
532.724	361.06
532.938	356.06
533.153	333.06
533.367	368.06
533.582	361.06
533.796	363.06
534.011	367.06
534.225	331.06
534.44	340.06
534.654	344.06
534.868	342.06
535.083	336.06
535.297	353.06
535.511	358.06
535.726	357.06
535.94	356.06
536.154	339.06
536.369	347.06
536.583	333.06
536.797	353.06
537.011	345.06
537.225	332.06
537.44	331.06
537.654	346.06
537.868	349.06
538.082	332.06
538.296	345.06
538.51	315.06
538.724	338.06
538.938	358.06
539.153	339.06
539.367	353.06
539.581	369.06
539.795	325.06
540.009	352.06
540.222	359.06
540.436	345.06
540.65	347.06
540.864	344.06
541.078	343.06
541.292	360.06
541.506	355.06
541.72	353.06
541.934	368.06
542.147	352.06
542.361	345.06
542.575	340.06
542.789	363.06
543.002	344.06
543.216	336.06
543.43	338.06
543.644	353.06
543.857	358.06
544.071	357.06
544.285	358.06
544.498	353.06
544.712	357.06
544.925	339.06
545.139	343.06
545.352	342.06
545.566	358.06
545.779	348.06
545.993	339.06
546.206	332.06
546.42	361.06
546.633	338.06
546.847	348.06
547.06	331.06
547.274	337.06
547.487	338.06
547.7	344.06
547.914	334.06
548.127	331.06
548.34	333.06
548.554	338.06
548.767	326.06
548.98	333.06
549.193	348.06
549.407	330.06
549.62	346.06
549.833	337.06
550.046	331.06
550.259	315.06
550.473	334.06
550.686	325.06
550.899	337.06
551.112	331.06
551.325	319.06
551.538	327.06
551.751	322.06
551.964	329.06
552.177	305.06
552.39	328.06
552.603	336.06
552.816	336.06
553.029	324.06
553.242	333.06
553.455	330.06
553.667	330.06
553.88	344.06
554.093	329.06
554.306	354.06
554.519	356.06
554.732	336.06
554.944	323.06
555.157	303.06
555.37	306.06
555.583	327.06
555.795	325.06
556.008	312.06
556.221	296.06
556.433	311.06
556.646	324.06
556.859	298.06
557.071	305.06
557.284	289.06
557.496	291.06
557.709	296.06
557.921	300.06
558.134	312.06
558.346	309.06
558.559	298.06
558.771	325.06
558.984	321.06
559.196	298.06
559.409	319.06
559.621	301.06
559.833	298.06
560.046	297.06
560.258	302.06
560.47	287.06
560.683	301.06
560.895	292.06
561.107	298.06
561.32	286.06
561.532	281.06
561.744	279.06
561.956	289.06
562.168	280.06
562.381	313.06
562.593	312.06
562.805	298.06
563.017	295.06
563.229	296.06
563.441	309.06
563.653	286.06
563.865	276.06
564.077	285.06
564.289	310.06
564.501	301.06
564.713	301.06
564.925	303.06
565.137	304.06
565.349	320.06
565.561	312.06
565.773	297.06
565.985	332.06
566.197	325.06
566.408	312.06
566.62	328.06
566.832	329.06
567.044	335.06
567.255	342.06
567.467	349.06
567.679	353.06
567.891	340.06
568.102	354.06
568.314	326.06
568.526	336.06
568.737	337.06
568.949	328.06
569.161	317.06
569.372	291.06
569.584	302.06
569.795	284.06
570.007	307.06
570.218	296.06
570.43	293.06
570.641	300.06
570.853	286.06
571.064	289.06
571.276	281.06
571.487	274.06
571.698	265.06
571.91	267.06
572.121	289.06
572.333	273.06
572.544	275.06
572.755	267.06
572.966	268.06
573.178	257.06
573.389	267.06
573.6	252.06
573.811	247.06
574.023	264.06
574.234	271.06
574.445	254.06
574.656	250.06
574.867	260.06
575.078	233.06
575.289	261.06
575.501	255.06
575.712	250.06
575.923	250.06
576.134	238.06
576.345	234.06
576.556	239.06
576.767	242.06
576.978	259.06
577.188	240.06
577.399	248.06
577.61	259.06
577.821	237.06
578.032	259.06
578.243	263.06
578.454	385.06
578.665	281.06
578.875	249.06
579.086	224.06
579.297	245.06
579.508	241.06
579.718	232.06
579.929	230.06
580.14	219.06
580.35	227.06
580.561	246.06
580.772	239.06
580.982	222.06
581.193	225.06
581.403	237.06
581.614	240.06
581.825	236.06
582.035	238.06
582.246	228.06
582.456	225.06
582.667	240.06
582.877	239.06
583.087	237.06
583.298	241.06
583.508	235.06
583.719	226.06
583.929	231.06
584.139	219.06
584.35	218.06
584.56	258.06
584.77	197.06
584.981	226.06
585.191	226.06
585.401	220.06
585.611	214.06
585.821	225.06
586.032	241.06
586.242	224.06
586.452	223.06
586.662	208.06
586.872	220.06
587.082	245.06
587.292	247.06
587.502	218.06
587.713	221.06
587.923	207.06
588.133	231.06
588.343	205.06
588.553	209.06
588.762	210.06
588.972	241.06
589.182	221.06
589.392	233.06
589.602	225.06
589.812	214.06
590.022	234.06
590.232	226.06
590.441	229.06
590.651	226.06
590.861	210.06
591.071	225.06
591.281	215.06
591.49	234.06
591.7	220.06
591.91	225.06
592.119	218.06
592.329	227.06
592.539	232.06
592.748	221.06
592.958	218.06
593.167	216.06
593.377	226.06
593.587	227.06
593.796	232.06
594.006	248.06
594.215	247.06
594.424	233.06
594.634	221.06
594.843	238.06
595.053	231.06
595.262	231.06
595.472	238.06
595.681	214.06
595.89	221.06
596.1	206.06
596.309	219.06
596.518	229.06
596.727	208.06
596.937	181.06
597.146	222.06
597.355	210.06
597.564	196.06
597.774	193.06
597.983	188.06
598.192	185.06
598.401	206.06
598.61	199.06
598.819	219.06
599.028	204.06
599.237	205.06
599.446	211.06
599.655	217.06
599.864	191.06
600.073	191.06
600.282	201.06
600.491	191.06
600.7	213.06
600.909	203.06
601.118	214.06
601.327	202.06
601.536	191.06
601.745	213.06
601.953	212.06
602.162	209.06
602.371	201.06
602.58	194.06
602.789	185.06
602.997	209.06
603.206	197.06
603.415	195.06
603.623	211.06
603.832	199.06
604.041	210.06
604.249	209.06
604.458	194.06
604.666	190.06
604.875	194.06
605.084	190.06
605.292	210.06
605.501	211.06
605.709	219.06
605.918	193.06
606.126	218.06
606.334	187.06
606.543	186.06
606.751	207.06
606.96	207.06
607.168	203.06
607.376	201.06
607.585	192.06
607.793	199.06
608.001	196.06
608.21	198.06
608.418	192.06
608.626	199.06
608.834	195.06
609.043	178.06
609.251	191.06
609.459	201.06
609.667	200.06
609.875	183.06
610.083	204.06
610.291	184.06
610.499	210.06
610.707	201.06
610.916	211.06
611.124	195.06
611.332	198.06
611.54	209.06
611.748	200.06
611.955	192.06
612.163	195.06
612.371	182.06
612.579	204.06
612.787	206.06
612.995	203.06
613.203	185.06
613.411	189.06
613.618	201.06
613.826	199.06
614.034	209.06
614.242	197.06
614.449	184.06
614.657	192.06
614.865	176.06
615.072	183.06
615.28	193.06
615.488	185.06
615.695	192.06
615.903	208.06
616.111	195.06
616.318	190.06
616.526	196.06
616.733	215.06
616.941	191.06
617.148	186.06
617.356	195.06
617.563	189.06
617.771	199.06
617.978	191.06
618.185	197.06
618.393	192.06
618.6	193.06
618.807	183.06
619.015	199.06
619.222	197.06
619.429	189.06
619.637	185.06
619.844	183.06
620.051	179.06
620.258	176.06
620.466	183.06
620.673	182.06
620.88	185.06
621.087	187.06
621.294	186.06
621.501	190.06
621.708	182.06
621.915	175.06
622.122	178.06
622.329	186.06
622.536	190.06
622.743	174.06
622.95	185.06
623.157	171.06
623.364	167.06
623.571	179.06
623.778	192.06
623.985	181.06
624.192	179.06
624.399	173.06
624.606	183.06
624.812	174.06
625.019	169.06
625.226	178.06
625.433	171.06
625.639	178.06
625.846	178.06
626.053	174.06
626.259	179.06
626.466	177.06
626.673	167.06
626.879	168.06
627.086	185.06
627.293	175.06
627.499	170.06
627.706	173.06
627.912	178.06
628.119	176.06
628.325	175.06
628.532	182.06
628.738	176.06
628.945	177.06
629.151	165.06
629.357	169.06
629.564	160.06
629.77	171.06
629.976	162.06
630.183	162.06
630.389	161.06
630.595	161.06
630.802	186.06
631.008	171.06
631.214	167.06
631.42	167.06
631.627	162.06
631.833	166.06
632.039	183.06
632.245	172.06
632.451	165.06
632.657	164.06
632.863	168.06
633.069	164.06
633.275	160.06
633.481	159.06
633.688	144.06
633.893	163.06
634.099	162.06
634.305	156.06
634.511	141.06
634.717	146.06
634.923	155.06
635.129	151.06
635.335	150.06
635.541	153.06
635.747	169.06
635.952	158.06
636.158	160.06
636.364	163.06
636.57	181.06
636.775	162.06
636.981	153.06
637.187	148.06
637.392	145.06
637.598	150.06
637.804	147.06
638.009	158.06
638.215	155.06
638.421	150.06
638.626	143.06
638.832	147.06
639.037	142.06
639.243	154.06
639.448	164.06
639.654	157.06
639.859	155.06
640.065	156.06
640.27	161.06
640.475	145.06
640.681	159.06
640.886	165.06
641.091	161.06
641.297	140.06
641.502	153.06
641.707	149.06
641.913	137.06
642.118	140.06
642.323	138.06
642.528	157.06
642.733	156.06
642.939	137.06
643.144	151.06
643.349	160.06
643.554	143.06
643.759	151.06
643.964	149.06
644.169	152.06
644.374	122.06
644.579	166.06
644.784	141.06
644.989	146.06
645.194	150.06
645.399	141.06
645.604	154.06
645.809	160.06
646.014	147.06
646.219	142.06
646.423	142.06
646.628	145.06
646.833	144.06
647.038	145.06
647.243	147.06
647.447	137.06
647.652	143.06
647.857	136.06
648.062	152.06
648.266	152.06
648.471	167.06
648.676	148.06
648.88	133.06
649.085	150.06
649.289	149.06
649.494	167.06
649.698	162.06
649.903	168.06
650.107	156.06
650.312	151.06
650.516	131.06
650.721	160.06
650.925	135.06
651.13	153.06
651.334	138.06
651.539	137.06
651.743	135.06
651.947	136.06
652.152	139.06
652.356	143.06
652.56	125.06
652.764	140.06
652.969	143.06
653.173	131.06
653.377	138.06
653.581	131.06
653.785	128.06
653.99	127.06
654.194	121.06
654.398	125.06
654.602	122.06
654.806	141.06
655.01	128.06
655.214	134.06
655.418	121.06
655.622	134.06
655.826	111.06
656.03	137.06
656.234	128.06
656.438	121.06
656.642	126.06
656.846	124.06
657.049	114.06
657.253	117.06
657.457	113.06
657.661	121.06
657.865	102.06
658.068	100.06
658.272	107.06
658.476	88.06
658.68	110.06
658.883	89.06
659.087	113.06
659.291	114.06
659.494	119.06
659.698	93.06
659.901	85.06
660.105	102.06
660.309	86.06
660.512	104.06
660.716	96.06
660.919	99.06
661.123	99.06
661.326	86.06
661.53	104.06
661.733	96.06
661.936	93.06
662.14	73.06
662.343	94.06
662.546	76.06
662.75	96.06
662.953	98.06
663.156	83.06
663.36	89.06
663.563	91.06
663.766	95.06
663.969	99.06
664.173	73.06
664.376	98.06
664.579	72.06
664.782	81.06
664.985	86.06
665.188	88.06
665.391	80.06
665.594	78.06
665.797	78.06
666	95.06
666.203	88.06
666.406	89.06
666.609	84.06
666.812	83.06
667.015	83.06
667.218	90.06
667.421	93.06
667.624	73.06
667.827	85.06
668.03	97.06
668.232	97.06
668.435	95.06
668.638	88.06
668.841	89.06
669.043	80.06
669.246	82.06
669.449	91.06
669.651	81.06
669.854	89.06
670.057	84.06
670.259	88.06
670.462	81.06
670.665	84.06
670.867	77.06
671.07	88.06
671.272	77.06
671.475	87.06
671.677	78.06
671.88	80.06
672.082	86.06
672.284	87.06
672.487	72.06
672.689	88.06
672.892	90.06
