Data from 1971.PennyLincolnUp.Lamp.En5.5.200Scan.071719.P1.Scan 2. Changed Angle._HRD10591_15-23-20-842.txt Node
Date: Thu Jul 18 15:23:20 EDT 2019
User: cochatt
Spectrometer: HR+D1059
Trigger mode: 1
Integration Time (sec): 1.000000E-1
Scans to average: 1
Electric dark correction enabled: true
Nonlinearity correction enabled: false
Boxcar width: 0
XAxis mode: Wavelengths
Number of Pixels in Spectrum: 2048
>>>>>Begin Spectral Data<<<<<
223.165	-19.75
223.4	-19.75
223.635	-19.75
223.869	-4.75
224.104	-22.75
224.338	-23.75
224.573	-24.75
224.808	-12.75
225.042	-7.75
225.277	7.25
225.511	2.25
225.746	-0.75
225.98	-1.75
226.215	13.25
226.449	5.25
226.683	15.25
226.918	42.25
227.152	33.25
227.387	35.25
227.621	38.25
227.856	51.25
228.09	49.25
228.324	42.25
228.559	60.25
228.793	62.25
229.027	110.25
229.262	125.25
229.496	124.25
229.73	160.25
229.964	169.25
230.199	161.25
230.433	123.25
230.667	111.25
230.901	116.25
231.136	120.25
231.37	126.25
231.604	111.25
231.838	114.25
232.072	121.25
232.306	121.25
232.541	108.25
232.775	115.25
233.009	113.25
233.243	121.25
233.477	124.25
233.711	122.25
233.945	108.25
234.179	131.25
234.413	118.25
234.647	130.25
234.881	135.25
235.115	127.25
235.349	122.25
235.583	126.25
235.817	127.25
236.051	125.25
236.285	130.25
236.519	133.25
236.753	142.25
236.987	151.25
237.221	198.25
237.455	263.25
237.689	207.25
237.922	153.25
238.156	138.25
238.39	141.25
238.624	122.25
238.858	131.25
239.091	133.25
239.325	129.25
239.559	147.25
239.793	154.25
240.027	140.25
240.26	149.25
240.494	165.25
240.728	170.25
240.961	152.25
241.195	162.25
241.429	139.25
241.662	157.25
241.896	148.25
242.13	135.25
242.363	122.25
242.597	137.25
242.83	158.25
243.064	154.25
243.298	139.25
243.531	159.25
243.765	137.25
243.998	134.25
244.232	141.25
244.465	140.25
244.699	159.25
244.932	148.25
245.166	157.25
245.399	138.25
245.633	165.25
245.866	147.25
246.099	161.25
246.333	151.25
246.566	161.25
246.8	157.25
247.033	162.25
247.266	155.25
247.5	174.25
247.733	166.25
247.966	177.25
248.2	167.25
248.433	191.25
248.666	193.25
248.899	185.25
249.133	213.25
249.366	222.25
249.599	199.25
249.832	200.25
250.066	185.25
250.299	201.25
250.532	209.25
250.765	217.25
250.998	245.25
251.231	243.25
251.465	230.25
251.698	221.25
251.931	212.25
252.164	222.25
252.397	195.25
252.63	208.25
252.863	199.25
253.096	244.25
253.329	236.25
253.562	241.25
253.795	228.25
254.028	223.25
254.261	244.25
254.494	235.25
254.727	265.25
254.96	289.25
255.193	298.25
255.426	266.25
255.659	255.25
255.892	245.25
256.124	227.25
256.357	245.25
256.59	265.25
256.823	236.25
257.056	221.25
257.289	210.25
257.521	228.25
257.754	238.25
257.987	210.25
258.22	211.25
258.452	212.25
258.685	206.25
258.918	228.25
259.151	218.25
259.383	221.25
259.616	227.25
259.849	222.25
260.081	265.25
260.314	294.25
260.547	263.25
260.779	243.25
261.012	250.25
261.244	229.25
261.477	222.25
261.71	223.25
261.942	232.25
262.175	243.25
262.407	229.25
262.64	228.25
262.872	228.25
263.105	212.25
263.337	211.25
263.57	214.25
263.802	210.25
264.035	207.25
264.267	211.25
264.499	213.25
264.732	227.25
264.964	213.25
265.197	221.25
265.429	203.25
265.661	211.25
265.894	213.25
266.126	206.25
266.358	212.25
266.591	204.25
266.823	226.25
267.055	208.25
267.287	231.25
267.52	224.25
267.752	222.25
267.984	207.25
268.216	238.25
268.448	228.25
268.681	230.25
268.913	247.25
269.145	261.25
269.377	281.25
269.609	269.25
269.841	272.25
270.073	283.25
270.306	306.25
270.538	318.25
270.77	323.25
271.002	314.25
271.234	313.25
271.466	287.25
271.698	299.25
271.93	326.25
272.162	332.25
272.394	342.25
272.626	290.25
272.858	299.25
273.09	292.25
273.322	275.25
273.553	258.25
273.785	271.25
274.017	273.25
274.249	246.25
274.481	261.25
274.713	257.25
274.945	272.25
275.176	269.25
275.408	268.25
275.64	247.25
275.872	269.25
276.104	259.25
276.335	258.25
276.567	267.25
276.799	285.25
277.031	307.25
277.262	337.25
277.494	316.25
277.726	297.25
277.957	261.25
278.189	269.25
278.421	262.25
278.652	255.25
278.884	266.25
279.115	261.25
279.347	260.25
279.579	258.25
279.81	258.25
280.042	251.25
280.273	272.25
280.505	259.25
280.736	264.25
280.968	244.25
281.199	243.25
281.431	252.25
281.662	251.25
281.894	249.25
282.125	261.25
282.356	276.25
282.588	280.25
282.819	311.25
283.051	275.25
283.282	259.25
283.513	270.25
283.745	275.25
283.976	264.25
284.207	263.25
284.439	287.25
284.67	266.25
284.901	267.25
285.132	259.25
285.364	257.25
285.595	258.25
285.826	256.25
286.057	272.25
286.288	289.25
286.52	270.25
286.751	259.25
286.982	269.25
287.213	260.25
287.444	258.25
287.675	258.25
287.906	302.25
288.138	284.25
288.369	296.25
288.6	284.25
288.831	272.25
289.062	275.25
289.293	285.25
289.524	267.25
289.755	266.25
289.986	263.25
290.217	263.25
290.448	275.25
290.679	280.25
290.91	263.25
291.141	276.25
291.371	248.25
291.602	244.25
291.833	269.25
292.064	265.25
292.295	273.25
292.526	257.25
292.757	267.25
292.987	260.25
293.218	282.25
293.449	279.25
293.68	256.25
293.91	285.25
294.141	266.25
294.372	271.25
294.603	272.25
294.833	285.25
295.064	266.25
295.295	276.25
295.525	282.25
295.756	290.25
295.987	313.25
296.217	318.25
296.448	317.25
296.679	291.25
296.909	292.25
297.14	271.25
297.37	294.25
297.601	284.25
297.831	286.25
298.062	282.25
298.292	282.25
298.523	285.25
298.753	287.25
298.984	280.25
299.214	282.25
299.445	303.25
299.675	303.25
299.905	290.25
300.136	287.25
300.366	290.25
300.597	289.25
300.827	294.25
301.057	298.25
301.288	309.25
301.518	319.25
301.748	303.25
301.979	301.25
302.209	301.25
302.439	317.25
302.669	296.25
302.9	306.25
303.13	300.25
303.36	305.25
303.59	334.25
303.82	314.25
304.051	341.25
304.281	309.25
304.511	280.25
304.741	302.25
304.971	300.25
305.201	291.25
305.431	303.25
305.661	298.25
305.891	303.25
306.121	306.25
306.352	303.25
306.582	323.25
306.812	306.25
307.042	323.25
307.272	307.25
307.502	301.25
307.731	310.25
307.961	303.25
308.191	323.25
308.421	307.25
308.651	329.25
308.881	325.25
309.111	316.25
309.341	326.25
309.571	336.25
309.8	361.25
310.03	363.25
310.26	353.25
310.49	367.25
310.72	392.25
310.949	377.25
311.179	386.25
311.409	374.25
311.639	362.25
311.868	371.25
312.098	369.25
312.328	381.25
312.557	396.25
312.787	409.25
313.017	406.25
313.246	385.25
313.476	351.25
313.706	358.25
313.935	357.25
314.165	381.25
314.394	390.25
314.624	379.25
314.853	381.25
315.083	387.25
315.312	373.25
315.542	361.25
315.771	350.25
316.001	335.25
316.23	341.25
316.46	334.25
316.689	334.25
316.919	364.25
317.148	381.25
317.377	370.25
317.607	382.25
317.836	364.25
318.065	360.25
318.295	353.25
318.524	342.25
318.753	355.25
318.983	357.25
319.212	348.25
319.441	387.25
319.67	379.25
319.9	387.25
320.129	369.25
320.358	374.25
320.587	366.25
320.816	394.25
321.046	387.25
321.275	381.25
321.504	379.25
321.733	403.25
321.962	409.25
322.191	421.25
322.42	429.25
322.649	437.25
322.878	461.25
323.108	470.25
323.337	515.25
323.566	528.25
323.795	575.25
324.024	608.25
324.253	761.25
324.482	1132.25
324.71	1746.25
324.939	2519.25
325.168	2140.25
325.397	1106.25
325.626	729.25
325.855	599.25
326.084	527.25
326.313	535.25
326.542	539.25
326.77	577.25
326.999	673.25
327.228	982.25
327.457	1517.25
327.686	1865.25
327.914	1233.25
328.143	805.25
328.372	681.25
328.6	628.25
328.829	606.25
329.058	627.25
329.287	640.25
329.515	595.25
329.744	552.25
329.972	533.25
330.201	565.25
330.43	588.25
330.658	625.25
330.887	675.25
331.115	671.25
331.344	551.25
331.572	494.25
331.801	490.25
332.03	510.25
332.258	462.25
332.486	439.25
332.715	427.25
332.943	443.25
333.172	441.25
333.4	447.25
333.629	452.25
333.857	441.25
334.085	479.25
334.314	485.25
334.542	541.25
334.771	517.25
334.999	476.25
335.227	448.25
335.455	455.25
335.684	428.25
335.912	401.25
336.14	426.25
336.369	434.25
336.597	448.25
336.825	429.25
337.053	419.25
337.281	431.25
337.51	414.25
337.738	436.25
337.966	423.25
338.194	437.25
338.422	451.25
338.65	428.25
338.878	411.25
339.106	418.25
339.334	410.25
339.562	395.25
339.79	401.25
340.018	423.25
340.246	416.25
340.474	413.25
340.702	401.25
340.93	402.25
341.158	397.25
341.386	404.25
341.614	408.25
341.842	409.25
342.07	412.25
342.298	394.25
342.526	397.25
342.754	391.25
342.981	403.25
343.209	397.25
343.437	413.25
343.665	399.25
343.893	408.25
344.12	401.25
344.348	418.25
344.576	420.25
344.804	449.25
345.031	442.25
345.259	445.25
345.487	422.25
345.714	407.25
345.942	414.25
346.17	427.25
346.397	423.25
346.625	398.25
346.853	413.25
347.08	426.25
347.308	415.25
347.535	418.25
347.763	414.25
347.99	437.25
348.218	411.25
348.445	435.25
348.673	438.25
348.9	424.25
349.128	399.25
349.355	411.25
349.583	395.25
349.81	394.25
350.037	402.25
350.265	393.25
350.492	403.25
350.72	398.25
350.947	408.25
351.174	426.25
351.402	435.25
351.629	413.25
351.856	421.25
352.083	425.25
352.311	437.25
352.538	454.25
352.765	430.25
352.992	433.25
353.22	430.25
353.447	408.25
353.674	405.25
353.901	388.25
354.128	396.25
354.355	380.25
354.583	383.25
354.81	366.25
355.037	399.25
355.264	373.25
355.491	385.25
355.718	369.25
355.945	373.25
356.172	388.25
356.399	365.25
356.626	369.25
356.853	385.25
357.08	382.25
357.307	356.25
357.534	361.25
357.761	391.25
357.988	392.25
358.215	370.25
358.441	377.25
358.668	383.25
358.895	393.25
359.122	387.25
359.349	421.25
359.576	443.25
359.802	441.25
360.029	464.25
360.256	500.25
360.483	488.25
360.709	439.25
360.936	433.25
361.163	402.25
361.39	418.25
361.616	423.25
361.843	419.25
362.07	436.25
362.296	433.25
362.523	420.25
362.749	416.25
362.976	420.25
363.203	406.25
363.429	400.25
363.656	398.25
363.882	398.25
364.109	399.25
364.335	411.25
364.562	406.25
364.788	379.25
365.015	415.25
365.241	391.25
365.468	406.25
365.694	410.25
365.92	395.25
366.147	402.25
366.373	421.25
366.599	393.25
366.826	379.25
367.052	408.25
367.278	409.25
367.505	399.25
367.731	415.25
367.957	387.25
368.184	397.25
368.41	420.25
368.636	429.25
368.862	414.25
369.089	419.25
369.315	382.25
369.541	392.25
369.767	397.25
369.993	399.25
370.219	392.25
370.445	376.25
370.672	414.25
370.898	395.25
371.124	383.25
371.35	398.25
371.576	401.25
371.802	409.25
372.028	362.25
372.254	400.25
372.48	381.25
372.706	386.25
372.932	389.25
373.158	385.25
373.384	391.25
373.61	381.25
373.835	403.25
374.061	411.25
374.287	407.25
374.513	392.25
374.739	421.25
374.965	406.25
375.191	395.25
375.416	404.25
375.642	399.25
375.868	405.25
376.094	393.25
376.319	387.25
376.545	407.25
376.771	398.25
376.997	385.25
377.222	379.25
377.448	404.25
377.674	391.25
377.899	405.25
378.125	377.25
378.35	381.25
378.576	394.25
378.802	380.25
379.027	374.25
379.253	398.25
379.478	393.25
379.704	398.25
379.929	396.25
380.155	391.25
380.38	407.25
380.606	405.25
380.831	395.25
381.057	385.25
381.282	387.25
381.507	387.25
381.733	414.25
381.958	405.25
382.184	425.25
382.409	419.25
382.634	409.25
382.86	403.25
383.085	409.25
383.31	408.25
383.535	384.25
383.761	398.25
383.986	410.25
384.211	406.25
384.436	408.25
384.662	421.25
384.887	425.25
385.112	422.25
385.337	390.25
385.562	438.25
385.787	442.25
386.013	425.25
386.238	432.25
386.463	453.25
386.688	419.25
386.913	427.25
387.138	412.25
387.363	437.25
387.588	436.25
387.813	419.25
388.038	407.25
388.263	407.25
388.488	417.25
388.713	441.25
388.938	433.25
389.163	420.25
389.387	437.25
389.612	439.25
389.837	436.25
390.062	444.25
390.287	418.25
390.512	415.25
390.736	433.25
390.961	427.25
391.186	441.25
391.411	426.25
391.636	428.25
391.86	446.25
392.085	441.25
392.31	434.25
392.534	465.25
392.759	421.25
392.984	427.25
393.208	416.25
393.433	455.25
393.658	454.25
393.882	453.25
394.107	427.25
394.331	421.25
394.556	424.25
394.78	436.25
395.005	444.25
395.229	414.25
395.454	439.25
395.678	443.25
395.903	462.25
396.127	475.25
396.352	483.25
396.576	460.25
396.801	459.25
397.025	481.25
397.249	463.25
397.474	458.25
397.698	455.25
397.922	477.25
398.147	469.25
398.371	491.25
398.595	476.25
398.82	487.25
399.044	478.25
399.268	473.25
399.492	510.25
399.717	524.25
399.941	571.25
400.165	606.25
400.389	607.25
400.613	554.25
400.837	528.25
401.062	503.25
401.286	485.25
401.51	482.25
401.734	507.25
401.958	500.25
402.182	524.25
402.406	492.25
402.63	520.25
402.854	485.25
403.078	508.25
403.302	529.25
403.526	513.25
403.75	518.25
403.974	505.25
404.198	494.25
404.422	519.25
404.645	539.25
404.869	534.25
405.093	565.25
405.317	598.25
405.541	636.25
405.765	559.25
405.988	551.25
406.212	563.25
406.436	589.25
406.66	586.25
406.883	543.25
407.107	601.25
407.331	632.25
407.555	707.25
407.778	708.25
408.002	634.25
408.226	610.25
408.449	591.25
408.673	573.25
408.896	609.25
409.12	657.25
409.344	633.25
409.567	550.25
409.791	561.25
410.014	503.25
410.238	521.25
410.461	529.25
410.685	531.25
410.908	526.25
411.132	587.25
411.355	618.25
411.578	590.25
411.802	557.25
412.025	503.25
412.249	542.25
412.472	558.25
412.695	606.25
412.919	564.25
413.142	550.25
413.365	518.25
413.589	503.25
413.812	480.25
414.035	471.25
414.258	488.25
414.482	481.25
414.705	487.25
414.928	460.25
415.151	488.25
415.374	475.25
415.597	471.25
415.821	478.25
416.044	490.25
416.267	517.25
416.49	490.25
416.713	501.25
416.936	486.25
417.159	499.25
417.382	515.25
417.605	527.25
417.828	522.25
418.051	544.25
418.274	533.25
418.497	501.25
418.72	510.25
418.943	484.25
419.166	532.25
419.389	533.25
419.611	542.25
419.834	516.25
420.057	551.25
420.28	531.25
420.503	538.25
420.726	533.25
420.948	517.25
421.171	574.25
421.394	612.25
421.617	569.25
421.839	517.25
422.062	531.25
422.285	548.25
422.507	605.25
422.73	693.25
422.953	667.25
423.175	626.25
423.398	566.25
423.621	563.25
423.843	591.25
424.066	575.25
424.288	585.25
424.511	586.25
424.733	639.25
424.956	740.25
425.178	734.25
425.401	721.25
425.623	731.25
425.846	637.25
426.068	613.25
426.291	557.25
426.513	584.25
426.735	606.25
426.958	657.25
427.18	738.25
427.402	876.25
427.625	962.25
427.847	855.25
428.069	747.25
428.292	661.25
428.514	597.25
428.736	565.25
428.958	573.25
429.181	548.25
429.403	544.25
429.625	575.25
429.847	583.25
430.069	684.25
430.292	666.25
430.514	583.25
430.736	563.25
430.958	531.25
431.18	532.25
431.402	515.25
431.624	532.25
431.846	503.25
432.068	493.25
432.29	487.25
432.512	504.25
432.734	509.25
432.956	516.25
433.178	533.25
433.4	530.25
433.622	534.25
433.844	493.25
434.066	497.25
434.287	510.25
434.509	491.25
434.731	500.25
434.953	537.25
435.175	553.25
435.397	574.25
435.618	585.25
435.84	627.25
436.062	735.25
436.284	791.25
436.505	644.25
436.727	638.25
436.949	586.25
437.17	571.25
437.392	546.25
437.614	580.25
437.835	622.25
438.057	721.25
438.278	819.25
438.5	825.25
438.721	888.25
438.943	857.25
439.165	685.25
439.386	621.25
439.608	643.25
439.829	621.25
440.05	634.25
440.272	708.25
440.493	653.25
440.715	601.25
440.936	551.25
441.158	564.25
441.379	565.25
441.6	603.25
441.822	610.25
442.043	645.25
442.264	731.25
442.486	779.25
442.707	672.25
442.928	621.25
443.149	638.25
443.371	644.25
443.592	703.25
443.813	824.25
444.034	848.25
444.255	725.25
444.476	621.25
444.698	613.25
444.919	566.25
445.14	674.25
445.361	643.25
445.582	634.25
445.803	714.25
446.024	839.25
446.245	851.25
446.466	755.25
446.687	669.25
446.908	604.25
447.129	557.25
447.35	579.25
447.571	552.25
447.792	539.25
448.013	550.25
448.234	592.25
448.455	639.25
448.675	756.25
448.896	878.25
449.117	766.25
449.338	709.25
449.559	840.25
449.779	902.25
450	736.25
450.221	649.25
450.442	581.25
450.662	537.25
450.883	555.25
451.104	585.25
451.324	571.25
451.545	554.25
451.766	527.25
451.986	504.25
452.207	493.25
452.428	479.25
452.648	521.25
452.869	492.25
453.089	501.25
453.31	513.25
453.53	513.25
453.751	487.25
453.971	522.25
454.192	530.25
454.412	530.25
454.633	490.25
454.853	491.25
455.073	482.25
455.294	537.25
455.514	611.25
455.734	596.25
455.955	508.25
456.175	475.25
456.395	442.25
456.616	456.25
456.836	477.25
457.056	469.25
457.276	433.25
457.497	453.25
457.717	470.25
457.937	479.25
458.157	475.25
458.377	475.25
458.598	528.25
458.818	574.25
459.038	663.25
459.258	683.25
459.478	591.25
459.698	532.25
459.918	484.25
460.138	494.25
460.358	501.25
460.578	476.25
460.798	505.25
461.018	510.25
461.238	476.25
461.458	492.25
461.678	484.25
461.898	509.25
462.118	491.25
462.338	520.25
462.558	520.25
462.777	522.25
462.997	536.25
463.217	529.25
463.437	530.25
463.657	538.25
463.876	514.25
464.096	537.25
464.316	531.25
464.536	544.25
464.755	563.25
464.975	551.25
465.195	602.25
465.414	736.25
465.634	647.25
465.854	590.25
466.073	545.25
466.293	526.25
466.512	517.25
466.732	511.25
466.951	502.25
467.171	501.25
467.391	508.25
467.61	506.25
467.829	530.25
468.049	517.25
468.268	522.25
468.488	518.25
468.707	486.25
468.927	478.25
469.146	482.25
469.365	488.25
469.585	495.25
469.804	519.25
470.023	540.25
470.243	487.25
470.462	516.25
470.681	537.25
470.901	537.25
471.12	524.25
471.339	531.25
471.558	519.25
471.777	528.25
471.997	507.25
472.216	521.25
472.435	563.25
472.654	546.25
472.873	519.25
473.092	528.25
473.311	513.25
473.53	512.25
473.749	519.25
473.968	569.25
474.187	687.25
474.406	722.25
474.625	592.25
474.844	568.25
475.063	518.25
475.282	527.25
475.501	533.25
475.72	527.25
475.939	527.25
476.158	538.25
476.377	530.25
476.596	518.25
476.814	557.25
477.033	526.25
477.252	548.25
477.471	534.25
477.69	558.25
477.908	543.25
478.127	565.25
478.346	563.25
478.564	565.25
478.783	577.25
479.002	609.25
479.22	588.25
479.439	627.25
479.658	613.25
479.876	637.25
480.095	628.25
480.313	650.25
480.532	637.25
480.751	601.25
480.969	638.25
481.188	709.25
481.406	722.25
481.624	674.25
481.843	647.25
482.061	629.25
482.28	630.25
482.498	629.25
482.717	595.25
482.935	631.25
483.153	626.25
483.372	602.25
483.59	611.25
483.808	635.25
484.027	616.25
484.245	618.25
484.463	620.25
484.681	614.25
484.9	627.25
485.118	633.25
485.336	609.25
485.554	630.25
485.772	607.25
485.99	620.25
486.209	623.25
486.427	631.25
486.645	647.25
486.863	678.25
487.081	677.25
487.299	642.25
487.517	658.25
487.735	639.25
487.953	662.25
488.171	685.25
488.389	665.25
488.607	667.25
488.825	669.25
489.043	672.25
489.261	663.25
489.479	679.25
489.696	694.25
489.914	679.25
490.132	694.25
490.35	706.25
490.568	718.25
490.786	718.25
491.003	740.25
491.221	756.25
491.439	745.25
491.657	747.25
491.874	776.25
492.092	756.25
492.31	806.25
492.527	798.25
492.745	761.25
492.963	785.25
493.18	795.25
493.398	806.25
493.615	791.25
493.833	773.25
494.05	800.25
494.268	785.25
494.485	788.25
494.703	790.25
494.92	817.25
495.138	787.25
495.355	797.25
495.573	792.25
495.79	795.25
496.008	807.25
496.225	799.25
496.442	795.25
496.66	802.25
496.877	796.25
497.094	790.25
497.312	792.25
497.529	798.25
497.746	826.25
497.963	813.25
498.181	873.25
498.398	833.25
498.615	871.25
498.832	857.25
499.049	868.25
499.267	896.25
499.484	899.25
499.701	897.25
499.918	929.25
500.135	953.25
500.352	955.25
500.569	981.25
500.786	974.25
501.003	992.25
501.22	957.25
501.437	951.25
501.654	951.25
501.871	947.25
502.088	952.25
502.305	876.25
502.522	855.25
502.739	831.25
502.956	838.25
503.172	851.25
503.389	817.25
503.606	816.25
503.823	854.25
504.04	791.25
504.256	802.25
504.473	806.25
504.69	783.25
504.907	818.25
505.123	769.25
505.34	787.25
505.557	758.25
505.773	772.25
505.99	779.25
506.207	767.25
506.423	770.25
506.64	753.25
506.856	757.25
507.073	754.25
507.289	756.25
507.506	753.25
507.722	775.25
507.939	790.25
508.155	793.25
508.372	761.25
508.588	749.25
508.805	703.25
509.021	724.25
509.238	753.25
509.454	755.25
509.67	737.25
509.887	739.25
510.103	736.25
510.319	759.25
510.536	879.25
510.752	1487.25
510.968	1235.25
511.184	777.25
511.401	753.25
511.617	710.25
511.833	691.25
512.049	716.25
512.265	703.25
512.481	724.25
512.698	719.25
512.914	685.25
513.13	689.25
513.346	689.25
513.562	690.25
513.778	715.25
513.994	745.25
514.21	740.25
514.426	760.25
514.642	794.25
514.858	859.25
515.074	890.25
515.29	1131.25
515.506	1735.25
515.721	1385.25
515.937	897.25
516.153	832.25
516.369	799.25
516.585	748.25
516.801	747.25
517.016	709.25
517.232	745.25
517.448	710.25
517.664	689.25
517.879	689.25
518.095	700.25
518.311	708.25
518.527	705.25
518.742	727.25
518.958	708.25
519.173	689.25
519.389	700.25
519.605	706.25
519.82	695.25
520.036	718.25
520.251	769.25
520.467	810.25
520.682	789.25
520.898	803.25
521.113	854.25
521.329	917.25
521.544	1062.25
521.76	1353.25
521.975	2275.25
522.19	2233.25
522.406	1189.25
522.621	889.25
522.836	767.25
523.052	720.25
523.267	686.25
523.482	683.25
523.698	670.25
523.913	663.25
524.128	657.25
524.343	630.25
524.559	638.25
524.774	622.25
524.989	626.25
525.204	637.25
525.419	625.25
525.634	622.25
525.849	595.25
526.064	579.25
526.28	589.25
526.495	584.25
526.71	570.25
526.925	571.25
527.14	564.25
527.355	572.25
527.57	566.25
527.785	589.25
527.999	572.25
528.214	565.25
528.429	560.25
528.644	567.25
528.859	571.25
529.074	587.25
529.289	616.25
529.503	723.25
529.718	714.25
529.933	609.25
530.148	579.25
530.363	584.25
530.577	568.25
530.792	533.25
531.007	577.25
531.221	535.25
531.436	550.25
531.651	545.25
531.865	548.25
532.08	537.25
532.295	534.25
532.509	541.25
532.724	537.25
532.938	527.25
533.153	529.25
533.367	522.25
533.582	524.25
533.796	569.25
534.011	525.25
534.225	521.25
534.44	504.25
534.654	525.25
534.868	525.25
535.083	516.25
535.297	532.25
535.511	523.25
535.726	528.25
535.94	535.25
536.154	523.25
536.369	513.25
536.583	544.25
536.797	520.25
537.011	507.25
537.225	511.25
537.44	506.25
537.654	518.25
537.868	510.25
538.082	492.25
538.296	525.25
538.51	512.25
538.724	526.25
538.938	542.25
539.153	523.25
539.367	536.25
539.581	549.25
539.795	531.25
540.009	527.25
540.222	508.25
540.436	491.25
540.65	523.25
540.864	520.25
541.078	509.25
541.292	543.25
541.506	516.25
541.72	501.25
541.934	514.25
542.147	521.25
542.361	495.25
542.575	500.25
542.789	505.25
543.002	487.25
543.216	493.25
543.43	522.25
543.644	525.25
543.857	502.25
544.071	500.25
544.285	519.25
544.498	502.25
544.712	516.25
544.925	504.25
545.139	499.25
545.352	501.25
545.566	474.25
545.779	515.25
545.993	514.25
546.206	503.25
546.42	510.25
546.633	504.25
546.847	483.25
547.06	485.25
547.274	483.25
547.487	460.25
547.7	507.25
547.914	500.25
548.127	488.25
548.34	479.25
548.554	473.25
548.767	493.25
548.98	464.25
549.193	484.25
549.407	458.25
549.62	465.25
549.833	480.25
550.046	470.25
550.259	481.25
550.473	486.25
550.686	472.25
550.899	482.25
551.112	470.25
551.325	472.25
551.538	490.25
551.751	460.25
551.964	463.25
552.177	473.25
552.39	471.25
552.603	469.25
552.816	478.25
553.029	455.25
553.242	483.25
553.455	476.25
553.667	504.25
553.88	510.25
554.093	490.25
554.306	494.25
554.519	503.25
554.732	491.25
554.944	469.25
555.157	469.25
555.37	455.25
555.583	448.25
555.795	460.25
556.008	460.25
556.221	450.25
556.433	442.25
556.646	446.25
556.859	435.25
557.071	434.25
557.284	414.25
557.496	436.25
557.709	425.25
557.921	423.25
558.134	452.25
558.346	440.25
558.559	425.25
558.771	424.25
558.984	448.25
559.196	434.25
559.409	421.25
559.621	438.25
559.833	441.25
560.046	448.25
560.258	425.25
560.47	437.25
560.683	420.25
560.895	413.25
561.107	401.25
561.32	423.25
561.532	405.25
561.744	415.25
561.956	446.25
562.168	425.25
562.381	441.25
562.593	424.25
562.805	441.25
563.017	433.25
563.229	427.25
563.441	429.25
563.653	433.25
563.865	419.25
564.077	424.25
564.289	439.25
564.501	432.25
564.713	459.25
564.925	428.25
565.137	441.25
565.349	467.25
565.561	426.25
565.773	457.25
565.985	437.25
566.197	477.25
566.408	472.25
566.62	476.25
566.832	461.25
567.044	478.25
567.255	471.25
567.467	479.25
567.679	472.25
567.891	491.25
568.102	471.25
568.314	481.25
568.526	467.25
568.737	467.25
568.949	429.25
569.161	441.25
569.372	445.25
569.584	411.25
569.795	425.25
570.007	430.25
570.218	491.25
570.43	449.25
570.641	411.25
570.853	406.25
571.064	399.25
571.276	421.25
571.487	399.25
571.698	386.25
571.91	403.25
572.121	377.25
572.333	388.25
572.544	376.25
572.755	378.25
572.966	379.25
573.178	386.25
573.389	392.25
573.6	375.25
573.811	365.25
574.023	372.25
574.234	353.25
574.445	363.25
574.656	361.25
574.867	350.25
575.078	355.25
575.289	358.25
575.501	362.25
575.712	366.25
575.923	349.25
576.134	363.25
576.345	352.25
576.556	370.25
576.767	347.25
576.978	377.25
577.188	377.25
577.399	365.25
577.61	369.25
577.821	352.25
578.032	373.25
578.243	413.25
578.454	739.25
578.665	503.25
578.875	375.25
579.086	359.25
579.297	326.25
579.508	353.25
579.718	343.25
579.929	359.25
580.14	341.25
580.35	347.25
580.561	345.25
580.772	331.25
580.982	337.25
581.193	332.25
581.403	343.25
581.614	369.25
581.825	349.25
582.035	356.25
582.246	343.25
582.456	322.25
582.667	353.25
582.877	319.25
583.087	313.25
583.298	346.25
583.508	333.25
583.719	336.25
583.929	338.25
584.139	322.25
584.35	341.25
584.56	323.25
584.77	314.25
584.981	329.25
585.191	320.25
585.401	310.25
585.611	322.25
585.821	322.25
586.032	327.25
586.242	314.25
586.452	334.25
586.662	315.25
586.872	325.25
587.082	309.25
587.292	299.25
587.502	317.25
587.713	323.25
587.923	312.25
588.133	314.25
588.343	317.25
588.553	310.25
588.762	315.25
588.972	308.25
589.182	301.25
589.392	300.25
589.602	315.25
589.812	312.25
590.022	316.25
590.232	315.25
590.441	318.25
590.651	301.25
590.861	313.25
591.071	316.25
591.281	312.25
591.49	314.25
591.7	330.25
591.91	326.25
592.119	338.25
592.329	328.25
592.539	322.25
592.748	313.25
592.958	319.25
593.167	318.25
593.377	321.25
593.587	318.25
593.796	327.25
594.006	316.25
594.215	322.25
594.424	316.25
594.634	329.25
594.843	332.25
595.053	319.25
595.262	303.25
595.472	313.25
595.681	313.25
595.89	316.25
596.1	307.25
596.309	305.25
596.518	291.25
596.727	298.25
596.937	296.25
597.146	307.25
597.355	292.25
597.564	294.25
597.774	308.25
597.983	285.25
598.192	289.25
598.401	284.25
598.61	284.25
598.819	280.25
599.028	265.25
599.237	300.25
599.446	298.25
599.655	305.25
599.864	298.25
600.073	278.25
600.282	267.25
600.491	275.25
600.7	285.25
600.909	285.25
601.118	274.25
601.327	285.25
601.536	296.25
601.745	290.25
601.953	278.25
602.162	271.25
602.371	278.25
602.58	288.25
602.789	291.25
602.997	268.25
603.206	265.25
603.415	258.25
603.623	275.25
603.832	276.25
604.041	277.25
604.249	287.25
604.458	281.25
604.666	264.25
604.875	270.25
605.084	250.25
605.292	263.25
605.501	283.25
605.709	266.25
605.918	272.25
606.126	270.25
606.334	277.25
606.543	265.25
606.751	278.25
606.96	256.25
607.168	279.25
607.376	268.25
607.585	261.25
607.793	282.25
608.001	253.25
608.21	270.25
608.418	260.25
608.626	264.25
608.834	279.25
609.043	269.25
609.251	251.25
609.459	260.25
609.667	271.25
609.875	271.25
610.083	269.25
610.291	280.25
610.499	261.25
610.707	260.25
610.916	283.25
611.124	274.25
611.332	242.25
611.54	275.25
611.748	263.25
611.955	275.25
612.163	283.25
612.371	261.25
612.579	281.25
612.787	263.25
612.995	266.25
613.203	253.25
613.411	248.25
613.618	255.25
613.826	245.25
614.034	258.25
614.242	281.25
614.449	261.25
614.657	260.25
614.865	261.25
615.072	271.25
615.28	267.25
615.488	269.25
615.695	264.25
615.903	243.25
616.111	281.25
616.318	272.25
616.526	247.25
616.733	261.25
616.941	265.25
617.148	250.25
617.356	261.25
617.563	266.25
617.771	233.25
617.978	255.25
618.185	248.25
618.393	242.25
618.6	269.25
618.807	259.25
619.015	248.25
619.222	259.25
619.429	241.25
619.637	255.25
619.844	249.25
620.051	256.25
620.258	257.25
620.466	243.25
620.673	235.25
620.88	253.25
621.087	229.25
621.294	231.25
621.501	236.25
621.708	241.25
621.915	244.25
622.122	235.25
622.329	243.25
622.536	234.25
622.743	246.25
622.95	237.25
623.157	250.25
623.364	247.25
623.571	223.25
623.778	225.25
623.985	234.25
624.192	216.25
624.399	235.25
624.606	234.25
624.812	244.25
625.019	232.25
625.226	231.25
625.433	233.25
625.639	216.25
625.846	253.25
626.053	225.25
626.259	225.25
626.466	228.25
626.673	214.25
626.879	221.25
627.086	230.25
627.293	223.25
627.499	222.25
627.706	209.25
627.912	213.25
628.119	243.25
628.325	239.25
628.532	237.25
628.738	219.25
628.945	223.25
629.151	228.25
629.357	234.25
629.564	222.25
629.77	210.25
629.976	207.25
630.183	207.25
630.389	227.25
630.595	218.25
630.802	213.25
631.008	214.25
631.214	232.25
631.42	221.25
631.627	211.25
631.833	197.25
632.039	187.25
632.245	195.25
632.451	205.25
632.657	211.25
632.863	210.25
633.069	212.25
633.275	207.25
633.481	207.25
633.688	205.25
633.893	198.25
634.099	187.25
634.305	190.25
634.511	192.25
634.717	204.25
634.923	192.25
635.129	203.25
635.335	195.25
635.541	197.25
635.747	194.25
635.952	188.25
636.158	195.25
636.364	217.25
636.57	212.25
636.775	199.25
636.981	191.25
637.187	198.25
637.392	194.25
637.598	193.25
637.804	203.25
638.009	170.25
638.215	193.25
638.421	193.25
638.626	181.25
638.832	181.25
639.037	191.25
639.243	193.25
639.448	188.25
639.654	188.25
639.859	181.25
640.065	179.25
640.27	196.25
640.475	191.25
640.681	186.25
640.886	169.25
641.091	191.25
641.297	201.25
641.502	194.25
641.707	199.25
641.913	182.25
642.118	177.25
642.323	183.25
642.528	189.25
642.733	187.25
642.939	190.25
643.144	189.25
643.349	179.25
643.554	185.25
643.759	182.25
643.964	181.25
644.169	184.25
644.374	198.25
644.579	174.25
644.784	191.25
644.989	163.25
645.194	186.25
645.399	169.25
645.604	165.25
645.809	177.25
646.014	190.25
646.219	180.25
646.423	165.25
646.628	194.25
646.833	175.25
647.038	181.25
647.243	179.25
647.447	183.25
647.652	187.25
647.857	183.25
648.062	188.25
648.266	182.25
648.471	186.25
648.676	185.25
648.88	181.25
649.085	192.25
649.289	196.25
649.494	189.25
649.698	187.25
649.903	191.25
650.107	184.25
650.312	181.25
650.516	172.25
650.721	173.25
650.925	183.25
651.13	170.25
651.334	157.25
651.539	161.25
651.743	159.25
651.947	166.25
652.152	157.25
652.356	168.25
652.56	146.25
652.764	161.25
652.969	154.25
653.173	158.25
653.377	154.25
653.581	151.25
653.785	141.25
653.99	138.25
654.194	141.25
654.398	134.25
654.602	141.25
654.806	153.25
655.01	142.25
655.214	159.25
655.418	134.25
655.622	139.25
655.826	133.25
656.03	129.25
656.234	129.25
656.438	137.25
656.642	133.25
656.846	135.25
657.049	128.25
657.253	127.25
657.457	141.25
657.661	131.25
657.865	116.25
658.068	112.25
658.272	106.25
658.476	117.25
658.68	113.25
658.883	126.25
659.087	117.25
659.291	107.25
659.494	106.25
659.698	103.25
659.901	105.25
660.105	93.25
660.309	88.25
660.512	109.25
660.716	97.25
660.919	91.25
661.123	99.25
661.326	83.25
661.53	100.25
661.733	91.25
661.936	79.25
662.14	81.25
662.343	82.25
662.546	78.25
662.75	79.25
662.953	83.25
663.156	90.25
663.36	86.25
663.563	89.25
663.766	94.25
663.969	87.25
664.173	84.25
664.376	90.25
664.579	81.25
664.782	87.25
664.985	87.25
665.188	93.25
665.391	74.25
665.594	81.25
665.797	81.25
666	93.25
666.203	96.25
666.406	87.25
666.609	83.25
666.812	93.25
667.015	90.25
667.218	89.25
667.421	84.25
667.624	84.25
667.827	91.25
668.03	87.25
668.232	81.25
668.435	75.25
668.638	74.25
668.841	79.25
669.043	69.25
669.246	75.25
669.449	82.25
669.651	65.25
669.854	68.25
670.057	86.25
670.259	93.25
670.462	82.25
670.665	80.25
670.867	89.25
671.07	69.25
671.272	91.25
671.475	95.25
671.677	88.25
671.88	91.25
672.082	76.25
672.284	84.25
672.487	90.25
672.689	80.25
672.892	83.25
