Data from 1971.PennyLincolnUp.Lamp.En5.5.200Scan.071719.P1._HRD10591_15-19-40-842.txt Node
Date: Thu Jul 18 15:19:40 EDT 2019
User: cochatt
Spectrometer: HR+D1059
Trigger mode: 1
Integration Time (sec): 1.000000E-1
Scans to average: 1
Electric dark correction enabled: true
Nonlinearity correction enabled: false
Boxcar width: 0
XAxis mode: Wavelengths
Number of Pixels in Spectrum: 2048
>>>>>Begin Spectral Data<<<<<
223.165	-8.62
223.4	-8.62
223.635	-8.62
223.869	-20.62
224.104	-16.62
224.338	-13.62
224.573	1.38
224.808	-16.62
225.042	-10.62
225.277	-2.62
225.511	-6.62
225.746	-7.62
225.98	16.38
226.215	-9.62
226.449	14.38
226.683	20.38
226.918	28.38
227.152	32.38
227.387	33.38
227.621	51.38
227.856	50.38
228.09	50.38
228.324	47.38
228.559	55.38
228.793	75.38
229.027	92.38
229.262	99.38
229.496	126.38
229.73	127.38
229.964	149.38
230.199	127.38
230.433	105.38
230.667	113.38
230.901	120.38
231.136	109.38
231.37	126.38
231.604	123.38
231.838	96.38
232.072	101.38
232.306	122.38
232.541	124.38
232.775	119.38
233.009	118.38
233.243	129.38
233.477	116.38
233.711	126.38
233.945	136.38
234.179	120.38
234.413	121.38
234.647	133.38
234.881	129.38
235.115	108.38
235.349	108.38
235.583	132.38
235.817	109.38
236.051	124.38
236.285	131.38
236.519	127.38
236.753	131.38
236.987	135.38
237.221	167.38
237.455	235.38
237.689	165.38
237.922	137.38
238.156	139.38
238.39	143.38
238.624	135.38
238.858	142.38
239.091	138.38
239.325	130.38
239.559	122.38
239.793	134.38
240.027	141.38
240.26	143.38
240.494	161.38
240.728	160.38
240.961	140.38
241.195	146.38
241.429	149.38
241.662	140.38
241.896	125.38
242.13	140.38
242.363	126.38
242.597	138.38
242.83	137.38
243.064	140.38
243.298	144.38
243.531	135.38
243.765	139.38
243.998	143.38
244.232	143.38
244.465	150.38
244.699	163.38
244.932	142.38
245.166	150.38
245.399	144.38
245.633	139.38
245.866	143.38
246.099	160.38
246.333	160.38
246.566	141.38
246.8	154.38
247.033	166.38
247.266	155.38
247.5	172.38
247.733	168.38
247.966	177.38
248.2	184.38
248.433	161.38
248.666	190.38
248.899	204.38
249.133	214.38
249.366	218.38
249.599	180.38
249.832	176.38
250.066	195.38
250.299	186.38
250.532	179.38
250.765	211.38
250.998	228.38
251.231	239.38
251.465	228.38
251.698	195.38
251.931	207.38
252.164	211.38
252.397	211.38
252.63	205.38
252.863	218.38
253.096	232.38
253.329	239.38
253.562	239.38
253.795	227.38
254.028	241.38
254.261	248.38
254.494	223.38
254.727	261.38
254.96	262.38
255.193	270.38
255.426	263.38
255.659	250.38
255.892	241.38
256.124	251.38
256.357	243.38
256.59	249.38
256.823	228.38
257.056	228.38
257.289	223.38
257.521	216.38
257.754	227.38
257.987	223.38
258.22	228.38
258.452	203.38
258.685	208.38
258.918	222.38
259.151	207.38
259.383	249.38
259.616	240.38
259.849	232.38
260.081	251.38
260.314	264.38
260.547	270.38
260.779	246.38
261.012	240.38
261.244	237.38
261.477	239.38
261.71	229.38
261.942	254.38
262.175	234.38
262.407	236.38
262.64	229.38
262.872	227.38
263.105	214.38
263.337	227.38
263.57	203.38
263.802	235.38
264.035	218.38
264.267	236.38
264.499	224.38
264.732	208.38
264.964	214.38
265.197	215.38
265.429	214.38
265.661	207.38
265.894	220.38
266.126	226.38
266.358	222.38
266.591	221.38
266.823	230.38
267.055	242.38
267.287	254.38
267.52	237.38
267.752	242.38
267.984	249.38
268.216	248.38
268.448	230.38
268.681	241.38
268.913	256.38
269.145	274.38
269.377	299.38
269.609	288.38
269.841	285.38
270.073	280.38
270.306	291.38
270.538	315.38
270.77	320.38
271.002	322.38
271.234	303.38
271.466	314.38
271.698	316.38
271.93	336.38
272.162	328.38
272.394	324.38
272.626	328.38
272.858	326.38
273.09	289.38
273.322	302.38
273.553	277.38
273.785	281.38
274.017	282.38
274.249	268.38
274.481	262.38
274.713	276.38
274.945	270.38
275.176	284.38
275.408	293.38
275.64	284.38
275.872	266.38
276.104	280.38
276.335	275.38
276.567	300.38
276.799	289.38
277.031	324.38
277.262	338.38
277.494	315.38
277.726	317.38
277.957	313.38
278.189	284.38
278.421	292.38
278.652	283.38
278.884	284.38
279.115	291.38
279.347	283.38
279.579	250.38
279.81	272.38
280.042	289.38
280.273	287.38
280.505	269.38
280.736	278.38
280.968	285.38
281.199	282.38
281.431	290.38
281.662	293.38
281.894	265.38
282.125	266.38
282.356	298.38
282.588	294.38
282.819	306.38
283.051	298.38
283.282	288.38
283.513	282.38
283.745	268.38
283.976	288.38
284.207	302.38
284.439	310.38
284.67	304.38
284.901	290.38
285.132	297.38
285.364	275.38
285.595	308.38
285.826	302.38
286.057	310.38
286.288	296.38
286.52	291.38
286.751	283.38
286.982	286.38
287.213	295.38
287.444	290.38
287.675	304.38
287.906	300.38
288.138	316.38
288.369	314.38
288.6	310.38
288.831	304.38
289.062	316.38
289.293	307.38
289.524	310.38
289.755	308.38
289.986	305.38
290.217	287.38
290.448	302.38
290.679	312.38
290.91	290.38
291.141	304.38
291.371	316.38
291.602	319.38
291.833	298.38
292.064	298.38
292.295	302.38
292.526	309.38
292.757	304.38
292.987	295.38
293.218	320.38
293.449	324.38
293.68	314.38
293.91	299.38
294.141	289.38
294.372	285.38
294.603	290.38
294.833	312.38
295.064	325.38
295.295	324.38
295.525	329.38
295.756	307.38
295.987	302.38
296.217	324.38
296.448	338.38
296.679	316.38
296.909	314.38
297.14	320.38
297.37	302.38
297.601	296.38
297.831	320.38
298.062	308.38
298.292	312.38
298.523	320.38
298.753	330.38
298.984	316.38
299.214	328.38
299.445	335.38
299.675	314.38
299.905	325.38
300.136	313.38
300.366	295.38
300.597	299.38
300.827	316.38
301.057	321.38
301.288	326.38
301.518	346.38
301.748	332.38
301.979	340.38
302.209	348.38
302.439	333.38
302.669	349.38
302.9	335.38
303.13	346.38
303.36	348.38
303.59	350.38
303.82	343.38
304.051	344.38
304.281	354.38
304.511	323.38
304.741	328.38
304.971	352.38
305.201	339.38
305.431	339.38
305.661	322.38
305.891	348.38
306.121	342.38
306.352	332.38
306.582	355.38
306.812	355.38
307.042	361.38
307.272	343.38
307.502	331.38
307.731	344.38
307.961	350.38
308.191	350.38
308.421	356.38
308.651	348.38
308.881	345.38
309.111	366.38
309.341	359.38
309.571	369.38
309.8	358.38
310.03	387.38
310.26	390.38
310.49	378.38
310.72	389.38
310.949	378.38
311.179	407.38
311.409	384.38
311.639	367.38
311.868	372.38
312.098	390.38
312.328	390.38
312.557	404.38
312.787	414.38
313.017	412.38
313.246	407.38
313.476	391.38
313.706	382.38
313.935	410.38
314.165	392.38
314.394	418.38
314.624	418.38
314.853	407.38
315.083	404.38
315.312	383.38
315.542	373.38
315.771	393.38
316.001	384.38
316.23	396.38
316.46	384.38
316.689	396.38
316.919	383.38
317.148	390.38
317.377	403.38
317.607	408.38
317.836	398.38
318.065	388.38
318.295	405.38
318.524	379.38
318.753	390.38
318.983	383.38
319.212	378.38
319.441	413.38
319.67	387.38
319.9	366.38
320.129	396.38
320.358	401.38
320.587	396.38
320.816	404.38
321.046	399.38
321.275	389.38
321.504	403.38
321.733	416.38
321.962	426.38
322.191	435.38
322.42	447.38
322.649	436.38
322.878	455.38
323.108	454.38
323.337	468.38
323.566	519.38
323.795	526.38
324.024	580.38
324.253	678.38
324.482	1003.38
324.71	1510.38
324.939	1990.38
325.168	1710.38
325.397	890.38
325.626	609.38
325.855	534.38
326.084	492.38
326.313	518.38
326.542	517.38
326.77	576.38
326.999	664.38
327.228	879.38
327.457	1265.38
327.686	1472.38
327.914	992.38
328.143	698.38
328.372	590.38
328.6	572.38
328.829	555.38
329.058	557.38
329.287	555.38
329.515	534.38
329.744	502.38
329.972	516.38
330.201	526.38
330.43	566.38
330.658	573.38
330.887	595.38
331.115	578.38
331.344	499.38
331.572	477.38
331.801	492.38
332.03	481.38
332.258	456.38
332.486	469.38
332.715	456.38
332.943	440.38
333.172	435.38
333.4	457.38
333.629	463.38
333.857	484.38
334.085	485.38
334.314	513.38
334.542	497.38
334.771	510.38
334.999	476.38
335.227	456.38
335.455	464.38
335.684	435.38
335.912	459.38
336.14	450.38
336.369	448.38
336.597	453.38
336.825	430.38
337.053	438.38
337.281	442.38
337.51	439.38
337.738	431.38
337.966	444.38
338.194	442.38
338.422	423.38
338.65	438.38
338.878	422.38
339.106	420.38
339.334	422.38
339.562	426.38
339.79	423.38
340.018	447.38
340.246	413.38
340.474	432.38
340.702	433.38
340.93	418.38
341.158	410.38
341.386	413.38
341.614	452.38
341.842	416.38
342.07	429.38
342.298	435.38
342.526	412.38
342.754	399.38
342.981	433.38
343.209	392.38
343.437	389.38
343.665	428.38
343.893	436.38
344.12	446.38
344.348	431.38
344.576	422.38
344.804	415.38
345.031	447.38
345.259	429.38
345.487	435.38
345.714	408.38
345.942	394.38
346.17	412.38
346.397	418.38
346.625	399.38
346.853	412.38
347.08	396.38
347.308	388.38
347.535	421.38
347.763	412.38
347.99	412.38
348.218	430.38
348.445	415.38
348.673	414.38
348.9	406.38
349.128	405.38
349.355	392.38
349.583	369.38
349.81	391.38
350.037	394.38
350.265	405.38
350.492	366.38
350.72	380.38
350.947	395.38
351.174	398.38
351.402	392.38
351.629	419.38
351.856	403.38
352.083	389.38
352.311	403.38
352.538	427.38
352.765	427.38
352.992	412.38
353.22	392.38
353.447	400.38
353.674	396.38
353.901	380.38
354.128	373.38
354.355	367.38
354.583	374.38
354.81	386.38
355.037	383.38
355.264	380.38
355.491	371.38
355.718	367.38
355.945	376.38
356.172	376.38
356.399	379.38
356.626	355.38
356.853	371.38
357.08	378.38
357.307	371.38
357.534	369.38
357.761	376.38
357.988	378.38
358.215	362.38
358.441	380.38
358.668	345.38
358.895	364.38
359.122	388.38
359.349	384.38
359.576	404.38
359.802	419.38
360.029	416.38
360.256	431.38
360.483	418.38
360.709	388.38
360.936	386.38
361.163	383.38
361.39	393.38
361.616	391.38
361.843	387.38
362.07	386.38
362.296	398.38
362.523	411.38
362.749	406.38
362.976	395.38
363.203	366.38
363.429	378.38
363.656	386.38
363.882	362.38
364.109	374.38
364.335	359.38
364.562	371.38
364.788	372.38
365.015	378.38
365.241	348.38
365.468	380.38
365.694	386.38
365.92	388.38
366.147	364.38
366.373	378.38
366.599	350.38
366.826	350.38
367.052	371.38
367.278	360.38
367.505	379.38
367.731	369.38
367.957	365.38
368.184	370.38
368.41	398.38
368.636	384.38
368.862	375.38
369.089	384.38
369.315	369.38
369.541	361.38
369.767	366.38
369.993	369.38
370.219	382.38
370.445	360.38
370.672	374.38
370.898	387.38
371.124	383.38
371.35	360.38
371.576	357.38
371.802	359.38
372.028	356.38
372.254	354.38
372.48	355.38
372.706	374.38
372.932	348.38
373.158	356.38
373.384	363.38
373.61	366.38
373.835	380.38
374.061	370.38
374.287	369.38
374.513	362.38
374.739	377.38
374.965	383.38
375.191	384.38
375.416	370.38
375.642	334.38
375.868	349.38
376.094	385.38
376.319	357.38
376.545	363.38
376.771	362.38
376.997	366.38
377.222	369.38
377.448	362.38
377.674	355.38
377.899	360.38
378.125	356.38
378.35	361.38
378.576	346.38
378.802	359.38
379.027	363.38
379.253	366.38
379.478	342.38
379.704	349.38
379.929	368.38
380.155	355.38
380.38	346.38
380.606	340.38
380.831	364.38
381.057	355.38
381.282	362.38
381.507	367.38
381.733	360.38
381.958	360.38
382.184	371.38
382.409	372.38
382.634	365.38
382.86	356.38
383.085	360.38
383.31	360.38
383.535	371.38
383.761	364.38
383.986	350.38
384.211	352.38
384.436	382.38
384.662	370.38
384.887	387.38
385.112	363.38
385.337	365.38
385.562	376.38
385.787	368.38
386.013	398.38
386.238	392.38
386.463	383.38
386.688	388.38
386.913	374.38
387.138	360.38
387.363	365.38
387.588	362.38
387.813	381.38
388.038	376.38
388.263	373.38
388.488	364.38
388.713	382.38
388.938	382.38
389.163	368.38
389.387	388.38
389.612	376.38
389.837	391.38
390.062	368.38
390.287	374.38
390.512	357.38
390.736	368.38
390.961	381.38
391.186	390.38
391.411	384.38
391.636	389.38
391.86	392.38
392.085	393.38
392.31	394.38
392.534	389.38
392.759	383.38
392.984	378.38
393.208	370.38
393.433	386.38
393.658	381.38
393.882	369.38
394.107	387.38
394.331	375.38
394.556	366.38
394.78	386.38
395.005	374.38
395.229	378.38
395.454	382.38
395.678	393.38
395.903	387.38
396.127	410.38
396.352	418.38
396.576	396.38
396.801	377.38
397.025	387.38
397.249	381.38
397.474	409.38
397.698	399.38
397.922	444.38
398.147	394.38
398.371	426.38
398.595	402.38
398.82	397.38
399.044	442.38
399.268	439.38
399.492	461.38
399.717	477.38
399.941	485.38
400.165	502.38
400.389	520.38
400.613	482.38
400.837	460.38
401.062	440.38
401.286	427.38
401.51	416.38
401.734	403.38
401.958	402.38
402.182	411.38
402.406	426.38
402.63	436.38
402.854	424.38
403.078	437.38
403.302	415.38
403.526	455.38
403.75	406.38
403.974	415.38
404.198	429.38
404.422	449.38
404.645	441.38
404.869	451.38
405.093	453.38
405.317	484.38
405.541	518.38
405.765	489.38
405.988	452.38
406.212	464.38
406.436	468.38
406.66	457.38
406.883	457.38
407.107	480.38
407.331	528.38
407.555	580.38
407.778	552.38
408.002	517.38
408.226	486.38
408.449	471.38
408.673	472.38
408.896	481.38
409.12	533.38
409.344	482.38
409.567	460.38
409.791	424.38
410.014	455.38
410.238	417.38
410.461	420.38
410.685	442.38
410.908	445.38
411.132	467.38
411.355	498.38
411.578	478.38
411.802	431.38
412.025	422.38
412.249	450.38
412.472	436.38
412.695	474.38
412.919	479.38
413.142	449.38
413.365	428.38
413.589	415.38
413.812	414.38
414.035	414.38
414.258	415.38
414.482	402.38
414.705	387.38
414.928	416.38
415.151	425.38
415.374	393.38
415.597	393.38
415.821	385.38
416.044	384.38
416.267	406.38
416.49	395.38
416.713	390.38
416.936	407.38
417.159	395.38
417.382	391.38
417.605	414.38
417.828	432.38
418.051	459.38
418.274	413.38
418.497	411.38
418.72	435.38
418.943	416.38
419.166	447.38
419.389	440.38
419.611	421.38
419.834	422.38
420.057	425.38
420.28	431.38
420.503	410.38
420.726	434.38
420.948	448.38
421.171	474.38
421.394	500.38
421.617	454.38
421.839	448.38
422.062	450.38
422.285	451.38
422.507	490.38
422.73	557.38
422.953	518.38
423.175	453.38
423.398	435.38
423.621	420.38
423.843	459.38
424.066	480.38
424.288	456.38
424.511	476.38
424.733	518.38
424.956	580.38
425.178	539.38
425.401	548.38
425.623	578.38
425.846	495.38
426.068	465.38
426.291	445.38
426.513	455.38
426.735	448.38
426.958	502.38
427.18	589.38
427.402	658.38
427.625	731.38
427.847	650.38
428.069	585.38
428.292	494.38
428.514	462.38
428.736	428.38
428.958	429.38
429.181	422.38
429.403	416.38
429.625	423.38
429.847	455.38
430.069	498.38
430.292	506.38
430.514	442.38
430.736	422.38
430.958	415.38
431.18	421.38
431.402	410.38
431.624	387.38
431.846	399.38
432.068	363.38
432.29	398.38
432.512	404.38
432.734	413.38
432.956	412.38
433.178	418.38
433.4	404.38
433.622	408.38
433.844	392.38
434.066	400.38
434.287	387.38
434.509	367.38
434.731	412.38
434.953	401.38
435.175	426.38
435.397	428.38
435.618	454.38
435.84	485.38
436.062	571.38
436.284	606.38
436.505	516.38
436.727	474.38
436.949	442.38
437.17	404.38
437.392	414.38
437.614	430.38
437.835	472.38
438.057	539.38
438.278	608.38
438.5	594.38
438.721	659.38
438.943	621.38
439.165	541.38
439.386	485.38
439.608	466.38
439.829	472.38
440.05	480.38
440.272	533.38
440.493	488.38
440.715	461.38
440.936	426.38
441.158	433.38
441.379	430.38
441.6	432.38
441.822	442.38
442.043	502.38
442.264	573.38
442.486	589.38
442.707	505.38
442.928	467.38
443.149	472.38
443.371	498.38
443.592	532.38
443.813	594.38
444.034	635.38
444.255	537.38
444.476	471.38
444.698	455.38
444.919	451.38
445.14	573.38
445.361	521.38
445.582	497.38
445.803	560.38
446.024	622.38
446.245	621.38
446.466	567.38
446.687	486.38
446.908	483.38
447.129	455.38
447.35	430.38
447.571	434.38
447.792	424.38
448.013	433.38
448.234	471.38
448.455	492.38
448.675	588.38
448.896	647.38
449.117	570.38
449.338	526.38
449.559	626.38
449.779	699.38
450	568.38
450.221	466.38
450.442	447.38
450.662	424.38
450.883	430.38
451.104	435.38
451.324	406.38
451.545	397.38
451.766	399.38
451.986	393.38
452.207	375.38
452.428	354.38
452.648	390.38
452.869	372.38
453.089	386.38
453.31	384.38
453.53	381.38
453.751	374.38
453.971	379.38
454.192	379.38
454.412	372.38
454.633	368.38
454.853	364.38
455.073	362.38
455.294	386.38
455.514	450.38
455.734	433.38
455.955	388.38
456.175	372.38
456.395	347.38
456.616	358.38
456.836	377.38
457.056	347.38
457.276	350.38
457.497	336.38
457.717	343.38
457.937	360.38
458.157	363.38
458.377	373.38
458.598	382.38
458.818	434.38
459.038	506.38
459.258	516.38
459.478	434.38
459.698	396.38
459.918	393.38
460.138	378.38
460.358	388.38
460.578	400.38
460.798	389.38
461.018	407.38
461.238	371.38
461.458	405.38
461.678	382.38
461.898	386.38
462.118	390.38
462.338	386.38
462.558	407.38
462.777	424.38
462.997	415.38
463.217	403.38
463.437	424.38
463.657	406.38
463.876	400.38
464.096	416.38
464.316	414.38
464.536	396.38
464.755	428.38
464.975	434.38
465.195	459.38
465.414	483.38
465.634	452.38
465.854	405.38
466.073	414.38
466.293	410.38
466.512	405.38
466.732	387.38
466.951	384.38
467.171	377.38
467.391	363.38
467.61	388.38
467.829	404.38
468.049	402.38
468.268	397.38
468.488	377.38
468.707	393.38
468.927	378.38
469.146	350.38
469.365	398.38
469.585	381.38
469.804	390.38
470.023	390.38
470.243	396.38
470.462	383.38
470.681	425.38
470.901	396.38
471.12	390.38
471.339	375.38
471.558	378.38
471.777	376.38
471.997	368.38
472.216	380.38
472.435	418.38
472.654	399.38
472.873	382.38
473.092	387.38
473.311	389.38
473.53	376.38
473.749	401.38
473.968	419.38
474.187	520.38
474.406	561.38
474.625	436.38
474.844	416.38
475.063	387.38
475.282	395.38
475.501	397.38
475.72	400.38
475.939	390.38
476.158	394.38
476.377	399.38
476.596	405.38
476.814	416.38
477.033	404.38
477.252	401.38
477.471	389.38
477.69	402.38
477.908	424.38
478.127	425.38
478.346	424.38
478.564	432.38
478.783	425.38
479.002	431.38
479.22	435.38
479.439	439.38
479.658	455.38
479.876	448.38
480.095	467.38
480.313	465.38
480.532	474.38
480.751	482.38
480.969	472.38
481.188	521.38
481.406	543.38
481.624	489.38
481.843	473.38
482.061	466.38
482.28	448.38
482.498	456.38
482.717	436.38
482.935	446.38
483.153	436.38
483.372	461.38
483.59	462.38
483.808	459.38
484.027	442.38
484.245	447.38
484.463	458.38
484.681	434.38
484.9	455.38
485.118	446.38
485.336	454.38
485.554	466.38
485.772	472.38
485.99	466.38
486.209	456.38
486.427	446.38
486.645	471.38
486.863	459.38
487.081	491.38
487.299	496.38
487.517	479.38
487.735	479.38
487.953	490.38
488.171	471.38
488.389	478.38
488.607	498.38
488.825	462.38
489.043	503.38
489.261	486.38
489.479	489.38
489.696	502.38
489.914	485.38
490.132	483.38
490.35	491.38
490.568	490.38
490.786	532.38
491.003	517.38
491.221	522.38
491.439	548.38
491.657	536.38
491.874	555.38
492.092	569.38
492.31	570.38
492.527	575.38
492.745	558.38
492.963	568.38
493.18	561.38
493.398	582.38
493.615	566.38
493.833	598.38
494.05	560.38
494.268	574.38
494.485	582.38
494.703	532.38
494.92	566.38
495.138	566.38
495.355	559.38
495.573	550.38
495.79	583.38
496.008	562.38
496.225	570.38
496.442	548.38
496.66	572.38
496.877	557.38
497.094	566.38
497.312	558.38
497.529	574.38
497.746	591.38
497.963	591.38
498.181	605.38
498.398	606.38
498.615	621.38
498.832	625.38
499.049	610.38
499.267	642.38
499.484	644.38
499.701	671.38
499.918	697.38
500.135	712.38
500.352	750.38
500.569	769.38
500.786	747.38
501.003	735.38
501.22	721.38
501.437	700.38
501.654	701.38
501.871	706.38
502.088	673.38
502.305	647.38
502.522	647.38
502.739	612.38
502.956	594.38
503.172	574.38
503.389	566.38
503.606	590.38
503.823	573.38
504.04	578.38
504.256	580.38
504.473	568.38
504.69	555.38
504.907	566.38
505.123	541.38
505.34	530.38
505.557	530.38
505.773	544.38
505.99	552.38
506.207	549.38
506.423	521.38
506.64	538.38
506.856	511.38
507.073	530.38
507.289	536.38
507.506	519.38
507.722	550.38
507.939	546.38
508.155	527.38
508.372	520.38
508.588	524.38
508.805	519.38
509.021	515.38
509.238	536.38
509.454	535.38
509.67	522.38
509.887	513.38
510.103	507.38
510.319	530.38
510.536	599.38
510.752	924.38
510.968	742.38
511.184	521.38
511.401	468.38
511.617	487.38
511.833	487.38
512.049	461.38
512.265	466.38
512.481	496.38
512.698	474.38
512.914	490.38
513.13	479.38
513.346	479.38
513.562	479.38
513.778	464.38
513.994	480.38
514.21	498.38
514.426	506.38
514.642	550.38
514.858	548.38
515.074	592.38
515.29	690.38
515.506	952.38
515.721	786.38
515.937	558.38
516.153	535.38
516.369	523.38
516.585	498.38
516.801	482.38
517.016	494.38
517.232	480.38
517.448	499.38
517.664	474.38
517.879	502.38
518.095	474.38
518.311	480.38
518.527	478.38
518.742	497.38
518.958	512.38
519.173	484.38
519.389	498.38
519.605	478.38
519.82	484.38
520.036	490.38
520.251	516.38
520.467	521.38
520.682	519.38
520.898	525.38
521.113	547.38
521.329	578.38
521.544	642.38
521.76	791.38
521.975	1248.38
522.19	1156.38
522.406	654.38
522.621	544.38
522.836	516.38
523.052	468.38
523.267	467.38
523.482	467.38
523.698	451.38
523.913	456.38
524.128	447.38
524.343	453.38
524.559	414.38
524.774	430.38
524.989	436.38
525.204	421.38
525.419	427.38
525.634	420.38
525.849	416.38
526.064	408.38
526.28	406.38
526.495	387.38
526.71	411.38
526.925	384.38
527.14	392.38
527.355	389.38
527.57	388.38
527.785	410.38
527.999	389.38
528.214	398.38
528.429	393.38
528.644	388.38
528.859	393.38
529.074	397.38
529.289	420.38
529.503	485.38
529.718	476.38
529.933	417.38
530.148	406.38
530.363	401.38
530.577	390.38
530.792	394.38
531.007	378.38
531.221	385.38
531.436	382.38
531.651	377.38
531.865	365.38
532.08	369.38
532.295	366.38
532.509	378.38
532.724	371.38
532.938	371.38
533.153	375.38
533.367	382.38
533.582	384.38
533.796	385.38
534.011	367.38
534.225	377.38
534.44	373.38
534.654	389.38
534.868	370.38
535.083	360.38
535.297	371.38
535.511	365.38
535.726	391.38
535.94	360.38
536.154	394.38
536.369	370.38
536.583	384.38
536.797	361.38
537.011	357.38
537.225	360.38
537.44	371.38
537.654	356.38
537.868	348.38
538.082	350.38
538.296	374.38
538.51	362.38
538.724	376.38
538.938	383.38
539.153	368.38
539.367	376.38
539.581	363.38
539.795	363.38
540.009	360.38
540.222	345.38
540.436	383.38
540.65	376.38
540.864	383.38
541.078	375.38
541.292	388.38
541.506	374.38
541.72	367.38
541.934	361.38
542.147	376.38
542.361	370.38
542.575	358.38
542.789	375.38
543.002	370.38
543.216	365.38
543.43	383.38
543.644	377.38
543.857	365.38
544.071	382.38
544.285	364.38
544.498	369.38
544.712	378.38
544.925	373.38
545.139	384.38
545.352	365.38
545.566	366.38
545.779	368.38
545.993	358.38
546.206	371.38
546.42	363.38
546.633	362.38
546.847	367.38
547.06	374.38
547.274	366.38
547.487	365.38
547.7	333.38
547.914	348.38
548.127	361.38
548.34	334.38
548.554	365.38
548.767	375.38
548.98	369.38
549.193	342.38
549.407	364.38
549.62	347.38
549.833	360.38
550.046	340.38
550.259	343.38
550.473	379.38
550.686	351.38
550.899	329.38
551.112	359.38
551.325	329.38
551.538	351.38
551.751	328.38
551.964	327.38
552.177	334.38
552.39	337.38
552.603	361.38
552.816	336.38
553.029	327.38
553.242	360.38
553.455	362.38
553.667	364.38
553.88	355.38
554.093	379.38
554.306	356.38
554.519	343.38
554.732	350.38
554.944	350.38
555.157	316.38
555.37	331.38
555.583	329.38
555.795	355.38
556.008	336.38
556.221	329.38
556.433	340.38
556.646	354.38
556.859	333.38
557.071	326.38
557.284	322.38
557.496	308.38
557.709	338.38
557.921	321.38
558.134	323.38
558.346	317.38
558.559	322.38
558.771	304.38
558.984	324.38
559.196	311.38
559.409	337.38
559.621	321.38
559.833	318.38
560.046	320.38
560.258	311.38
560.47	303.38
560.683	307.38
560.895	302.38
561.107	318.38
561.32	305.38
561.532	317.38
561.744	291.38
561.956	327.38
562.168	305.38
562.381	329.38
562.593	322.38
562.805	314.38
563.017	293.38
563.229	306.38
563.441	294.38
563.653	326.38
563.865	309.38
564.077	321.38
564.289	327.38
564.501	310.38
564.713	296.38
564.925	319.38
565.137	334.38
565.349	328.38
565.561	343.38
565.773	324.38
565.985	338.38
566.197	329.38
566.408	350.38
566.62	355.38
566.832	351.38
567.044	361.38
567.255	375.38
567.467	370.38
567.679	371.38
567.891	378.38
568.102	371.38
568.314	368.38
568.526	350.38
568.737	354.38
568.949	324.38
569.161	320.38
569.372	337.38
569.584	298.38
569.795	299.38
570.007	300.38
570.218	334.38
570.43	322.38
570.641	315.38
570.853	307.38
571.064	297.38
571.276	292.38
571.487	290.38
571.698	290.38
571.91	305.38
572.121	290.38
572.333	299.38
572.544	249.38
572.755	291.38
572.966	261.38
573.178	290.38
573.389	274.38
573.6	287.38
573.811	272.38
574.023	266.38
574.234	272.38
574.445	285.38
574.656	264.38
574.867	273.38
575.078	253.38
575.289	258.38
575.501	274.38
575.712	267.38
575.923	264.38
576.134	266.38
576.345	260.38
576.556	274.38
576.767	254.38
576.978	256.38
577.188	269.38
577.399	267.38
577.61	254.38
577.821	273.38
578.032	273.38
578.243	285.38
578.454	434.38
578.665	340.38
578.875	268.38
579.086	266.38
579.297	267.38
579.508	258.38
579.718	256.38
579.929	243.38
580.14	242.38
580.35	251.38
580.561	264.38
580.772	254.38
580.982	235.38
581.193	239.38
581.403	256.38
581.614	251.38
581.825	245.38
582.035	230.38
582.246	247.38
582.456	235.38
582.667	255.38
582.877	239.38
583.087	239.38
583.298	236.38
583.508	224.38
583.719	242.38
583.929	241.38
584.139	238.38
584.35	236.38
584.56	236.38
584.77	245.38
584.981	243.38
585.191	250.38
585.401	236.38
585.611	249.38
585.821	249.38
586.032	259.38
586.242	233.38
586.452	228.38
586.662	228.38
586.872	238.38
587.082	223.38
587.292	233.38
587.502	251.38
587.713	238.38
587.923	237.38
588.133	238.38
588.343	227.38
588.553	239.38
588.762	228.38
588.972	229.38
589.182	231.38
589.392	234.38
589.602	229.38
589.812	231.38
590.022	240.38
590.232	222.38
590.441	234.38
590.651	232.38
590.861	221.38
591.071	225.38
591.281	232.38
591.49	239.38
591.7	239.38
591.91	235.38
592.119	225.38
592.329	235.38
592.539	235.38
592.748	240.38
592.958	252.38
593.167	252.38
593.377	251.38
593.587	255.38
593.796	226.38
594.006	251.38
594.215	245.38
594.424	244.38
594.634	238.38
594.843	235.38
595.053	255.38
595.262	240.38
595.472	240.38
595.681	233.38
595.89	236.38
596.1	225.38
596.309	239.38
596.518	251.38
596.727	224.38
596.937	214.38
597.146	229.38
597.355	225.38
597.564	221.38
597.774	213.38
597.983	213.38
598.192	217.38
598.401	212.38
598.61	216.38
598.819	210.38
599.028	216.38
599.237	217.38
599.446	224.38
599.655	223.38
599.864	237.38
600.073	211.38
600.282	205.38
600.491	214.38
600.7	211.38
600.909	214.38
601.118	217.38
601.327	225.38
601.536	209.38
601.745	210.38
601.953	213.38
602.162	218.38
602.371	213.38
602.58	221.38
602.789	219.38
602.997	201.38
603.206	210.38
603.415	206.38
603.623	199.38
603.832	216.38
604.041	208.38
604.249	225.38
604.458	202.38
604.666	197.38
604.875	205.38
605.084	200.38
605.292	210.38
605.501	208.38
605.709	212.38
605.918	206.38
606.126	204.38
606.334	214.38
606.543	206.38
606.751	209.38
606.96	200.38
607.168	217.38
607.376	201.38
607.585	207.38
607.793	203.38
608.001	202.38
608.21	206.38
608.418	214.38
608.626	200.38
608.834	202.38
609.043	220.38
609.251	223.38
609.459	201.38
609.667	220.38
609.875	205.38
610.083	210.38
610.291	222.38
610.499	199.38
610.707	202.38
610.916	205.38
611.124	205.38
611.332	224.38
611.54	219.38
611.748	232.38
611.955	209.38
612.163	220.38
612.371	207.38
612.579	200.38
612.787	203.38
612.995	191.38
613.203	227.38
613.411	199.38
613.618	193.38
613.826	216.38
614.034	198.38
614.242	217.38
614.449	208.38
614.657	211.38
614.865	206.38
615.072	218.38
615.28	192.38
615.488	207.38
615.695	218.38
615.903	211.38
616.111	184.38
616.318	203.38
616.526	211.38
616.733	206.38
616.941	198.38
617.148	187.38
617.356	202.38
617.563	194.38
617.771	198.38
617.978	190.38
618.185	216.38
618.393	200.38
618.6	200.38
618.807	189.38
619.015	182.38
619.222	199.38
619.429	207.38
619.637	191.38
619.844	192.38
620.051	194.38
620.258	186.38
620.466	201.38
620.673	190.38
620.88	195.38
621.087	187.38
621.294	187.38
621.501	184.38
621.708	200.38
621.915	205.38
622.122	187.38
622.329	204.38
622.536	204.38
622.743	195.38
622.95	197.38
623.157	171.38
623.364	193.38
623.571	201.38
623.778	192.38
623.985	200.38
624.192	194.38
624.399	187.38
624.606	183.38
624.812	184.38
625.019	188.38
625.226	180.38
625.433	186.38
625.639	177.38
625.846	180.38
626.053	173.38
626.259	175.38
626.466	181.38
626.673	180.38
626.879	186.38
627.086	168.38
627.293	182.38
627.499	171.38
627.706	194.38
627.912	191.38
628.119	182.38
628.325	177.38
628.532	186.38
628.738	183.38
628.945	175.38
629.151	179.38
629.357	183.38
629.564	170.38
629.77	176.38
629.976	183.38
630.183	174.38
630.389	169.38
630.595	171.38
630.802	182.38
631.008	171.38
631.214	170.38
631.42	182.38
631.627	170.38
631.833	169.38
632.039	163.38
632.245	160.38
632.451	174.38
632.657	177.38
632.863	174.38
633.069	176.38
633.275	175.38
633.481	161.38
633.688	157.38
633.893	170.38
634.099	168.38
634.305	172.38
634.511	156.38
634.717	157.38
634.923	160.38
635.129	164.38
635.335	166.38
635.541	160.38
635.747	156.38
635.952	159.38
636.158	167.38
636.364	167.38
636.57	175.38
636.775	150.38
636.981	160.38
637.187	169.38
637.392	166.38
637.598	162.38
637.804	175.38
638.009	159.38
638.215	170.38
638.421	163.38
638.626	168.38
638.832	158.38
639.037	155.38
639.243	148.38
639.448	145.38
639.654	160.38
639.859	163.38
640.065	148.38
640.27	152.38
640.475	155.38
640.681	159.38
640.886	165.38
641.091	163.38
641.297	166.38
641.502	172.38
641.707	158.38
641.913	148.38
642.118	146.38
642.323	151.38
642.528	152.38
642.733	145.38
642.939	162.38
643.144	139.38
643.349	132.38
643.554	141.38
643.759	153.38
643.964	159.38
644.169	157.38
644.374	160.38
644.579	155.38
644.784	164.38
644.989	150.38
645.194	162.38
645.399	149.38
645.604	152.38
645.809	146.38
646.014	153.38
646.219	148.38
646.423	160.38
646.628	168.38
646.833	154.38
647.038	151.38
647.243	140.38
647.447	157.38
647.652	150.38
647.857	147.38
648.062	162.38
648.266	150.38
648.471	151.38
648.676	147.38
648.88	148.38
649.085	160.38
649.289	151.38
649.494	160.38
649.698	168.38
649.903	165.38
650.107	178.38
650.312	159.38
650.516	146.38
650.721	146.38
650.925	147.38
651.13	141.38
651.334	145.38
651.539	133.38
651.743	135.38
651.947	150.38
652.152	140.38
652.356	134.38
652.56	130.38
652.764	134.38
652.969	119.38
653.173	130.38
653.377	131.38
653.581	128.38
653.785	122.38
653.99	132.38
654.194	140.38
654.398	134.38
654.602	127.38
654.806	145.38
655.01	131.38
655.214	139.38
655.418	116.38
655.622	131.38
655.826	130.38
656.03	137.38
656.234	147.38
656.438	133.38
656.642	121.38
656.846	114.38
657.049	120.38
657.253	120.38
657.457	120.38
657.661	113.38
657.865	123.38
658.068	111.38
658.272	102.38
658.476	124.38
658.68	115.38
658.883	120.38
659.087	117.38
659.291	97.38
659.494	90.38
659.698	95.38
659.901	112.38
660.105	90.38
660.309	91.38
660.512	103.38
660.716	94.38
660.919	99.38
661.123	106.38
661.326	83.38
661.53	92.38
661.733	98.38
661.936	100.38
662.14	91.38
662.343	88.38
662.546	87.38
662.75	91.38
662.953	89.38
663.156	90.38
663.36	95.38
663.563	82.38
663.766	101.38
663.969	87.38
664.173	81.38
664.376	90.38
664.579	98.38
664.782	103.38
664.985	84.38
665.188	90.38
665.391	88.38
665.594	97.38
665.797	88.38
666	94.38
666.203	79.38
666.406	92.38
666.609	95.38
666.812	84.38
667.015	78.38
667.218	90.38
667.421	79.38
667.624	98.38
667.827	97.38
668.03	98.38
668.232	78.38
668.435	82.38
668.638	102.38
668.841	105.38
669.043	81.38
669.246	92.38
669.449	80.38
669.651	87.38
669.854	90.38
670.057	82.38
670.259	96.38
670.462	83.38
670.665	88.38
670.867	91.38
671.07	104.38
671.272	86.38
671.475	103.38
671.677	83.38
671.88	88.38
672.082	89.38
672.284	94.38
672.487	82.38
672.689	76.38
672.892	97.38
