Data from 1971.PennyLincolnUp.Lamp.En5.5.200Scan.071719.P1.Scan 2. Changed Angle._HRD10591_15-25-15-842.txt Node
Date: Thu Jul 18 15:25:15 EDT 2019
User: cochatt
Spectrometer: HR+D1059
Trigger mode: 1
Integration Time (sec): 1.000000E-1
Scans to average: 1
Electric dark correction enabled: true
Nonlinearity correction enabled: false
Boxcar width: 0
XAxis mode: Wavelengths
Number of Pixels in Spectrum: 2048
>>>>>Begin Spectral Data<<<<<
223.165	-1.19
223.4	-1.19
223.635	-1.19
223.869	-16.19
224.104	-15.19
224.338	-22.19
224.573	-3.19
224.808	-9.19
225.042	-12.19
225.277	-14.19
225.511	-10.19
225.746	-4.19
225.98	6.81
226.215	4.81
226.449	13.81
226.683	19.81
226.918	25.81
227.152	36.81
227.387	33.81
227.621	28.81
227.856	36.81
228.09	40.81
228.324	54.81
228.559	49.81
228.793	78.81
229.027	104.81
229.262	128.81
229.496	108.81
229.73	160.81
229.964	178.81
230.199	146.81
230.433	127.81
230.667	124.81
230.901	122.81
231.136	131.81
231.37	132.81
231.604	119.81
231.838	115.81
232.072	98.81
232.306	107.81
232.541	128.81
232.775	119.81
233.009	126.81
233.243	128.81
233.477	106.81
233.711	120.81
233.945	112.81
234.179	121.81
234.413	120.81
234.647	107.81
234.881	116.81
235.115	115.81
235.349	120.81
235.583	128.81
235.817	130.81
236.051	131.81
236.285	150.81
236.519	124.81
236.753	137.81
236.987	158.81
237.221	201.81
237.455	288.81
237.689	218.81
237.922	159.81
238.156	141.81
238.39	134.81
238.624	136.81
238.858	131.81
239.091	131.81
239.325	123.81
239.559	121.81
239.793	137.81
240.027	151.81
240.26	164.81
240.494	204.81
240.728	171.81
240.961	160.81
241.195	158.81
241.429	138.81
241.662	137.81
241.896	149.81
242.13	150.81
242.363	146.81
242.597	127.81
242.83	140.81
243.064	144.81
243.298	154.81
243.531	138.81
243.765	135.81
243.998	140.81
244.232	144.81
244.465	163.81
244.699	160.81
244.932	144.81
245.166	140.81
245.399	164.81
245.633	162.81
245.866	162.81
246.099	153.81
246.333	158.81
246.566	159.81
246.8	161.81
247.033	155.81
247.266	162.81
247.5	185.81
247.733	168.81
247.966	179.81
248.2	190.81
248.433	174.81
248.666	182.81
248.899	209.81
249.133	225.81
249.366	233.81
249.599	226.81
249.832	199.81
250.066	192.81
250.299	196.81
250.532	208.81
250.765	215.81
250.998	246.81
251.231	258.81
251.465	245.81
251.698	225.81
251.931	218.81
252.164	213.81
252.397	223.81
252.63	225.81
252.863	231.81
253.096	237.81
253.329	250.81
253.562	229.81
253.795	243.81
254.028	234.81
254.261	244.81
254.494	247.81
254.727	283.81
254.96	313.81
255.193	328.81
255.426	282.81
255.659	258.81
255.892	260.81
256.124	264.81
256.357	256.81
256.59	226.81
256.823	236.81
257.056	240.81
257.289	232.81
257.521	221.81
257.754	222.81
257.987	220.81
258.22	231.81
258.452	212.81
258.685	219.81
258.918	213.81
259.151	239.81
259.383	233.81
259.616	225.81
259.849	221.81
260.081	262.81
260.314	278.81
260.547	276.81
260.779	258.81
261.012	252.81
261.244	251.81
261.477	251.81
261.71	236.81
261.942	242.81
262.175	268.81
262.407	261.81
262.64	226.81
262.872	237.81
263.105	234.81
263.337	215.81
263.57	214.81
263.802	219.81
264.035	205.81
264.267	204.81
264.499	207.81
264.732	215.81
264.964	215.81
265.197	224.81
265.429	209.81
265.661	210.81
265.894	238.81
266.126	230.81
266.358	222.81
266.591	219.81
266.823	204.81
267.055	227.81
267.287	239.81
267.52	222.81
267.752	245.81
267.984	234.81
268.216	226.81
268.448	240.81
268.681	236.81
268.913	254.81
269.145	287.81
269.377	295.81
269.609	291.81
269.841	283.81
270.073	282.81
270.306	308.81
270.538	326.81
270.77	339.81
271.002	313.81
271.234	318.81
271.466	316.81
271.698	354.81
271.93	370.81
272.162	366.81
272.394	340.81
272.626	335.81
272.858	314.81
273.09	314.81
273.322	291.81
273.553	283.81
273.785	273.81
274.017	262.81
274.249	284.81
274.481	285.81
274.713	275.81
274.945	279.81
275.176	258.81
275.408	275.81
275.64	283.81
275.872	279.81
276.104	272.81
276.335	270.81
276.567	278.81
276.799	290.81
277.031	330.81
277.262	344.81
277.494	348.81
277.726	316.81
277.957	310.81
278.189	281.81
278.421	284.81
278.652	276.81
278.884	277.81
279.115	274.81
279.347	275.81
279.579	279.81
279.81	276.81
280.042	270.81
280.273	268.81
280.505	279.81
280.736	275.81
280.968	265.81
281.199	243.81
281.431	272.81
281.662	259.81
281.894	260.81
282.125	269.81
282.356	291.81
282.588	308.81
282.819	329.81
283.051	276.81
283.282	278.81
283.513	254.81
283.745	266.81
283.976	271.81
284.207	283.81
284.439	264.81
284.67	277.81
284.901	281.81
285.132	294.81
285.364	265.81
285.595	275.81
285.826	269.81
286.057	273.81
286.288	279.81
286.52	260.81
286.751	276.81
286.982	279.81
287.213	258.81
287.444	270.81
287.675	292.81
287.906	291.81
288.138	312.81
288.369	296.81
288.6	291.81
288.831	282.81
289.062	300.81
289.293	279.81
289.524	288.81
289.755	298.81
289.986	275.81
290.217	277.81
290.448	275.81
290.679	281.81
290.91	267.81
291.141	292.81
291.371	279.81
291.602	278.81
291.833	278.81
292.064	266.81
292.295	286.81
292.526	291.81
292.757	274.81
292.987	292.81
293.218	299.81
293.449	287.81
293.68	291.81
293.91	286.81
294.141	280.81
294.372	285.81
294.603	287.81
294.833	262.81
295.064	297.81
295.295	283.81
295.525	280.81
295.756	271.81
295.987	287.81
296.217	337.81
296.448	345.81
296.679	327.81
296.909	285.81
297.14	282.81
297.37	288.81
297.601	288.81
297.831	279.81
298.062	303.81
298.292	290.81
298.523	300.81
298.753	275.81
298.984	289.81
299.214	290.81
299.445	297.81
299.675	293.81
299.905	307.81
300.136	304.81
300.366	298.81
300.597	305.81
300.827	298.81
301.057	322.81
301.288	332.81
301.518	331.81
301.748	312.81
301.979	322.81
302.209	339.81
302.439	328.81
302.669	330.81
302.9	319.81
303.13	330.81
303.36	324.81
303.59	313.81
303.82	334.81
304.051	339.81
304.281	318.81
304.511	308.81
304.741	306.81
304.971	320.81
305.201	324.81
305.431	320.81
305.661	322.81
305.891	305.81
306.121	323.81
306.352	344.81
306.582	332.81
306.812	320.81
307.042	329.81
307.272	330.81
307.502	310.81
307.731	336.81
307.961	317.81
308.191	305.81
308.421	326.81
308.651	327.81
308.881	352.81
309.111	346.81
309.341	341.81
309.571	355.81
309.8	376.81
310.03	378.81
310.26	393.81
310.49	385.81
310.72	395.81
310.949	407.81
311.179	433.81
311.409	403.81
311.639	384.81
311.868	379.81
312.098	403.81
312.328	398.81
312.557	408.81
312.787	454.81
313.017	426.81
313.246	416.81
313.476	406.81
313.706	379.81
313.935	422.81
314.165	423.81
314.394	444.81
314.624	408.81
314.853	412.81
315.083	391.81
315.312	402.81
315.542	394.81
315.771	375.81
316.001	372.81
316.23	350.81
316.46	378.81
316.689	357.81
316.919	382.81
317.148	397.81
317.377	424.81
317.607	402.81
317.836	412.81
318.065	403.81
318.295	400.81
318.524	386.81
318.753	368.81
318.983	397.81
319.212	397.81
319.441	407.81
319.67	422.81
319.9	385.81
320.129	390.81
320.358	389.81
320.587	377.81
320.816	419.81
321.046	418.81
321.275	421.81
321.504	414.81
321.733	401.81
321.962	419.81
322.191	457.81
322.42	463.81
322.649	492.81
322.878	498.81
323.108	518.81
323.337	548.81
323.566	558.81
323.795	620.81
324.024	715.81
324.253	826.81
324.482	1275.81
324.71	1983.81
324.939	2871.81
325.168	2473.81
325.397	1292.81
325.626	828.81
325.855	655.81
326.084	581.81
326.313	554.81
326.542	590.81
326.77	649.81
326.999	792.81
327.228	1122.81
327.457	1707.81
327.686	2116.81
327.914	1416.81
328.143	918.81
328.372	778.81
328.6	722.81
328.829	662.81
329.058	712.81
329.287	708.81
329.515	633.81
329.744	614.81
329.972	584.81
330.201	583.81
330.43	641.81
330.658	691.81
330.887	725.81
331.115	696.81
331.344	605.81
331.572	560.81
331.801	546.81
332.03	531.81
332.258	514.81
332.486	482.81
332.715	461.81
332.943	464.81
333.172	478.81
333.4	480.81
333.629	500.81
333.857	512.81
334.085	521.81
334.314	532.81
334.542	582.81
334.771	597.81
334.999	538.81
335.227	485.81
335.455	476.81
335.684	465.81
335.912	441.81
336.14	444.81
336.369	465.81
336.597	462.81
336.825	476.81
337.053	463.81
337.281	435.81
337.51	453.81
337.738	455.81
337.966	462.81
338.194	423.81
338.422	458.81
338.65	477.81
338.878	430.81
339.106	442.81
339.334	431.81
339.562	415.81
339.79	434.81
340.018	442.81
340.246	449.81
340.474	442.81
340.702	464.81
340.93	412.81
341.158	439.81
341.386	436.81
341.614	444.81
341.842	445.81
342.07	416.81
342.298	435.81
342.526	405.81
342.754	419.81
342.981	391.81
343.209	406.81
343.437	425.81
343.665	437.81
343.893	437.81
344.12	427.81
344.348	446.81
344.576	432.81
344.804	450.81
345.031	462.81
345.259	480.81
345.487	451.81
345.714	460.81
345.942	422.81
346.17	444.81
346.397	433.81
346.625	453.81
346.853	426.81
347.08	408.81
347.308	424.81
347.535	427.81
347.763	468.81
347.99	476.81
348.218	475.81
348.445	460.81
348.673	452.81
348.9	441.81
349.128	427.81
349.355	407.81
349.583	399.81
349.81	399.81
350.037	426.81
350.265	406.81
350.492	418.81
350.72	416.81
350.947	435.81
351.174	425.81
351.402	475.81
351.629	434.81
351.856	450.81
352.083	483.81
352.311	441.81
352.538	463.81
352.765	454.81
352.992	500.81
353.22	457.81
353.447	451.81
353.674	415.81
353.901	418.81
354.128	420.81
354.355	409.81
354.583	404.81
354.81	437.81
355.037	404.81
355.264	407.81
355.491	397.81
355.718	384.81
355.945	388.81
356.172	407.81
356.399	359.81
356.626	398.81
356.853	416.81
357.08	380.81
357.307	385.81
357.534	384.81
357.761	394.81
357.988	409.81
358.215	384.81
358.441	400.81
358.668	406.81
358.895	401.81
359.122	413.81
359.349	431.81
359.576	461.81
359.802	472.81
360.029	528.81
360.256	536.81
360.483	497.81
360.709	467.81
360.936	450.81
361.163	446.81
361.39	449.81
361.616	453.81
361.843	436.81
362.07	447.81
362.296	456.81
362.523	434.81
362.749	449.81
362.976	432.81
363.203	448.81
363.429	404.81
363.656	411.81
363.882	422.81
364.109	419.81
364.335	415.81
364.562	428.81
364.788	406.81
365.015	423.81
365.241	435.81
365.468	425.81
365.694	431.81
365.92	428.81
366.147	436.81
366.373	437.81
366.599	410.81
366.826	418.81
367.052	407.81
367.278	424.81
367.505	426.81
367.731	434.81
367.957	398.81
368.184	433.81
368.41	444.81
368.636	438.81
368.862	441.81
369.089	432.81
369.315	421.81
369.541	424.81
369.767	421.81
369.993	398.81
370.219	424.81
370.445	412.81
370.672	410.81
370.898	395.81
371.124	392.81
371.35	390.81
371.576	423.81
371.802	394.81
372.028	410.81
372.254	392.81
372.48	398.81
372.706	413.81
372.932	410.81
373.158	391.81
373.384	414.81
373.61	418.81
373.835	421.81
374.061	401.81
374.287	417.81
374.513	412.81
374.739	419.81
374.965	419.81
375.191	394.81
375.416	403.81
375.642	420.81
375.868	410.81
376.094	404.81
376.319	400.81
376.545	432.81
376.771	402.81
376.997	399.81
377.222	414.81
377.448	416.81
377.674	405.81
377.899	397.81
378.125	409.81
378.35	407.81
378.576	397.81
378.802	389.81
379.027	414.81
379.253	394.81
379.478	409.81
379.704	397.81
379.929	401.81
380.155	416.81
380.38	421.81
380.606	426.81
380.831	411.81
381.057	427.81
381.282	424.81
381.507	388.81
381.733	421.81
381.958	428.81
382.184	426.81
382.409	411.81
382.634	396.81
382.86	421.81
383.085	417.81
383.31	425.81
383.535	415.81
383.761	411.81
383.986	419.81
384.211	423.81
384.436	452.81
384.662	436.81
384.887	419.81
385.112	434.81
385.337	418.81
385.562	438.81
385.787	440.81
386.013	442.81
386.238	455.81
386.463	461.81
386.688	466.81
386.913	418.81
387.138	420.81
387.363	436.81
387.588	418.81
387.813	443.81
388.038	438.81
388.263	436.81
388.488	456.81
388.713	432.81
388.938	443.81
389.163	468.81
389.387	423.81
389.612	434.81
389.837	443.81
390.062	434.81
390.287	447.81
390.512	442.81
390.736	419.81
390.961	427.81
391.186	448.81
391.411	435.81
391.636	439.81
391.86	460.81
392.085	451.81
392.31	454.81
392.534	450.81
392.759	442.81
392.984	456.81
393.208	426.81
393.433	447.81
393.658	451.81
393.882	446.81
394.107	436.81
394.331	446.81
394.556	432.81
394.78	452.81
395.005	454.81
395.229	436.81
395.454	436.81
395.678	451.81
395.903	456.81
396.127	478.81
396.352	502.81
396.576	502.81
396.801	463.81
397.025	477.81
397.249	470.81
397.474	447.81
397.698	481.81
397.922	503.81
398.147	512.81
398.371	495.81
398.595	491.81
398.82	476.81
399.044	496.81
399.268	480.81
399.492	542.81
399.717	550.81
399.941	583.81
400.165	622.81
400.389	641.81
400.613	580.81
400.837	550.81
401.062	506.81
401.286	516.81
401.51	527.81
401.734	514.81
401.958	510.81
402.182	512.81
402.406	551.81
402.63	539.81
402.854	527.81
403.078	541.81
403.302	572.81
403.526	532.81
403.75	532.81
403.974	523.81
404.198	538.81
404.422	532.81
404.645	547.81
404.869	567.81
405.093	560.81
405.317	635.81
405.541	674.81
405.765	614.81
405.988	582.81
406.212	580.81
406.436	632.81
406.66	634.81
406.883	592.81
407.107	624.81
407.331	652.81
407.555	721.81
407.778	734.81
408.002	650.81
408.226	594.81
408.449	600.81
408.673	601.81
408.896	608.81
409.12	678.81
409.344	648.81
409.567	582.81
409.791	547.81
410.014	512.81
410.238	538.81
410.461	541.81
410.685	534.81
410.908	584.81
411.132	587.81
411.355	627.81
411.578	602.81
411.802	580.81
412.025	547.81
412.249	540.81
412.472	571.81
412.695	628.81
412.919	615.81
413.142	536.81
413.365	542.81
413.589	524.81
413.812	521.81
414.035	512.81
414.258	519.81
414.482	515.81
414.705	502.81
414.928	517.81
415.151	513.81
415.374	514.81
415.597	516.81
415.821	489.81
416.044	485.81
416.267	511.81
416.49	502.81
416.713	502.81
416.936	526.81
417.159	520.81
417.382	518.81
417.605	520.81
417.828	539.81
418.051	546.81
418.274	544.81
418.497	530.81
418.72	526.81
418.943	522.81
419.166	523.81
419.389	562.81
419.611	555.81
419.834	547.81
420.057	543.81
420.28	531.81
420.503	542.81
420.726	541.81
420.948	585.81
421.171	596.81
421.394	644.81
421.617	608.81
421.839	565.81
422.062	558.81
422.285	547.81
422.507	633.81
422.73	705.81
422.953	686.81
423.175	607.81
423.398	586.81
423.621	568.81
423.843	610.81
424.066	615.81
424.288	603.81
424.511	610.81
424.733	702.81
424.956	790.81
425.178	766.81
425.401	785.81
425.623	772.81
425.846	660.81
426.068	620.81
426.291	588.81
426.513	606.81
426.735	624.81
426.958	671.81
427.18	774.81
427.402	898.81
427.625	996.81
427.847	916.81
428.069	790.81
428.292	702.81
428.514	640.81
428.736	584.81
428.958	607.81
429.181	558.81
429.403	574.81
429.625	569.81
429.847	632.81
430.069	663.81
430.292	706.81
430.514	603.81
430.736	560.81
430.958	564.81
431.18	529.81
431.402	545.81
431.624	542.81
431.846	508.81
432.068	519.81
432.29	554.81
432.512	532.81
432.734	555.81
432.956	536.81
433.178	536.81
433.4	553.81
433.622	526.81
433.844	540.81
434.066	522.81
434.287	530.81
434.509	538.81
434.731	534.81
434.953	535.81
435.175	571.81
435.397	600.81
435.618	623.81
435.84	667.81
436.062	791.81
436.284	841.81
436.505	723.81
436.727	634.81
436.949	592.81
437.17	564.81
437.392	578.81
437.614	601.81
437.835	633.81
438.057	769.81
438.278	874.81
438.5	882.81
438.721	955.81
438.943	907.81
439.165	742.81
439.386	664.81
439.608	662.81
439.829	653.81
440.05	697.81
440.272	736.81
440.493	661.81
440.715	634.81
440.936	592.81
441.158	590.81
441.379	565.81
441.6	575.81
441.822	633.81
442.043	669.81
442.264	784.81
442.486	816.81
442.707	711.81
442.928	653.81
443.149	650.81
443.371	681.81
443.592	707.81
443.813	851.81
444.034	895.81
444.255	734.81
444.476	629.81
444.698	648.81
444.919	606.81
445.14	741.81
445.361	683.81
445.582	677.81
445.803	757.81
446.024	897.81
446.245	899.81
446.466	826.81
446.687	678.81
446.908	632.81
447.129	622.81
447.35	595.81
447.571	580.81
447.792	575.81
448.013	615.81
448.234	595.81
448.455	690.81
448.675	810.81
448.896	928.81
449.117	792.81
449.338	739.81
449.559	836.81
449.779	924.81
450	784.81
450.221	651.81
450.442	614.81
450.662	595.81
450.883	595.81
451.104	615.81
451.324	598.81
451.545	560.81
451.766	553.81
451.986	529.81
452.207	536.81
452.428	512.81
452.648	529.81
452.869	531.81
453.089	535.81
453.31	545.81
453.53	517.81
453.751	519.81
453.971	542.81
454.192	557.81
454.412	572.81
454.633	528.81
454.853	533.81
455.073	533.81
455.294	567.81
455.514	632.81
455.734	639.81
455.955	531.81
456.175	496.81
456.395	482.81
456.616	480.81
456.836	475.81
457.056	459.81
457.276	455.81
457.497	472.81
457.717	476.81
457.937	504.81
458.157	502.81
458.377	479.81
458.598	526.81
458.818	605.81
459.038	712.81
459.258	743.81
459.478	631.81
459.698	573.81
459.918	523.81
460.138	527.81
460.358	529.81
460.578	542.81
460.798	516.81
461.018	530.81
461.238	515.81
461.458	515.81
461.678	513.81
461.898	505.81
462.118	511.81
462.338	532.81
462.558	534.81
462.777	537.81
462.997	516.81
463.217	553.81
463.437	556.81
463.657	567.81
463.876	529.81
464.096	544.81
464.316	569.81
464.536	574.81
464.755	555.81
464.975	573.81
465.195	638.81
465.414	763.81
465.634	665.81
465.854	588.81
466.073	586.81
466.293	543.81
466.512	540.81
466.732	520.81
466.951	535.81
467.171	517.81
467.391	542.81
467.61	544.81
467.829	571.81
468.049	554.81
468.268	531.81
468.488	534.81
468.707	538.81
468.927	518.81
469.146	522.81
469.365	517.81
469.585	507.81
469.804	530.81
470.023	552.81
470.243	518.81
470.462	539.81
470.681	576.81
470.901	544.81
471.12	526.81
471.339	555.81
471.558	537.81
471.777	522.81
471.997	516.81
472.216	532.81
472.435	608.81
472.654	579.81
472.873	552.81
473.092	529.81
473.311	544.81
473.53	546.81
473.749	559.81
473.968	587.81
474.187	730.81
474.406	756.81
474.625	616.81
474.844	572.81
475.063	559.81
475.282	520.81
475.501	525.81
475.72	555.81
475.939	547.81
476.158	549.81
476.377	553.81
476.596	550.81
476.814	564.81
477.033	584.81
477.252	570.81
477.471	569.81
477.69	586.81
477.908	574.81
478.127	584.81
478.346	548.81
478.564	586.81
478.783	585.81
479.002	609.81
479.22	599.81
479.439	626.81
479.658	644.81
479.876	645.81
480.095	644.81
480.313	690.81
480.532	680.81
480.751	660.81
480.969	680.81
481.188	768.81
481.406	819.81
481.624	720.81
481.843	660.81
482.061	656.81
482.28	650.81
482.498	640.81
482.717	640.81
482.935	626.81
483.153	647.81
483.372	638.81
483.59	668.81
483.808	639.81
484.027	619.81
484.245	644.81
484.463	633.81
484.681	668.81
484.9	647.81
485.118	653.81
485.336	640.81
485.554	650.81
485.772	667.81
485.99	669.81
486.209	660.81
486.427	667.81
486.645	676.81
486.863	693.81
487.081	711.81
487.299	698.81
487.517	703.81
487.735	698.81
487.953	691.81
488.171	695.81
488.389	713.81
488.607	707.81
488.825	703.81
489.043	694.81
489.261	696.81
489.479	723.81
489.696	711.81
489.914	700.81
490.132	724.81
490.35	758.81
490.568	756.81
490.786	763.81
491.003	760.81
491.221	798.81
491.439	781.81
491.657	816.81
491.874	816.81
492.092	807.81
492.31	832.81
492.527	838.81
492.745	850.81
492.963	836.81
493.18	839.81
493.398	830.81
493.615	850.81
493.833	846.81
494.05	841.81
494.268	836.81
494.485	842.81
494.703	828.81
494.92	814.81
495.138	859.81
495.355	880.81
495.573	834.81
495.79	874.81
496.008	838.81
496.225	866.81
496.442	831.81
496.66	842.81
496.877	823.81
497.094	870.81
497.312	854.81
497.529	835.81
497.746	882.81
497.963	856.81
498.181	875.81
498.398	893.81
498.615	890.81
498.832	914.81
499.049	915.81
499.267	917.81
499.484	950.81
499.701	944.81
499.918	959.81
500.135	997.81
500.352	1011.81
500.569	1032.81
500.786	1009.81
501.003	1020.81
501.22	1014.81
501.437	1002.81
501.654	981.81
501.871	1021.81
502.088	1008.81
502.305	932.81
502.522	900.81
502.739	916.81
502.956	890.81
503.172	870.81
503.389	850.81
503.606	869.81
503.823	880.81
504.04	847.81
504.256	838.81
504.473	812.81
504.69	830.81
504.907	825.81
505.123	814.81
505.34	827.81
505.557	798.81
505.773	817.81
505.99	822.81
506.207	840.81
506.423	804.81
506.64	844.81
506.856	815.81
507.073	795.81
507.289	797.81
507.506	792.81
507.722	809.81
507.939	844.81
508.155	810.81
508.372	791.81
508.588	774.81
508.805	790.81
509.021	774.81
509.238	808.81
509.454	811.81
509.67	784.81
509.887	778.81
510.103	800.81
510.319	794.81
510.536	889.81
510.752	1639.81
510.968	1303.81
511.184	835.81
511.401	800.81
511.617	752.81
511.833	754.81
512.049	764.81
512.265	730.81
512.481	743.81
512.698	740.81
512.914	746.81
513.13	729.81
513.346	750.81
513.562	755.81
513.778	751.81
513.994	752.81
514.21	748.81
514.426	835.81
514.642	902.81
514.858	937.81
515.074	1004.81
515.29	1208.81
515.506	1836.81
515.721	1470.81
515.937	962.81
516.153	864.81
516.369	809.81
516.585	779.81
516.801	765.81
517.016	768.81
517.232	757.81
517.448	749.81
517.664	759.81
517.879	746.81
518.095	750.81
518.311	735.81
518.527	726.81
518.742	727.81
518.958	732.81
519.173	708.81
519.389	747.81
519.605	728.81
519.82	742.81
520.036	750.81
520.251	812.81
520.467	865.81
520.682	849.81
520.898	839.81
521.113	878.81
521.329	976.81
521.544	1132.81
521.76	1469.81
521.975	2464.81
522.19	2362.81
522.406	1276.81
522.621	931.81
522.836	818.81
523.052	769.81
523.267	748.81
523.482	702.81
523.698	696.81
523.913	667.81
524.128	724.81
524.343	686.81
524.559	657.81
524.774	649.81
524.989	647.81
525.204	669.81
525.419	648.81
525.634	642.81
525.849	618.81
526.064	617.81
526.28	615.81
526.495	627.81
526.71	587.81
526.925	595.81
527.14	584.81
527.355	558.81
527.57	600.81
527.785	584.81
527.999	589.81
528.214	572.81
528.429	580.81
528.644	602.81
528.859	610.81
529.074	610.81
529.289	622.81
529.503	722.81
529.718	748.81
529.933	638.81
530.148	600.81
530.363	604.81
530.577	580.81
530.792	576.81
531.007	581.81
531.221	582.81
531.436	565.81
531.651	577.81
531.865	576.81
532.08	552.81
532.295	564.81
532.509	553.81
532.724	550.81
532.938	553.81
533.153	546.81
533.367	567.81
533.582	553.81
533.796	528.81
534.011	518.81
534.225	556.81
534.44	537.81
534.654	525.81
534.868	532.81
535.083	568.81
535.297	536.81
535.511	548.81
535.726	542.81
535.94	555.81
536.154	567.81
536.369	530.81
536.583	551.81
536.797	534.81
537.011	535.81
537.225	534.81
537.44	530.81
537.654	544.81
537.868	524.81
538.082	524.81
538.296	528.81
538.51	542.81
538.724	516.81
538.938	510.81
539.153	520.81
539.367	528.81
539.581	538.81
539.795	519.81
540.009	520.81
540.222	558.81
540.436	558.81
540.65	529.81
540.864	554.81
541.078	527.81
541.292	551.81
541.506	552.81
541.72	533.81
541.934	539.81
542.147	526.81
542.361	526.81
542.575	508.81
542.789	524.81
543.002	514.81
543.216	532.81
543.43	527.81
543.644	512.81
543.857	532.81
544.071	525.81
544.285	535.81
544.498	521.81
544.712	510.81
544.925	524.81
545.139	526.81
545.352	536.81
545.566	519.81
545.779	497.81
545.993	510.81
546.206	494.81
546.42	536.81
546.633	524.81
546.847	483.81
547.06	508.81
547.274	494.81
547.487	496.81
547.7	500.81
547.914	503.81
548.127	495.81
548.34	497.81
548.554	497.81
548.767	479.81
548.98	478.81
549.193	503.81
549.407	528.81
549.62	494.81
549.833	487.81
550.046	481.81
550.259	486.81
550.473	474.81
550.686	477.81
550.899	486.81
551.112	491.81
551.325	470.81
551.538	484.81
551.751	488.81
551.964	481.81
552.177	475.81
552.39	480.81
552.603	486.81
552.816	485.81
553.029	489.81
553.242	497.81
553.455	512.81
553.667	512.81
553.88	532.81
554.093	517.81
554.306	483.81
554.519	483.81
554.732	485.81
554.944	476.81
555.157	482.81
555.37	473.81
555.583	483.81
555.795	488.81
556.008	452.81
556.221	464.81
556.433	433.81
556.646	446.81
556.859	458.81
557.071	451.81
557.284	445.81
557.496	460.81
557.709	452.81
557.921	435.81
558.134	420.81
558.346	441.81
558.559	432.81
558.771	439.81
558.984	440.81
559.196	448.81
559.409	447.81
559.621	430.81
559.833	450.81
560.046	424.81
560.258	425.81
560.47	445.81
560.683	447.81
560.895	439.81
561.107	428.81
561.32	432.81
561.532	420.81
561.744	425.81
561.956	426.81
562.168	416.81
562.381	423.81
562.593	415.81
562.805	459.81
563.017	438.81
563.229	442.81
563.441	428.81
563.653	430.81
563.865	436.81
564.077	458.81
564.289	441.81
564.501	427.81
564.713	446.81
564.925	448.81
565.137	459.81
565.349	476.81
565.561	446.81
565.773	444.81
565.985	467.81
566.197	471.81
566.408	488.81
566.62	482.81
566.832	478.81
567.044	508.81
567.255	495.81
567.467	498.81
567.679	490.81
567.891	496.81
568.102	490.81
568.314	482.81
568.526	462.81
568.737	450.81
568.949	458.81
569.161	448.81
569.372	447.81
569.584	455.81
569.795	445.81
570.007	411.81
570.218	487.81
570.43	476.81
570.641	415.81
570.853	432.81
571.064	422.81
571.276	416.81
571.487	399.81
571.698	396.81
571.91	397.81
572.121	405.81
572.333	395.81
572.544	374.81
572.755	383.81
572.966	396.81
573.178	369.81
573.389	375.81
573.6	370.81
573.811	380.81
574.023	388.81
574.234	371.81
574.445	382.81
574.656	381.81
574.867	375.81
575.078	359.81
575.289	394.81
575.501	380.81
575.712	369.81
575.923	378.81
576.134	370.81
576.345	375.81
576.556	374.81
576.767	360.81
576.978	350.81
577.188	367.81
577.399	358.81
577.61	352.81
577.821	373.81
578.032	362.81
578.243	404.81
578.454	733.81
578.665	542.81
578.875	371.81
579.086	329.81
579.297	357.81
579.508	368.81
579.718	345.81
579.929	352.81
580.14	340.81
580.35	348.81
580.561	341.81
580.772	335.81
580.982	358.81
581.193	334.81
581.403	325.81
581.614	330.81
581.825	335.81
582.035	331.81
582.246	327.81
582.456	336.81
582.667	346.81
582.877	336.81
583.087	328.81
583.298	321.81
583.508	326.81
583.719	345.81
583.929	336.81
584.139	361.81
584.35	340.81
584.56	318.81
584.77	340.81
584.981	353.81
585.191	336.81
585.401	319.81
585.611	352.81
585.821	313.81
586.032	349.81
586.242	327.81
586.452	329.81
586.662	327.81
586.872	315.81
587.082	321.81
587.292	336.81
587.502	317.81
587.713	316.81
587.923	308.81
588.133	325.81
588.343	331.81
588.553	316.81
588.762	320.81
588.972	298.81
589.182	314.81
589.392	327.81
589.602	297.81
589.812	324.81
590.022	306.81
590.232	323.81
590.441	321.81
590.651	328.81
590.861	322.81
591.071	325.81
591.281	315.81
591.49	321.81
591.7	326.81
591.91	332.81
592.119	311.81
592.329	336.81
592.539	351.81
592.748	334.81
592.958	310.81
593.167	321.81
593.377	312.81
593.587	313.81
593.796	339.81
594.006	338.81
594.215	314.81
594.424	319.81
594.634	318.81
594.843	300.81
595.053	321.81
595.262	320.81
595.472	326.81
595.681	304.81
595.89	306.81
596.1	313.81
596.309	302.81
596.518	304.81
596.727	288.81
596.937	295.81
597.146	295.81
597.355	281.81
597.564	302.81
597.774	306.81
597.983	295.81
598.192	293.81
598.401	279.81
598.61	294.81
598.819	286.81
599.028	290.81
599.237	280.81
599.446	282.81
599.655	286.81
599.864	292.81
600.073	287.81
600.282	294.81
600.491	266.81
600.7	279.81
600.909	281.81
601.118	281.81
601.327	275.81
601.536	278.81
601.745	268.81
601.953	293.81
602.162	277.81
602.371	271.81
602.58	280.81
602.789	279.81
602.997	283.81
603.206	269.81
603.415	272.81
603.623	269.81
603.832	307.81
604.041	274.81
604.249	269.81
604.458	285.81
604.666	258.81
604.875	297.81
605.084	284.81
605.292	283.81
605.501	266.81
605.709	264.81
605.918	286.81
606.126	272.81
606.334	258.81
606.543	278.81
606.751	273.81
606.96	274.81
607.168	254.81
607.376	257.81
607.585	275.81
607.793	273.81
608.001	265.81
608.21	274.81
608.418	276.81
608.626	273.81
608.834	263.81
609.043	292.81
609.251	260.81
609.459	265.81
609.667	283.81
609.875	269.81
610.083	256.81
610.291	250.81
610.499	272.81
610.707	278.81
610.916	268.81
611.124	250.81
611.332	277.81
611.54	272.81
611.748	267.81
611.955	283.81
612.163	274.81
612.371	274.81
612.579	258.81
612.787	275.81
612.995	269.81
613.203	263.81
613.411	263.81
613.618	279.81
613.826	257.81
614.034	264.81
614.242	250.81
614.449	263.81
614.657	246.81
614.865	259.81
615.072	262.81
615.28	264.81
615.488	255.81
615.695	256.81
615.903	230.81
616.111	250.81
616.318	262.81
616.526	264.81
616.733	271.81
616.941	268.81
617.148	243.81
617.356	254.81
617.563	261.81
617.771	256.81
617.978	261.81
618.185	245.81
618.393	254.81
618.6	250.81
618.807	256.81
619.015	254.81
619.222	264.81
619.429	252.81
619.637	256.81
619.844	247.81
620.051	234.81
620.258	256.81
620.466	234.81
620.673	244.81
620.88	254.81
621.087	235.81
621.294	251.81
621.501	251.81
621.708	265.81
621.915	261.81
622.122	258.81
622.329	246.81
622.536	242.81
622.743	245.81
622.95	228.81
623.157	240.81
623.364	242.81
623.571	243.81
623.778	240.81
623.985	230.81
624.192	224.81
624.399	223.81
624.606	235.81
624.812	229.81
625.019	234.81
625.226	225.81
625.433	230.81
625.639	231.81
625.846	226.81
626.053	223.81
626.259	228.81
626.466	218.81
626.673	231.81
626.879	218.81
627.086	215.81
627.293	211.81
627.499	240.81
627.706	219.81
627.912	235.81
628.119	229.81
628.325	230.81
628.532	216.81
628.738	234.81
628.945	206.81
629.151	211.81
629.357	216.81
629.564	207.81
629.77	230.81
629.976	217.81
630.183	217.81
630.389	197.81
630.595	216.81
630.802	199.81
631.008	206.81
631.214	198.81
631.42	209.81
631.627	216.81
631.833	192.81
632.039	201.81
632.245	210.81
632.451	210.81
632.657	201.81
632.863	207.81
633.069	208.81
633.275	191.81
633.481	203.81
633.688	207.81
633.893	210.81
634.099	197.81
634.305	209.81
634.511	216.81
634.717	190.81
634.923	197.81
635.129	195.81
635.335	183.81
635.541	189.81
635.747	206.81
635.952	210.81
636.158	204.81
636.364	195.81
636.57	203.81
636.775	211.81
636.981	202.81
637.187	201.81
637.392	202.81
637.598	186.81
637.804	194.81
638.009	200.81
638.215	193.81
638.421	194.81
638.626	201.81
638.832	199.81
639.037	185.81
639.243	181.81
639.448	178.81
639.654	194.81
639.859	202.81
640.065	175.81
640.27	182.81
640.475	181.81
640.681	183.81
640.886	192.81
641.091	187.81
641.297	192.81
641.502	198.81
641.707	171.81
641.913	190.81
642.118	183.81
642.323	177.81
642.528	171.81
642.733	180.81
642.939	178.81
643.144	164.81
643.349	180.81
643.554	170.81
643.759	170.81
643.964	164.81
644.169	167.81
644.374	161.81
644.579	181.81
644.784	176.81
644.989	195.81
645.194	178.81
645.399	167.81
645.604	165.81
645.809	178.81
646.014	174.81
646.219	174.81
646.423	158.81
646.628	172.81
646.833	181.81
647.038	180.81
647.243	169.81
647.447	179.81
647.652	178.81
647.857	184.81
648.062	176.81
648.266	180.81
648.471	191.81
648.676	194.81
648.88	182.81
649.085	164.81
649.289	180.81
649.494	177.81
649.698	195.81
649.903	197.81
650.107	176.81
650.312	184.81
650.516	182.81
650.721	160.81
650.925	158.81
651.13	177.81
651.334	147.81
651.539	158.81
651.743	150.81
651.947	147.81
652.152	158.81
652.356	152.81
652.56	150.81
652.764	144.81
652.969	150.81
653.173	138.81
653.377	147.81
653.581	142.81
653.785	137.81
653.99	142.81
654.194	154.81
654.398	147.81
654.602	152.81
654.806	136.81
655.01	148.81
655.214	126.81
655.418	130.81
655.622	136.81
655.826	138.81
656.03	132.81
656.234	126.81
656.438	142.81
656.642	124.81
656.846	124.81
657.049	133.81
657.253	122.81
657.457	119.81
657.661	123.81
657.865	106.81
658.068	116.81
658.272	112.81
658.476	113.81
658.68	107.81
658.883	102.81
659.087	109.81
659.291	101.81
659.494	91.81
659.698	92.81
659.901	91.81
660.105	93.81
660.309	82.81
660.512	90.81
660.716	104.81
660.919	97.81
661.123	94.81
661.326	105.81
661.53	104.81
661.733	99.81
661.936	94.81
662.14	82.81
662.343	82.81
662.546	69.81
662.75	83.81
662.953	80.81
663.156	75.81
663.36	87.81
663.563	85.81
663.766	86.81
663.969	86.81
664.173	73.81
664.376	79.81
664.579	76.81
664.782	73.81
664.985	87.81
665.188	67.81
665.391	84.81
665.594	77.81
665.797	81.81
666	73.81
666.203	79.81
666.406	71.81
666.609	88.81
666.812	73.81
667.015	76.81
667.218	83.81
667.421	82.81
667.624	72.81
667.827	80.81
668.03	68.81
668.232	86.81
668.435	85.81
668.638	72.81
668.841	95.81
669.043	75.81
669.246	62.81
669.449	62.81
669.651	67.81
669.854	66.81
670.057	77.81
670.259	69.81
670.462	75.81
670.665	81.81
670.867	81.81
671.07	85.81
671.272	86.81
671.475	88.81
671.677	83.81
671.88	72.81
672.082	80.81
672.284	90.81
672.487	78.81
672.689	82.81
672.892	76.81
