Data from 1971.PennyLincolnUp.Lamp.En5.5.200Scan.071719.P1._HRD10591_15-20-10-843.txt Node
Date: Thu Jul 18 15:20:10 EDT 2019
User: cochatt
Spectrometer: HR+D1059
Trigger mode: 1
Integration Time (sec): 1.000000E-1
Scans to average: 1
Electric dark correction enabled: true
Nonlinearity correction enabled: false
Boxcar width: 0
XAxis mode: Wavelengths
Number of Pixels in Spectrum: 2048
>>>>>Begin Spectral Data<<<<<
223.165	-13.25
223.4	-13.25
223.635	-13.25
223.869	-7.25
224.104	-22.25
224.338	-2.25
224.573	-29.25
224.808	-12.25
225.042	-19.25
225.277	-9.25
225.511	12.75
225.746	3.75
225.98	8.75
226.215	12.75
226.449	8.75
226.683	17.75
226.918	37.75
227.152	12.75
227.387	32.75
227.621	26.75
227.856	39.75
228.09	28.75
228.324	50.75
228.559	50.75
228.793	64.75
229.027	86.75
229.262	97.75
229.496	111.75
229.73	119.75
229.964	142.75
230.199	129.75
230.433	103.75
230.667	130.75
230.901	112.75
231.136	116.75
231.37	106.75
231.604	104.75
231.838	103.75
232.072	109.75
232.306	124.75
232.541	104.75
232.775	93.75
233.009	126.75
233.243	117.75
233.477	121.75
233.711	103.75
233.945	112.75
234.179	113.75
234.413	117.75
234.647	113.75
234.881	108.75
235.115	121.75
235.349	107.75
235.583	112.75
235.817	104.75
236.051	120.75
236.285	122.75
236.519	115.75
236.753	125.75
236.987	142.75
237.221	171.75
237.455	205.75
237.689	174.75
237.922	128.75
238.156	128.75
238.39	129.75
238.624	121.75
238.858	130.75
239.091	136.75
239.325	126.75
239.559	133.75
239.793	120.75
240.027	136.75
240.26	142.75
240.494	163.75
240.728	150.75
240.961	159.75
241.195	131.75
241.429	126.75
241.662	123.75
241.896	135.75
242.13	134.75
242.363	107.75
242.597	135.75
242.83	140.75
243.064	152.75
243.298	136.75
243.531	124.75
243.765	134.75
243.998	130.75
244.232	143.75
244.465	136.75
244.699	134.75
244.932	161.75
245.166	154.75
245.399	149.75
245.633	142.75
245.866	156.75
246.099	152.75
246.333	135.75
246.566	153.75
246.8	152.75
247.033	171.75
247.266	153.75
247.5	166.75
247.733	161.75
247.966	162.75
248.2	188.75
248.433	183.75
248.666	167.75
248.899	183.75
249.133	203.75
249.366	190.75
249.599	197.75
249.832	192.75
250.066	185.75
250.299	196.75
250.532	203.75
250.765	203.75
250.998	220.75
251.231	236.75
251.465	246.75
251.698	210.75
251.931	212.75
252.164	202.75
252.397	205.75
252.63	217.75
252.863	209.75
253.096	216.75
253.329	221.75
253.562	254.75
253.795	219.75
254.028	223.75
254.261	242.75
254.494	247.75
254.727	280.75
254.96	297.75
255.193	284.75
255.426	259.75
255.659	225.75
255.892	238.75
256.124	238.75
256.357	229.75
256.59	242.75
256.823	221.75
257.056	221.75
257.289	213.75
257.521	212.75
257.754	214.75
257.987	220.75
258.22	222.75
258.452	228.75
258.685	212.75
258.918	213.75
259.151	227.75
259.383	227.75
259.616	228.75
259.849	218.75
260.081	245.75
260.314	256.75
260.547	261.75
260.779	244.75
261.012	232.75
261.244	253.75
261.477	224.75
261.71	226.75
261.942	210.75
262.175	241.75
262.407	227.75
262.64	220.75
262.872	222.75
263.105	235.75
263.337	210.75
263.57	217.75
263.802	226.75
264.035	219.75
264.267	209.75
264.499	219.75
264.732	227.75
264.964	230.75
265.197	218.75
265.429	240.75
265.661	211.75
265.894	219.75
266.126	232.75
266.358	233.75
266.591	229.75
266.823	210.75
267.055	232.75
267.287	243.75
267.52	246.75
267.752	226.75
267.984	232.75
268.216	234.75
268.448	235.75
268.681	258.75
268.913	249.75
269.145	291.75
269.377	276.75
269.609	288.75
269.841	286.75
270.073	278.75
270.306	327.75
270.538	326.75
270.77	338.75
271.002	309.75
271.234	305.75
271.466	312.75
271.698	317.75
271.93	336.75
272.162	346.75
272.394	318.75
272.626	315.75
272.858	313.75
273.09	292.75
273.322	280.75
273.553	272.75
273.785	272.75
274.017	283.75
274.249	274.75
274.481	273.75
274.713	264.75
274.945	279.75
275.176	284.75
275.408	286.75
275.64	273.75
275.872	271.75
276.104	260.75
276.335	273.75
276.567	286.75
276.799	299.75
277.031	307.75
277.262	351.75
277.494	328.75
277.726	310.75
277.957	320.75
278.189	295.75
278.421	277.75
278.652	281.75
278.884	285.75
279.115	288.75
279.347	267.75
279.579	287.75
279.81	299.75
280.042	277.75
280.273	259.75
280.505	284.75
280.736	292.75
280.968	287.75
281.199	280.75
281.431	293.75
281.662	296.75
281.894	290.75
282.125	282.75
282.356	294.75
282.588	293.75
282.819	317.75
283.051	294.75
283.282	292.75
283.513	317.75
283.745	288.75
283.976	308.75
284.207	301.75
284.439	291.75
284.67	295.75
284.901	283.75
285.132	278.75
285.364	287.75
285.595	284.75
285.826	270.75
286.057	293.75
286.288	288.75
286.52	286.75
286.751	269.75
286.982	299.75
287.213	276.75
287.444	288.75
287.675	293.75
287.906	316.75
288.138	314.75
288.369	311.75
288.6	293.75
288.831	310.75
289.062	298.75
289.293	310.75
289.524	304.75
289.755	298.75
289.986	290.75
290.217	298.75
290.448	299.75
290.679	264.75
290.91	288.75
291.141	301.75
291.371	314.75
291.602	309.75
291.833	289.75
292.064	295.75
292.295	291.75
292.526	299.75
292.757	294.75
292.987	298.75
293.218	321.75
293.449	291.75
293.68	317.75
293.91	304.75
294.141	318.75
294.372	309.75
294.603	316.75
294.833	287.75
295.064	313.75
295.295	291.75
295.525	312.75
295.756	296.75
295.987	310.75
296.217	347.75
296.448	333.75
296.679	324.75
296.909	322.75
297.14	311.75
297.37	304.75
297.601	312.75
297.831	307.75
298.062	323.75
298.292	324.75
298.523	292.75
298.753	310.75
298.984	309.75
299.214	322.75
299.445	317.75
299.675	327.75
299.905	321.75
300.136	322.75
300.366	320.75
300.597	323.75
300.827	333.75
301.057	336.75
301.288	328.75
301.518	338.75
301.748	338.75
301.979	341.75
302.209	330.75
302.439	340.75
302.669	310.75
302.9	346.75
303.13	342.75
303.36	346.75
303.59	349.75
303.82	350.75
304.051	346.75
304.281	339.75
304.511	353.75
304.741	326.75
304.971	332.75
305.201	336.75
305.431	341.75
305.661	342.75
305.891	321.75
306.121	347.75
306.352	357.75
306.582	353.75
306.812	347.75
307.042	341.75
307.272	331.75
307.502	344.75
307.731	345.75
307.961	330.75
308.191	352.75
308.421	364.75
308.651	356.75
308.881	353.75
309.111	347.75
309.341	361.75
309.571	349.75
309.8	370.75
310.03	378.75
310.26	378.75
310.49	398.75
310.72	395.75
310.949	406.75
311.179	404.75
311.409	390.75
311.639	385.75
311.868	396.75
312.098	391.75
312.328	404.75
312.557	411.75
312.787	444.75
313.017	388.75
313.246	406.75
313.476	391.75
313.706	382.75
313.935	411.75
314.165	403.75
314.394	409.75
314.624	393.75
314.853	409.75
315.083	389.75
315.312	385.75
315.542	382.75
315.771	387.75
316.001	379.75
316.23	386.75
316.46	373.75
316.689	372.75
316.919	394.75
317.148	378.75
317.377	419.75
317.607	395.75
317.836	384.75
318.065	388.75
318.295	379.75
318.524	385.75
318.753	376.75
318.983	404.75
319.212	376.75
319.441	403.75
319.67	405.75
319.9	399.75
320.129	424.75
320.358	409.75
320.587	402.75
320.816	393.75
321.046	438.75
321.275	407.75
321.504	406.75
321.733	417.75
321.962	421.75
322.191	432.75
322.42	445.75
322.649	452.75
322.878	455.75
323.108	451.75
323.337	484.75
323.566	490.75
323.795	540.75
324.024	604.75
324.253	712.75
324.482	1013.75
324.71	1496.75
324.939	2033.75
325.168	1704.75
325.397	926.75
325.626	647.75
325.855	549.75
326.084	482.75
326.313	496.75
326.542	512.75
326.77	552.75
326.999	679.75
327.228	872.75
327.457	1312.75
327.686	1504.75
327.914	1031.75
328.143	672.75
328.372	612.75
328.6	574.75
328.829	562.75
329.058	538.75
329.287	562.75
329.515	552.75
329.744	504.75
329.972	517.75
330.201	520.75
330.43	539.75
330.658	557.75
330.887	602.75
331.115	578.75
331.344	506.75
331.572	466.75
331.801	477.75
332.03	488.75
332.258	456.75
332.486	465.75
332.715	464.75
332.943	457.75
333.172	448.75
333.4	456.75
333.629	455.75
333.857	456.75
334.085	475.75
334.314	489.75
334.542	525.75
334.771	502.75
334.999	491.75
335.227	490.75
335.455	439.75
335.684	459.75
335.912	459.75
336.14	447.75
336.369	453.75
336.597	432.75
336.825	443.75
337.053	436.75
337.281	434.75
337.51	430.75
337.738	434.75
337.966	420.75
338.194	456.75
338.422	450.75
338.65	431.75
338.878	428.75
339.106	419.75
339.334	414.75
339.562	408.75
339.79	422.75
340.018	429.75
340.246	426.75
340.474	425.75
340.702	418.75
340.93	409.75
341.158	415.75
341.386	432.75
341.614	425.75
341.842	398.75
342.07	414.75
342.298	430.75
342.526	439.75
342.754	421.75
342.981	415.75
343.209	409.75
343.437	428.75
343.665	421.75
343.893	421.75
344.12	452.75
344.348	411.75
344.576	418.75
344.804	438.75
345.031	441.75
345.259	435.75
345.487	439.75
345.714	406.75
345.942	418.75
346.17	405.75
346.397	388.75
346.625	406.75
346.853	412.75
347.08	403.75
347.308	406.75
347.535	396.75
347.763	423.75
347.99	398.75
348.218	408.75
348.445	408.75
348.673	412.75
348.9	392.75
349.128	413.75
349.355	382.75
349.583	396.75
349.81	377.75
350.037	394.75
350.265	398.75
350.492	390.75
350.72	399.75
350.947	398.75
351.174	409.75
351.402	424.75
351.629	400.75
351.856	389.75
352.083	404.75
352.311	394.75
352.538	400.75
352.765	411.75
352.992	390.75
353.22	390.75
353.447	388.75
353.674	387.75
353.901	384.75
354.128	390.75
354.355	384.75
354.583	376.75
354.81	388.75
355.037	358.75
355.264	366.75
355.491	368.75
355.718	360.75
355.945	365.75
356.172	356.75
356.399	376.75
356.626	357.75
356.853	360.75
357.08	377.75
357.307	376.75
357.534	379.75
357.761	360.75
357.988	368.75
358.215	362.75
358.441	382.75
358.668	373.75
358.895	369.75
359.122	374.75
359.349	385.75
359.576	388.75
359.802	406.75
360.029	414.75
360.256	421.75
360.483	410.75
360.709	379.75
360.936	380.75
361.163	376.75
361.39	396.75
361.616	386.75
361.843	391.75
362.07	380.75
362.296	410.75
362.523	378.75
362.749	394.75
362.976	372.75
363.203	402.75
363.429	374.75
363.656	387.75
363.882	381.75
364.109	373.75
364.335	359.75
364.562	376.75
364.788	358.75
365.015	363.75
365.241	370.75
365.468	386.75
365.694	373.75
365.92	373.75
366.147	373.75
366.373	358.75
366.599	372.75
366.826	371.75
367.052	372.75
367.278	382.75
367.505	367.75
367.731	384.75
367.957	349.75
368.184	370.75
368.41	372.75
368.636	380.75
368.862	380.75
369.089	389.75
369.315	358.75
369.541	377.75
369.767	368.75
369.993	354.75
370.219	373.75
370.445	350.75
370.672	354.75
370.898	377.75
371.124	384.75
371.35	360.75
371.576	377.75
371.802	398.75
372.028	357.75
372.254	363.75
372.48	348.75
372.706	352.75
372.932	370.75
373.158	356.75
373.384	377.75
373.61	353.75
373.835	366.75
374.061	350.75
374.287	397.75
374.513	372.75
374.739	364.75
374.965	368.75
375.191	371.75
375.416	365.75
375.642	385.75
375.868	385.75
376.094	340.75
376.319	351.75
376.545	372.75
376.771	373.75
376.997	362.75
377.222	347.75
377.448	370.75
377.674	361.75
377.899	363.75
378.125	360.75
378.35	363.75
378.576	329.75
378.802	359.75
379.027	340.75
379.253	365.75
379.478	364.75
379.704	358.75
379.929	353.75
380.155	346.75
380.38	349.75
380.606	356.75
380.831	361.75
381.057	365.75
381.282	348.75
381.507	359.75
381.733	355.75
381.958	357.75
382.184	377.75
382.409	347.75
382.634	374.75
382.86	372.75
383.085	358.75
383.31	361.75
383.535	355.75
383.761	376.75
383.986	384.75
384.211	364.75
384.436	378.75
384.662	364.75
384.887	355.75
385.112	361.75
385.337	370.75
385.562	357.75
385.787	376.75
386.013	388.75
386.238	401.75
386.463	378.75
386.688	376.75
386.913	392.75
387.138	392.75
387.363	363.75
387.588	384.75
387.813	376.75
388.038	349.75
388.263	368.75
388.488	387.75
388.713	371.75
388.938	382.75
389.163	379.75
389.387	379.75
389.612	338.75
389.837	378.75
390.062	384.75
390.287	362.75
390.512	365.75
390.736	371.75
390.961	375.75
391.186	354.75
391.411	354.75
391.636	371.75
391.86	364.75
392.085	382.75
392.31	377.75
392.534	385.75
392.759	379.75
392.984	374.75
393.208	366.75
393.433	361.75
393.658	354.75
393.882	359.75
394.107	372.75
394.331	381.75
394.556	356.75
394.78	386.75
395.005	394.75
395.229	370.75
395.454	395.75
395.678	381.75
395.903	414.75
396.127	402.75
396.352	414.75
396.576	399.75
396.801	376.75
397.025	371.75
397.249	408.75
397.474	378.75
397.698	391.75
397.922	409.75
398.147	413.75
398.371	429.75
398.595	395.75
398.82	407.75
399.044	413.75
399.268	415.75
399.492	447.75
399.717	478.75
399.941	472.75
400.165	526.75
400.389	529.75
400.613	456.75
400.837	429.75
401.062	430.75
401.286	409.75
401.51	410.75
401.734	425.75
401.958	414.75
402.182	411.75
402.406	438.75
402.63	447.75
402.854	420.75
403.078	430.75
403.302	430.75
403.526	442.75
403.75	435.75
403.974	428.75
404.198	413.75
404.422	426.75
404.645	426.75
404.869	459.75
405.093	472.75
405.317	502.75
405.541	518.75
405.765	479.75
405.988	473.75
406.212	457.75
406.436	473.75
406.66	467.75
406.883	476.75
407.107	501.75
407.331	524.75
407.555	566.75
407.778	582.75
408.002	518.75
408.226	492.75
408.449	464.75
408.673	437.75
408.896	525.75
409.12	514.75
409.344	498.75
409.567	449.75
409.791	426.75
410.014	415.75
410.238	417.75
410.461	432.75
410.685	439.75
410.908	455.75
411.132	484.75
411.355	510.75
411.578	487.75
411.802	436.75
412.025	425.75
412.249	427.75
412.472	444.75
412.695	484.75
412.919	473.75
413.142	434.75
413.365	412.75
413.589	434.75
413.812	410.75
414.035	411.75
414.258	422.75
414.482	418.75
414.705	405.75
414.928	413.75
415.151	402.75
415.374	397.75
415.597	414.75
415.821	393.75
416.044	409.75
416.267	419.75
416.49	409.75
416.713	388.75
416.936	390.75
417.159	424.75
417.382	408.75
417.605	452.75
417.828	440.75
418.051	437.75
418.274	415.75
418.497	411.75
418.72	431.75
418.943	427.75
419.166	434.75
419.389	432.75
419.611	413.75
419.834	410.75
420.057	436.75
420.28	446.75
420.503	426.75
420.726	447.75
420.948	436.75
421.171	498.75
421.394	500.75
421.617	448.75
421.839	419.75
422.062	438.75
422.285	432.75
422.507	475.75
422.73	548.75
422.953	509.75
423.175	462.75
423.398	447.75
423.621	450.75
423.843	456.75
424.066	461.75
424.288	459.75
424.511	484.75
424.733	522.75
424.956	583.75
425.178	542.75
425.401	530.75
425.623	580.75
425.846	484.75
426.068	470.75
426.291	468.75
426.513	455.75
426.735	470.75
426.958	492.75
427.18	573.75
427.402	670.75
427.625	736.75
427.847	658.75
428.069	532.75
428.292	506.75
428.514	453.75
428.736	426.75
428.958	428.75
429.181	409.75
429.403	415.75
429.625	431.75
429.847	476.75
430.069	520.75
430.292	512.75
430.514	442.75
430.736	426.75
430.958	419.75
431.18	411.75
431.402	391.75
431.624	390.75
431.846	378.75
432.068	371.75
432.29	403.75
432.512	407.75
432.734	411.75
432.956	393.75
433.178	416.75
433.4	439.75
433.622	414.75
433.844	402.75
434.066	398.75
434.287	403.75
434.509	413.75
434.731	437.75
434.953	398.75
435.175	408.75
435.397	466.75
435.618	451.75
435.84	502.75
436.062	561.75
436.284	603.75
436.505	521.75
436.727	486.75
436.949	466.75
437.17	428.75
437.392	410.75
437.614	436.75
437.835	455.75
438.057	538.75
438.278	619.75
438.5	627.75
438.721	696.75
438.943	654.75
439.165	542.75
439.386	480.75
439.608	471.75
439.829	469.75
440.05	475.75
440.272	539.75
440.493	476.75
440.715	452.75
440.936	444.75
441.158	440.75
441.379	429.75
441.6	438.75
441.822	440.75
442.043	473.75
442.264	533.75
442.486	574.75
442.707	500.75
442.928	480.75
443.149	482.75
443.371	499.75
443.592	526.75
443.813	573.75
444.034	633.75
444.255	541.75
444.476	462.75
444.698	475.75
444.919	457.75
445.14	565.75
445.361	491.75
445.582	482.75
445.803	556.75
446.024	638.75
446.245	648.75
446.466	573.75
446.687	503.75
446.908	457.75
447.129	446.75
447.35	438.75
447.571	442.75
447.792	417.75
448.013	440.75
448.234	425.75
448.455	467.75
448.675	582.75
448.896	660.75
449.117	565.75
449.338	554.75
449.559	621.75
449.779	714.75
450	587.75
450.221	467.75
450.442	452.75
450.662	422.75
450.883	413.75
451.104	438.75
451.324	397.75
451.545	396.75
451.766	406.75
451.986	388.75
452.207	395.75
452.428	388.75
452.648	373.75
452.869	380.75
453.089	396.75
453.31	384.75
453.53	382.75
453.751	374.75
453.971	379.75
454.192	390.75
454.412	386.75
454.633	383.75
454.853	390.75
455.073	366.75
455.294	384.75
455.514	439.75
455.734	440.75
455.955	379.75
456.175	379.75
456.395	363.75
456.616	343.75
456.836	351.75
457.056	348.75
457.276	339.75
457.497	356.75
457.717	350.75
457.937	357.75
458.157	353.75
458.377	364.75
458.598	400.75
458.818	426.75
459.038	498.75
459.258	519.75
459.478	447.75
459.698	397.75
459.918	387.75
460.138	382.75
460.358	380.75
460.578	385.75
460.798	380.75
461.018	398.75
461.238	392.75
461.458	392.75
461.678	382.75
461.898	399.75
462.118	399.75
462.338	406.75
462.558	407.75
462.777	410.75
462.997	414.75
463.217	427.75
463.437	430.75
463.657	407.75
463.876	427.75
464.096	404.75
464.316	414.75
464.536	434.75
464.755	425.75
464.975	436.75
465.195	442.75
465.414	502.75
465.634	434.75
465.854	394.75
466.073	384.75
466.293	388.75
466.512	380.75
466.732	372.75
466.951	388.75
467.171	387.75
467.391	377.75
467.61	401.75
467.829	414.75
468.049	397.75
468.268	372.75
468.488	372.75
468.707	373.75
468.927	370.75
469.146	369.75
469.365	375.75
469.585	360.75
469.804	380.75
470.023	386.75
470.243	379.75
470.462	387.75
470.681	424.75
470.901	422.75
471.12	406.75
471.339	373.75
471.558	373.75
471.777	388.75
471.997	361.75
472.216	396.75
472.435	421.75
472.654	407.75
472.873	365.75
473.092	374.75
473.311	390.75
473.53	386.75
473.749	413.75
473.968	444.75
474.187	513.75
474.406	520.75
474.625	452.75
474.844	420.75
475.063	391.75
475.282	389.75
475.501	387.75
475.72	385.75
475.939	382.75
476.158	389.75
476.377	396.75
476.596	394.75
476.814	387.75
477.033	416.75
477.252	381.75
477.471	397.75
477.69	412.75
477.908	416.75
478.127	422.75
478.346	428.75
478.564	432.75
478.783	432.75
479.002	414.75
479.22	430.75
479.439	434.75
479.658	456.75
479.876	461.75
480.095	455.75
480.313	465.75
480.532	466.75
480.751	469.75
480.969	479.75
481.188	505.75
481.406	534.75
481.624	468.75
481.843	467.75
482.061	449.75
482.28	459.75
482.498	453.75
482.717	435.75
482.935	446.75
483.153	451.75
483.372	450.75
483.59	441.75
483.808	432.75
484.027	448.75
484.245	438.75
484.463	440.75
484.681	453.75
484.9	471.75
485.118	454.75
485.336	450.75
485.554	448.75
485.772	439.75
485.99	464.75
486.209	459.75
486.427	475.75
486.645	466.75
486.863	512.75
487.081	494.75
487.299	467.75
487.517	455.75
487.735	473.75
487.953	502.75
488.171	482.75
488.389	488.75
488.607	484.75
488.825	479.75
489.043	483.75
489.261	494.75
489.479	490.75
489.696	486.75
489.914	489.75
490.132	484.75
490.35	511.75
490.568	493.75
490.786	523.75
491.003	523.75
491.221	552.75
491.439	562.75
491.657	537.75
491.874	552.75
492.092	585.75
492.31	576.75
492.527	573.75
492.745	563.75
492.963	572.75
493.18	580.75
493.398	586.75
493.615	565.75
493.833	550.75
494.05	562.75
494.268	561.75
494.485	576.75
494.703	562.75
494.92	583.75
495.138	576.75
495.355	551.75
495.573	598.75
495.79	599.75
496.008	578.75
496.225	586.75
496.442	586.75
496.66	574.75
496.877	580.75
497.094	576.75
497.312	581.75
497.529	586.75
497.746	579.75
497.963	610.75
498.181	609.75
498.398	603.75
498.615	618.75
498.832	638.75
499.049	620.75
499.267	642.75
499.484	652.75
499.701	681.75
499.918	700.75
500.135	722.75
500.352	752.75
500.569	763.75
500.786	715.75
501.003	749.75
501.22	739.75
501.437	706.75
501.654	709.75
501.871	693.75
502.088	670.75
502.305	668.75
502.522	633.75
502.739	636.75
502.956	606.75
503.172	590.75
503.389	593.75
503.606	596.75
503.823	557.75
504.04	570.75
504.256	584.75
504.473	555.75
504.69	568.75
504.907	556.75
505.123	573.75
505.34	538.75
505.557	536.75
505.773	525.75
505.99	569.75
506.207	561.75
506.423	548.75
506.64	530.75
506.856	532.75
507.073	537.75
507.289	553.75
507.506	536.75
507.722	537.75
507.939	547.75
508.155	522.75
508.372	524.75
508.588	525.75
508.805	510.75
509.021	496.75
509.238	520.75
509.454	531.75
509.67	547.75
509.887	529.75
510.103	532.75
510.319	546.75
510.536	602.75
510.752	910.75
510.968	722.75
511.184	512.75
511.401	514.75
511.617	497.75
511.833	489.75
512.049	494.75
512.265	483.75
512.481	501.75
512.698	480.75
512.914	501.75
513.13	456.75
513.346	473.75
513.562	477.75
513.778	475.75
513.994	499.75
514.21	488.75
514.426	524.75
514.642	562.75
514.858	550.75
515.074	596.75
515.29	696.75
515.506	937.75
515.721	790.75
515.937	560.75
516.153	523.75
516.369	517.75
516.585	500.75
516.801	504.75
517.016	504.75
517.232	481.75
517.448	484.75
517.664	486.75
517.879	478.75
518.095	485.75
518.311	488.75
518.527	483.75
518.742	490.75
518.958	484.75
519.173	486.75
519.389	468.75
519.605	481.75
519.82	498.75
520.036	482.75
520.251	500.75
520.467	515.75
520.682	519.75
520.898	529.75
521.113	553.75
521.329	587.75
521.544	620.75
521.76	780.75
521.975	1218.75
522.19	1145.75
522.406	690.75
522.621	538.75
522.836	476.75
523.052	479.75
523.267	468.75
523.482	455.75
523.698	426.75
523.913	434.75
524.128	426.75
524.343	434.75
524.559	425.75
524.774	419.75
524.989	429.75
525.204	442.75
525.419	443.75
525.634	417.75
525.849	408.75
526.064	397.75
526.28	406.75
526.495	411.75
526.71	394.75
526.925	413.75
527.14	393.75
527.355	399.75
527.57	374.75
527.785	382.75
527.999	394.75
528.214	391.75
528.429	403.75
528.644	374.75
528.859	393.75
529.074	411.75
529.289	428.75
529.503	459.75
529.718	445.75
529.933	430.75
530.148	409.75
530.363	409.75
530.577	402.75
530.792	375.75
531.007	385.75
531.221	386.75
531.436	380.75
531.651	357.75
531.865	374.75
532.08	378.75
532.295	374.75
532.509	369.75
532.724	376.75
532.938	380.75
533.153	385.75
533.367	376.75
533.582	371.75
533.796	396.75
534.011	390.75
534.225	380.75
534.44	356.75
534.654	369.75
534.868	350.75
535.083	365.75
535.297	353.75
535.511	359.75
535.726	385.75
535.94	373.75
536.154	387.75
536.369	377.75
536.583	368.75
536.797	368.75
537.011	347.75
537.225	348.75
537.44	371.75
537.654	371.75
537.868	389.75
538.082	358.75
538.296	360.75
538.51	361.75
538.724	368.75
538.938	365.75
539.153	358.75
539.367	370.75
539.581	388.75
539.795	358.75
540.009	349.75
540.222	349.75
540.436	365.75
540.65	363.75
540.864	378.75
541.078	372.75
541.292	370.75
541.506	392.75
541.72	364.75
541.934	381.75
542.147	377.75
542.361	368.75
542.575	386.75
542.789	391.75
543.002	375.75
543.216	365.75
543.43	368.75
543.644	380.75
543.857	368.75
544.071	378.75
544.285	374.75
544.498	373.75
544.712	380.75
544.925	366.75
545.139	377.75
545.352	353.75
545.566	359.75
545.779	365.75
545.993	349.75
546.206	379.75
546.42	370.75
546.633	369.75
546.847	362.75
547.06	356.75
547.274	368.75
547.487	361.75
547.7	368.75
547.914	346.75
548.127	352.75
548.34	374.75
548.554	363.75
548.767	360.75
548.98	353.75
549.193	337.75
549.407	347.75
549.62	360.75
549.833	348.75
550.046	339.75
550.259	343.75
550.473	337.75
550.686	338.75
550.899	346.75
551.112	351.75
551.325	368.75
551.538	341.75
551.751	341.75
551.964	350.75
552.177	327.75
552.39	331.75
552.603	345.75
552.816	346.75
553.029	360.75
553.242	359.75
553.455	342.75
553.667	369.75
553.88	349.75
554.093	333.75
554.306	348.75
554.519	342.75
554.732	350.75
554.944	354.75
555.157	353.75
555.37	331.75
555.583	342.75
555.795	325.75
556.008	334.75
556.221	321.75
556.433	347.75
556.646	332.75
556.859	328.75
557.071	331.75
557.284	333.75
557.496	333.75
557.709	312.75
557.921	312.75
558.134	315.75
558.346	313.75
558.559	315.75
558.771	303.75
558.984	338.75
559.196	320.75
559.409	324.75
559.621	322.75
559.833	301.75
560.046	306.75
560.258	309.75
560.47	320.75
560.683	305.75
560.895	316.75
561.107	320.75
561.32	315.75
561.532	309.75
561.744	318.75
561.956	291.75
562.168	321.75
562.381	307.75
562.593	290.75
562.805	323.75
563.017	317.75
563.229	320.75
563.441	301.75
563.653	320.75
563.865	325.75
564.077	325.75
564.289	321.75
564.501	326.75
564.713	344.75
564.925	298.75
565.137	318.75
565.349	326.75
565.561	329.75
565.773	344.75
565.985	346.75
566.197	321.75
566.408	324.75
566.62	354.75
566.832	360.75
567.044	321.75
567.255	344.75
567.467	368.75
567.679	378.75
567.891	389.75
568.102	359.75
568.314	370.75
568.526	365.75
568.737	343.75
568.949	315.75
569.161	333.75
569.372	317.75
569.584	302.75
569.795	334.75
570.007	322.75
570.218	352.75
570.43	326.75
570.641	301.75
570.853	295.75
571.064	281.75
571.276	293.75
571.487	294.75
571.698	274.75
571.91	283.75
572.121	278.75
572.333	297.75
572.544	268.75
572.755	288.75
572.966	260.75
573.178	272.75
573.389	259.75
573.6	272.75
573.811	265.75
574.023	268.75
574.234	267.75
574.445	269.75
574.656	266.75
574.867	259.75
575.078	268.75
575.289	251.75
575.501	253.75
575.712	260.75
575.923	238.75
576.134	268.75
576.345	266.75
576.556	258.75
576.767	259.75
576.978	271.75
577.188	266.75
577.399	248.75
577.61	253.75
577.821	233.75
578.032	248.75
578.243	291.75
578.454	430.75
578.665	329.75
578.875	257.75
579.086	245.75
579.297	242.75
579.508	246.75
579.718	251.75
579.929	242.75
580.14	258.75
580.35	237.75
580.561	250.75
580.772	262.75
580.982	228.75
581.193	248.75
581.403	245.75
581.614	245.75
581.825	233.75
582.035	221.75
582.246	257.75
582.456	237.75
582.667	241.75
582.877	225.75
583.087	227.75
583.298	236.75
583.508	251.75
583.719	241.75
583.929	243.75
584.139	240.75
584.35	235.75
584.56	246.75
584.77	236.75
584.981	235.75
585.191	230.75
585.401	226.75
585.611	242.75
585.821	248.75
586.032	228.75
586.242	237.75
586.452	231.75
586.662	236.75
586.872	221.75
587.082	247.75
587.292	227.75
587.502	231.75
587.713	234.75
587.923	226.75
588.133	242.75
588.343	226.75
588.553	220.75
588.762	226.75
588.972	247.75
589.182	240.75
589.392	220.75
589.602	238.75
589.812	230.75
590.022	241.75
590.232	229.75
590.441	228.75
590.651	226.75
590.861	228.75
591.071	212.75
591.281	232.75
591.49	230.75
591.7	234.75
591.91	219.75
592.119	229.75
592.329	229.75
592.539	232.75
592.748	230.75
592.958	240.75
593.167	249.75
593.377	230.75
593.587	258.75
593.796	236.75
594.006	243.75
594.215	228.75
594.424	225.75
594.634	222.75
594.843	232.75
595.053	236.75
595.262	233.75
595.472	230.75
595.681	217.75
595.89	220.75
596.1	224.75
596.309	226.75
596.518	228.75
596.727	238.75
596.937	226.75
597.146	210.75
597.355	214.75
597.564	213.75
597.774	212.75
597.983	216.75
598.192	212.75
598.401	211.75
598.61	212.75
598.819	241.75
599.028	225.75
599.237	214.75
599.446	219.75
599.655	209.75
599.864	211.75
600.073	192.75
600.282	216.75
600.491	211.75
600.7	189.75
600.909	217.75
601.118	218.75
601.327	210.75
601.536	226.75
601.745	212.75
601.953	214.75
602.162	200.75
602.371	198.75
602.58	206.75
602.789	201.75
602.997	200.75
603.206	202.75
603.415	206.75
603.623	194.75
603.832	203.75
604.041	204.75
604.249	200.75
604.458	196.75
604.666	189.75
604.875	205.75
605.084	198.75
605.292	218.75
605.501	210.75
605.709	200.75
605.918	214.75
606.126	190.75
606.334	198.75
606.543	220.75
606.751	204.75
606.96	212.75
607.168	192.75
607.376	211.75
607.585	204.75
607.793	197.75
608.001	207.75
608.21	199.75
608.418	186.75
608.626	189.75
608.834	205.75
609.043	227.75
609.251	212.75
609.459	211.75
609.667	200.75
609.875	197.75
610.083	216.75
610.291	208.75
610.499	211.75
610.707	212.75
610.916	197.75
611.124	216.75
611.332	220.75
611.54	202.75
611.748	220.75
611.955	206.75
612.163	205.75
612.371	191.75
612.579	206.75
612.787	202.75
612.995	208.75
613.203	213.75
613.411	209.75
613.618	205.75
613.826	196.75
614.034	194.75
614.242	210.75
614.449	204.75
614.657	204.75
614.865	201.75
615.072	185.75
615.28	204.75
615.488	197.75
615.695	208.75
615.903	194.75
616.111	196.75
616.318	199.75
616.526	207.75
616.733	197.75
616.941	188.75
617.148	194.75
617.356	190.75
617.563	204.75
617.771	192.75
617.978	199.75
618.185	194.75
618.393	202.75
618.6	188.75
618.807	192.75
619.015	185.75
619.222	190.75
619.429	181.75
619.637	189.75
619.844	159.75
620.051	196.75
620.258	194.75
620.466	197.75
620.673	190.75
620.88	176.75
621.087	200.75
621.294	212.75
621.501	187.75
621.708	192.75
621.915	194.75
622.122	194.75
622.329	186.75
622.536	199.75
622.743	194.75
622.95	189.75
623.157	181.75
623.364	153.75
623.571	178.75
623.778	188.75
623.985	193.75
624.192	185.75
624.399	193.75
624.606	178.75
624.812	180.75
625.019	193.75
625.226	184.75
625.433	196.75
625.639	154.75
625.846	160.75
626.053	171.75
626.259	187.75
626.466	181.75
626.673	157.75
626.879	152.75
627.086	166.75
627.293	168.75
627.499	181.75
627.706	168.75
627.912	178.75
628.119	182.75
628.325	185.75
628.532	154.75
628.738	160.75
628.945	158.75
629.151	169.75
629.357	182.75
629.564	178.75
629.77	190.75
629.976	171.75
630.183	149.75
630.389	163.75
630.595	164.75
630.802	156.75
631.008	164.75
631.214	176.75
631.42	167.75
631.627	153.75
631.833	147.75
632.039	156.75
632.245	157.75
632.451	159.75
632.657	168.75
632.863	152.75
633.069	165.75
633.275	164.75
633.481	164.75
633.688	165.75
633.893	146.75
634.099	160.75
634.305	151.75
634.511	156.75
634.717	162.75
634.923	164.75
635.129	158.75
635.335	150.75
635.541	163.75
635.747	151.75
635.952	171.75
636.158	158.75
636.364	153.75
636.57	163.75
636.775	165.75
636.981	158.75
637.187	165.75
637.392	162.75
637.598	162.75
637.804	150.75
638.009	161.75
638.215	169.75
638.421	163.75
638.626	159.75
638.832	158.75
639.037	150.75
639.243	160.75
639.448	154.75
639.654	162.75
639.859	164.75
640.065	152.75
640.27	158.75
640.475	156.75
640.681	130.75
640.886	142.75
641.091	151.75
641.297	153.75
641.502	138.75
641.707	152.75
641.913	161.75
642.118	146.75
642.323	139.75
642.528	149.75
642.733	156.75
642.939	153.75
643.144	154.75
643.349	143.75
643.554	136.75
643.759	148.75
643.964	140.75
644.169	155.75
644.374	134.75
644.579	146.75
644.784	156.75
644.989	153.75
645.194	156.75
645.399	152.75
645.604	147.75
645.809	143.75
646.014	148.75
646.219	148.75
646.423	152.75
646.628	151.75
646.833	141.75
647.038	142.75
647.243	154.75
647.447	142.75
647.652	141.75
647.857	146.75
648.062	156.75
648.266	134.75
648.471	139.75
648.676	165.75
648.88	139.75
649.085	150.75
649.289	152.75
649.494	150.75
649.698	162.75
649.903	157.75
650.107	150.75
650.312	164.75
650.516	145.75
650.721	149.75
650.925	140.75
651.13	151.75
651.334	134.75
651.539	154.75
651.743	153.75
651.947	156.75
652.152	142.75
652.356	138.75
652.56	129.75
652.764	138.75
652.969	128.75
653.173	128.75
653.377	119.75
653.581	121.75
653.785	123.75
653.99	133.75
654.194	123.75
654.398	128.75
654.602	146.75
654.806	134.75
655.01	145.75
655.214	121.75
655.418	129.75
655.622	124.75
655.826	122.75
656.03	119.75
656.234	117.75
656.438	124.75
656.642	132.75
656.846	122.75
657.049	122.75
657.253	112.75
657.457	107.75
657.661	106.75
657.865	116.75
658.068	112.75
658.272	114.75
658.476	106.75
658.68	100.75
658.883	89.75
659.087	97.75
659.291	88.75
659.494	95.75
659.698	95.75
659.901	97.75
660.105	98.75
660.309	103.75
660.512	101.75
660.716	93.75
660.919	77.75
661.123	89.75
661.326	86.75
661.53	88.75
661.733	89.75
661.936	85.75
662.14	71.75
662.343	72.75
662.546	96.75
662.75	83.75
662.953	96.75
663.156	94.75
663.36	97.75
663.563	76.75
663.766	64.75
663.969	84.75
664.173	82.75
664.376	77.75
664.579	81.75
664.782	96.75
664.985	85.75
665.188	78.75
665.391	81.75
665.594	98.75
665.797	82.75
666	82.75
666.203	65.75
666.406	80.75
666.609	85.75
666.812	82.75
667.015	73.75
667.218	88.75
667.421	83.75
667.624	90.75
667.827	93.75
668.03	65.75
668.232	88.75
668.435	81.75
668.638	89.75
668.841	79.75
669.043	84.75
669.246	83.75
669.449	90.75
669.651	77.75
669.854	78.75
670.057	77.75
670.259	84.75
670.462	77.75
670.665	70.75
670.867	83.75
671.07	66.75
671.272	73.75
671.475	81.75
671.677	82.75
671.88	90.75
672.082	82.75
672.284	85.75
672.487	92.75
672.689	57.75
672.892	83.75
