Data from 1971.PennyLincolnUp.Lamp.En5.5.200Scan.071719.P1.Scan 2. Changed Angle._HRD10591_15-24-46-843.txt Node
Date: Thu Jul 18 15:24:46 EDT 2019
User: cochatt
Spectrometer: HR+D1059
Trigger mode: 1
Integration Time (sec): 1.000000E-1
Scans to average: 1
Electric dark correction enabled: true
Nonlinearity correction enabled: false
Boxcar width: 0
XAxis mode: Wavelengths
Number of Pixels in Spectrum: 2048
>>>>>Begin Spectral Data<<<<<
223.165	-13.31
223.4	-13.31
223.635	-13.31
223.869	-13.31
224.104	-16.31
224.338	-18.31
224.573	3.69
224.808	-18.31
225.042	-13.31
225.277	0.69
225.511	5.69
225.746	-8.31
225.98	-3.31
226.215	-0.31
226.449	9.69
226.683	25.69
226.918	34.69
227.152	24.69
227.387	23.69
227.621	43.69
227.856	27.69
228.09	38.69
228.324	58.69
228.559	71.69
228.793	79.69
229.027	108.69
229.262	114.69
229.496	136.69
229.73	164.69
229.964	195.69
230.199	148.69
230.433	151.69
230.667	128.69
230.901	125.69
231.136	112.69
231.37	130.69
231.604	121.69
231.838	121.69
232.072	127.69
232.306	132.69
232.541	124.69
232.775	120.69
233.009	119.69
233.243	126.69
233.477	117.69
233.711	130.69
233.945	116.69
234.179	130.69
234.413	132.69
234.647	131.69
234.881	124.69
235.115	126.69
235.349	114.69
235.583	116.69
235.817	124.69
236.051	121.69
236.285	132.69
236.519	130.69
236.753	142.69
236.987	166.69
237.221	200.69
237.455	282.69
237.689	207.69
237.922	160.69
238.156	139.69
238.39	127.69
238.624	135.69
238.858	135.69
239.091	139.69
239.325	138.69
239.559	130.69
239.793	148.69
240.027	139.69
240.26	158.69
240.494	180.69
240.728	165.69
240.961	165.69
241.195	160.69
241.429	142.69
241.662	138.69
241.896	147.69
242.13	148.69
242.363	142.69
242.597	143.69
242.83	161.69
243.064	152.69
243.298	143.69
243.531	144.69
243.765	150.69
243.998	135.69
244.232	159.69
244.465	160.69
244.699	151.69
244.932	150.69
245.166	152.69
245.399	156.69
245.633	148.69
245.866	144.69
246.099	145.69
246.333	153.69
246.566	162.69
246.8	165.69
247.033	167.69
247.266	153.69
247.5	161.69
247.733	184.69
247.966	175.69
248.2	174.69
248.433	190.69
248.666	194.69
248.899	197.69
249.133	230.69
249.366	238.69
249.599	219.69
249.832	197.69
250.066	208.69
250.299	186.69
250.532	218.69
250.765	237.69
250.998	264.69
251.231	259.69
251.465	252.69
251.698	239.69
251.931	230.69
252.164	209.69
252.397	214.69
252.63	233.69
252.863	233.69
253.096	256.69
253.329	260.69
253.562	261.69
253.795	242.69
254.028	250.69
254.261	233.69
254.494	254.69
254.727	285.69
254.96	336.69
255.193	322.69
255.426	277.69
255.659	267.69
255.892	261.69
256.124	279.69
256.357	272.69
256.59	259.69
256.823	248.69
257.056	225.69
257.289	231.69
257.521	237.69
257.754	228.69
257.987	223.69
258.22	242.69
258.452	227.69
258.685	233.69
258.918	226.69
259.151	230.69
259.383	236.69
259.616	235.69
259.849	250.69
260.081	280.69
260.314	287.69
260.547	296.69
260.779	285.69
261.012	248.69
261.244	251.69
261.477	259.69
261.71	243.69
261.942	248.69
262.175	244.69
262.407	250.69
262.64	227.69
262.872	225.69
263.105	214.69
263.337	228.69
263.57	223.69
263.802	231.69
264.035	213.69
264.267	215.69
264.499	215.69
264.732	231.69
264.964	239.69
265.197	230.69
265.429	232.69
265.661	219.69
265.894	227.69
266.126	219.69
266.358	220.69
266.591	219.69
266.823	231.69
267.055	231.69
267.287	227.69
267.52	224.69
267.752	233.69
267.984	244.69
268.216	250.69
268.448	253.69
268.681	243.69
268.913	248.69
269.145	278.69
269.377	279.69
269.609	283.69
269.841	272.69
270.073	301.69
270.306	329.69
270.538	343.69
270.77	352.69
271.002	335.69
271.234	324.69
271.466	329.69
271.698	348.69
271.93	357.69
272.162	339.69
272.394	341.69
272.626	324.69
272.858	340.69
273.09	314.69
273.322	295.69
273.553	308.69
273.785	280.69
274.017	286.69
274.249	277.69
274.481	281.69
274.713	287.69
274.945	286.69
275.176	283.69
275.408	283.69
275.64	280.69
275.872	285.69
276.104	294.69
276.335	260.69
276.567	294.69
276.799	308.69
277.031	322.69
277.262	353.69
277.494	344.69
277.726	328.69
277.957	316.69
278.189	298.69
278.421	283.69
278.652	270.69
278.884	268.69
279.115	286.69
279.347	270.69
279.579	265.69
279.81	272.69
280.042	272.69
280.273	274.69
280.505	280.69
280.736	275.69
280.968	262.69
281.199	264.69
281.431	290.69
281.662	263.69
281.894	269.69
282.125	291.69
282.356	281.69
282.588	324.69
282.819	319.69
283.051	294.69
283.282	276.69
283.513	270.69
283.745	294.69
283.976	276.69
284.207	280.69
284.439	282.69
284.67	285.69
284.901	276.69
285.132	281.69
285.364	263.69
285.595	274.69
285.826	277.69
286.057	279.69
286.288	265.69
286.52	290.69
286.751	272.69
286.982	276.69
287.213	281.69
287.444	282.69
287.675	286.69
287.906	312.69
288.138	309.69
288.369	303.69
288.6	302.69
288.831	296.69
289.062	286.69
289.293	310.69
289.524	319.69
289.755	286.69
289.986	268.69
290.217	262.69
290.448	295.69
290.679	282.69
290.91	275.69
291.141	295.69
291.371	295.69
291.602	278.69
291.833	293.69
292.064	283.69
292.295	294.69
292.526	290.69
292.757	290.69
292.987	290.69
293.218	300.69
293.449	295.69
293.68	295.69
293.91	275.69
294.141	295.69
294.372	285.69
294.603	297.69
294.833	303.69
295.064	281.69
295.295	272.69
295.525	278.69
295.756	294.69
295.987	312.69
296.217	355.69
296.448	342.69
296.679	324.69
296.909	309.69
297.14	290.69
297.37	298.69
297.601	302.69
297.831	291.69
298.062	299.69
298.292	302.69
298.523	318.69
298.753	307.69
298.984	307.69
299.214	297.69
299.445	297.69
299.675	301.69
299.905	324.69
300.136	320.69
300.366	288.69
300.597	286.69
300.827	311.69
301.057	315.69
301.288	319.69
301.518	330.69
301.748	328.69
301.979	326.69
302.209	327.69
302.439	320.69
302.669	332.69
302.9	321.69
303.13	303.69
303.36	310.69
303.59	336.69
303.82	346.69
304.051	349.69
304.281	315.69
304.511	331.69
304.741	324.69
304.971	334.69
305.201	325.69
305.431	312.69
305.661	319.69
305.891	318.69
306.121	334.69
306.352	344.69
306.582	338.69
306.812	348.69
307.042	328.69
307.272	318.69
307.502	333.69
307.731	344.69
307.961	327.69
308.191	332.69
308.421	348.69
308.651	342.69
308.881	340.69
309.111	357.69
309.341	345.69
309.571	358.69
309.8	354.69
310.03	381.69
310.26	378.69
310.49	378.69
310.72	420.69
310.949	425.69
311.179	424.69
311.409	400.69
311.639	385.69
311.868	395.69
312.098	407.69
312.328	406.69
312.557	401.69
312.787	430.69
313.017	448.69
313.246	423.69
313.476	389.69
313.706	384.69
313.935	396.69
314.165	394.69
314.394	416.69
314.624	431.69
314.853	394.69
315.083	394.69
315.312	400.69
315.542	379.69
315.771	365.69
316.001	386.69
316.23	386.69
316.46	383.69
316.689	379.69
316.919	403.69
317.148	406.69
317.377	418.69
317.607	421.69
317.836	407.69
318.065	375.69
318.295	378.69
318.524	390.69
318.753	387.69
318.983	367.69
319.212	380.69
319.441	414.69
319.67	411.69
319.9	397.69
320.129	405.69
320.358	391.69
320.587	393.69
320.816	419.69
321.046	408.69
321.275	415.69
321.504	414.69
321.733	430.69
321.962	425.69
322.191	440.69
322.42	462.69
322.649	503.69
322.878	477.69
323.108	490.69
323.337	526.69
323.566	568.69
323.795	606.69
324.024	669.69
324.253	847.69
324.482	1224.69
324.71	1978.69
324.939	2833.69
325.168	2394.69
325.397	1235.69
325.626	808.69
325.855	646.69
326.084	584.69
326.313	564.69
326.542	577.69
326.77	635.69
326.999	802.69
327.228	1081.69
327.457	1710.69
327.686	2042.69
327.914	1410.69
328.143	896.69
328.372	755.69
328.6	712.69
328.829	679.69
329.058	678.69
329.287	685.69
329.515	642.69
329.744	593.69
329.972	582.69
330.201	614.69
330.43	633.69
330.658	702.69
330.887	728.69
331.115	703.69
331.344	575.69
331.572	526.69
331.801	559.69
332.03	547.69
332.258	513.69
332.486	506.69
332.715	472.69
332.943	470.69
333.172	468.69
333.4	473.69
333.629	482.69
333.857	494.69
334.085	514.69
334.314	567.69
334.542	554.69
334.771	585.69
334.999	538.69
335.227	500.69
335.455	490.69
335.684	470.69
335.912	481.69
336.14	463.69
336.369	482.69
336.597	467.69
336.825	479.69
337.053	460.69
337.281	436.69
337.51	448.69
337.738	459.69
337.966	455.69
338.194	454.69
338.422	489.69
338.65	470.69
338.878	450.69
339.106	439.69
339.334	448.69
339.562	469.69
339.79	432.69
340.018	436.69
340.246	459.69
340.474	455.69
340.702	445.69
340.93	459.69
341.158	434.69
341.386	446.69
341.614	441.69
341.842	442.69
342.07	443.69
342.298	446.69
342.526	420.69
342.754	412.69
342.981	420.69
343.209	426.69
343.437	406.69
343.665	435.69
343.893	426.69
344.12	406.69
344.348	437.69
344.576	462.69
344.804	461.69
345.031	471.69
345.259	473.69
345.487	488.69
345.714	449.69
345.942	435.69
346.17	439.69
346.397	430.69
346.625	418.69
346.853	421.69
347.08	443.69
347.308	436.69
347.535	466.69
347.763	465.69
347.99	452.69
348.218	458.69
348.445	471.69
348.673	454.69
348.9	428.69
349.128	432.69
349.355	426.69
349.583	426.69
349.81	421.69
350.037	435.69
350.265	422.69
350.492	408.69
350.72	417.69
350.947	439.69
351.174	453.69
351.402	474.69
351.629	449.69
351.856	433.69
352.083	473.69
352.311	477.69
352.538	476.69
352.765	488.69
352.992	445.69
353.22	461.69
353.447	436.69
353.674	440.69
353.901	431.69
354.128	412.69
354.355	412.69
354.583	419.69
354.81	404.69
355.037	426.69
355.264	384.69
355.491	384.69
355.718	403.69
355.945	390.69
356.172	393.69
356.399	410.69
356.626	394.69
356.853	405.69
357.08	402.69
357.307	423.69
357.534	386.69
357.761	395.69
357.988	404.69
358.215	383.69
358.441	403.69
358.668	407.69
358.895	421.69
359.122	408.69
359.349	438.69
359.576	459.69
359.802	472.69
360.029	503.69
360.256	532.69
360.483	517.69
360.709	460.69
360.936	468.69
361.163	455.69
361.39	464.69
361.616	438.69
361.843	447.69
362.07	454.69
362.296	474.69
362.523	459.69
362.749	441.69
362.976	431.69
363.203	429.69
363.429	422.69
363.656	434.69
363.882	449.69
364.109	426.69
364.335	420.69
364.562	422.69
364.788	438.69
365.015	434.69
365.241	419.69
365.468	439.69
365.694	438.69
365.92	454.69
366.147	422.69
366.373	424.69
366.599	403.69
366.826	425.69
367.052	429.69
367.278	428.69
367.505	419.69
367.731	432.69
367.957	417.69
368.184	427.69
368.41	435.69
368.636	439.69
368.862	444.69
369.089	446.69
369.315	431.69
369.541	412.69
369.767	417.69
369.993	426.69
370.219	420.69
370.445	402.69
370.672	408.69
370.898	422.69
371.124	399.69
371.35	394.69
371.576	409.69
371.802	434.69
372.028	412.69
372.254	422.69
372.48	411.69
372.706	417.69
372.932	416.69
373.158	409.69
373.384	420.69
373.61	422.69
373.835	431.69
374.061	415.69
374.287	428.69
374.513	427.69
374.739	424.69
374.965	422.69
375.191	412.69
375.416	420.69
375.642	415.69
375.868	420.69
376.094	421.69
376.319	411.69
376.545	410.69
376.771	418.69
376.997	423.69
377.222	427.69
377.448	416.69
377.674	404.69
377.899	427.69
378.125	434.69
378.35	420.69
378.576	403.69
378.802	393.69
379.027	391.69
379.253	425.69
379.478	408.69
379.704	406.69
379.929	407.69
380.155	410.69
380.38	413.69
380.606	411.69
380.831	416.69
381.057	415.69
381.282	419.69
381.507	424.69
381.733	429.69
381.958	410.69
382.184	427.69
382.409	398.69
382.634	447.69
382.86	427.69
383.085	434.69
383.31	448.69
383.535	436.69
383.761	434.69
383.986	434.69
384.211	440.69
384.436	441.69
384.662	429.69
384.887	427.69
385.112	440.69
385.337	431.69
385.562	456.69
385.787	463.69
386.013	469.69
386.238	460.69
386.463	455.69
386.688	446.69
386.913	440.69
387.138	455.69
387.363	444.69
387.588	448.69
387.813	444.69
388.038	446.69
388.263	452.69
388.488	463.69
388.713	468.69
388.938	441.69
389.163	463.69
389.387	474.69
389.612	426.69
389.837	442.69
390.062	458.69
390.287	438.69
390.512	459.69
390.736	450.69
390.961	444.69
391.186	447.69
391.411	445.69
391.636	460.69
391.86	449.69
392.085	448.69
392.31	468.69
392.534	473.69
392.759	456.69
392.984	455.69
393.208	463.69
393.433	451.69
393.658	467.69
393.882	466.69
394.107	439.69
394.331	445.69
394.556	441.69
394.78	454.69
395.005	454.69
395.229	452.69
395.454	469.69
395.678	469.69
395.903	472.69
396.127	495.69
396.352	487.69
396.576	487.69
396.801	488.69
397.025	470.69
397.249	484.69
397.474	480.69
397.698	493.69
397.922	525.69
398.147	538.69
398.371	538.69
398.595	527.69
398.82	514.69
399.044	538.69
399.268	531.69
399.492	555.69
399.717	577.69
399.941	609.69
400.165	594.69
400.389	638.69
400.613	598.69
400.837	554.69
401.062	540.69
401.286	559.69
401.51	539.69
401.734	531.69
401.958	543.69
402.182	533.69
402.406	540.69
402.63	553.69
402.854	551.69
403.078	539.69
403.302	555.69
403.526	547.69
403.75	543.69
403.974	550.69
404.198	546.69
404.422	548.69
404.645	559.69
404.869	546.69
405.093	589.69
405.317	632.69
405.541	678.69
405.765	632.69
405.988	611.69
406.212	603.69
406.436	632.69
406.66	627.69
406.883	603.69
407.107	611.69
407.331	656.69
407.555	714.69
407.778	724.69
408.002	661.69
408.226	618.69
408.449	607.69
408.673	597.69
408.896	643.69
409.12	685.69
409.344	658.69
409.567	593.69
409.791	584.69
410.014	548.69
410.238	546.69
410.461	550.69
410.685	557.69
410.908	606.69
411.132	622.69
411.355	661.69
411.578	621.69
411.802	577.69
412.025	547.69
412.249	553.69
412.472	589.69
412.695	634.69
412.919	617.69
413.142	577.69
413.365	550.69
413.589	540.69
413.812	515.69
414.035	526.69
414.258	520.69
414.482	534.69
414.705	534.69
414.928	513.69
415.151	526.69
415.374	528.69
415.597	529.69
415.821	552.69
416.044	538.69
416.267	528.69
416.49	522.69
416.713	522.69
416.936	536.69
417.159	522.69
417.382	540.69
417.605	524.69
417.828	505.69
418.051	557.69
418.274	544.69
418.497	546.69
418.72	523.69
418.943	522.69
419.166	518.69
419.389	569.69
419.611	568.69
419.834	578.69
420.057	562.69
420.28	553.69
420.503	562.69
420.726	552.69
420.948	582.69
421.171	640.69
421.394	681.69
421.617	589.69
421.839	588.69
422.062	556.69
422.285	607.69
422.507	639.69
422.73	696.69
422.953	675.69
423.175	638.69
423.398	612.69
423.621	594.69
423.843	615.69
424.066	609.69
424.288	611.69
424.511	653.69
424.733	700.69
424.956	790.69
425.178	756.69
425.401	728.69
425.623	792.69
425.846	683.69
426.068	660.69
426.291	645.69
426.513	623.69
426.735	642.69
426.958	700.69
427.18	788.69
427.402	926.69
427.625	1030.69
427.847	918.69
428.069	798.69
428.292	716.69
428.514	645.69
428.736	602.69
428.958	599.69
429.181	588.69
429.403	573.69
429.625	605.69
429.847	635.69
430.069	725.69
430.292	696.69
430.514	612.69
430.736	582.69
430.958	576.69
431.18	547.69
431.402	571.69
431.624	521.69
431.846	540.69
432.068	549.69
432.29	524.69
432.512	561.69
432.734	562.69
432.956	550.69
433.178	526.69
433.4	554.69
433.622	562.69
433.844	551.69
434.066	543.69
434.287	538.69
434.509	528.69
434.731	552.69
434.953	552.69
435.175	591.69
435.397	620.69
435.618	634.69
435.84	664.69
436.062	778.69
436.284	832.69
436.505	702.69
436.727	646.69
436.949	616.69
437.17	591.69
437.392	558.69
437.614	633.69
437.835	640.69
438.057	782.69
438.278	880.69
438.5	894.69
438.721	978.69
438.943	905.69
439.165	735.69
439.386	662.69
439.608	666.69
439.829	666.69
440.05	698.69
440.272	743.69
440.493	699.69
440.715	628.69
440.936	607.69
441.158	603.69
441.379	571.69
441.6	615.69
441.822	629.69
442.043	680.69
442.264	813.69
442.486	851.69
442.707	713.69
442.928	650.69
443.149	653.69
443.371	707.69
443.592	740.69
443.813	814.69
444.034	900.69
444.255	729.69
444.476	650.69
444.698	618.69
444.919	632.69
445.14	756.69
445.361	713.69
445.582	701.69
445.803	759.69
446.024	902.69
446.245	918.69
446.466	811.69
446.687	721.69
446.908	642.69
447.129	618.69
447.35	620.69
447.571	584.69
447.792	583.69
448.013	568.69
448.234	628.69
448.455	697.69
448.675	822.69
448.896	933.69
449.117	806.69
449.338	772.69
449.559	870.69
449.779	984.69
450	806.69
450.221	678.69
450.442	626.69
450.662	585.69
450.883	617.69
451.104	632.69
451.324	601.69
451.545	562.69
451.766	526.69
451.986	532.69
452.207	542.69
452.428	540.69
452.648	541.69
452.869	541.69
453.089	542.69
453.31	588.69
453.53	539.69
453.751	529.69
453.971	532.69
454.192	566.69
454.412	560.69
454.633	534.69
454.853	532.69
455.073	538.69
455.294	541.69
455.514	630.69
455.734	618.69
455.955	526.69
456.175	493.69
456.395	488.69
456.616	466.69
456.836	491.69
457.056	480.69
457.276	470.69
457.497	481.69
457.717	470.69
457.937	495.69
458.157	498.69
458.377	509.69
458.598	525.69
458.818	647.69
459.038	720.69
459.258	767.69
459.478	611.69
459.698	570.69
459.918	519.69
460.138	534.69
460.358	558.69
460.578	546.69
460.798	550.69
461.018	548.69
461.238	519.69
461.458	541.69
461.678	529.69
461.898	524.69
462.118	519.69
462.338	559.69
462.558	557.69
462.777	547.69
462.997	555.69
463.217	569.69
463.437	563.69
463.657	550.69
463.876	559.69
464.096	580.69
464.316	566.69
464.536	575.69
464.755	561.69
464.975	592.69
465.195	657.69
465.414	776.69
465.634	673.69
465.854	612.69
466.073	547.69
466.293	563.69
466.512	535.69
466.732	542.69
466.951	522.69
467.171	559.69
467.391	538.69
467.61	551.69
467.829	564.69
468.049	564.69
468.268	533.69
468.488	520.69
468.707	520.69
468.927	511.69
469.146	525.69
469.365	508.69
469.585	492.69
469.804	533.69
470.023	558.69
470.243	549.69
470.462	554.69
470.681	572.69
470.901	563.69
471.12	562.69
471.339	558.69
471.558	552.69
471.777	549.69
471.997	538.69
472.216	543.69
472.435	595.69
472.654	587.69
472.873	549.69
473.092	512.69
473.311	543.69
473.53	544.69
473.749	555.69
473.968	595.69
474.187	727.69
474.406	754.69
474.625	640.69
474.844	559.69
475.063	576.69
475.282	526.69
475.501	538.69
475.72	581.69
475.939	553.69
476.158	546.69
476.377	571.69
476.596	562.69
476.814	576.69
477.033	598.69
477.252	577.69
477.471	574.69
477.69	563.69
477.908	590.69
478.127	584.69
478.346	579.69
478.564	607.69
478.783	592.69
479.002	601.69
479.22	599.69
479.439	631.69
479.658	668.69
479.876	650.69
480.095	665.69
480.313	678.69
480.532	657.69
480.751	678.69
480.969	686.69
481.188	744.69
481.406	816.69
481.624	731.69
481.843	685.69
482.061	648.69
482.28	634.69
482.498	654.69
482.717	640.69
482.935	644.69
483.153	631.69
483.372	653.69
483.59	643.69
483.808	644.69
484.027	646.69
484.245	662.69
484.463	659.69
484.681	653.69
484.9	644.69
485.118	654.69
485.336	655.69
485.554	650.69
485.772	688.69
485.99	659.69
486.209	660.69
486.427	662.69
486.645	687.69
486.863	711.69
487.081	728.69
487.299	691.69
487.517	701.69
487.735	719.69
487.953	671.69
488.171	731.69
488.389	696.69
488.607	720.69
488.825	716.69
489.043	711.69
489.261	720.69
489.479	714.69
489.696	724.69
489.914	750.69
490.132	730.69
490.35	743.69
490.568	747.69
490.786	791.69
491.003	775.69
491.221	785.69
491.439	804.69
491.657	819.69
491.874	814.69
492.092	796.69
492.31	830.69
492.527	854.69
492.745	803.69
492.963	826.69
493.18	842.69
493.398	865.69
493.615	872.69
493.833	861.69
494.05	856.69
494.268	862.69
494.485	844.69
494.703	851.69
494.92	869.69
495.138	866.69
495.355	856.69
495.573	855.69
495.79	861.69
496.008	849.69
496.225	875.69
496.442	835.69
496.66	856.69
496.877	874.69
497.094	878.69
497.312	834.69
497.529	865.69
497.746	877.69
497.963	879.69
498.181	886.69
498.398	896.69
498.615	920.69
498.832	909.69
499.049	916.69
499.267	920.69
499.484	948.69
499.701	976.69
499.918	972.69
500.135	998.69
500.352	1006.69
500.569	1059.69
500.786	1054.69
501.003	1062.69
501.22	1028.69
501.437	1007.69
501.654	1026.69
501.871	1021.69
502.088	1019.69
502.305	923.69
502.522	932.69
502.739	936.69
502.956	891.69
503.172	883.69
503.389	891.69
503.606	876.69
503.823	870.69
504.04	852.69
504.256	853.69
504.473	867.69
504.69	826.69
504.907	829.69
505.123	843.69
505.34	838.69
505.557	837.69
505.773	842.69
505.99	800.69
506.207	818.69
506.423	836.69
506.64	813.69
506.856	826.69
507.073	814.69
507.289	806.69
507.506	811.69
507.722	861.69
507.939	866.69
508.155	815.69
508.372	797.69
508.588	786.69
508.805	789.69
509.021	795.69
509.238	807.69
509.454	826.69
509.67	787.69
509.887	774.69
510.103	796.69
510.319	775.69
510.536	974.69
510.752	1631.69
510.968	1318.69
511.184	847.69
511.401	794.69
511.617	768.69
511.833	766.69
512.049	749.69
512.265	758.69
512.481	757.69
512.698	746.69
512.914	736.69
513.13	731.69
513.346	735.69
513.562	752.69
513.778	754.69
513.994	768.69
514.21	774.69
514.426	824.69
514.642	861.69
514.858	934.69
515.074	959.69
515.29	1187.69
515.506	1838.69
515.721	1528.69
515.937	964.69
516.153	882.69
516.369	833.69
516.585	780.69
516.801	758.69
517.016	732.69
517.232	762.69
517.448	754.69
517.664	794.69
517.879	756.69
518.095	756.69
518.311	743.69
518.527	730.69
518.742	746.69
518.958	731.69
519.173	730.69
519.389	736.69
519.605	739.69
519.82	768.69
520.036	758.69
520.251	806.69
520.467	865.69
520.682	831.69
520.898	862.69
521.113	900.69
521.329	967.69
521.544	1112.69
521.76	1455.69
521.975	2425.69
522.19	2387.69
522.406	1251.69
522.621	924.69
522.836	847.69
523.052	818.69
523.267	747.69
523.482	733.69
523.698	680.69
523.913	705.69
524.128	683.69
524.343	678.69
524.559	661.69
524.774	659.69
524.989	650.69
525.204	632.69
525.419	665.69
525.634	632.69
525.849	634.69
526.064	644.69
526.28	614.69
526.495	609.69
526.71	616.69
526.925	621.69
527.14	608.69
527.355	617.69
527.57	588.69
527.785	601.69
527.999	591.69
528.214	595.69
528.429	606.69
528.644	603.69
528.859	595.69
529.074	612.69
529.289	653.69
529.503	742.69
529.718	728.69
529.933	646.69
530.148	592.69
530.363	616.69
530.577	606.69
530.792	570.69
531.007	586.69
531.221	577.69
531.436	597.69
531.651	573.69
531.865	593.69
532.08	568.69
532.295	591.69
532.509	555.69
532.724	572.69
532.938	546.69
533.153	559.69
533.367	553.69
533.582	556.69
533.796	566.69
534.011	558.69
534.225	551.69
534.44	566.69
534.654	575.69
534.868	535.69
535.083	552.69
535.297	554.69
535.511	560.69
535.726	581.69
535.94	567.69
536.154	563.69
536.369	560.69
536.583	548.69
536.797	553.69
537.011	523.69
537.225	535.69
537.44	523.69
537.654	507.69
537.868	522.69
538.082	519.69
538.296	542.69
538.51	543.69
538.724	523.69
538.938	542.69
539.153	548.69
539.367	573.69
539.581	575.69
539.795	538.69
540.009	540.69
540.222	535.69
540.436	551.69
540.65	532.69
540.864	556.69
541.078	551.69
541.292	562.69
541.506	558.69
541.72	534.69
541.934	533.69
542.147	528.69
542.361	552.69
542.575	530.69
542.789	535.69
543.002	529.69
543.216	557.69
543.43	536.69
543.644	540.69
543.857	548.69
544.071	535.69
544.285	539.69
544.498	528.69
544.712	539.69
544.925	533.69
545.139	523.69
545.352	530.69
545.566	520.69
545.779	516.69
545.993	553.69
546.206	534.69
546.42	514.69
546.633	510.69
546.847	477.69
547.06	516.69
547.274	514.69
547.487	540.69
547.7	496.69
547.914	526.69
548.127	516.69
548.34	518.69
548.554	513.69
548.767	499.69
548.98	512.69
549.193	496.69
549.407	516.69
549.62	503.69
549.833	486.69
550.046	512.69
550.259	520.69
550.473	482.69
550.686	483.69
550.899	507.69
551.112	494.69
551.325	488.69
551.538	512.69
551.751	476.69
551.964	498.69
552.177	514.69
552.39	489.69
552.603	507.69
552.816	491.69
553.029	480.69
553.242	510.69
553.455	526.69
553.667	519.69
553.88	514.69
554.093	499.69
554.306	494.69
554.519	530.69
554.732	517.69
554.944	490.69
555.157	488.69
555.37	477.69
555.583	473.69
555.795	509.69
556.008	509.69
556.221	494.69
556.433	470.69
556.646	456.69
556.859	468.69
557.071	444.69
557.284	475.69
557.496	479.69
557.709	446.69
557.921	472.69
558.134	453.69
558.346	462.69
558.559	466.69
558.771	455.69
558.984	440.69
559.196	448.69
559.409	430.69
559.621	452.69
559.833	438.69
560.046	452.69
560.258	427.69
560.47	475.69
560.683	467.69
560.895	459.69
561.107	446.69
561.32	440.69
561.532	450.69
561.744	459.69
561.956	429.69
562.168	442.69
562.381	461.69
562.593	443.69
562.805	446.69
563.017	463.69
563.229	448.69
563.441	462.69
563.653	436.69
563.865	453.69
564.077	461.69
564.289	445.69
564.501	452.69
564.713	481.69
564.925	464.69
565.137	490.69
565.349	464.69
565.561	477.69
565.773	488.69
565.985	470.69
566.197	487.69
566.408	498.69
566.62	508.69
566.832	506.69
567.044	476.69
567.255	518.69
567.467	510.69
567.679	536.69
567.891	515.69
568.102	495.69
568.314	501.69
568.526	490.69
568.737	494.69
568.949	448.69
569.161	457.69
569.372	448.69
569.584	441.69
569.795	443.69
570.007	435.69
570.218	528.69
570.43	482.69
570.641	416.69
570.853	431.69
571.064	404.69
571.276	439.69
571.487	438.69
571.698	426.69
571.91	420.69
572.121	394.69
572.333	398.69
572.544	405.69
572.755	387.69
572.966	386.69
573.178	390.69
573.389	401.69
573.6	398.69
573.811	367.69
574.023	380.69
574.234	388.69
574.445	395.69
574.656	378.69
574.867	396.69
575.078	404.69
575.289	366.69
575.501	411.69
575.712	379.69
575.923	372.69
576.134	362.69
576.345	367.69
576.556	390.69
576.767	370.69
576.978	352.69
577.188	379.69
577.399	367.69
577.61	374.69
577.821	378.69
578.032	377.69
578.243	426.69
578.454	768.69
578.665	532.69
578.875	386.69
579.086	373.69
579.297	359.69
579.508	370.69
579.718	359.69
579.929	357.69
580.14	352.69
580.35	351.69
580.561	340.69
580.772	351.69
580.982	366.69
581.193	334.69
581.403	349.69
581.614	346.69
581.825	352.69
582.035	334.69
582.246	347.69
582.456	332.69
582.667	357.69
582.877	358.69
583.087	357.69
583.298	341.69
583.508	345.69
583.719	343.69
583.929	351.69
584.139	342.69
584.35	334.69
584.56	343.69
584.77	330.69
584.981	358.69
585.191	361.69
585.401	345.69
585.611	319.69
585.821	335.69
586.032	331.69
586.242	341.69
586.452	350.69
586.662	326.69
586.872	336.69
587.082	317.69
587.292	357.69
587.502	330.69
587.713	321.69
587.923	324.69
588.133	334.69
588.343	343.69
588.553	319.69
588.762	345.69
588.972	325.69
589.182	308.69
589.392	331.69
589.602	347.69
589.812	326.69
590.022	328.69
590.232	321.69
590.441	335.69
590.651	326.69
590.861	316.69
591.071	334.69
591.281	328.69
591.49	333.69
591.7	324.69
591.91	330.69
592.119	340.69
592.329	338.69
592.539	333.69
592.748	326.69
592.958	333.69
593.167	344.69
593.377	346.69
593.587	332.69
593.796	331.69
594.006	326.69
594.215	338.69
594.424	313.69
594.634	306.69
594.843	335.69
595.053	332.69
595.262	339.69
595.472	332.69
595.681	317.69
595.89	325.69
596.1	323.69
596.309	310.69
596.518	316.69
596.727	309.69
596.937	298.69
597.146	295.69
597.355	300.69
597.564	327.69
597.774	294.69
597.983	294.69
598.192	294.69
598.401	299.69
598.61	298.69
598.819	296.69
599.028	310.69
599.237	304.69
599.446	296.69
599.655	300.69
599.864	290.69
600.073	302.69
600.282	289.69
600.491	292.69
600.7	294.69
600.909	283.69
601.118	279.69
601.327	276.69
601.536	309.69
601.745	288.69
601.953	291.69
602.162	289.69
602.371	296.69
602.58	298.69
602.789	302.69
602.997	308.69
603.206	304.69
603.415	285.69
603.623	284.69
603.832	293.69
604.041	270.69
604.249	292.69
604.458	283.69
604.666	282.69
604.875	276.69
605.084	268.69
605.292	283.69
605.501	282.69
605.709	286.69
605.918	299.69
606.126	280.69
606.334	285.69
606.543	278.69
606.751	281.69
606.96	276.69
607.168	258.69
607.376	286.69
607.585	278.69
607.793	290.69
608.001	287.69
608.21	265.69
608.418	269.69
608.626	279.69
608.834	269.69
609.043	276.69
609.251	278.69
609.459	280.69
609.667	283.69
609.875	295.69
610.083	256.69
610.291	262.69
610.499	285.69
610.707	277.69
610.916	295.69
611.124	265.69
611.332	282.69
611.54	294.69
611.748	296.69
611.955	283.69
612.163	265.69
612.371	276.69
612.579	280.69
612.787	279.69
612.995	263.69
613.203	285.69
613.411	277.69
613.618	271.69
613.826	264.69
614.034	263.69
614.242	282.69
614.449	265.69
614.657	286.69
614.865	266.69
615.072	268.69
615.28	281.69
615.488	286.69
615.695	262.69
615.903	267.69
616.111	284.69
616.318	272.69
616.526	250.69
616.733	282.69
616.941	277.69
617.148	264.69
617.356	268.69
617.563	266.69
617.771	272.69
617.978	265.69
618.185	267.69
618.393	267.69
618.6	282.69
618.807	269.69
619.015	266.69
619.222	271.69
619.429	264.69
619.637	249.69
619.844	273.69
620.051	258.69
620.258	267.69
620.466	247.69
620.673	246.69
620.88	253.69
621.087	242.69
621.294	223.69
621.501	247.69
621.708	248.69
621.915	257.69
622.122	257.69
622.329	244.69
622.536	247.69
622.743	256.69
622.95	240.69
623.157	262.69
623.364	236.69
623.571	248.69
623.778	234.69
623.985	222.69
624.192	245.69
624.399	237.69
624.606	244.69
624.812	237.69
625.019	249.69
625.226	238.69
625.433	245.69
625.639	241.69
625.846	222.69
626.053	226.69
626.259	234.69
626.466	242.69
626.673	227.69
626.879	240.69
627.086	248.69
627.293	245.69
627.499	229.69
627.706	236.69
627.912	238.69
628.119	223.69
628.325	241.69
628.532	232.69
628.738	242.69
628.945	236.69
629.151	215.69
629.357	227.69
629.564	226.69
629.77	216.69
629.976	229.69
630.183	217.69
630.389	208.69
630.595	214.69
630.802	231.69
631.008	199.69
631.214	226.69
631.42	213.69
631.627	225.69
631.833	215.69
632.039	216.69
632.245	208.69
632.451	208.69
632.657	196.69
632.863	208.69
633.069	224.69
633.275	201.69
633.481	210.69
633.688	206.69
633.893	227.69
634.099	212.69
634.305	213.69
634.511	191.69
634.717	188.69
634.923	202.69
635.129	201.69
635.335	212.69
635.541	200.69
635.747	203.69
635.952	198.69
636.158	201.69
636.364	191.69
636.57	213.69
636.775	214.69
636.981	227.69
637.187	206.69
637.392	201.69
637.598	193.69
637.804	199.69
638.009	203.69
638.215	197.69
638.421	192.69
638.626	206.69
638.832	189.69
639.037	195.69
639.243	200.69
639.448	191.69
639.654	213.69
639.859	181.69
640.065	208.69
640.27	186.69
640.475	201.69
640.681	196.69
640.886	190.69
641.091	208.69
641.297	195.69
641.502	192.69
641.707	188.69
641.913	189.69
642.118	191.69
642.323	194.69
642.528	182.69
642.733	178.69
642.939	198.69
643.144	193.69
643.349	182.69
643.554	199.69
643.759	192.69
643.964	167.69
644.169	188.69
644.374	200.69
644.579	177.69
644.784	182.69
644.989	182.69
645.194	180.69
645.399	179.69
645.604	185.69
645.809	183.69
646.014	184.69
646.219	180.69
646.423	181.69
646.628	171.69
646.833	180.69
647.038	184.69
647.243	188.69
647.447	179.69
647.652	190.69
647.857	175.69
648.062	180.69
648.266	181.69
648.471	171.69
648.676	183.69
648.88	202.69
649.085	189.69
649.289	187.69
649.494	176.69
649.698	211.69
649.903	200.69
650.107	182.69
650.312	172.69
650.516	167.69
650.721	167.69
650.925	179.69
651.13	155.69
651.334	138.69
651.539	161.69
651.743	175.69
651.947	164.69
652.152	137.69
652.356	151.69
652.56	152.69
652.764	165.69
652.969	164.69
653.173	151.69
653.377	155.69
653.581	155.69
653.785	149.69
653.99	134.69
654.194	139.69
654.398	143.69
654.602	158.69
654.806	137.69
655.01	152.69
655.214	164.69
655.418	142.69
655.622	141.69
655.826	144.69
656.03	130.69
656.234	148.69
656.438	138.69
656.642	135.69
656.846	142.69
657.049	125.69
657.253	129.69
657.457	122.69
657.661	122.69
657.865	119.69
658.068	123.69
658.272	125.69
658.476	102.69
658.68	126.69
658.883	101.69
659.087	107.69
659.291	93.69
659.494	109.69
659.698	104.69
659.901	100.69
660.105	88.69
660.309	101.69
660.512	93.69
660.716	102.69
660.919	100.69
661.123	92.69
661.326	95.69
661.53	86.69
661.733	87.69
661.936	108.69
662.14	83.69
662.343	96.69
662.546	91.69
662.75	83.69
662.953	94.69
663.156	86.69
663.36	76.69
663.563	83.69
663.766	79.69
663.969	83.69
664.173	87.69
664.376	94.69
664.579	84.69
664.782	85.69
664.985	93.69
665.188	91.69
665.391	93.69
665.594	78.69
665.797	83.69
666	100.69
666.203	77.69
666.406	78.69
666.609	79.69
666.812	80.69
667.015	83.69
667.218	82.69
667.421	90.69
667.624	88.69
667.827	72.69
668.03	69.69
668.232	81.69
668.435	70.69
668.638	65.69
668.841	73.69
669.043	95.69
669.246	79.69
669.449	83.69
669.651	84.69
669.854	80.69
670.057	83.69
670.259	79.69
670.462	77.69
670.665	78.69
670.867	92.69
671.07	96.69
671.272	84.69
671.475	85.69
671.677	79.69
671.88	82.69
672.082	95.69
672.284	86.69
672.487	86.69
672.689	89.69
672.892	93.69
