Data from 1971.PennyLincolnUp.Lamp.En5.5.200Scan.071719.P1.Scan 2. Changed Angle._HRD10591_15-23-01-842.txt Node
Date: Thu Jul 18 15:23:01 EDT 2019
User: cochatt
Spectrometer: HR+D1059
Trigger mode: 1
Integration Time (sec): 1.000000E-1
Scans to average: 1
Electric dark correction enabled: true
Nonlinearity correction enabled: false
Boxcar width: 0
XAxis mode: Wavelengths
Number of Pixels in Spectrum: 2048
>>>>>Begin Spectral Data<<<<<
223.165	-12.31
223.4	-12.31
223.635	-12.31
223.869	-17.31
224.104	-15.31
224.338	-6.31
224.573	-19.31
224.808	-18.31
225.042	-9.31
225.277	-18.31
225.511	3.69
225.746	19.69
225.98	1.69
226.215	11.69
226.449	19.69
226.683	16.69
226.918	8.69
227.152	34.69
227.387	33.69
227.621	39.69
227.856	35.69
228.09	55.69
228.324	43.69
228.559	57.69
228.793	71.69
229.027	101.69
229.262	103.69
229.496	111.69
229.73	145.69
229.964	147.69
230.199	120.69
230.433	133.69
230.667	127.69
230.901	112.69
231.136	115.69
231.37	112.69
231.604	114.69
231.838	112.69
232.072	120.69
232.306	102.69
232.541	106.69
232.775	106.69
233.009	118.69
233.243	112.69
233.477	113.69
233.711	118.69
233.945	117.69
234.179	124.69
234.413	127.69
234.647	114.69
234.881	119.69
235.115	134.69
235.349	120.69
235.583	120.69
235.817	123.69
236.051	131.69
236.285	127.69
236.519	118.69
236.753	136.69
236.987	146.69
237.221	191.69
237.455	252.69
237.689	200.69
237.922	140.69
238.156	135.69
238.39	131.69
238.624	138.69
238.858	137.69
239.091	132.69
239.325	114.69
239.559	137.69
239.793	138.69
240.027	133.69
240.26	153.69
240.494	163.69
240.728	147.69
240.961	143.69
241.195	157.69
241.429	147.69
241.662	136.69
241.896	153.69
242.13	125.69
242.363	132.69
242.597	130.69
242.83	133.69
243.064	143.69
243.298	147.69
243.531	135.69
243.765	133.69
243.998	128.69
244.232	131.69
244.465	136.69
244.699	158.69
244.932	165.69
245.166	151.69
245.399	131.69
245.633	142.69
245.866	140.69
246.099	139.69
246.333	153.69
246.566	145.69
246.8	164.69
247.033	157.69
247.266	163.69
247.5	156.69
247.733	179.69
247.966	185.69
248.2	168.69
248.433	172.69
248.666	164.69
248.899	197.69
249.133	203.69
249.366	199.69
249.599	188.69
249.832	189.69
250.066	173.69
250.299	179.69
250.532	199.69
250.765	213.69
250.998	229.69
251.231	225.69
251.465	200.69
251.698	209.69
251.931	198.69
252.164	190.69
252.397	197.69
252.63	215.69
252.863	211.69
253.096	229.69
253.329	241.69
253.562	233.69
253.795	238.69
254.028	241.69
254.261	220.69
254.494	225.69
254.727	273.69
254.96	296.69
255.193	282.69
255.426	253.69
255.659	228.69
255.892	233.69
256.124	243.69
256.357	243.69
256.59	223.69
256.823	202.69
257.056	203.69
257.289	230.69
257.521	217.69
257.754	199.69
257.987	215.69
258.22	225.69
258.452	191.69
258.685	203.69
258.918	219.69
259.151	222.69
259.383	208.69
259.616	220.69
259.849	224.69
260.081	238.69
260.314	256.69
260.547	263.69
260.779	251.69
261.012	260.69
261.244	240.69
261.477	217.69
261.71	222.69
261.942	209.69
262.175	245.69
262.407	237.69
262.64	211.69
262.872	212.69
263.105	206.69
263.337	204.69
263.57	217.69
263.802	216.69
264.035	207.69
264.267	199.69
264.499	225.69
264.732	208.69
264.964	208.69
265.197	200.69
265.429	196.69
265.661	216.69
265.894	210.69
266.126	201.69
266.358	209.69
266.591	195.69
266.823	205.69
267.055	213.69
267.287	218.69
267.52	211.69
267.752	217.69
267.984	224.69
268.216	234.69
268.448	226.69
268.681	216.69
268.913	249.69
269.145	236.69
269.377	258.69
269.609	277.69
269.841	251.69
270.073	233.69
270.306	292.69
270.538	293.69
270.77	293.69
271.002	301.69
271.234	280.69
271.466	289.69
271.698	302.69
271.93	313.69
272.162	295.69
272.394	313.69
272.626	283.69
272.858	282.69
273.09	272.69
273.322	259.69
273.553	269.69
273.785	253.69
274.017	227.69
274.249	269.69
274.481	246.69
274.713	243.69
274.945	261.69
275.176	260.69
275.408	231.69
275.64	259.69
275.872	239.69
276.104	243.69
276.335	254.69
276.567	240.69
276.799	269.69
277.031	298.69
277.262	283.69
277.494	296.69
277.726	291.69
277.957	271.69
278.189	262.69
278.421	262.69
278.652	245.69
278.884	258.69
279.115	265.69
279.347	238.69
279.579	234.69
279.81	243.69
280.042	238.69
280.273	240.69
280.505	236.69
280.736	236.69
280.968	229.69
281.199	264.69
281.431	250.69
281.662	247.69
281.894	238.69
282.125	255.69
282.356	273.69
282.588	292.69
282.819	284.69
283.051	269.69
283.282	257.69
283.513	249.69
283.745	269.69
283.976	260.69
284.207	265.69
284.439	253.69
284.67	252.69
284.901	271.69
285.132	258.69
285.364	251.69
285.595	236.69
285.826	241.69
286.057	265.69
286.288	247.69
286.52	252.69
286.751	240.69
286.982	249.69
287.213	251.69
287.444	251.69
287.675	263.69
287.906	257.69
288.138	254.69
288.369	271.69
288.6	260.69
288.831	264.69
289.062	252.69
289.293	265.69
289.524	263.69
289.755	271.69
289.986	263.69
290.217	265.69
290.448	247.69
290.679	255.69
290.91	270.69
291.141	238.69
291.371	261.69
291.602	245.69
291.833	259.69
292.064	261.69
292.295	248.69
292.526	238.69
292.757	249.69
292.987	261.69
293.218	256.69
293.449	261.69
293.68	283.69
293.91	247.69
294.141	243.69
294.372	262.69
294.603	257.69
294.833	260.69
295.064	250.69
295.295	255.69
295.525	240.69
295.756	268.69
295.987	292.69
296.217	307.69
296.448	311.69
296.679	296.69
296.909	271.69
297.14	277.69
297.37	252.69
297.601	278.69
297.831	273.69
298.062	252.69
298.292	271.69
298.523	268.69
298.753	267.69
298.984	266.69
299.214	237.69
299.445	259.69
299.675	268.69
299.905	268.69
300.136	273.69
300.366	291.69
300.597	279.69
300.827	274.69
301.057	295.69
301.288	293.69
301.518	296.69
301.748	277.69
301.979	271.69
302.209	287.69
302.439	293.69
302.669	295.69
302.9	292.69
303.13	296.69
303.36	300.69
303.59	297.69
303.82	303.69
304.051	303.69
304.281	278.69
304.511	289.69
304.741	279.69
304.971	279.69
305.201	283.69
305.431	288.69
305.661	284.69
305.891	285.69
306.121	272.69
306.352	292.69
306.582	300.69
306.812	302.69
307.042	299.69
307.272	292.69
307.502	278.69
307.731	299.69
307.961	309.69
308.191	284.69
308.421	296.69
308.651	292.69
308.881	307.69
309.111	299.69
309.341	321.69
309.571	318.69
309.8	324.69
310.03	343.69
310.26	331.69
310.49	340.69
310.72	342.69
310.949	363.69
311.179	371.69
311.409	368.69
311.639	323.69
311.868	327.69
312.098	334.69
312.328	356.69
312.557	383.69
312.787	387.69
313.017	401.69
313.246	352.69
313.476	323.69
313.706	306.69
313.935	340.69
314.165	379.69
314.394	364.69
314.624	356.69
314.853	337.69
315.083	323.69
315.312	354.69
315.542	329.69
315.771	321.69
316.001	344.69
316.23	346.69
316.46	319.69
316.689	340.69
316.919	352.69
317.148	354.69
317.377	352.69
317.607	339.69
317.836	350.69
318.065	361.69
318.295	348.69
318.524	340.69
318.753	333.69
318.983	323.69
319.212	355.69
319.441	347.69
319.67	351.69
319.9	345.69
320.129	346.69
320.358	357.69
320.587	366.69
320.816	365.69
321.046	372.69
321.275	381.69
321.504	353.69
321.733	364.69
321.962	374.69
322.191	384.69
322.42	406.69
322.649	418.69
322.878	426.69
323.108	433.69
323.337	462.69
323.566	467.69
323.795	526.69
324.024	571.69
324.253	679.69
324.482	988.69
324.71	1571.69
324.939	2199.69
325.168	1966.69
325.397	1008.69
325.626	661.69
325.855	557.69
326.084	498.69
326.313	473.69
326.542	491.69
326.77	542.69
326.999	638.69
327.228	914.69
327.457	1370.69
327.686	1663.69
327.914	1097.69
328.143	727.69
328.372	638.69
328.6	595.69
328.829	545.69
329.058	569.69
329.287	599.69
329.515	540.69
329.744	502.69
329.972	484.69
330.201	508.69
330.43	565.69
330.658	590.69
330.887	616.69
331.115	600.69
331.344	490.69
331.572	451.69
331.801	478.69
332.03	477.69
332.258	438.69
332.486	431.69
332.715	418.69
332.943	421.69
333.172	399.69
333.4	400.69
333.629	409.69
333.857	414.69
334.085	433.69
334.314	459.69
334.542	480.69
334.771	473.69
334.999	464.69
335.227	431.69
335.455	405.69
335.684	405.69
335.912	414.69
336.14	392.69
336.369	395.69
336.597	381.69
336.825	427.69
337.053	387.69
337.281	391.69
337.51	404.69
337.738	419.69
337.966	399.69
338.194	419.69
338.422	405.69
338.65	418.69
338.878	389.69
339.106	385.69
339.334	393.69
339.562	378.69
339.79	380.69
340.018	379.69
340.246	383.69
340.474	376.69
340.702	385.69
340.93	399.69
341.158	397.69
341.386	393.69
341.614	386.69
341.842	383.69
342.07	390.69
342.298	415.69
342.526	399.69
342.754	379.69
342.981	384.69
343.209	386.69
343.437	382.69
343.665	392.69
343.893	390.69
344.12	419.69
344.348	404.69
344.576	410.69
344.804	405.69
345.031	401.69
345.259	397.69
345.487	415.69
345.714	393.69
345.942	385.69
346.17	418.69
346.397	411.69
346.625	380.69
346.853	389.69
347.08	388.69
347.308	405.69
347.535	407.69
347.763	410.69
347.99	407.69
348.218	425.69
348.445	400.69
348.673	393.69
348.9	397.69
349.128	359.69
349.355	381.69
349.583	383.69
349.81	373.69
350.037	380.69
350.265	363.69
350.492	379.69
350.72	382.69
350.947	383.69
351.174	380.69
351.402	417.69
351.629	409.69
351.856	380.69
352.083	394.69
352.311	413.69
352.538	426.69
352.765	419.69
352.992	412.69
353.22	397.69
353.447	385.69
353.674	374.69
353.901	392.69
354.128	393.69
354.355	364.69
354.583	365.69
354.81	367.69
355.037	363.69
355.264	359.69
355.491	359.69
355.718	346.69
355.945	337.69
356.172	347.69
356.399	359.69
356.626	354.69
356.853	373.69
357.08	355.69
357.307	365.69
357.534	356.69
357.761	344.69
357.988	369.69
358.215	357.69
358.441	341.69
358.668	379.69
358.895	373.69
359.122	381.69
359.349	371.69
359.576	415.69
359.802	420.69
360.029	462.69
360.256	471.69
360.483	439.69
360.709	400.69
360.936	384.69
361.163	389.69
361.39	415.69
361.616	434.69
361.843	390.69
362.07	388.69
362.296	399.69
362.523	399.69
362.749	392.69
362.976	417.69
363.203	393.69
363.429	377.69
363.656	384.69
363.882	370.69
364.109	397.69
364.335	397.69
364.562	369.69
364.788	354.69
365.015	383.69
365.241	371.69
365.468	373.69
365.694	375.69
365.92	378.69
366.147	375.69
366.373	368.69
366.599	397.69
366.826	383.69
367.052	377.69
367.278	382.69
367.505	387.69
367.731	393.69
367.957	384.69
368.184	383.69
368.41	384.69
368.636	395.69
368.862	385.69
369.089	400.69
369.315	387.69
369.541	382.69
369.767	387.69
369.993	369.69
370.219	387.69
370.445	387.69
370.672	383.69
370.898	384.69
371.124	381.69
371.35	380.69
371.576	363.69
371.802	370.69
372.028	376.69
372.254	350.69
372.48	377.69
372.706	389.69
372.932	380.69
373.158	376.69
373.384	391.69
373.61	376.69
373.835	372.69
374.061	363.69
374.287	374.69
374.513	393.69
374.739	382.69
374.965	399.69
375.191	383.69
375.416	402.69
375.642	361.69
375.868	383.69
376.094	398.69
376.319	361.69
376.545	383.69
376.771	379.69
376.997	362.69
377.222	364.69
377.448	374.69
377.674	357.69
377.899	353.69
378.125	377.69
378.35	364.69
378.576	363.69
378.802	374.69
379.027	371.69
379.253	373.69
379.478	389.69
379.704	382.69
379.929	374.69
380.155	369.69
380.38	397.69
380.606	389.69
380.831	373.69
381.057	381.69
381.282	389.69
381.507	377.69
381.733	391.69
381.958	392.69
382.184	387.69
382.409	377.69
382.634	391.69
382.86	391.69
383.085	398.69
383.31	387.69
383.535	400.69
383.761	411.69
383.986	406.69
384.211	405.69
384.436	400.69
384.662	411.69
384.887	400.69
385.112	377.69
385.337	406.69
385.562	398.69
385.787	434.69
386.013	439.69
386.238	407.69
386.463	402.69
386.688	409.69
386.913	403.69
387.138	413.69
387.363	411.69
387.588	408.69
387.813	426.69
388.038	409.69
388.263	410.69
388.488	395.69
388.713	407.69
388.938	403.69
389.163	423.69
389.387	400.69
389.612	373.69
389.837	404.69
390.062	401.69
390.287	399.69
390.512	401.69
390.736	421.69
390.961	403.69
391.186	416.69
391.411	420.69
391.636	382.69
391.86	413.69
392.085	411.69
392.31	425.69
392.534	427.69
392.759	426.69
392.984	415.69
393.208	422.69
393.433	426.69
393.658	451.69
393.882	428.69
394.107	432.69
394.331	430.69
394.556	398.69
394.78	433.69
395.005	433.69
395.229	413.69
395.454	433.69
395.678	424.69
395.903	449.69
396.127	449.69
396.352	472.69
396.576	433.69
396.801	427.69
397.025	442.69
397.249	449.69
397.474	454.69
397.698	431.69
397.922	456.69
398.147	466.69
398.371	462.69
398.595	450.69
398.82	459.69
399.044	460.69
399.268	488.69
399.492	465.69
399.717	505.69
399.941	540.69
400.165	565.69
400.389	570.69
400.613	538.69
400.837	485.69
401.062	480.69
401.286	456.69
401.51	471.69
401.734	473.69
401.958	443.69
402.182	491.69
402.406	489.69
402.63	492.69
402.854	489.69
403.078	481.69
403.302	475.69
403.526	500.69
403.75	491.69
403.974	474.69
404.198	472.69
404.422	485.69
404.645	471.69
404.869	502.69
405.093	534.69
405.317	551.69
405.541	587.69
405.765	555.69
405.988	514.69
406.212	535.69
406.436	574.69
406.66	573.69
406.883	535.69
407.107	574.69
407.331	599.69
407.555	641.69
407.778	635.69
408.002	600.69
408.226	546.69
408.449	535.69
408.673	536.69
408.896	581.69
409.12	615.69
409.344	569.69
409.567	523.69
409.791	495.69
410.014	501.69
410.238	482.69
410.461	515.69
410.685	505.69
410.908	510.69
411.132	550.69
411.355	581.69
411.578	549.69
411.802	529.69
412.025	507.69
412.249	511.69
412.472	541.69
412.695	545.69
412.919	548.69
413.142	494.69
413.365	481.69
413.589	485.69
413.812	453.69
414.035	480.69
414.258	459.69
414.482	463.69
414.705	468.69
414.928	474.69
415.151	447.69
415.374	464.69
415.597	479.69
415.821	463.69
416.044	478.69
416.267	494.69
416.49	466.69
416.713	467.69
416.936	472.69
417.159	458.69
417.382	473.69
417.605	467.69
417.828	479.69
418.051	502.69
418.274	475.69
418.497	481.69
418.72	476.69
418.943	452.69
419.166	495.69
419.389	502.69
419.611	493.69
419.834	500.69
420.057	478.69
420.28	494.69
420.503	499.69
420.726	508.69
420.948	508.69
421.171	547.69
421.394	588.69
421.617	537.69
421.839	508.69
422.062	501.69
422.285	524.69
422.507	592.69
422.73	639.69
422.953	641.69
423.175	547.69
423.398	540.69
423.621	531.69
423.843	557.69
424.066	554.69
424.288	551.69
424.511	570.69
424.733	620.69
424.956	690.69
425.178	690.69
425.401	635.69
425.623	690.69
425.846	590.69
426.068	578.69
426.291	573.69
426.513	529.69
426.735	576.69
426.958	614.69
427.18	687.69
427.402	823.69
427.625	871.69
427.847	821.69
428.069	715.69
428.292	617.69
428.514	560.69
428.736	545.69
428.958	546.69
429.181	526.69
429.403	515.69
429.625	537.69
429.847	555.69
430.069	622.69
430.292	635.69
430.514	530.69
430.736	525.69
430.958	510.69
431.18	501.69
431.402	489.69
431.624	478.69
431.846	458.69
432.068	447.69
432.29	488.69
432.512	479.69
432.734	519.69
432.956	490.69
433.178	496.69
433.4	507.69
433.622	488.69
433.844	503.69
434.066	495.69
434.287	479.69
434.509	491.69
434.731	514.69
434.953	496.69
435.175	525.69
435.397	540.69
435.618	554.69
435.84	616.69
436.062	686.69
436.284	775.69
436.505	650.69
436.727	573.69
436.949	532.69
437.17	511.69
437.392	519.69
437.614	519.69
437.835	581.69
438.057	679.69
438.278	759.69
438.5	752.69
438.721	832.69
438.943	797.69
439.165	655.69
439.386	584.69
439.608	595.69
439.829	579.69
440.05	598.69
440.272	651.69
440.493	605.69
440.715	567.69
440.936	538.69
441.158	519.69
441.379	530.69
441.6	535.69
441.822	559.69
442.043	620.69
442.264	689.69
442.486	744.69
442.707	639.69
442.928	581.69
443.149	593.69
443.371	616.69
443.592	670.69
443.813	714.69
444.034	755.69
444.255	655.69
444.476	588.69
444.698	583.69
444.919	559.69
445.14	681.69
445.361	623.69
445.582	607.69
445.803	653.69
446.024	764.69
446.245	799.69
446.466	724.69
446.687	622.69
446.908	588.69
447.129	533.69
447.35	509.69
447.571	536.69
447.792	519.69
448.013	527.69
448.234	536.69
448.455	619.69
448.675	715.69
448.896	805.69
449.117	737.69
449.338	688.69
449.559	773.69
449.779	840.69
450	687.69
450.221	566.69
450.442	544.69
450.662	520.69
450.883	544.69
451.104	560.69
451.324	526.69
451.545	516.69
451.766	486.69
451.986	479.69
452.207	464.69
452.428	490.69
452.648	460.69
452.869	463.69
453.089	479.69
453.31	497.69
453.53	470.69
453.751	473.69
453.971	472.69
454.192	489.69
454.412	477.69
454.633	462.69
454.853	464.69
455.073	472.69
455.294	523.69
455.514	567.69
455.734	545.69
455.955	451.69
456.175	439.69
456.395	424.69
456.616	447.69
456.836	443.69
457.056	437.69
457.276	443.69
457.497	449.69
457.717	442.69
457.937	446.69
458.157	455.69
458.377	456.69
458.598	465.69
458.818	549.69
459.038	639.69
459.258	624.69
459.478	552.69
459.698	492.69
459.918	484.69
460.138	470.69
460.358	472.69
460.578	461.69
460.798	489.69
461.018	489.69
461.238	483.69
461.458	474.69
461.678	469.69
461.898	463.69
462.118	465.69
462.338	481.69
462.558	465.69
462.777	499.69
462.997	495.69
463.217	509.69
463.437	499.69
463.657	501.69
463.876	500.69
464.096	515.69
464.316	495.69
464.536	504.69
464.755	507.69
464.975	538.69
465.195	555.69
465.414	686.69
465.634	586.69
465.854	549.69
466.073	530.69
466.293	516.69
466.512	480.69
466.732	473.69
466.951	464.69
467.171	451.69
467.391	483.69
467.61	495.69
467.829	515.69
468.049	469.69
468.268	487.69
468.488	460.69
468.707	456.69
468.927	465.69
469.146	464.69
469.365	480.69
469.585	449.69
469.804	482.69
470.023	476.69
470.243	490.69
470.462	497.69
470.681	501.69
470.901	523.69
471.12	505.69
471.339	476.69
471.558	505.69
471.777	467.69
471.997	467.69
472.216	484.69
472.435	516.69
472.654	533.69
472.873	499.69
473.092	481.69
473.311	473.69
473.53	485.69
473.749	503.69
473.968	547.69
474.187	675.69
474.406	669.69
474.625	554.69
474.844	521.69
475.063	493.69
475.282	463.69
475.501	496.69
475.72	504.69
475.939	481.69
476.158	493.69
476.377	502.69
476.596	492.69
476.814	503.69
477.033	515.69
477.252	529.69
477.471	504.69
477.69	504.69
477.908	528.69
478.127	521.69
478.346	529.69
478.564	536.69
478.783	558.69
479.002	528.69
479.22	527.69
479.439	564.69
479.658	574.69
479.876	590.69
480.095	574.69
480.313	619.69
480.532	588.69
480.751	562.69
480.969	596.69
481.188	684.69
481.406	687.69
481.624	637.69
481.843	568.69
482.061	579.69
482.28	590.69
482.498	590.69
482.717	571.69
482.935	555.69
483.153	581.69
483.372	558.69
483.59	571.69
483.808	574.69
484.027	606.69
484.245	595.69
484.463	584.69
484.681	582.69
484.9	588.69
485.118	582.69
485.336	592.69
485.554	596.69
485.772	609.69
485.99	610.69
486.209	607.69
486.427	603.69
486.645	626.69
486.863	640.69
487.081	625.69
487.299	612.69
487.517	637.69
487.735	647.69
487.953	634.69
488.171	640.69
488.389	622.69
488.607	657.69
488.825	651.69
489.043	635.69
489.261	648.69
489.479	654.69
489.696	631.69
489.914	657.69
490.132	664.69
490.35	647.69
490.568	683.69
490.786	675.69
491.003	701.69
491.221	712.69
491.439	711.69
491.657	711.69
491.874	737.69
492.092	722.69
492.31	734.69
492.527	720.69
492.745	753.69
492.963	727.69
493.18	749.69
493.398	734.69
493.615	765.69
493.833	727.69
494.05	755.69
494.268	741.69
494.485	755.69
494.703	728.69
494.92	761.69
495.138	738.69
495.355	773.69
495.573	775.69
495.79	732.69
496.008	755.69
496.225	758.69
496.442	785.69
496.66	741.69
496.877	743.69
497.094	762.69
497.312	769.69
497.529	774.69
497.746	756.69
497.963	776.69
498.181	800.69
498.398	791.69
498.615	819.69
498.832	845.69
499.049	832.69
499.267	845.69
499.484	832.69
499.701	839.69
499.918	897.69
500.135	908.69
500.352	938.69
500.569	916.69
500.786	926.69
501.003	944.69
501.22	926.69
501.437	896.69
501.654	932.69
501.871	919.69
502.088	879.69
502.305	854.69
502.522	814.69
502.739	819.69
502.956	806.69
503.172	772.69
503.389	748.69
503.606	791.69
503.823	759.69
504.04	776.69
504.256	763.69
504.473	764.69
504.69	725.69
504.907	730.69
505.123	734.69
505.34	752.69
505.557	743.69
505.773	717.69
505.99	749.69
506.207	737.69
506.423	742.69
506.64	713.69
506.856	688.69
507.073	709.69
507.289	734.69
507.506	721.69
507.722	735.69
507.939	755.69
508.155	745.69
508.372	693.69
508.588	713.69
508.805	685.69
509.021	701.69
509.238	705.69
509.454	694.69
509.67	681.69
509.887	710.69
510.103	698.69
510.319	717.69
510.536	824.69
510.752	1390.69
510.968	1132.69
511.184	749.69
511.401	708.69
511.617	694.69
511.833	689.69
512.049	661.69
512.265	656.69
512.481	661.69
512.698	649.69
512.914	654.69
513.13	667.69
513.346	673.69
513.562	678.69
513.778	654.69
513.994	684.69
514.21	692.69
514.426	724.69
514.642	774.69
514.858	786.69
515.074	840.69
515.29	1020.69
515.506	1590.69
515.721	1317.69
515.937	869.69
516.153	757.69
516.369	731.69
516.585	694.69
516.801	665.69
517.016	668.69
517.232	644.69
517.448	673.69
517.664	665.69
517.879	679.69
518.095	680.69
518.311	656.69
518.527	638.69
518.742	653.69
518.958	677.69
519.173	665.69
519.389	639.69
519.605	663.69
519.82	686.69
520.036	673.69
520.251	722.69
520.467	739.69
520.682	745.69
520.898	747.69
521.113	780.69
521.329	830.69
521.544	945.69
521.76	1221.69
521.975	2073.69
522.19	2088.69
522.406	1079.69
522.621	803.69
522.836	729.69
523.052	702.69
523.267	653.69
523.482	645.69
523.698	628.69
523.913	615.69
524.128	614.69
524.343	633.69
524.559	591.69
524.774	590.69
524.989	591.69
525.204	586.69
525.419	598.69
525.634	585.69
525.849	573.69
526.064	552.69
526.28	547.69
526.495	535.69
526.71	551.69
526.925	524.69
527.14	521.69
527.355	519.69
527.57	543.69
527.785	532.69
527.999	543.69
528.214	542.69
528.429	526.69
528.644	530.69
528.859	558.69
529.074	547.69
529.289	597.69
529.503	659.69
529.718	639.69
529.933	560.69
530.148	573.69
530.363	571.69
530.577	536.69
530.792	532.69
531.007	527.69
531.221	551.69
531.436	539.69
531.651	518.69
531.865	515.69
532.08	529.69
532.295	524.69
532.509	503.69
532.724	507.69
532.938	512.69
533.153	492.69
533.367	528.69
533.582	494.69
533.796	513.69
534.011	496.69
534.225	489.69
534.44	491.69
534.654	488.69
534.868	494.69
535.083	489.69
535.297	479.69
535.511	505.69
535.726	518.69
535.94	525.69
536.154	507.69
536.369	503.69
536.583	499.69
536.797	486.69
537.011	491.69
537.225	481.69
537.44	472.69
537.654	483.69
537.868	456.69
538.082	474.69
538.296	500.69
538.51	492.69
538.724	489.69
538.938	499.69
539.153	482.69
539.367	519.69
539.581	509.69
539.795	476.69
540.009	494.69
540.222	501.69
540.436	496.69
540.65	483.69
540.864	466.69
541.078	479.69
541.292	517.69
541.506	497.69
541.72	500.69
541.934	510.69
542.147	497.69
542.361	483.69
542.575	485.69
542.789	470.69
543.002	485.69
543.216	497.69
543.43	475.69
543.644	482.69
543.857	492.69
544.071	496.69
544.285	511.69
544.498	486.69
544.712	486.69
544.925	484.69
545.139	489.69
545.352	485.69
545.566	468.69
545.779	464.69
545.993	471.69
546.206	473.69
546.42	472.69
546.633	470.69
546.847	465.69
547.06	467.69
547.274	464.69
547.487	456.69
547.7	462.69
547.914	469.69
548.127	478.69
548.34	489.69
548.554	462.69
548.767	434.69
548.98	475.69
549.193	466.69
549.407	460.69
549.62	445.69
549.833	456.69
550.046	439.69
550.259	456.69
550.473	449.69
550.686	452.69
550.899	463.69
551.112	444.69
551.325	457.69
551.538	438.69
551.751	447.69
551.964	443.69
552.177	448.69
552.39	439.69
552.603	449.69
552.816	460.69
553.029	464.69
553.242	476.69
553.455	467.69
553.667	482.69
553.88	503.69
554.093	460.69
554.306	460.69
554.519	465.69
554.732	456.69
554.944	449.69
555.157	438.69
555.37	443.69
555.583	429.69
555.795	447.69
556.008	419.69
556.221	414.69
556.433	431.69
556.646	439.69
556.859	406.69
557.071	427.69
557.284	445.69
557.496	431.69
557.709	426.69
557.921	429.69
558.134	417.69
558.346	424.69
558.559	430.69
558.771	402.69
558.984	412.69
559.196	425.69
559.409	420.69
559.621	418.69
559.833	415.69
560.046	396.69
560.258	411.69
560.47	413.69
560.683	400.69
560.895	407.69
561.107	401.69
561.32	419.69
561.532	415.69
561.744	421.69
561.956	409.69
562.168	424.69
562.381	400.69
562.593	419.69
562.805	399.69
563.017	411.69
563.229	403.69
563.441	416.69
563.653	411.69
563.865	403.69
564.077	414.69
564.289	404.69
564.501	414.69
564.713	417.69
564.925	429.69
565.137	442.69
565.349	412.69
565.561	423.69
565.773	438.69
565.985	421.69
566.197	441.69
566.408	445.69
566.62	458.69
566.832	429.69
567.044	443.69
567.255	442.69
567.467	460.69
567.679	480.69
567.891	471.69
568.102	453.69
568.314	472.69
568.526	442.69
568.737	457.69
568.949	417.69
569.161	396.69
569.372	415.69
569.584	433.69
569.795	412.69
570.007	391.69
570.218	488.69
570.43	456.69
570.641	421.69
570.853	393.69
571.064	388.69
571.276	366.69
571.487	372.69
571.698	395.69
571.91	382.69
572.121	397.69
572.333	358.69
572.544	373.69
572.755	347.69
572.966	363.69
573.178	378.69
573.389	357.69
573.6	331.69
573.811	366.69
574.023	357.69
574.234	351.69
574.445	358.69
574.656	369.69
574.867	347.69
575.078	327.69
575.289	350.69
575.501	383.69
575.712	357.69
575.923	334.69
576.134	354.69
576.345	345.69
576.556	353.69
576.767	346.69
576.978	335.69
577.188	335.69
577.399	343.69
577.61	337.69
577.821	347.69
578.032	343.69
578.243	399.69
578.454	675.69
578.665	495.69
578.875	359.69
579.086	333.69
579.297	314.69
579.508	321.69
579.718	323.69
579.929	330.69
580.14	328.69
580.35	315.69
580.561	313.69
580.772	312.69
580.982	315.69
581.193	305.69
581.403	329.69
581.614	314.69
581.825	332.69
582.035	321.69
582.246	311.69
582.456	328.69
582.667	325.69
582.877	315.69
583.087	309.69
583.298	310.69
583.508	321.69
583.719	301.69
583.929	305.69
584.139	329.69
584.35	327.69
584.56	328.69
584.77	321.69
584.981	322.69
585.191	313.69
585.401	301.69
585.611	319.69
585.821	323.69
586.032	309.69
586.242	313.69
586.452	312.69
586.662	302.69
586.872	303.69
587.082	311.69
587.292	287.69
587.502	298.69
587.713	312.69
587.923	319.69
588.133	318.69
588.343	318.69
588.553	313.69
588.762	314.69
588.972	310.69
589.182	303.69
589.392	309.69
589.602	290.69
589.812	309.69
590.022	299.69
590.232	320.69
590.441	288.69
590.651	299.69
590.861	310.69
591.071	304.69
591.281	300.69
591.49	309.69
591.7	302.69
591.91	302.69
592.119	317.69
592.329	319.69
592.539	319.69
592.748	301.69
592.958	324.69
593.167	295.69
593.377	299.69
593.587	315.69
593.796	303.69
594.006	307.69
594.215	292.69
594.424	290.69
594.634	307.69
594.843	313.69
595.053	294.69
595.262	297.69
595.472	298.69
595.681	298.69
595.89	307.69
596.1	301.69
596.309	293.69
596.518	294.69
596.727	288.69
596.937	291.69
597.146	283.69
597.355	276.69
597.564	286.69
597.774	285.69
597.983	278.69
598.192	266.69
598.401	285.69
598.61	270.69
598.819	276.69
599.028	270.69
599.237	278.69
599.446	288.69
599.655	288.69
599.864	274.69
600.073	252.69
600.282	282.69
600.491	261.69
600.7	266.69
600.909	272.69
601.118	263.69
601.327	281.69
601.536	264.69
601.745	273.69
601.953	289.69
602.162	289.69
602.371	265.69
602.58	274.69
602.789	257.69
602.997	254.69
603.206	249.69
603.415	265.69
603.623	245.69
603.832	265.69
604.041	267.69
604.249	259.69
604.458	249.69
604.666	249.69
604.875	265.69
605.084	237.69
605.292	255.69
605.501	271.69
605.709	270.69
605.918	250.69
606.126	247.69
606.334	261.69
606.543	247.69
606.751	269.69
606.96	268.69
607.168	248.69
607.376	241.69
607.585	267.69
607.793	271.69
608.001	262.69
608.21	259.69
608.418	265.69
608.626	247.69
608.834	255.69
609.043	260.69
609.251	254.69
609.459	246.69
609.667	257.69
609.875	268.69
610.083	258.69
610.291	237.69
610.499	269.69
610.707	255.69
610.916	248.69
611.124	248.69
611.332	261.69
611.54	275.69
611.748	259.69
611.955	269.69
612.163	266.69
612.371	272.69
612.579	263.69
612.787	272.69
612.995	249.69
613.203	264.69
613.411	243.69
613.618	240.69
613.826	239.69
614.034	239.69
614.242	242.69
614.449	241.69
614.657	259.69
614.865	251.69
615.072	244.69
615.28	268.69
615.488	259.69
615.695	237.69
615.903	237.69
616.111	262.69
616.318	253.69
616.526	236.69
616.733	241.69
616.941	250.69
617.148	239.69
617.356	263.69
617.563	232.69
617.771	246.69
617.978	255.69
618.185	240.69
618.393	245.69
618.6	251.69
618.807	231.69
619.015	248.69
619.222	247.69
619.429	241.69
619.637	257.69
619.844	251.69
620.051	234.69
620.258	223.69
620.466	237.69
620.673	230.69
620.88	223.69
621.087	224.69
621.294	230.69
621.501	247.69
621.708	241.69
621.915	267.69
622.122	236.69
622.329	225.69
622.536	240.69
622.743	229.69
622.95	218.69
623.157	233.69
623.364	244.69
623.571	230.69
623.778	231.69
623.985	237.69
624.192	230.69
624.399	229.69
624.606	233.69
624.812	224.69
625.019	225.69
625.226	223.69
625.433	223.69
625.639	214.69
625.846	234.69
626.053	218.69
626.259	225.69
626.466	218.69
626.673	213.69
626.879	213.69
627.086	214.69
627.293	232.69
627.499	223.69
627.706	213.69
627.912	237.69
628.119	219.69
628.325	233.69
628.532	217.69
628.738	201.69
628.945	205.69
629.151	216.69
629.357	191.69
629.564	219.69
629.77	201.69
629.976	201.69
630.183	198.69
630.389	199.69
630.595	212.69
630.802	191.69
631.008	206.69
631.214	214.69
631.42	208.69
631.627	222.69
631.833	198.69
632.039	198.69
632.245	190.69
632.451	207.69
632.657	189.69
632.863	207.69
633.069	212.69
633.275	191.69
633.481	193.69
633.688	190.69
633.893	207.69
634.099	215.69
634.305	199.69
634.511	184.69
634.717	200.69
634.923	192.69
635.129	165.69
635.335	193.69
635.541	189.69
635.747	179.69
635.952	179.69
636.158	181.69
636.364	208.69
636.57	189.69
636.775	184.69
636.981	196.69
637.187	189.69
637.392	193.69
637.598	186.69
637.804	182.69
638.009	206.69
638.215	196.69
638.421	191.69
638.626	217.69
638.832	204.69
639.037	187.69
639.243	188.69
639.448	191.69
639.654	197.69
639.859	168.69
640.065	184.69
640.27	188.69
640.475	188.69
640.681	187.69
640.886	185.69
641.091	192.69
641.297	195.69
641.502	187.69
641.707	164.69
641.913	172.69
642.118	202.69
642.323	179.69
642.528	179.69
642.733	182.69
642.939	185.69
643.144	193.69
643.349	173.69
643.554	185.69
643.759	174.69
643.964	176.69
644.169	174.69
644.374	171.69
644.579	176.69
644.784	179.69
644.989	182.69
645.194	189.69
645.399	176.69
645.604	172.69
645.809	171.69
646.014	173.69
646.219	176.69
646.423	191.69
646.628	167.69
646.833	175.69
647.038	183.69
647.243	169.69
647.447	179.69
647.652	173.69
647.857	161.69
648.062	173.69
648.266	156.69
648.471	173.69
648.676	171.69
648.88	181.69
649.085	182.69
649.289	180.69
649.494	201.69
649.698	175.69
649.903	173.69
650.107	169.69
650.312	180.69
650.516	171.69
650.721	168.69
650.925	158.69
651.13	153.69
651.334	158.69
651.539	146.69
651.743	156.69
651.947	141.69
652.152	153.69
652.356	151.69
652.56	157.69
652.764	152.69
652.969	152.69
653.173	152.69
653.377	145.69
653.581	137.69
653.785	149.69
653.99	144.69
654.194	155.69
654.398	141.69
654.602	140.69
654.806	139.69
655.01	151.69
655.214	137.69
655.418	139.69
655.622	133.69
655.826	125.69
656.03	132.69
656.234	137.69
656.438	127.69
656.642	131.69
656.846	131.69
657.049	131.69
657.253	129.69
657.457	127.69
657.661	108.69
657.865	112.69
658.068	128.69
658.272	118.69
658.476	116.69
658.68	118.69
658.883	122.69
659.087	92.69
659.291	103.69
659.494	107.69
659.698	93.69
659.901	93.69
660.105	92.69
660.309	103.69
660.512	103.69
660.716	96.69
660.919	86.69
661.123	85.69
661.326	78.69
661.53	96.69
661.733	103.69
661.936	108.69
662.14	93.69
662.343	94.69
662.546	102.69
662.75	98.69
662.953	102.69
663.156	94.69
663.36	93.69
663.563	96.69
663.766	84.69
663.969	97.69
664.173	82.69
664.376	85.69
664.579	80.69
664.782	81.69
664.985	74.69
665.188	87.69
665.391	84.69
665.594	88.69
665.797	85.69
666	85.69
666.203	74.69
666.406	83.69
666.609	77.69
666.812	87.69
667.015	83.69
667.218	94.69
667.421	85.69
667.624	80.69
667.827	90.69
668.03	83.69
668.232	81.69
668.435	90.69
668.638	75.69
668.841	77.69
669.043	85.69
669.246	87.69
669.449	68.69
669.651	83.69
669.854	84.69
670.057	77.69
670.259	83.69
670.462	76.69
670.665	67.69
670.867	77.69
671.07	97.69
671.272	87.69
671.475	70.69
671.677	80.69
671.88	62.69
672.082	87.69
672.284	80.69
672.487	89.69
672.689	89.69
672.892	72.69
