Data from 1971.PennyLincolnUp.Lamp.En5.5.200Scan.071719.P1.Scan 2. Changed Angle._HRD10591_15-23-15-847.txt Node
Date: Thu Jul 18 15:23:15 EDT 2019
User: cochatt
Spectrometer: HR+D1059
Trigger mode: 1
Integration Time (sec): 1.000000E-1
Scans to average: 1
Electric dark correction enabled: true
Nonlinearity correction enabled: false
Boxcar width: 0
XAxis mode: Wavelengths
Number of Pixels in Spectrum: 2048
>>>>>Begin Spectral Data<<<<<
223.165	-18.12
223.4	-18.12
223.635	-18.12
223.869	-1.12
224.104	-8.12
224.338	-23.12
224.573	-12.12
224.808	-23.12
225.042	-12.12
225.277	-4.12
225.511	-10.12
225.746	-6.12
225.98	8.88
226.215	14.88
226.449	4.88
226.683	24.88
226.918	26.88
227.152	37.88
227.387	35.88
227.621	47.88
227.856	44.88
228.09	40.88
228.324	58.88
228.559	63.88
228.793	81.88
229.027	117.88
229.262	93.88
229.496	133.88
229.73	142.88
229.964	157.88
230.199	136.88
230.433	117.88
230.667	129.88
230.901	125.88
231.136	115.88
231.37	120.88
231.604	112.88
231.838	107.88
232.072	123.88
232.306	108.88
232.541	107.88
232.775	133.88
233.009	113.88
233.243	125.88
233.477	131.88
233.711	117.88
233.945	132.88
234.179	119.88
234.413	124.88
234.647	115.88
234.881	134.88
235.115	118.88
235.349	131.88
235.583	135.88
235.817	131.88
236.051	125.88
236.285	136.88
236.519	133.88
236.753	130.88
236.987	174.88
237.221	210.88
237.455	260.88
237.689	195.88
237.922	147.88
238.156	146.88
238.39	127.88
238.624	143.88
238.858	131.88
239.091	118.88
239.325	127.88
239.559	126.88
239.793	141.88
240.027	143.88
240.26	147.88
240.494	160.88
240.728	153.88
240.961	166.88
241.195	172.88
241.429	159.88
241.662	152.88
241.896	145.88
242.13	146.88
242.363	146.88
242.597	140.88
242.83	146.88
243.064	137.88
243.298	143.88
243.531	156.88
243.765	150.88
243.998	136.88
244.232	155.88
244.465	158.88
244.699	159.88
244.932	148.88
245.166	134.88
245.399	152.88
245.633	155.88
245.866	149.88
246.099	142.88
246.333	148.88
246.566	147.88
246.8	169.88
247.033	176.88
247.266	145.88
247.5	174.88
247.733	175.88
247.966	176.88
248.2	176.88
248.433	175.88
248.666	185.88
248.899	209.88
249.133	199.88
249.366	236.88
249.599	212.88
249.832	188.88
250.066	190.88
250.299	193.88
250.532	188.88
250.765	221.88
250.998	233.88
251.231	235.88
251.465	226.88
251.698	227.88
251.931	216.88
252.164	207.88
252.397	199.88
252.63	201.88
252.863	206.88
253.096	227.88
253.329	247.88
253.562	237.88
253.795	243.88
254.028	224.88
254.261	241.88
254.494	252.88
254.727	291.88
254.96	314.88
255.193	273.88
255.426	271.88
255.659	270.88
255.892	236.88
256.124	225.88
256.357	248.88
256.59	227.88
256.823	232.88
257.056	228.88
257.289	221.88
257.521	215.88
257.754	206.88
257.987	217.88
258.22	213.88
258.452	214.88
258.685	211.88
258.918	228.88
259.151	218.88
259.383	216.88
259.616	224.88
259.849	230.88
260.081	235.88
260.314	248.88
260.547	268.88
260.779	256.88
261.012	235.88
261.244	223.88
261.477	222.88
261.71	243.88
261.942	252.88
262.175	260.88
262.407	249.88
262.64	222.88
262.872	223.88
263.105	212.88
263.337	204.88
263.57	217.88
263.802	216.88
264.035	204.88
264.267	204.88
264.499	207.88
264.732	208.88
264.964	192.88
265.197	204.88
265.429	215.88
265.661	216.88
265.894	208.88
266.126	199.88
266.358	211.88
266.591	219.88
266.823	221.88
267.055	223.88
267.287	210.88
267.52	210.88
267.752	235.88
267.984	216.88
268.216	213.88
268.448	224.88
268.681	244.88
268.913	246.88
269.145	262.88
269.377	266.88
269.609	282.88
269.841	266.88
270.073	263.88
270.306	300.88
270.538	307.88
270.77	306.88
271.002	329.88
271.234	306.88
271.466	307.88
271.698	324.88
271.93	309.88
272.162	325.88
272.394	308.88
272.626	309.88
272.858	303.88
273.09	280.88
273.322	260.88
273.553	272.88
273.785	270.88
274.017	262.88
274.249	259.88
274.481	245.88
274.713	244.88
274.945	269.88
275.176	279.88
275.408	263.88
275.64	266.88
275.872	261.88
276.104	255.88
276.335	257.88
276.567	251.88
276.799	289.88
277.031	305.88
277.262	320.88
277.494	313.88
277.726	307.88
277.957	287.88
278.189	270.88
278.421	267.88
278.652	277.88
278.884	252.88
279.115	259.88
279.347	266.88
279.579	246.88
279.81	251.88
280.042	261.88
280.273	258.88
280.505	245.88
280.736	247.88
280.968	247.88
281.199	267.88
281.431	271.88
281.662	247.88
281.894	249.88
282.125	265.88
282.356	271.88
282.588	311.88
282.819	307.88
283.051	268.88
283.282	259.88
283.513	265.88
283.745	284.88
283.976	259.88
284.207	260.88
284.439	279.88
284.67	265.88
284.901	256.88
285.132	242.88
285.364	265.88
285.595	272.88
285.826	261.88
286.057	267.88
286.288	261.88
286.52	259.88
286.751	272.88
286.982	267.88
287.213	257.88
287.444	278.88
287.675	273.88
287.906	266.88
288.138	297.88
288.369	299.88
288.6	288.88
288.831	277.88
289.062	278.88
289.293	267.88
289.524	281.88
289.755	264.88
289.986	264.88
290.217	274.88
290.448	274.88
290.679	282.88
290.91	264.88
291.141	278.88
291.371	268.88
291.602	278.88
291.833	265.88
292.064	261.88
292.295	265.88
292.526	279.88
292.757	261.88
292.987	266.88
293.218	283.88
293.449	276.88
293.68	268.88
293.91	278.88
294.141	267.88
294.372	268.88
294.603	262.88
294.833	261.88
295.064	279.88
295.295	251.88
295.525	269.88
295.756	264.88
295.987	287.88
296.217	307.88
296.448	339.88
296.679	283.88
296.909	271.88
297.14	267.88
297.37	270.88
297.601	270.88
297.831	273.88
298.062	286.88
298.292	275.88
298.523	296.88
298.753	276.88
298.984	284.88
299.214	284.88
299.445	294.88
299.675	302.88
299.905	291.88
300.136	290.88
300.366	282.88
300.597	294.88
300.827	301.88
301.057	292.88
301.288	317.88
301.518	317.88
301.748	298.88
301.979	286.88
302.209	303.88
302.439	301.88
302.669	305.88
302.9	282.88
303.13	307.88
303.36	295.88
303.59	302.88
303.82	321.88
304.051	280.88
304.281	312.88
304.511	288.88
304.741	314.88
304.971	295.88
305.201	294.88
305.431	292.88
305.661	312.88
305.891	312.88
306.121	315.88
306.352	318.88
306.582	318.88
306.812	321.88
307.042	309.88
307.272	315.88
307.502	312.88
307.731	311.88
307.961	327.88
308.191	300.88
308.421	330.88
308.651	333.88
308.881	321.88
309.111	318.88
309.341	328.88
309.571	349.88
309.8	343.88
310.03	364.88
310.26	358.88
310.49	379.88
310.72	359.88
310.949	390.88
311.179	413.88
311.409	360.88
311.639	376.88
311.868	358.88
312.098	362.88
312.328	368.88
312.557	380.88
312.787	415.88
313.017	377.88
313.246	368.88
313.476	350.88
313.706	374.88
313.935	351.88
314.165	378.88
314.394	405.88
314.624	387.88
314.853	376.88
315.083	383.88
315.312	363.88
315.542	350.88
315.771	341.88
316.001	343.88
316.23	349.88
316.46	360.88
316.689	343.88
316.919	360.88
317.148	378.88
317.377	395.88
317.607	382.88
317.836	366.88
318.065	352.88
318.295	356.88
318.524	367.88
318.753	382.88
318.983	350.88
319.212	371.88
319.441	360.88
319.67	382.88
319.9	361.88
320.129	382.88
320.358	391.88
320.587	374.88
320.816	381.88
321.046	387.88
321.275	381.88
321.504	394.88
321.733	397.88
321.962	395.88
322.191	411.88
322.42	432.88
322.649	452.88
322.878	449.88
323.108	459.88
323.337	509.88
323.566	528.88
323.795	556.88
324.024	608.88
324.253	768.88
324.482	1111.88
324.71	1789.88
324.939	2491.88
325.168	2107.88
325.397	1092.88
325.626	729.88
325.855	590.88
326.084	547.88
326.313	515.88
326.542	533.88
326.77	599.88
326.999	716.88
327.228	985.88
327.457	1505.88
327.686	1879.88
327.914	1238.88
328.143	779.88
328.372	697.88
328.6	644.88
328.829	611.88
329.058	609.88
329.287	627.88
329.515	603.88
329.744	533.88
329.972	515.88
330.201	545.88
330.43	599.88
330.658	613.88
330.887	684.88
331.115	664.88
331.344	531.88
331.572	490.88
331.801	488.88
332.03	487.88
332.258	467.88
332.486	454.88
332.715	445.88
332.943	426.88
333.172	428.88
333.4	440.88
333.629	437.88
333.857	466.88
334.085	495.88
334.314	479.88
334.542	508.88
334.771	502.88
334.999	494.88
335.227	453.88
335.455	458.88
335.684	441.88
335.912	415.88
336.14	417.88
336.369	430.88
336.597	420.88
336.825	455.88
337.053	424.88
337.281	408.88
337.51	428.88
337.738	419.88
337.966	398.88
338.194	427.88
338.422	435.88
338.65	442.88
338.878	396.88
339.106	408.88
339.334	432.88
339.562	415.88
339.79	407.88
340.018	414.88
340.246	427.88
340.474	415.88
340.702	413.88
340.93	414.88
341.158	412.88
341.386	416.88
341.614	413.88
341.842	414.88
342.07	420.88
342.298	399.88
342.526	390.88
342.754	397.88
342.981	391.88
343.209	389.88
343.437	408.88
343.665	405.88
343.893	415.88
344.12	418.88
344.348	413.88
344.576	407.88
344.804	416.88
345.031	411.88
345.259	457.88
345.487	457.88
345.714	441.88
345.942	388.88
346.17	426.88
346.397	405.88
346.625	408.88
346.853	417.88
347.08	422.88
347.308	416.88
347.535	441.88
347.763	436.88
347.99	414.88
348.218	423.88
348.445	427.88
348.673	437.88
348.9	425.88
349.128	399.88
349.355	398.88
349.583	421.88
349.81	391.88
350.037	405.88
350.265	406.88
350.492	420.88
350.72	382.88
350.947	401.88
351.174	423.88
351.402	435.88
351.629	415.88
351.856	431.88
352.083	431.88
352.311	451.88
352.538	459.88
352.765	435.88
352.992	430.88
353.22	435.88
353.447	430.88
353.674	416.88
353.901	413.88
354.128	398.88
354.355	387.88
354.583	389.88
354.81	399.88
355.037	381.88
355.264	392.88
355.491	365.88
355.718	373.88
355.945	363.88
356.172	369.88
356.399	399.88
356.626	374.88
356.853	395.88
357.08	381.88
357.307	377.88
357.534	381.88
357.761	383.88
357.988	383.88
358.215	376.88
358.441	395.88
358.668	401.88
358.895	383.88
359.122	396.88
359.349	413.88
359.576	425.88
359.802	455.88
360.029	477.88
360.256	495.88
360.483	474.88
360.709	456.88
360.936	429.88
361.163	428.88
361.39	415.88
361.616	417.88
361.843	414.88
362.07	412.88
362.296	430.88
362.523	413.88
362.749	419.88
362.976	424.88
363.203	399.88
363.429	409.88
363.656	409.88
363.882	395.88
364.109	389.88
364.335	380.88
364.562	389.88
364.788	389.88
365.015	399.88
365.241	402.88
365.468	401.88
365.694	407.88
365.92	423.88
366.147	390.88
366.373	417.88
366.599	405.88
366.826	385.88
367.052	395.88
367.278	384.88
367.505	397.88
367.731	413.88
367.957	400.88
368.184	402.88
368.41	399.88
368.636	414.88
368.862	452.88
369.089	406.88
369.315	393.88
369.541	415.88
369.767	395.88
369.993	392.88
370.219	404.88
370.445	404.88
370.672	396.88
370.898	398.88
371.124	380.88
371.35	399.88
371.576	396.88
371.802	393.88
372.028	407.88
372.254	381.88
372.48	396.88
372.706	413.88
372.932	363.88
373.158	373.88
373.384	383.88
373.61	387.88
373.835	404.88
374.061	395.88
374.287	405.88
374.513	400.88
374.739	409.88
374.965	386.88
375.191	402.88
375.416	401.88
375.642	375.88
375.868	398.88
376.094	399.88
376.319	392.88
376.545	375.88
376.771	410.88
376.997	405.88
377.222	397.88
377.448	401.88
377.674	401.88
377.899	418.88
378.125	391.88
378.35	401.88
378.576	411.88
378.802	407.88
379.027	394.88
379.253	385.88
379.478	402.88
379.704	384.88
379.929	388.88
380.155	393.88
380.38	408.88
380.606	398.88
380.831	400.88
381.057	407.88
381.282	393.88
381.507	402.88
381.733	387.88
381.958	399.88
382.184	401.88
382.409	417.88
382.634	395.88
382.86	407.88
383.085	419.88
383.31	398.88
383.535	419.88
383.761	412.88
383.986	394.88
384.211	403.88
384.436	424.88
384.662	419.88
384.887	415.88
385.112	425.88
385.337	424.88
385.562	409.88
385.787	426.88
386.013	447.88
386.238	435.88
386.463	451.88
386.688	437.88
386.913	421.88
387.138	406.88
387.363	426.88
387.588	434.88
387.813	445.88
388.038	435.88
388.263	416.88
388.488	431.88
388.713	419.88
388.938	414.88
389.163	433.88
389.387	441.88
389.612	414.88
389.837	427.88
390.062	441.88
390.287	439.88
390.512	432.88
390.736	434.88
390.961	442.88
391.186	410.88
391.411	448.88
391.636	435.88
391.86	440.88
392.085	425.88
392.31	417.88
392.534	419.88
392.759	449.88
392.984	433.88
393.208	438.88
393.433	454.88
393.658	453.88
393.882	439.88
394.107	423.88
394.331	423.88
394.556	430.88
394.78	464.88
395.005	436.88
395.229	433.88
395.454	439.88
395.678	428.88
395.903	456.88
396.127	471.88
396.352	476.88
396.576	448.88
396.801	461.88
397.025	479.88
397.249	475.88
397.474	462.88
397.698	455.88
397.922	480.88
398.147	493.88
398.371	483.88
398.595	482.88
398.82	480.88
399.044	471.88
399.268	481.88
399.492	507.88
399.717	556.88
399.941	578.88
400.165	585.88
400.389	596.88
400.613	571.88
400.837	505.88
401.062	511.88
401.286	497.88
401.51	479.88
401.734	473.88
401.958	506.88
402.182	513.88
402.406	503.88
402.63	526.88
402.854	513.88
403.078	505.88
403.302	495.88
403.526	508.88
403.75	513.88
403.974	513.88
404.198	502.88
404.422	523.88
404.645	515.88
404.869	533.88
405.093	568.88
405.317	591.88
405.541	660.88
405.765	581.88
405.988	571.88
406.212	575.88
406.436	571.88
406.66	575.88
406.883	580.88
407.107	589.88
407.331	616.88
407.555	692.88
407.778	698.88
408.002	638.88
408.226	589.88
408.449	577.88
408.673	569.88
408.896	620.88
409.12	635.88
409.344	599.88
409.567	558.88
409.791	565.88
410.014	553.88
410.238	519.88
410.461	521.88
410.685	530.88
410.908	536.88
411.132	568.88
411.355	618.88
411.578	615.88
411.802	556.88
412.025	539.88
412.249	540.88
412.472	560.88
412.695	586.88
412.919	571.88
413.142	542.88
413.365	525.88
413.589	508.88
413.812	507.88
414.035	496.88
414.258	491.88
414.482	488.88
414.705	485.88
414.928	498.88
415.151	478.88
415.374	464.88
415.597	485.88
415.821	499.88
416.044	504.88
416.267	488.88
416.49	504.88
416.713	490.88
416.936	492.88
417.159	483.88
417.382	507.88
417.605	504.88
417.828	517.88
418.051	525.88
418.274	539.88
418.497	493.88
418.72	525.88
418.943	505.88
419.166	505.88
419.389	534.88
419.611	530.88
419.834	526.88
420.057	541.88
420.28	545.88
420.503	526.88
420.726	535.88
420.948	555.88
421.171	601.88
421.394	607.88
421.617	549.88
421.839	541.88
422.062	546.88
422.285	569.88
422.507	608.88
422.73	703.88
422.953	683.88
423.175	581.88
423.398	552.88
423.621	552.88
423.843	592.88
424.066	592.88
424.288	600.88
424.511	589.88
424.733	636.88
424.956	755.88
425.178	730.88
425.401	718.88
425.623	718.88
425.846	651.88
426.068	609.88
426.291	583.88
426.513	591.88
426.735	606.88
426.958	632.88
427.18	721.88
427.402	867.88
427.625	940.88
427.847	821.88
428.069	745.88
428.292	651.88
428.514	626.88
428.736	569.88
428.958	575.88
429.181	556.88
429.403	550.88
429.625	543.88
429.847	594.88
430.069	672.88
430.292	656.88
430.514	569.88
430.736	529.88
430.958	520.88
431.18	528.88
431.402	511.88
431.624	527.88
431.846	508.88
432.068	486.88
432.29	495.88
432.512	515.88
432.734	512.88
432.956	523.88
433.178	519.88
433.4	512.88
433.622	515.88
433.844	491.88
434.066	497.88
434.287	527.88
434.509	516.88
434.731	499.88
434.953	523.88
435.175	552.88
435.397	591.88
435.618	580.88
435.84	640.88
436.062	739.88
436.284	799.88
436.505	686.88
436.727	630.88
436.949	588.88
437.17	554.88
437.392	580.88
437.614	587.88
437.835	600.88
438.057	730.88
438.278	859.88
438.5	812.88
438.721	895.88
438.943	864.88
439.165	703.88
439.386	633.88
439.608	621.88
439.829	599.88
440.05	647.88
440.272	679.88
440.493	654.88
440.715	605.88
440.936	561.88
441.158	550.88
441.379	546.88
441.6	589.88
441.822	576.88
442.043	636.88
442.264	720.88
442.486	762.88
442.707	651.88
442.928	638.88
443.149	618.88
443.371	622.88
443.592	701.88
443.813	792.88
444.034	851.88
444.255	710.88
444.476	628.88
444.698	600.88
444.919	591.88
445.14	658.88
445.361	627.88
445.582	598.88
445.803	710.88
446.024	815.88
446.245	856.88
446.466	747.88
446.687	648.88
446.908	620.88
447.129	575.88
447.35	553.88
447.571	563.88
447.792	560.88
448.013	547.88
448.234	570.88
448.455	645.88
448.675	771.88
448.896	876.88
449.117	755.88
449.338	731.88
449.559	848.88
449.779	892.88
450	731.88
450.221	604.88
450.442	588.88
450.662	553.88
450.883	553.88
451.104	581.88
451.324	578.88
451.545	556.88
451.766	530.88
451.986	484.88
452.207	513.88
452.428	471.88
452.648	504.88
452.869	491.88
453.089	519.88
453.31	516.88
453.53	507.88
453.751	499.88
453.971	495.88
454.192	535.88
454.412	511.88
454.633	487.88
454.853	491.88
455.073	492.88
455.294	513.88
455.514	616.88
455.734	584.88
455.955	499.88
456.175	477.88
456.395	453.88
456.616	449.88
456.836	467.88
457.056	456.88
457.276	454.88
457.497	460.88
457.717	460.88
457.937	469.88
458.157	466.88
458.377	471.88
458.598	513.88
458.818	578.88
459.038	672.88
459.258	699.88
459.478	580.88
459.698	548.88
459.918	519.88
460.138	507.88
460.358	516.88
460.578	490.88
460.798	520.88
461.018	547.88
461.238	514.88
461.458	509.88
461.678	526.88
461.898	496.88
462.118	509.88
462.338	499.88
462.558	517.88
462.777	525.88
462.997	529.88
463.217	525.88
463.437	526.88
463.657	527.88
463.876	499.88
464.096	526.88
464.316	524.88
464.536	539.88
464.755	542.88
464.975	544.88
465.195	591.88
465.414	696.88
465.634	642.88
465.854	572.88
466.073	539.88
466.293	539.88
466.512	520.88
466.732	491.88
466.951	494.88
467.171	490.88
467.391	510.88
467.61	516.88
467.829	529.88
468.049	527.88
468.268	535.88
468.488	494.88
468.707	486.88
468.927	464.88
469.146	488.88
469.365	476.88
469.585	479.88
469.804	523.88
470.023	517.88
470.243	514.88
470.462	518.88
470.681	556.88
470.901	537.88
471.12	514.88
471.339	512.88
471.558	486.88
471.777	503.88
471.997	511.88
472.216	507.88
472.435	545.88
472.654	534.88
472.873	504.88
473.092	512.88
473.311	495.88
473.53	533.88
473.749	533.88
473.968	561.88
474.187	665.88
474.406	688.88
474.625	577.88
474.844	532.88
475.063	519.88
475.282	519.88
475.501	528.88
475.72	518.88
475.939	520.88
476.158	524.88
476.377	514.88
476.596	530.88
476.814	534.88
477.033	536.88
477.252	559.88
477.471	552.88
477.69	535.88
477.908	545.88
478.127	561.88
478.346	526.88
478.564	553.88
478.783	563.88
479.002	567.88
479.22	576.88
479.439	594.88
479.658	628.88
479.876	638.88
480.095	625.88
480.313	653.88
480.532	628.88
480.751	611.88
480.969	637.88
481.188	701.88
481.406	738.88
481.624	665.88
481.843	640.88
482.061	617.88
482.28	614.88
482.498	606.88
482.717	592.88
482.935	596.88
483.153	603.88
483.372	596.88
483.59	617.88
483.808	615.88
484.027	601.88
484.245	612.88
484.463	614.88
484.681	620.88
484.9	616.88
485.118	611.88
485.336	621.88
485.554	616.88
485.772	617.88
485.99	641.88
486.209	612.88
486.427	617.88
486.645	614.88
486.863	684.88
487.081	677.88
487.299	652.88
487.517	643.88
487.735	652.88
487.953	680.88
488.171	667.88
488.389	645.88
488.607	659.88
488.825	655.88
489.043	685.88
489.261	662.88
489.479	675.88
489.696	671.88
489.914	664.88
490.132	678.88
490.35	672.88
490.568	715.88
490.786	714.88
491.003	745.88
491.221	742.88
491.439	732.88
491.657	758.88
491.874	780.88
492.092	777.88
492.31	785.88
492.527	791.88
492.745	782.88
492.963	797.88
493.18	778.88
493.398	811.88
493.615	810.88
493.833	827.88
494.05	840.88
494.268	800.88
494.485	807.88
494.703	797.88
494.92	795.88
495.138	806.88
495.355	806.88
495.573	804.88
495.79	795.88
496.008	815.88
496.225	773.88
496.442	767.88
496.66	771.88
496.877	803.88
497.094	801.88
497.312	819.88
497.529	813.88
497.746	795.88
497.963	801.88
498.181	842.88
498.398	839.88
498.615	856.88
498.832	864.88
499.049	878.88
499.267	878.88
499.484	895.88
499.701	925.88
499.918	897.88
500.135	926.88
500.352	979.88
500.569	990.88
500.786	967.88
501.003	970.88
501.22	992.88
501.437	934.88
501.654	956.88
501.871	958.88
502.088	934.88
502.305	912.88
502.522	849.88
502.739	847.88
502.956	868.88
503.172	825.88
503.389	831.88
503.606	840.88
503.823	822.88
504.04	783.88
504.256	821.88
504.473	805.88
504.69	779.88
504.907	803.88
505.123	783.88
505.34	796.88
505.557	761.88
505.773	761.88
505.99	763.88
506.207	775.88
506.423	766.88
506.64	761.88
506.856	738.88
507.073	767.88
507.289	765.88
507.506	743.88
507.722	777.88
507.939	822.88
508.155	789.88
508.372	762.88
508.588	734.88
508.805	745.88
509.021	749.88
509.238	753.88
509.454	763.88
509.67	756.88
509.887	727.88
510.103	737.88
510.319	731.88
510.536	899.88
510.752	1487.88
510.968	1223.88
511.184	798.88
511.401	734.88
511.617	724.88
511.833	711.88
512.049	707.88
512.265	714.88
512.481	706.88
512.698	704.88
512.914	691.88
513.13	698.88
513.346	711.88
513.562	707.88
513.778	718.88
513.994	701.88
514.21	713.88
514.426	807.88
514.642	831.88
514.858	845.88
515.074	893.88
515.29	1090.88
515.506	1695.88
515.721	1384.88
515.937	899.88
516.153	797.88
516.369	763.88
516.585	734.88
516.801	739.88
517.016	714.88
517.232	733.88
517.448	736.88
517.664	687.88
517.879	669.88
518.095	665.88
518.311	701.88
518.527	695.88
518.742	696.88
518.958	694.88
519.173	702.88
519.389	711.88
519.605	707.88
519.82	701.88
520.036	731.88
520.251	746.88
520.467	773.88
520.682	801.88
520.898	814.88
521.113	852.88
521.329	873.88
521.544	1001.88
521.76	1300.88
521.975	2279.88
522.19	2202.88
522.406	1167.88
522.621	874.88
522.836	771.88
523.052	733.88
523.267	709.88
523.482	689.88
523.698	664.88
523.913	659.88
524.128	649.88
524.343	638.88
524.559	616.88
524.774	607.88
524.989	592.88
525.204	613.88
525.419	627.88
525.634	624.88
525.849	590.88
526.064	580.88
526.28	582.88
526.495	583.88
526.71	587.88
526.925	559.88
527.14	561.88
527.355	544.88
527.57	570.88
527.785	559.88
527.999	565.88
528.214	549.88
528.429	549.88
528.644	534.88
528.859	579.88
529.074	580.88
529.289	588.88
529.503	704.88
529.718	693.88
529.933	615.88
530.148	604.88
530.363	585.88
530.577	568.88
530.792	564.88
531.007	553.88
531.221	533.88
531.436	552.88
531.651	553.88
531.865	526.88
532.08	518.88
532.295	541.88
532.509	546.88
532.724	521.88
532.938	519.88
533.153	533.88
533.367	527.88
533.582	536.88
533.796	537.88
534.011	516.88
534.225	525.88
534.44	509.88
534.654	509.88
534.868	503.88
535.083	525.88
535.297	500.88
535.511	524.88
535.726	542.88
535.94	531.88
536.154	525.88
536.369	515.88
536.583	512.88
536.797	515.88
537.011	496.88
537.225	525.88
537.44	490.88
537.654	511.88
537.868	507.88
538.082	507.88
538.296	503.88
538.51	529.88
538.724	504.88
538.938	521.88
539.153	498.88
539.367	520.88
539.581	536.88
539.795	532.88
540.009	523.88
540.222	502.88
540.436	506.88
540.65	493.88
540.864	530.88
541.078	533.88
541.292	551.88
541.506	529.88
541.72	509.88
541.934	516.88
542.147	529.88
542.361	493.88
542.575	498.88
542.789	512.88
543.002	522.88
543.216	519.88
543.43	517.88
543.644	499.88
543.857	502.88
544.071	509.88
544.285	511.88
544.498	519.88
544.712	505.88
544.925	491.88
545.139	502.88
545.352	523.88
545.566	510.88
545.779	514.88
545.993	518.88
546.206	494.88
546.42	526.88
546.633	491.88
546.847	499.88
547.06	503.88
547.274	469.88
547.487	492.88
547.7	491.88
547.914	467.88
548.127	473.88
548.34	477.88
548.554	479.88
548.767	464.88
548.98	491.88
549.193	473.88
549.407	486.88
549.62	497.88
549.833	475.88
550.046	467.88
550.259	485.88
550.473	479.88
550.686	488.88
550.899	480.88
551.112	485.88
551.325	445.88
551.538	467.88
551.751	464.88
551.964	461.88
552.177	458.88
552.39	482.88
552.603	477.88
552.816	509.88
553.029	479.88
553.242	446.88
553.455	502.88
553.667	504.88
553.88	517.88
554.093	496.88
554.306	475.88
554.519	488.88
554.732	486.88
554.944	457.88
555.157	449.88
555.37	440.88
555.583	460.88
555.795	485.88
556.008	477.88
556.221	447.88
556.433	447.88
556.646	451.88
556.859	436.88
557.071	430.88
557.284	445.88
557.496	439.88
557.709	447.88
557.921	406.88
558.134	432.88
558.346	412.88
558.559	413.88
558.771	425.88
558.984	424.88
559.196	427.88
559.409	427.88
559.621	462.88
559.833	435.88
560.046	435.88
560.258	425.88
560.47	427.88
560.683	424.88
560.895	447.88
561.107	430.88
561.32	433.88
561.532	431.88
561.744	438.88
561.956	439.88
562.168	422.88
562.381	436.88
562.593	445.88
562.805	424.88
563.017	437.88
563.229	448.88
563.441	425.88
563.653	429.88
563.865	427.88
564.077	430.88
564.289	422.88
564.501	431.88
564.713	425.88
564.925	437.88
565.137	435.88
565.349	448.88
565.561	462.88
565.773	443.88
565.985	446.88
566.197	466.88
566.408	455.88
566.62	465.88
566.832	476.88
567.044	471.88
567.255	476.88
567.467	471.88
567.679	482.88
567.891	487.88
568.102	468.88
568.314	448.88
568.526	472.88
568.737	454.88
568.949	453.88
569.161	438.88
569.372	439.88
569.584	447.88
569.795	446.88
570.007	429.88
570.218	490.88
570.43	466.88
570.641	419.88
570.853	403.88
571.064	402.88
571.276	395.88
571.487	407.88
571.698	363.88
571.91	389.88
572.121	392.88
572.333	396.88
572.544	373.88
572.755	377.88
572.966	383.88
573.178	368.88
573.389	378.88
573.6	373.88
573.811	375.88
574.023	349.88
574.234	360.88
574.445	353.88
574.656	361.88
574.867	349.88
575.078	352.88
575.289	369.88
575.501	360.88
575.712	353.88
575.923	362.88
576.134	360.88
576.345	350.88
576.556	367.88
576.767	340.88
576.978	373.88
577.188	367.88
577.399	361.88
577.61	353.88
577.821	353.88
578.032	356.88
578.243	422.88
578.454	727.88
578.665	513.88
578.875	377.88
579.086	357.88
579.297	347.88
579.508	343.88
579.718	332.88
579.929	347.88
580.14	324.88
580.35	307.88
580.561	327.88
580.772	345.88
580.982	345.88
581.193	319.88
581.403	322.88
581.614	328.88
581.825	331.88
582.035	285.88
582.246	317.88
582.456	329.88
582.667	352.88
582.877	328.88
583.087	320.88
583.298	313.88
583.508	334.88
583.719	341.88
583.929	325.88
584.139	332.88
584.35	329.88
584.56	320.88
584.77	327.88
584.981	333.88
585.191	313.88
585.401	337.88
585.611	328.88
585.821	323.88
586.032	319.88
586.242	319.88
586.452	327.88
586.662	324.88
586.872	325.88
587.082	307.88
587.292	307.88
587.502	324.88
587.713	313.88
587.923	315.88
588.133	326.88
588.343	319.88
588.553	313.88
588.762	321.88
588.972	311.88
589.182	321.88
589.392	315.88
589.602	319.88
589.812	314.88
590.022	304.88
590.232	318.88
590.441	310.88
590.651	319.88
590.861	296.88
591.071	297.88
591.281	327.88
591.49	328.88
591.7	331.88
591.91	324.88
592.119	309.88
592.329	319.88
592.539	312.88
592.748	333.88
592.958	327.88
593.167	315.88
593.377	316.88
593.587	318.88
593.796	327.88
594.006	315.88
594.215	325.88
594.424	324.88
594.634	332.88
594.843	320.88
595.053	313.88
595.262	310.88
595.472	311.88
595.681	299.88
595.89	305.88
596.1	309.88
596.309	295.88
596.518	282.88
596.727	297.88
596.937	311.88
597.146	313.88
597.355	310.88
597.564	280.88
597.774	294.88
597.983	291.88
598.192	295.88
598.401	293.88
598.61	281.88
598.819	295.88
599.028	287.88
599.237	280.88
599.446	281.88
599.655	283.88
599.864	283.88
600.073	289.88
600.282	279.88
600.491	273.88
600.7	286.88
600.909	277.88
601.118	288.88
601.327	295.88
601.536	294.88
601.745	286.88
601.953	277.88
602.162	261.88
602.371	280.88
602.58	269.88
602.789	287.88
602.997	261.88
603.206	287.88
603.415	280.88
603.623	271.88
603.832	270.88
604.041	256.88
604.249	247.88
604.458	271.88
604.666	283.88
604.875	290.88
605.084	248.88
605.292	246.88
605.501	261.88
605.709	261.88
605.918	258.88
606.126	267.88
606.334	247.88
606.543	276.88
606.751	270.88
606.96	268.88
607.168	276.88
607.376	276.88
607.585	252.88
607.793	260.88
608.001	276.88
608.21	273.88
608.418	267.88
608.626	255.88
608.834	277.88
609.043	273.88
609.251	287.88
609.459	273.88
609.667	261.88
609.875	254.88
610.083	272.88
610.291	293.88
610.499	246.88
610.707	270.88
610.916	280.88
611.124	273.88
611.332	263.88
611.54	291.88
611.748	271.88
611.955	270.88
612.163	275.88
612.371	260.88
612.579	266.88
612.787	276.88
612.995	271.88
613.203	277.88
613.411	251.88
613.618	248.88
613.826	265.88
614.034	267.88
614.242	256.88
614.449	263.88
614.657	268.88
614.865	257.88
615.072	251.88
615.28	258.88
615.488	246.88
615.695	263.88
615.903	271.88
616.111	253.88
616.318	272.88
616.526	261.88
616.733	255.88
616.941	251.88
617.148	260.88
617.356	259.88
617.563	255.88
617.771	257.88
617.978	269.88
618.185	264.88
618.393	261.88
618.6	267.88
618.807	251.88
619.015	267.88
619.222	252.88
619.429	255.88
619.637	267.88
619.844	255.88
620.051	244.88
620.258	233.88
620.466	254.88
620.673	236.88
620.88	232.88
621.087	238.88
621.294	252.88
621.501	265.88
621.708	243.88
621.915	236.88
622.122	256.88
622.329	241.88
622.536	242.88
622.743	238.88
622.95	251.88
623.157	239.88
623.364	247.88
623.571	255.88
623.778	246.88
623.985	261.88
624.192	225.88
624.399	236.88
624.606	238.88
624.812	238.88
625.019	229.88
625.226	226.88
625.433	239.88
625.639	223.88
625.846	231.88
626.053	229.88
626.259	231.88
626.466	232.88
626.673	201.88
626.879	210.88
627.086	222.88
627.293	225.88
627.499	226.88
627.706	229.88
627.912	238.88
628.119	232.88
628.325	226.88
628.532	219.88
628.738	231.88
628.945	213.88
629.151	212.88
629.357	220.88
629.564	219.88
629.77	226.88
629.976	212.88
630.183	204.88
630.389	211.88
630.595	212.88
630.802	223.88
631.008	226.88
631.214	223.88
631.42	215.88
631.627	208.88
631.833	219.88
632.039	216.88
632.245	199.88
632.451	218.88
632.657	189.88
632.863	214.88
633.069	184.88
633.275	210.88
633.481	196.88
633.688	196.88
633.893	190.88
634.099	210.88
634.305	201.88
634.511	219.88
634.717	209.88
634.923	176.88
635.129	202.88
635.335	204.88
635.541	187.88
635.747	180.88
635.952	192.88
636.158	209.88
636.364	216.88
636.57	206.88
636.775	202.88
636.981	217.88
637.187	213.88
637.392	188.88
637.598	219.88
637.804	214.88
638.009	211.88
638.215	204.88
638.421	187.88
638.626	177.88
638.832	180.88
639.037	180.88
639.243	188.88
639.448	188.88
639.654	181.88
639.859	180.88
640.065	186.88
640.27	190.88
640.475	193.88
640.681	184.88
640.886	186.88
641.091	186.88
641.297	188.88
641.502	183.88
641.707	188.88
641.913	174.88
642.118	189.88
642.323	197.88
642.528	184.88
642.733	181.88
642.939	185.88
643.144	179.88
643.349	184.88
643.554	183.88
643.759	190.88
643.964	165.88
644.169	190.88
644.374	185.88
644.579	183.88
644.784	170.88
644.989	181.88
645.194	188.88
645.399	186.88
645.604	172.88
645.809	167.88
646.014	185.88
646.219	174.88
646.423	179.88
646.628	175.88
646.833	178.88
647.038	179.88
647.243	180.88
647.447	179.88
647.652	195.88
647.857	172.88
648.062	198.88
648.266	188.88
648.471	182.88
648.676	185.88
648.88	200.88
649.085	175.88
649.289	193.88
649.494	188.88
649.698	217.88
649.903	199.88
650.107	167.88
650.312	181.88
650.516	162.88
650.721	159.88
650.925	173.88
651.13	179.88
651.334	149.88
651.539	158.88
651.743	161.88
651.947	165.88
652.152	155.88
652.356	169.88
652.56	140.88
652.764	147.88
652.969	163.88
653.173	144.88
653.377	143.88
653.581	140.88
653.785	132.88
653.99	152.88
654.194	157.88
654.398	140.88
654.602	155.88
654.806	155.88
655.01	159.88
655.214	146.88
655.418	141.88
655.622	139.88
655.826	134.88
656.03	145.88
656.234	131.88
656.438	139.88
656.642	141.88
656.846	141.88
657.049	132.88
657.253	125.88
657.457	116.88
657.661	119.88
657.865	126.88
658.068	108.88
658.272	112.88
658.476	125.88
658.68	110.88
658.883	119.88
659.087	106.88
659.291	115.88
659.494	94.88
659.698	91.88
659.901	99.88
660.105	99.88
660.309	103.88
660.512	99.88
660.716	97.88
660.919	96.88
661.123	96.88
661.326	76.88
661.53	94.88
661.733	100.88
661.936	90.88
662.14	84.88
662.343	92.88
662.546	83.88
662.75	88.88
662.953	99.88
663.156	104.88
663.36	96.88
663.563	100.88
663.766	96.88
663.969	90.88
664.173	80.88
664.376	93.88
664.579	100.88
664.782	78.88
664.985	78.88
665.188	83.88
665.391	89.88
665.594	87.88
665.797	90.88
666	89.88
666.203	84.88
666.406	77.88
666.609	80.88
666.812	68.88
667.015	81.88
667.218	100.88
667.421	85.88
667.624	84.88
667.827	67.88
668.03	95.88
668.232	86.88
668.435	89.88
668.638	83.88
668.841	74.88
669.043	65.88
669.246	76.88
669.449	65.88
669.651	89.88
669.854	97.88
670.057	84.88
670.259	86.88
670.462	84.88
670.665	78.88
670.867	76.88
671.07	82.88
671.272	76.88
671.475	93.88
671.677	86.88
671.88	77.88
672.082	91.88
672.284	77.88
672.487	89.88
672.689	81.88
672.892	83.88
