Data from 1971.PennyLincolnUp.Lamp.En5.5.200Scan.071719.P1.Scan 2. Changed Angle._HRD10591_15-22-28-842.txt Node
Date: Thu Jul 18 15:22:28 EDT 2019
User: cochatt
Spectrometer: HR+D1059
Trigger mode: 1
Integration Time (sec): 1.000000E-1
Scans to average: 1
Electric dark correction enabled: true
Nonlinearity correction enabled: false
Boxcar width: 0
XAxis mode: Wavelengths
Number of Pixels in Spectrum: 2048
>>>>>Begin Spectral Data<<<<<
223.165	-20.31
223.4	-20.31
223.635	-20.31
223.869	-13.31
224.104	-11.31
224.338	-6.31
224.573	-20.31
224.808	-7.31
225.042	-22.31
225.277	-13.31
225.511	-6.31
225.746	-5.31
225.98	10.69
226.215	8.69
226.449	4.69
226.683	34.69
226.918	18.69
227.152	48.69
227.387	41.69
227.621	32.69
227.856	28.69
228.09	45.69
228.324	53.69
228.559	57.69
228.793	71.69
229.027	76.69
229.262	82.69
229.496	92.69
229.73	112.69
229.964	124.69
230.199	105.69
230.433	106.69
230.667	100.69
230.901	91.69
231.136	100.69
231.37	103.69
231.604	104.69
231.838	110.69
232.072	110.69
232.306	113.69
232.541	118.69
232.775	94.69
233.009	98.69
233.243	101.69
233.477	98.69
233.711	102.69
233.945	103.69
234.179	106.69
234.413	99.69
234.647	116.69
234.881	106.69
235.115	118.69
235.349	112.69
235.583	96.69
235.817	105.69
236.051	114.69
236.285	109.69
236.519	112.69
236.753	106.69
236.987	129.69
237.221	165.69
237.455	194.69
237.689	155.69
237.922	118.69
238.156	116.69
238.39	113.69
238.624	106.69
238.858	130.69
239.091	109.69
239.325	122.69
239.559	104.69
239.793	105.69
240.027	109.69
240.26	107.69
240.494	134.69
240.728	126.69
240.961	114.69
241.195	144.69
241.429	130.69
241.662	119.69
241.896	130.69
242.13	105.69
242.363	129.69
242.597	122.69
242.83	119.69
243.064	119.69
243.298	124.69
243.531	115.69
243.765	112.69
243.998	121.69
244.232	132.69
244.465	128.69
244.699	121.69
244.932	128.69
245.166	137.69
245.399	132.69
245.633	120.69
245.866	139.69
246.099	139.69
246.333	144.69
246.566	151.69
246.8	149.69
247.033	141.69
247.266	169.69
247.5	147.69
247.733	168.69
247.966	149.69
248.2	134.69
248.433	171.69
248.666	149.69
248.899	156.69
249.133	152.69
249.366	184.69
249.599	162.69
249.832	153.69
250.066	170.69
250.299	165.69
250.532	161.69
250.765	170.69
250.998	180.69
251.231	190.69
251.465	193.69
251.698	176.69
251.931	179.69
252.164	192.69
252.397	173.69
252.63	170.69
252.863	170.69
253.096	189.69
253.329	204.69
253.562	193.69
253.795	193.69
254.028	180.69
254.261	192.69
254.494	196.69
254.727	201.69
254.96	215.69
255.193	227.69
255.426	208.69
255.659	202.69
255.892	191.69
256.124	185.69
256.357	184.69
256.59	182.69
256.823	196.69
257.056	184.69
257.289	183.69
257.521	188.69
257.754	170.69
257.987	182.69
258.22	182.69
258.452	155.69
258.685	176.69
258.918	160.69
259.151	182.69
259.383	195.69
259.616	184.69
259.849	180.69
260.081	201.69
260.314	200.69
260.547	202.69
260.779	195.69
261.012	180.69
261.244	184.69
261.477	197.69
261.71	189.69
261.942	180.69
262.175	202.69
262.407	193.69
262.64	182.69
262.872	162.69
263.105	179.69
263.337	184.69
263.57	158.69
263.802	176.69
264.035	176.69
264.267	158.69
264.499	188.69
264.732	170.69
264.964	165.69
265.197	169.69
265.429	168.69
265.661	172.69
265.894	170.69
266.126	173.69
266.358	165.69
266.591	154.69
266.823	169.69
267.055	190.69
267.287	193.69
267.52	180.69
267.752	171.69
267.984	196.69
268.216	176.69
268.448	179.69
268.681	169.69
268.913	187.69
269.145	216.69
269.377	201.69
269.609	217.69
269.841	214.69
270.073	208.69
270.306	228.69
270.538	234.69
270.77	241.69
271.002	249.69
271.234	217.69
271.466	216.69
271.698	231.69
271.93	235.69
272.162	246.69
272.394	243.69
272.626	234.69
272.858	220.69
273.09	217.69
273.322	205.69
273.553	220.69
273.785	212.69
274.017	211.69
274.249	203.69
274.481	190.69
274.713	196.69
274.945	201.69
275.176	190.69
275.408	193.69
275.64	222.69
275.872	190.69
276.104	209.69
276.335	204.69
276.567	204.69
276.799	203.69
277.031	237.69
277.262	214.69
277.494	235.69
277.726	227.69
277.957	225.69
278.189	220.69
278.421	210.69
278.652	214.69
278.884	209.69
279.115	199.69
279.347	213.69
279.579	204.69
279.81	208.69
280.042	214.69
280.273	213.69
280.505	211.69
280.736	195.69
280.968	190.69
281.199	215.69
281.431	197.69
281.662	207.69
281.894	214.69
282.125	201.69
282.356	207.69
282.588	235.69
282.819	219.69
283.051	205.69
283.282	188.69
283.513	215.69
283.745	194.69
283.976	198.69
284.207	199.69
284.439	211.69
284.67	211.69
284.901	204.69
285.132	198.69
285.364	200.69
285.595	204.69
285.826	193.69
286.057	196.69
286.288	196.69
286.52	205.69
286.751	211.69
286.982	220.69
287.213	192.69
287.444	218.69
287.675	211.69
287.906	218.69
288.138	215.69
288.369	227.69
288.6	208.69
288.831	226.69
289.062	208.69
289.293	215.69
289.524	218.69
289.755	214.69
289.986	201.69
290.217	225.69
290.448	219.69
290.679	211.69
290.91	209.69
291.141	198.69
291.371	212.69
291.602	221.69
291.833	225.69
292.064	212.69
292.295	210.69
292.526	221.69
292.757	225.69
292.987	205.69
293.218	207.69
293.449	224.69
293.68	219.69
293.91	225.69
294.141	229.69
294.372	202.69
294.603	219.69
294.833	213.69
295.064	227.69
295.295	215.69
295.525	223.69
295.756	237.69
295.987	230.69
296.217	248.69
296.448	240.69
296.679	229.69
296.909	228.69
297.14	224.69
297.37	229.69
297.601	220.69
297.831	229.69
298.062	224.69
298.292	229.69
298.523	220.69
298.753	236.69
298.984	210.69
299.214	219.69
299.445	232.69
299.675	228.69
299.905	226.69
300.136	224.69
300.366	212.69
300.597	221.69
300.827	221.69
301.057	236.69
301.288	237.69
301.518	249.69
301.748	226.69
301.979	240.69
302.209	235.69
302.439	237.69
302.669	233.69
302.9	232.69
303.13	235.69
303.36	229.69
303.59	233.69
303.82	232.69
304.051	244.69
304.281	230.69
304.511	225.69
304.741	238.69
304.971	224.69
305.201	225.69
305.431	229.69
305.661	234.69
305.891	241.69
306.121	241.69
306.352	254.69
306.582	230.69
306.812	253.69
307.042	258.69
307.272	241.69
307.502	232.69
307.731	256.69
307.961	231.69
308.191	238.69
308.421	238.69
308.651	247.69
308.881	250.69
309.111	242.69
309.341	268.69
309.571	264.69
309.8	260.69
310.03	283.69
310.26	258.69
310.49	260.69
310.72	280.69
310.949	298.69
311.179	284.69
311.409	269.69
311.639	282.69
311.868	282.69
312.098	283.69
312.328	266.69
312.557	290.69
312.787	291.69
313.017	286.69
313.246	283.69
313.476	285.69
313.706	288.69
313.935	278.69
314.165	274.69
314.394	266.69
314.624	266.69
314.853	283.69
315.083	283.69
315.312	308.69
315.542	278.69
315.771	257.69
316.001	268.69
316.23	256.69
316.46	288.69
316.689	278.69
316.919	279.69
317.148	285.69
317.377	294.69
317.607	270.69
317.836	294.69
318.065	277.69
318.295	275.69
318.524	268.69
318.753	291.69
318.983	270.69
319.212	276.69
319.441	274.69
319.67	290.69
319.9	282.69
320.129	272.69
320.358	307.69
320.587	308.69
320.816	288.69
321.046	286.69
321.275	301.69
321.504	294.69
321.733	281.69
321.962	299.69
322.191	298.69
322.42	314.69
322.649	338.69
322.878	341.69
323.108	337.69
323.337	351.69
323.566	362.69
323.795	381.69
324.024	400.69
324.253	485.69
324.482	636.69
324.71	982.69
324.939	1476.69
325.168	1284.69
325.397	664.69
325.626	450.69
325.855	390.69
326.084	365.69
326.313	339.69
326.542	349.69
326.77	357.69
326.999	450.69
327.228	582.69
327.457	881.69
327.686	1088.69
327.914	730.69
328.143	487.69
328.372	441.69
328.6	396.69
328.829	397.69
329.058	392.69
329.287	394.69
329.515	386.69
329.744	366.69
329.972	354.69
330.201	372.69
330.43	396.69
330.658	392.69
330.887	401.69
331.115	388.69
331.344	377.69
331.572	357.69
331.801	348.69
332.03	330.69
332.258	334.69
332.486	326.69
332.715	318.69
332.943	334.69
333.172	320.69
333.4	328.69
333.629	324.69
333.857	314.69
334.085	334.69
334.314	337.69
334.542	352.69
334.771	380.69
334.999	361.69
335.227	344.69
335.455	340.69
335.684	341.69
335.912	310.69
336.14	320.69
336.369	327.69
336.597	332.69
336.825	315.69
337.053	316.69
337.281	305.69
337.51	311.69
337.738	318.69
337.966	336.69
338.194	338.69
338.422	329.69
338.65	321.69
338.878	322.69
339.106	309.69
339.334	329.69
339.562	327.69
339.79	297.69
340.018	297.69
340.246	331.69
340.474	301.69
340.702	330.69
340.93	316.69
341.158	314.69
341.386	319.69
341.614	336.69
341.842	300.69
342.07	318.69
342.298	310.69
342.526	312.69
342.754	300.69
342.981	311.69
343.209	304.69
343.437	304.69
343.665	331.69
343.893	327.69
344.12	325.69
344.348	310.69
344.576	311.69
344.804	318.69
345.031	324.69
345.259	324.69
345.487	317.69
345.714	310.69
345.942	332.69
346.17	319.69
346.397	305.69
346.625	333.69
346.853	320.69
347.08	316.69
347.308	320.69
347.535	312.69
347.763	321.69
347.99	326.69
348.218	334.69
348.445	325.69
348.673	324.69
348.9	328.69
349.128	320.69
349.355	314.69
349.583	293.69
349.81	308.69
350.037	312.69
350.265	301.69
350.492	306.69
350.72	324.69
350.947	301.69
351.174	312.69
351.402	332.69
351.629	317.69
351.856	304.69
352.083	323.69
352.311	320.69
352.538	336.69
352.765	332.69
352.992	329.69
353.22	318.69
353.447	316.69
353.674	317.69
353.901	299.69
354.128	315.69
354.355	285.69
354.583	310.69
354.81	323.69
355.037	297.69
355.264	291.69
355.491	284.69
355.718	299.69
355.945	306.69
356.172	309.69
356.399	284.69
356.626	300.69
356.853	313.69
357.08	291.69
357.307	285.69
357.534	285.69
357.761	294.69
357.988	314.69
358.215	312.69
358.441	321.69
358.668	304.69
358.895	318.69
359.122	312.69
359.349	310.69
359.576	326.69
359.802	337.69
360.029	351.69
360.256	363.69
360.483	365.69
360.709	329.69
360.936	326.69
361.163	325.69
361.39	324.69
361.616	317.69
361.843	299.69
362.07	325.69
362.296	325.69
362.523	313.69
362.749	320.69
362.976	328.69
363.203	314.69
363.429	322.69
363.656	324.69
363.882	317.69
364.109	305.69
364.335	324.69
364.562	324.69
364.788	304.69
365.015	302.69
365.241	295.69
365.468	328.69
365.694	299.69
365.92	321.69
366.147	329.69
366.373	298.69
366.599	315.69
366.826	316.69
367.052	313.69
367.278	293.69
367.505	312.69
367.731	308.69
367.957	315.69
368.184	316.69
368.41	321.69
368.636	323.69
368.862	324.69
369.089	322.69
369.315	312.69
369.541	306.69
369.767	298.69
369.993	308.69
370.219	301.69
370.445	300.69
370.672	322.69
370.898	308.69
371.124	313.69
371.35	313.69
371.576	315.69
371.802	321.69
372.028	312.69
372.254	320.69
372.48	322.69
372.706	333.69
372.932	309.69
373.158	313.69
373.384	323.69
373.61	335.69
373.835	325.69
374.061	321.69
374.287	317.69
374.513	331.69
374.739	330.69
374.965	331.69
375.191	315.69
375.416	338.69
375.642	341.69
375.868	325.69
376.094	337.69
376.319	328.69
376.545	322.69
376.771	329.69
376.997	312.69
377.222	326.69
377.448	317.69
377.674	334.69
377.899	323.69
378.125	325.69
378.35	330.69
378.576	317.69
378.802	311.69
379.027	331.69
379.253	340.69
379.478	331.69
379.704	321.69
379.929	313.69
380.155	329.69
380.38	335.69
380.606	301.69
380.831	324.69
381.057	351.69
381.282	325.69
381.507	346.69
381.733	319.69
381.958	342.69
382.184	344.69
382.409	333.69
382.634	323.69
382.86	331.69
383.085	330.69
383.31	343.69
383.535	332.69
383.761	339.69
383.986	341.69
384.211	353.69
384.436	345.69
384.662	341.69
384.887	332.69
385.112	355.69
385.337	351.69
385.562	350.69
385.787	365.69
386.013	372.69
386.238	363.69
386.463	350.69
386.688	353.69
386.913	331.69
387.138	355.69
387.363	369.69
387.588	356.69
387.813	370.69
388.038	365.69
388.263	356.69
388.488	366.69
388.713	353.69
388.938	346.69
389.163	349.69
389.387	364.69
389.612	355.69
389.837	340.69
390.062	356.69
390.287	336.69
390.512	340.69
390.736	370.69
390.961	348.69
391.186	348.69
391.411	365.69
391.636	370.69
391.86	357.69
392.085	380.69
392.31	346.69
392.534	380.69
392.759	377.69
392.984	386.69
393.208	385.69
393.433	413.69
393.658	452.69
393.882	373.69
394.107	365.69
394.331	363.69
394.556	369.69
394.78	373.69
395.005	366.69
395.229	360.69
395.454	359.69
395.678	392.69
395.903	394.69
396.127	394.69
396.352	409.69
396.576	387.69
396.801	396.69
397.025	413.69
397.249	401.69
397.474	385.69
397.698	355.69
397.922	382.69
398.147	390.69
398.371	412.69
398.595	408.69
398.82	380.69
399.044	414.69
399.268	433.69
399.492	450.69
399.717	442.69
399.941	472.69
400.165	498.69
400.389	480.69
400.613	450.69
400.837	454.69
401.062	410.69
401.286	418.69
401.51	398.69
401.734	388.69
401.958	401.69
402.182	417.69
402.406	408.69
402.63	407.69
402.854	414.69
403.078	433.69
403.302	416.69
403.526	418.69
403.75	422.69
403.974	405.69
404.198	435.69
404.422	419.69
404.645	412.69
404.869	432.69
405.093	441.69
405.317	430.69
405.541	501.69
405.765	457.69
405.988	446.69
406.212	459.69
406.436	465.69
406.66	455.69
406.883	456.69
407.107	459.69
407.331	520.69
407.555	553.69
407.778	544.69
408.002	484.69
408.226	470.69
408.449	466.69
408.673	462.69
408.896	485.69
409.12	509.69
409.344	486.69
409.567	454.69
409.791	447.69
410.014	435.69
410.238	425.69
410.461	426.69
410.685	437.69
410.908	452.69
411.132	468.69
411.355	486.69
411.578	472.69
411.802	441.69
412.025	430.69
412.249	430.69
412.472	448.69
412.695	462.69
412.919	464.69
413.142	410.69
413.365	415.69
413.589	437.69
413.812	396.69
414.035	418.69
414.258	393.69
414.482	400.69
414.705	401.69
414.928	418.69
415.151	410.69
415.374	415.69
415.597	393.69
415.821	406.69
416.044	396.69
416.267	420.69
416.49	382.69
416.713	398.69
416.936	427.69
417.159	421.69
417.382	411.69
417.605	420.69
417.828	411.69
418.051	421.69
418.274	429.69
418.497	402.69
418.72	411.69
418.943	408.69
419.166	409.69
419.389	426.69
419.611	443.69
419.834	426.69
420.057	438.69
420.28	435.69
420.503	444.69
420.726	426.69
420.948	434.69
421.171	491.69
421.394	497.69
421.617	450.69
421.839	431.69
422.062	421.69
422.285	456.69
422.507	493.69
422.73	542.69
422.953	548.69
423.175	458.69
423.398	441.69
423.621	459.69
423.843	462.69
424.066	453.69
424.288	471.69
424.511	477.69
424.733	533.69
424.956	557.69
425.178	582.69
425.401	572.69
425.623	563.69
425.846	514.69
426.068	472.69
426.291	459.69
426.513	468.69
426.735	473.69
426.958	514.69
427.18	562.69
427.402	670.69
427.625	740.69
427.847	654.69
428.069	573.69
428.292	510.69
428.514	462.69
428.736	443.69
428.958	484.69
429.181	451.69
429.403	422.69
429.625	465.69
429.847	468.69
430.069	492.69
430.292	537.69
430.514	472.69
430.736	454.69
430.958	426.69
431.18	412.69
431.402	411.69
431.624	406.69
431.846	433.69
432.068	407.69
432.29	418.69
432.512	411.69
432.734	403.69
432.956	425.69
433.178	430.69
433.4	423.69
433.622	425.69
433.844	416.69
434.066	421.69
434.287	412.69
434.509	409.69
434.731	407.69
434.953	440.69
435.175	440.69
435.397	465.69
435.618	467.69
435.84	513.69
436.062	572.69
436.284	654.69
436.505	533.69
436.727	466.69
436.949	471.69
437.17	453.69
437.392	441.69
437.614	450.69
437.835	489.69
438.057	551.69
438.278	625.69
438.5	613.69
438.721	690.69
438.943	672.69
439.165	534.69
439.386	493.69
439.608	484.69
439.829	481.69
440.05	506.69
440.272	543.69
440.493	493.69
440.715	460.69
440.936	445.69
441.158	424.69
441.379	451.69
441.6	464.69
441.822	437.69
442.043	499.69
442.264	555.69
442.486	602.69
442.707	546.69
442.928	490.69
443.149	471.69
443.371	514.69
443.592	538.69
443.813	606.69
444.034	654.69
444.255	565.69
444.476	486.69
444.698	480.69
444.919	470.69
445.14	547.69
445.361	507.69
445.582	494.69
445.803	562.69
446.024	606.69
446.245	629.69
446.466	576.69
446.687	508.69
446.908	460.69
447.129	429.69
447.35	432.69
447.571	446.69
447.792	459.69
448.013	459.69
448.234	461.69
448.455	488.69
448.675	591.69
448.896	668.69
449.117	585.69
449.338	555.69
449.559	648.69
449.779	714.69
450	588.69
450.221	488.69
450.442	449.69
450.662	415.69
450.883	456.69
451.104	428.69
451.324	410.69
451.545	420.69
451.766	406.69
451.986	386.69
452.207	391.69
452.428	388.69
452.648	381.69
452.869	396.69
453.089	405.69
453.31	416.69
453.53	398.69
453.751	400.69
453.971	399.69
454.192	406.69
454.412	421.69
454.633	383.69
454.853	372.69
455.073	394.69
455.294	424.69
455.514	468.69
455.734	457.69
455.955	396.69
456.175	391.69
456.395	378.69
456.616	355.69
456.836	374.69
457.056	363.69
457.276	370.69
457.497	357.69
457.717	355.69
457.937	355.69
458.157	372.69
458.377	376.69
458.598	391.69
458.818	468.69
459.038	508.69
459.258	517.69
459.478	445.69
459.698	426.69
459.918	402.69
460.138	379.69
460.358	407.69
460.578	398.69
460.798	410.69
461.018	417.69
461.238	405.69
461.458	418.69
461.678	423.69
461.898	405.69
462.118	410.69
462.338	404.69
462.558	432.69
462.777	443.69
462.997	430.69
463.217	442.69
463.437	466.69
463.657	436.69
463.876	440.69
464.096	438.69
464.316	435.69
464.536	446.69
464.755	436.69
464.975	467.69
465.195	487.69
465.414	537.69
465.634	477.69
465.854	441.69
466.073	423.69
466.293	415.69
466.512	405.69
466.732	403.69
466.951	417.69
467.171	406.69
467.391	407.69
467.61	390.69
467.829	413.69
468.049	397.69
468.268	383.69
468.488	403.69
468.707	380.69
468.927	386.69
469.146	397.69
469.365	409.69
469.585	412.69
469.804	406.69
470.023	416.69
470.243	419.69
470.462	438.69
470.681	428.69
470.901	439.69
471.12	404.69
471.339	396.69
471.558	386.69
471.777	404.69
471.997	418.69
472.216	407.69
472.435	396.69
472.654	420.69
472.873	404.69
473.092	419.69
473.311	416.69
473.53	404.69
473.749	404.69
473.968	465.69
474.187	519.69
474.406	522.69
474.625	457.69
474.844	448.69
475.063	410.69
475.282	400.69
475.501	418.69
475.72	417.69
475.939	422.69
476.158	433.69
476.377	421.69
476.596	404.69
476.814	429.69
477.033	451.69
477.252	443.69
477.471	442.69
477.69	429.69
477.908	453.69
478.127	440.69
478.346	450.69
478.564	449.69
478.783	440.69
479.002	468.69
479.22	456.69
479.439	466.69
479.658	478.69
479.876	475.69
480.095	493.69
480.313	509.69
480.532	534.69
480.751	518.69
480.969	486.69
481.188	516.69
481.406	569.69
481.624	500.69
481.843	492.69
482.061	508.69
482.28	502.69
482.498	484.69
482.717	480.69
482.935	500.69
483.153	481.69
483.372	497.69
483.59	486.69
483.808	472.69
484.027	481.69
484.245	492.69
484.463	496.69
484.681	508.69
484.9	484.69
485.118	517.69
485.336	493.69
485.554	508.69
485.772	511.69
485.99	497.69
486.209	499.69
486.427	521.69
486.645	520.69
486.863	543.69
487.081	526.69
487.299	518.69
487.517	531.69
487.735	508.69
487.953	531.69
488.171	540.69
488.389	553.69
488.607	536.69
488.825	521.69
489.043	518.69
489.261	544.69
489.479	546.69
489.696	520.69
489.914	539.69
490.132	525.69
490.35	538.69
490.568	567.69
490.786	553.69
491.003	566.69
491.221	569.69
491.439	594.69
491.657	589.69
491.874	578.69
492.092	619.69
492.31	615.69
492.527	625.69
492.745	628.69
492.963	618.69
493.18	640.69
493.398	620.69
493.615	608.69
493.833	614.69
494.05	607.69
494.268	610.69
494.485	610.69
494.703	621.69
494.92	628.69
495.138	642.69
495.355	652.69
495.573	626.69
495.79	650.69
496.008	653.69
496.225	630.69
496.442	636.69
496.66	638.69
496.877	646.69
497.094	647.69
497.312	627.69
497.529	627.69
497.746	648.69
497.963	664.69
498.181	667.69
498.398	688.69
498.615	662.69
498.832	688.69
499.049	692.69
499.267	709.69
499.484	739.69
499.701	758.69
499.918	792.69
500.135	795.69
500.352	832.69
500.569	844.69
500.786	840.69
501.003	820.69
501.22	809.69
501.437	782.69
501.654	777.69
501.871	767.69
502.088	754.69
502.305	733.69
502.522	734.69
502.739	681.69
502.956	672.69
503.172	667.69
503.389	648.69
503.606	648.69
503.823	669.69
504.04	640.69
504.256	619.69
504.473	626.69
504.69	626.69
504.907	616.69
505.123	613.69
505.34	614.69
505.557	619.69
505.773	610.69
505.99	598.69
506.207	612.69
506.423	605.69
506.64	588.69
506.856	604.69
507.073	580.69
507.289	591.69
507.506	584.69
507.722	588.69
507.939	603.69
508.155	586.69
508.372	592.69
508.588	575.69
508.805	564.69
509.021	587.69
509.238	573.69
509.454	587.69
509.67	601.69
509.887	564.69
510.103	556.69
510.319	546.69
510.536	642.69
510.752	988.69
510.968	842.69
511.184	593.69
511.401	538.69
511.617	536.69
511.833	548.69
512.049	542.69
512.265	536.69
512.481	540.69
512.698	533.69
512.914	528.69
513.13	527.69
513.346	556.69
513.562	533.69
513.778	520.69
513.994	550.69
514.21	566.69
514.426	575.69
514.642	597.69
514.858	620.69
515.074	638.69
515.29	729.69
515.506	1013.69
515.721	862.69
515.937	648.69
516.153	580.69
516.369	586.69
516.585	583.69
516.801	565.69
517.016	537.69
517.232	536.69
517.448	567.69
517.664	560.69
517.879	546.69
518.095	546.69
518.311	537.69
518.527	546.69
518.742	533.69
518.958	542.69
519.173	544.69
519.389	549.69
519.605	578.69
519.82	544.69
520.036	542.69
520.251	562.69
520.467	582.69
520.682	575.69
520.898	593.69
521.113	616.69
521.329	630.69
521.544	693.69
521.76	816.69
521.975	1252.69
522.19	1315.69
522.406	746.69
522.621	598.69
522.836	550.69
523.052	531.69
523.267	517.69
523.482	506.69
523.698	515.69
523.913	489.69
524.128	507.69
524.343	482.69
524.559	490.69
524.774	471.69
524.989	469.69
525.204	498.69
525.419	493.69
525.634	472.69
525.849	460.69
526.064	463.69
526.28	477.69
526.495	442.69
526.71	462.69
526.925	442.69
527.14	460.69
527.355	425.69
527.57	448.69
527.785	450.69
527.999	457.69
528.214	426.69
528.429	457.69
528.644	449.69
528.859	461.69
529.074	464.69
529.289	460.69
529.503	540.69
529.718	529.69
529.933	475.69
530.148	443.69
530.363	455.69
530.577	463.69
530.792	433.69
531.007	429.69
531.221	439.69
531.436	445.69
531.651	424.69
531.865	434.69
532.08	426.69
532.295	425.69
532.509	442.69
532.724	429.69
532.938	440.69
533.153	439.69
533.367	421.69
533.582	448.69
533.796	439.69
534.011	420.69
534.225	418.69
534.44	433.69
534.654	429.69
534.868	425.69
535.083	426.69
535.297	408.69
535.511	446.69
535.726	447.69
535.94	408.69
536.154	420.69
536.369	421.69
536.583	420.69
536.797	428.69
537.011	420.69
537.225	437.69
537.44	423.69
537.654	426.69
537.868	422.69
538.082	417.69
538.296	424.69
538.51	408.69
538.724	427.69
538.938	438.69
539.153	425.69
539.367	418.69
539.581	424.69
539.795	429.69
540.009	426.69
540.222	392.69
540.436	411.69
540.65	417.69
540.864	426.69
541.078	411.69
541.292	428.69
541.506	409.69
541.72	410.69
541.934	429.69
542.147	437.69
542.361	424.69
542.575	416.69
542.789	412.69
543.002	427.69
543.216	396.69
543.43	408.69
543.644	438.69
543.857	417.69
544.071	414.69
544.285	415.69
544.498	412.69
544.712	416.69
544.925	419.69
545.139	426.69
545.352	416.69
545.566	384.69
545.779	404.69
545.993	413.69
546.206	428.69
546.42	436.69
546.633	430.69
546.847	441.69
547.06	427.69
547.274	427.69
547.487	403.69
547.7	424.69
547.914	408.69
548.127	420.69
548.34	395.69
548.554	404.69
548.767	396.69
548.98	397.69
549.193	399.69
549.407	407.69
549.62	402.69
549.833	397.69
550.046	409.69
550.259	403.69
550.473	372.69
550.686	398.69
550.899	398.69
551.112	403.69
551.325	394.69
551.538	412.69
551.751	410.69
551.964	396.69
552.177	404.69
552.39	403.69
552.603	400.69
552.816	394.69
553.029	410.69
553.242	418.69
553.455	436.69
553.667	428.69
553.88	438.69
554.093	412.69
554.306	411.69
554.519	397.69
554.732	405.69
554.944	384.69
555.157	373.69
555.37	394.69
555.583	380.69
555.795	376.69
556.008	388.69
556.221	400.69
556.433	384.69
556.646	379.69
556.859	368.69
557.071	362.69
557.284	378.69
557.496	363.69
557.709	370.69
557.921	358.69
558.134	372.69
558.346	390.69
558.559	375.69
558.771	380.69
558.984	370.69
559.196	361.69
559.409	354.69
559.621	360.69
559.833	370.69
560.046	365.69
560.258	360.69
560.47	358.69
560.683	346.69
560.895	347.69
561.107	368.69
561.32	376.69
561.532	372.69
561.744	345.69
561.956	358.69
562.168	356.69
562.381	370.69
562.593	374.69
562.805	372.69
563.017	338.69
563.229	368.69
563.441	370.69
563.653	366.69
563.865	348.69
564.077	364.69
564.289	376.69
564.501	372.69
564.713	378.69
564.925	377.69
565.137	396.69
565.349	376.69
565.561	373.69
565.773	380.69
565.985	408.69
566.197	392.69
566.408	398.69
566.62	386.69
566.832	414.69
567.044	418.69
567.255	410.69
567.467	420.69
567.679	442.69
567.891	415.69
568.102	427.69
568.314	438.69
568.526	418.69
568.737	397.69
568.949	364.69
569.161	374.69
569.372	374.69
569.584	378.69
569.795	373.69
570.007	373.69
570.218	389.69
570.43	388.69
570.641	380.69
570.853	357.69
571.064	344.69
571.276	353.69
571.487	339.69
571.698	329.69
571.91	328.69
572.121	329.69
572.333	318.69
572.544	325.69
572.755	323.69
572.966	325.69
573.178	348.69
573.389	328.69
573.6	304.69
573.811	323.69
574.023	310.69
574.234	318.69
574.445	312.69
574.656	306.69
574.867	301.69
575.078	296.69
575.289	325.69
575.501	299.69
575.712	318.69
575.923	333.69
576.134	301.69
576.345	315.69
576.556	308.69
576.767	314.69
576.978	314.69
577.188	313.69
577.399	297.69
577.61	291.69
577.821	312.69
578.032	309.69
578.243	324.69
578.454	469.69
578.665	373.69
578.875	292.69
579.086	301.69
579.297	297.69
579.508	291.69
579.718	289.69
579.929	283.69
580.14	296.69
580.35	281.69
580.561	286.69
580.772	281.69
580.982	283.69
581.193	283.69
581.403	302.69
581.614	294.69
581.825	293.69
582.035	279.69
582.246	276.69
582.456	261.69
582.667	266.69
582.877	287.69
583.087	276.69
583.298	295.69
583.508	294.69
583.719	300.69
583.929	286.69
584.139	289.69
584.35	273.69
584.56	277.69
584.77	277.69
584.981	282.69
585.191	286.69
585.401	291.69
585.611	278.69
585.821	275.69
586.032	274.69
586.242	266.69
586.452	294.69
586.662	262.69
586.872	272.69
587.082	282.69
587.292	278.69
587.502	279.69
587.713	262.69
587.923	269.69
588.133	262.69
588.343	285.69
588.553	260.69
588.762	283.69
588.972	278.69
589.182	271.69
589.392	278.69
589.602	283.69
589.812	280.69
590.022	277.69
590.232	277.69
590.441	274.69
590.651	266.69
590.861	267.69
591.071	269.69
591.281	267.69
591.49	271.69
591.7	272.69
591.91	268.69
592.119	265.69
592.329	272.69
592.539	277.69
592.748	276.69
592.958	273.69
593.167	286.69
593.377	258.69
593.587	291.69
593.796	281.69
594.006	264.69
594.215	284.69
594.424	270.69
594.634	278.69
594.843	280.69
595.053	280.69
595.262	278.69
595.472	258.69
595.681	253.69
595.89	268.69
596.1	268.69
596.309	268.69
596.518	259.69
596.727	279.69
596.937	263.69
597.146	262.69
597.355	265.69
597.564	267.69
597.774	257.69
597.983	238.69
598.192	265.69
598.401	259.69
598.61	258.69
598.819	258.69
599.028	259.69
599.237	253.69
599.446	261.69
599.655	252.69
599.864	235.69
600.073	238.69
600.282	259.69
600.491	236.69
600.7	238.69
600.909	233.69
601.118	238.69
601.327	260.69
601.536	248.69
601.745	233.69
601.953	260.69
602.162	246.69
602.371	247.69
602.58	252.69
602.789	249.69
602.997	227.69
603.206	246.69
603.415	270.69
603.623	221.69
603.832	229.69
604.041	223.69
604.249	207.69
604.458	244.69
604.666	246.69
604.875	225.69
605.084	253.69
605.292	238.69
605.501	237.69
605.709	245.69
605.918	249.69
606.126	240.69
606.334	233.69
606.543	240.69
606.751	247.69
606.96	260.69
607.168	240.69
607.376	246.69
607.585	237.69
607.793	248.69
608.001	237.69
608.21	253.69
608.418	231.69
608.626	249.69
608.834	221.69
609.043	237.69
609.251	237.69
609.459	237.69
609.667	253.69
609.875	226.69
610.083	229.69
610.291	237.69
610.499	245.69
610.707	248.69
610.916	229.69
611.124	230.69
611.332	246.69
611.54	256.69
611.748	244.69
611.955	244.69
612.163	252.69
612.371	239.69
612.579	237.69
612.787	238.69
612.995	215.69
613.203	229.69
613.411	232.69
613.618	227.69
613.826	227.69
614.034	225.69
614.242	223.69
614.449	230.69
614.657	222.69
614.865	226.69
615.072	233.69
615.28	231.69
615.488	219.69
615.695	230.69
615.903	224.69
616.111	210.69
616.318	237.69
616.526	250.69
616.733	219.69
616.941	226.69
617.148	229.69
617.356	234.69
617.563	231.69
617.771	221.69
617.978	230.69
618.185	216.69
618.393	226.69
618.6	220.69
618.807	215.69
619.015	222.69
619.222	219.69
619.429	216.69
619.637	221.69
619.844	200.69
620.051	202.69
620.258	196.69
620.466	219.69
620.673	214.69
620.88	225.69
621.087	214.69
621.294	199.69
621.501	230.69
621.708	228.69
621.915	221.69
622.122	228.69
622.329	213.69
622.536	236.69
622.743	241.69
622.95	204.69
623.157	229.69
623.364	213.69
623.571	202.69
623.778	230.69
623.985	226.69
624.192	216.69
624.399	215.69
624.606	205.69
624.812	208.69
625.019	215.69
625.226	224.69
625.433	208.69
625.639	188.69
625.846	180.69
626.053	196.69
626.259	201.69
626.466	204.69
626.673	200.69
626.879	164.69
627.086	204.69
627.293	197.69
627.499	198.69
627.706	213.69
627.912	200.69
628.119	202.69
628.325	197.69
628.532	203.69
628.738	202.69
628.945	186.69
629.151	197.69
629.357	201.69
629.564	178.69
629.77	189.69
629.976	192.69
630.183	184.69
630.389	198.69
630.595	189.69
630.802	190.69
631.008	183.69
631.214	187.69
631.42	192.69
631.627	206.69
631.833	183.69
632.039	174.69
632.245	171.69
632.451	192.69
632.657	181.69
632.863	190.69
633.069	188.69
633.275	162.69
633.481	171.69
633.688	178.69
633.893	196.69
634.099	182.69
634.305	186.69
634.511	187.69
634.717	180.69
634.923	172.69
635.129	181.69
635.335	168.69
635.541	200.69
635.747	196.69
635.952	174.69
636.158	172.69
636.364	180.69
636.57	182.69
636.775	180.69
636.981	175.69
637.187	179.69
637.392	174.69
637.598	178.69
637.804	153.69
638.009	192.69
638.215	161.69
638.421	156.69
638.626	168.69
638.832	169.69
639.037	188.69
639.243	169.69
639.448	178.69
639.654	173.69
639.859	160.69
640.065	156.69
640.27	167.69
640.475	164.69
640.681	157.69
640.886	173.69
641.091	171.69
641.297	166.69
641.502	168.69
641.707	172.69
641.913	165.69
642.118	165.69
642.323	159.69
642.528	179.69
642.733	169.69
642.939	176.69
643.144	167.69
643.349	162.69
643.554	163.69
643.759	153.69
643.964	156.69
644.169	159.69
644.374	161.69
644.579	159.69
644.784	155.69
644.989	160.69
645.194	173.69
645.399	160.69
645.604	161.69
645.809	159.69
646.014	183.69
646.219	150.69
646.423	150.69
646.628	170.69
646.833	153.69
647.038	178.69
647.243	176.69
647.447	169.69
647.652	158.69
647.857	162.69
648.062	158.69
648.266	183.69
648.471	151.69
648.676	159.69
648.88	162.69
649.085	172.69
649.289	168.69
649.494	171.69
649.698	185.69
649.903	178.69
650.107	158.69
650.312	160.69
650.516	134.69
650.721	150.69
650.925	145.69
651.13	160.69
651.334	157.69
651.539	134.69
651.743	133.69
651.947	150.69
652.152	145.69
652.356	148.69
652.56	157.69
652.764	132.69
652.969	142.69
653.173	147.69
653.377	125.69
653.581	133.69
653.785	132.69
653.99	132.69
654.194	142.69
654.398	144.69
654.602	134.69
654.806	141.69
655.01	145.69
655.214	132.69
655.418	128.69
655.622	128.69
655.826	132.69
656.03	124.69
656.234	143.69
656.438	138.69
656.642	123.69
656.846	124.69
657.049	125.69
657.253	128.69
657.457	96.69
657.661	113.69
657.865	101.69
658.068	130.69
658.272	100.69
658.476	109.69
658.68	116.69
658.883	88.69
659.087	110.69
659.291	101.69
659.494	96.69
659.698	93.69
659.901	104.69
660.105	89.69
660.309	114.69
660.512	94.69
660.716	99.69
660.919	105.69
661.123	102.69
661.326	87.69
661.53	82.69
661.733	99.69
661.936	73.69
662.14	73.69
662.343	83.69
662.546	84.69
662.75	92.69
662.953	80.69
663.156	72.69
663.36	84.69
663.563	94.69
663.766	79.69
663.969	94.69
664.173	81.69
664.376	79.69
664.579	89.69
664.782	87.69
664.985	64.69
665.188	81.69
665.391	76.69
665.594	84.69
665.797	75.69
666	68.69
666.203	70.69
666.406	91.69
666.609	85.69
666.812	81.69
667.015	104.69
667.218	79.69
667.421	91.69
667.624	87.69
667.827	83.69
668.03	78.69
668.232	83.69
668.435	84.69
668.638	77.69
668.841	78.69
669.043	78.69
669.246	97.69
669.449	82.69
669.651	73.69
669.854	64.69
670.057	64.69
670.259	69.69
670.462	93.69
670.665	86.69
670.867	90.69
671.07	92.69
671.272	83.69
671.475	89.69
671.677	86.69
671.88	74.69
672.082	88.69
672.284	70.69
672.487	81.69
672.689	87.69
672.892	87.69
